Speed, Forces
  77.190003, 25368.585920
  77.896272, 24447.168282
  78.602541, 23108.721232
  79.308811, 22272.947310
  80.015080, 21504.937945
  80.721349, 21008.374375
  81.427618, 20507.447046
  82.133887, 20050.900146
  82.840157, 19714.172674
  83.546426, 19374.562078
  84.252695, 19032.068360
  84.958964, 18733.538340
  85.665233, 18466.294231
  86.371503, 18196.837701
  87.077772, 17925.168751
  87.784041, 17668.044454
  88.490310, 17447.412875
  89.196579, 17225.013310
  89.902848, 17000.845760
  90.609118, 16774.910223
  91.315387, 16572.933818
  92.021656, 16393.132605
  92.727925, 16211.946095
  93.434194, 16029.374290
  94.140464, 15845.417188
  94.846733, 15665.688255
  95.553002, 15522.130924
  96.259271, 15377.508568
  96.965540, 15231.821189
  97.671810, 15085.068786
  98.378079, 14937.251359
  99.084348, 14788.368909
  99.790617, 14680.583771
 100.496886, 14572.396780
 101.203155, 14463.446795
 101.909425, 14353.733814
 102.615694, 14243.257840
 103.321963, 14132.018870
 104.028232, 14020.016907
 104.734501, 13948.429640
 105.440771, 13880.268634
 106.147040, 13811.649533
 106.853309, 13742.572338
 107.559578, 13673.037050
 108.265847, 13603.043667
 108.972117, 13532.592190
 109.678386, 13461.682619
 110.384655, 13414.472343
 111.090924, 13381.068249
 111.797193, 13347.451109
 112.503462, 13313.620923
 113.209732, 13279.577691
 113.916001, 13245.321412
 114.622270, 13210.852086
 115.328539, 13176.169715
 116.034808, 13141.274297
 116.741078, 13106.165832
 117.447347, 13096.232843
 118.153616, 13094.213327
 118.859885, 13092.181704
 119.566154, 13090.137972
 120.272424, 13088.082133
 120.978693, 13086.014185
 121.684962, 13083.934130
 122.391231, 13081.841966
 123.097500, 13079.737695
 123.803769, 13077.621316
 124.510039, 13075.492829
 125.216308, 13073.352233
 125.922577, 13094.134604
 126.628846, 13124.015025
 127.335115, 13154.062570
 128.041385, 13184.277238
 128.747654, 13214.659029
 129.453923, 13245.207944
 130.160192, 13275.923982
 130.866461, 13306.807144
 131.572731, 13337.857428
 132.279000, 13369.074837
 132.985269, 13400.459368
 133.691538, 13432.011023
 134.397807, 13463.729801
 135.104076, 13495.615703
 135.810346, 13527.668728
 136.516615, 13579.206947
 137.222884, 13645.451156
 137.929153, 13712.037195
 138.635422, 13778.965065
 139.341692, 13846.234765
 140.047961, 13913.846295
 140.754230, 13981.799656
 141.460499, 14050.094847
 142.166768, 14118.731869
 142.873038, 14187.710721
 143.579307, 14257.031403
 144.285576, 14326.693916
 144.991845, 14396.698259
 145.698114, 14467.044433
 146.404383, 14537.732437
 147.110653, 14608.762272
