Speed, Forces
  72.031476, 25368.585920
  72.814198, 24150.441866
  73.596921, 22795.986409
  74.379644, 21799.242394
  75.162367, 21132.691043
  75.945090, 20538.588153
  76.727813, 20008.730829
  77.510535, 19608.075868
  78.293258, 19203.354450
  79.075981, 18816.318379
  79.858704, 18499.506517
  80.641427, 18179.574180
  81.424150, 17856.521368
  82.206872, 17571.399658
  82.989595, 17308.255014
  83.772318, 17042.616741
  84.555041, 16774.484840
  85.337764, 16538.969194
  86.120486, 16324.968091
  86.903209, 16109.013118
  87.685932, 15891.104275
  88.468655, 15674.273335
  89.251378, 15503.739463
  90.034101, 15331.703444
  90.816823, 15158.165279
  91.599546, 14983.124968
  92.382269, 14806.582510
  93.164992, 14673.503105
  93.947715, 14544.873866
  94.730438, 14415.168473
  95.513160, 14284.386926
  96.295883, 14152.529225
  97.078606, 14019.595371
  97.861329, 13935.421246
  98.644052, 13854.316914
  99.426774, 13772.566470
 100.209497, 13690.169914
 100.992220, 13607.127247
 101.774943, 13523.438468
 102.557666, 13439.103577
 103.340389, 13397.640309
 104.123111, 13357.817602
 104.905834, 13317.694407
 105.688557, 13277.270724
 106.471280, 13236.546554
 107.254003, 13195.521895
 108.036725, 13154.196749
 108.819448, 13112.571114
 109.602171, 13096.221515
 110.384894, 13093.821673
 111.167617, 13091.404754
 111.950340, 13088.970758
 112.733062, 13086.519684
 113.515785, 13084.051533
 114.298508, 13081.566304
 115.081231, 13079.063998
 115.863954, 13076.544614
 116.646677, 13074.008153
 117.429399, 13090.613734
 118.212122, 13126.095395
 118.994845, 13161.812773
 119.777568, 13197.765867
 120.560291, 13233.954678
 121.343013, 13270.379206
 122.125736, 13307.039450
 122.908459, 13343.935410
 123.691182, 13381.067088
 124.473905, 13418.434481
 125.256628, 13456.037592
 126.039350, 13493.876419
 126.822073, 13531.950962
 127.604796, 13600.422315
 128.387519, 13679.263402
 129.170242, 13758.586619
 129.952964, 13838.391966
 130.735687, 13918.679442
 131.518410, 13999.449047
 132.301133, 14080.700782
 133.083856, 14162.434646
 133.866579, 14244.650640
 134.649301, 14327.348763
 135.432024, 14410.529016
 136.214747, 14494.191398
 136.997470, 14578.335910
 137.780193, 14662.962551
 138.562916, 14748.071321
 139.345638, 14833.662221
 140.128361, 14920.768625
 140.911084, 15038.711948
 141.693807, 15157.312239
 142.476530, 15276.569497
 143.259252, 15396.483724
 144.041975, 15517.054918
 144.824698, 15638.283080
 145.607421, 15760.168210
 146.390144, 15882.710308
 147.172867, 16005.909373
 147.955589, 16129.765406
 148.738312, 16254.278407
 149.521035, 16379.448376
