Speed, Forces
  77.190003, 24828.445448
  77.896272, 24709.416538
  78.602541, 24590.524844
  79.308811, 24471.633149
  80.015080, 24352.741455
  80.721349, 24233.849761
  81.427618, 24114.958066
  82.133887, 23996.066372
  82.840157, 23877.174678
  83.546426, 23758.282984
  84.252695, 23639.391289
  84.958964, 23520.499595
  85.665233, 23401.607901
  86.371503, 23282.716206
  87.077772, 23163.824512
  87.784041, 23044.932818
  88.490310, 22932.790975
  89.196579, 22831.685396
  89.902848, 22730.579817
  90.609118, 22629.474238
  91.315387, 22528.368658
  92.021656, 22427.263079
  92.727925, 22326.157500
  93.434194, 22225.051921
  94.140464, 22123.946342
  94.846733, 22022.840762
  95.553002, 21921.735183
  96.259271, 21820.629604
  96.965540, 21719.524025
  97.671810, 21618.418446
  98.378079, 21517.312866
  99.084348, 21416.207287
  99.790617, 21326.093634
 100.496886, 21239.349685
 101.203155, 21152.605735
 101.909425, 21065.861786
 102.615694, 20979.117836
 103.321963, 20892.373887
 104.028232, 20805.629938
 104.734501, 20718.885988
 105.440771, 20632.142039
 106.147040, 20545.398089
 106.853309, 20458.654140
 107.559578, 20371.910191
 108.265847, 20285.166241
 108.972117, 20198.422292
 109.678386, 20111.678342
 110.384655, 20026.372449
 111.090924, 19949.138160
 111.797193, 19871.903872
 112.503462, 19794.669584
 113.209732, 19717.435296
 113.916001, 19640.201008
 114.622270, 19562.966719
 115.328539, 19485.732431
 116.034808, 19408.498143
 116.741078, 19331.263855
 117.447347, 19254.029566
 118.153616, 19176.795278
 118.859885, 19099.560990
 119.566154, 19022.326702
 120.272424, 18945.092414
 120.978693, 18867.858125
 121.684962, 18795.733951
 122.391231, 18728.014165
 123.097500, 18660.294378
 123.803769, 18592.574592
 124.510039, 18524.854805
 125.216308, 18457.135018
 125.922577, 18389.415232
 126.628846, 18321.695445
 127.335115, 18253.975659
 128.041385, 18186.255872
 128.747654, 18118.536086
 129.453923, 18050.816299
 130.160192, 17983.096512
 130.866461, 17915.376726
 131.572731, 17847.656939
 132.279000, 17779.937153
 132.985269, 17719.960801
 133.691538, 17660.630981
 134.397807, 17601.301161
 135.104076, 17541.971341
 135.810346, 17482.641522
 136.516615, 17423.311702
 137.222884, 17363.981882
 137.929153, 17304.652062
 138.635422, 17245.322242
 139.341692, 17185.992423
 140.047961, 17126.662603
 140.754230, 17067.332783
 141.460499, 17008.002963
 142.166768, 16948.673144
 142.873038, 16889.343324
 143.579307, 16831.961260
 144.285576, 16778.938812
 144.991845, 16725.916365
 145.698114, 16672.893917
 146.404383, 16619.871469
 147.110653, 16566.849022
