Speed, Forces
  67.362411, 33641.970937
  68.216266, 33410.394622
  69.070122, 33201.328510
  69.923978, 32995.314039
  70.777834, 32789.299568
  71.631689, 32583.285097
  72.485545, 32377.270626
  73.339401, 32171.256155
  74.193257, 31965.241684
  75.047112, 31759.227213
  75.900968, 31553.212742
  76.754824, 31347.198271
  77.608680, 31141.183800
  78.462536, 30935.169329
  79.316391, 30729.154858
  80.170247, 30536.329358
  81.024103, 30354.497644
  81.877959, 30172.665931
  82.731814, 29990.834217
  83.585670, 29809.002504
  84.439526, 29627.170791
  85.293382, 29445.339077
  86.147237, 29263.507364
  87.001093, 29081.675650
  87.854949, 28899.843937
  88.708805, 28718.012224
  89.562660, 28536.180510
  90.416516, 28354.348797
  91.270372, 28176.458750
  92.124228, 28013.383330
  92.978083, 27850.307910
  93.831939, 27687.232490
  94.685795, 27524.157070
  95.539651, 27361.081650
  96.393506, 27198.006230
  97.247362, 27034.930810
  98.101218, 26871.855390
  98.955074, 26708.779970
  99.808930, 26545.704550
 100.662785, 26382.629130
 101.516641, 26219.553710
 102.370497, 26056.478290
 103.224353, 25906.260493
 104.078208, 25757.880814
 104.932064, 25609.501135
 105.785920, 25461.121456
 106.639776, 25312.741777
 107.493631, 25164.362099
 108.347487, 25015.982420
 109.201343, 24867.602741
 110.055199, 24719.223062
 110.909054, 24570.843383
 111.762910, 24422.463704
 112.616766, 24274.084026
 113.470622, 24125.704347
 114.324477, 23987.831885
 115.178333, 23858.921544
 116.032189, 23730.011203
 116.886045, 23601.100862
 117.739900, 23472.190521
 118.593756, 23343.280180
 119.447612, 23214.369839
 120.301468, 23085.459498
 121.155324, 22956.549158
 122.009179, 22827.638817
 122.863035, 22698.728476
 123.716891, 22569.818135
 124.570747, 22440.907794
 125.424602, 22315.234817
 126.278458, 22202.158958
 127.132314, 22089.083098
 127.986170, 21976.007239
 128.840025, 21862.931379
 129.693881, 21749.855519
 130.547737, 21636.779660
 131.401593, 21523.703800
 132.255448, 21410.627940
 133.109304, 21297.552081
 133.963160, 21184.476221
 134.817016, 21071.400362
 135.670871, 20958.324502
 136.524727, 20845.248642
 137.378583, 20743.102367
 138.232439, 20642.600682
 139.086294, 20542.098998
 139.940150, 20441.597314
 140.794006, 20341.095629
 141.647862, 20240.593945
 142.501718, 20140.092261
 143.355573, 20039.590576
 144.209429, 19939.088892
 145.063285, 19838.587207
 145.917141, 19738.085523
 146.770996, 19637.583839
 147.624852, 19537.082154
 148.478708, 19441.680296
 149.332564, 19350.729227
 150.186419, 19259.778158
 151.040275, 19168.827089
 151.894131, 19077.876020
