Speed, Forces
  63.123387, 38178.208534
  64.043673, 37890.124758
  64.963958, 37602.040981
  65.884244, 37313.957205
  66.804529, 37025.873429
  67.724815, 36737.789653
  68.645101, 36449.705877
  69.565386, 36171.577153
  70.485672, 35930.278429
  71.405957, 35688.979705
  72.326243, 35447.680980
  73.246529, 35206.382256
  74.166814, 34965.083532
  75.087100, 34723.784808
  76.007385, 34482.486083
  76.927671, 34241.187359
  77.847957, 33999.888635
  78.768242, 33758.589911
  79.688528, 33517.291187
  80.608814, 33275.992462
  81.529099, 33048.107038
  82.449385, 32827.452510
  83.369670, 32606.797981
  84.289956, 32386.143452
  85.210242, 32165.488923
  86.130527, 31944.834394
  87.050813, 31724.179866
  87.971098, 31503.525337
  88.891384, 31282.870808
  89.811670, 31062.216279
  90.731955, 30841.561750
  91.652241, 30620.907222
  92.572526, 30401.490849
  93.492812, 30195.119546
  94.413098, 29988.748243
  95.333383, 29782.376940
  96.253669, 29576.005637
  97.173954, 29369.634334
  98.094240, 29163.263031
  99.014526, 28956.891727
  99.934811, 28750.520424
 100.855097, 28544.149121
 101.775382, 28337.777818
 102.695668, 28131.406515
 103.615954, 27925.035212
 104.536239, 27723.879648
 105.456525, 27527.468881
 106.376810, 27331.058114
 107.297096, 27134.647347
 108.217382, 26938.236580
 109.137667, 26741.825813
 110.057953, 26545.415045
 110.978238, 26349.004278
 111.898524, 26152.593511
 112.818810, 25956.182744
 113.739095, 25759.771977
 114.659381, 25563.361210
 115.579667, 25366.950443
 116.499952, 25194.379120
 117.420238, 25022.786011
 118.340523, 24851.192902
 119.260809, 24679.599793
 120.181095, 24508.006684
 121.101380, 24336.413575
 122.021666, 24164.820466
 122.941951, 23993.227357
 123.862237, 23821.634248
 124.782523, 23650.041139
 125.702808, 23478.448031
 126.623094, 23306.854922
 127.543379, 23142.558360
 128.463665, 22989.319576
 129.383951, 22836.080791
 130.304236, 22682.842007
 131.224522, 22529.603223
 132.144807, 22376.364439
 133.065093, 22223.125655
 133.985379, 22069.886871
 134.905664, 21916.648086
 135.825950, 21763.409302
 136.746235, 21610.170518
 137.666521, 21456.931734
 138.586807, 21303.692950
 139.507092, 21161.702810
 140.427378, 21021.943823
 141.347663, 20882.184835
 142.267949, 20742.425847
 143.188235, 20602.666859
 144.108520, 20462.907871
 145.028806, 20323.148884
 145.949091, 20183.389896
 146.869377, 20043.630908
 147.789663, 19903.871920
 148.709948, 19764.112933
 149.630234, 19624.353945
 150.550520, 19485.725990
 151.470805, 19350.133848
 152.391091, 19214.541706
 153.311376, 19078.949564
 154.231662, 18943.357422
