Speed, Forces
  59.263685, 41283.268578
  60.246225, 40938.264061
  61.228766, 40593.259545
  62.211307, 40248.255028
  63.193848, 39903.250511
  64.176389, 39558.245994
  65.158929, 39213.241477
  66.141470, 38868.236961
  67.124011, 38523.232444
  68.106552, 38178.227927
  69.089093, 37833.223410
  70.071633, 37488.218894
  71.054174, 37169.623794
  72.036715, 36864.630597
  73.019256, 36559.637401
  74.001796, 36254.644204
  74.984337, 35949.651007
  75.966878, 35644.657810
  76.949419, 35339.664613
  77.931960, 35034.671416
  78.914500, 34729.678219
  79.897041, 34424.685022
  80.879582, 34119.691825
  81.862123, 33814.698628
  82.844663, 33533.433959
  83.827204, 33261.522655
  84.809745, 32989.611350
  85.792286, 32717.700046
  86.774827, 32445.788742
  87.757367, 32173.877437
  88.739908, 31901.966133
  89.722449, 31630.054829
  90.704990, 31358.143525
  91.687530, 31086.232220
  92.670071, 30814.320916
  93.652612, 30542.409612
  94.635153, 30294.432149
  95.617694, 30053.424003
  96.600234, 29812.415857
  97.582775, 29571.407710
  98.565316, 29330.399564
  99.547857, 29089.391418
 100.530398, 28848.383271
 101.512938, 28607.375125
 102.495479, 28366.366979
 103.478020, 28125.358832
 104.460561, 27884.350686
 105.443101, 27643.342540
 106.425642, 27425.990542
 107.408183, 27213.425641
 108.390724, 27000.860740
 109.373265, 26788.295838
 110.355805, 26575.730937
 111.338346, 26363.166036
 112.320887, 26150.601135
 113.303428, 25938.036234
 114.285968, 25725.471333
 115.268509, 25512.906432
 116.251050, 25300.341531
 117.233591, 25087.776630
 118.216132, 24898.778719
 119.198672, 24712.726234
 120.181213, 24526.673750
 121.163754, 24340.621265
 122.146295, 24154.568781
 123.128835, 23968.516297
 124.111376, 23782.463812
 125.093917, 23596.411328
 126.076458, 23410.358843
 127.058999, 23224.306359
 128.041539, 23038.253874
 129.024080, 22852.201390
 130.006621, 22682.812881
 130.989162, 22514.373328
 131.971703, 22345.933776
 132.954243, 22177.494224
 133.936784, 22009.054672
 134.919325, 21840.615120
 135.901866, 21672.175567
 136.884406, 21503.736015
 137.866947, 21335.296463
 138.849488, 21166.856911
 139.832029, 20998.417359
 140.814570, 20830.015045
 141.797110, 20672.761868
 142.779651, 20515.508690
 143.762192, 20358.255513
 144.744733, 20201.002335
 145.727273, 20043.749158
 146.709814, 19886.495981
 147.692355, 19729.242803
 148.674896, 19571.989626
 149.657437, 19414.736449
 150.639977, 19257.483271
 151.622518, 19100.230094
 152.605059, 18942.989678
 153.587600, 18785.947274
 154.570140, 18628.904869
 155.552681, 18471.862465
 156.535222, 18314.820060
