Speed, Forces
 139.439872, 3288.993670
 140.999151, 3261.933518
 142.558431, 3235.207764
 144.117711, 3210.320909
 145.676990, 3187.179059
 147.236270, 3165.684618
 148.795550, 3145.736283
 150.354829, 3127.229047
 151.914109, 3110.650622
 153.473389, 3095.495592
 155.032668, 3081.544200
 156.591948, 3068.862162
 158.151228, 3058.002870
 159.710507, 3048.086909
 161.269787, 3039.311829
 162.829067, 3032.195139
 164.388346, 3025.738629
 165.947626, 3020.858850
 167.506906, 3016.876058
 169.066185, 3013.918912
 170.625465, 3012.229088
 172.184745, 3011.201377
 173.744024, 3011.612657
 175.303304, 3012.517477
 176.862584, 3014.826885
 178.421863, 3017.663628
 179.981143, 3021.657072
 181.540423, 3026.421425
 183.099702, 3031.873701
 184.658982, 3038.557648
 186.218262, 3045.298274
 187.777541, 3053.824257
 189.336821, 3062.487718
 190.896101, 3071.958392
 192.455380, 3082.528646
 194.014660, 3093.184888
 195.573940, 3105.139676
 197.133219, 3117.696691
 198.692499, 3130.353423
 200.251779, 3144.458327
 201.811058, 3159.004873
 203.370338, 3173.664247
 204.929618, 3189.563042
 206.488897, 3206.096331
 208.048177, 3222.754943
 209.607457, 3240.069175
 211.166736, 3258.580864
 212.726016, 3277.229752
 214.285296, 3296.015839
 215.844575, 3316.034930
 217.403855, 3336.659576
 218.963135, 3357.432680
 220.522414, 3378.354242
 222.081694, 3400.581975
 223.640974, 3423.321403
 225.200253, 3446.219931
 226.759533, 3469.277559
 228.318813, 3493.180670
 229.878092, 3518.029297
 231.437372, 3543.047048
 232.996652, 3568.233922
 234.555931, 3593.589921
 236.115211, 3620.186937
 237.674491, 3647.310301
 239.233770, 3674.612194
 240.793050, 3702.092619
 242.352330, 3729.751573
 243.911609, 3758.346686
 245.470889, 3787.741962
 247.030169, 3817.324558
 248.589448, 3847.094474
 250.148728, 3877.051709
 251.708008, 3907.196263
 253.267287, 3938.548646
 254.826567, 3970.399241
 256.385847, 4002.445329
 257.945126, 4034.686907
 259.504406, 4067.123977
 261.063686, 4099.756538
 262.622965, 4132.958732
 264.182245, 4167.258409
 265.741525, 4201.761133
 267.300804, 4236.466902
 268.860084, 4271.375717
 270.419364, 4306.487578
 271.978643, 4341.802485
 273.537923, 4377.320437
 275.097203, 4414.227128
 276.656482, 4451.378502
 278.215762, 4488.739859
 279.775042, 4526.311198
 281.334321, 4564.092521
 282.893601, 4602.083826
 284.452881, 4640.285114
 286.012160, 4678.696384
 287.571440, 4718.015967
 289.130720, 4758.015851
 290.689999, 4798.232037
 292.249279, 4838.664526
 293.808559, 4879.313316
