Speed, Forces
 150.837183, 3288.993670
 152.227053, 3266.993342
 153.616923, 3244.591990
 155.006794, 3223.299046
 156.396664, 3203.026737
 157.786534, 3184.465403
 159.176404, 3166.834749
 160.566275, 3150.026313
 161.956145, 3134.740530
 163.346015, 3120.352746
 164.735886, 3106.645841
 166.125756, 3094.558290
 167.515626, 3082.956225
 168.905496, 3072.527099
 170.295367, 3062.969048
 171.685237, 3054.133268
 173.075107, 3046.478269
 174.464977, 3039.240829
 175.854848, 3033.340374
 177.244718, 3027.703754
 178.634588, 3023.401788
 180.024459, 3019.365953
 181.414329, 3016.498875
 182.804199, 3014.061274
 184.194069, 3012.457939
 185.583940, 3011.613505
 186.973810, 3011.095221
 188.363680, 3011.836373
 189.753550, 3012.583014
 191.143421, 3014.533541
 192.533291, 3016.867089
 193.923161, 3019.498615
 195.313032, 3023.406037
 196.702902, 3027.341365
 198.092772, 3031.980886
 199.482642, 3037.485121
 200.872513, 3043.027840
 202.262383, 3049.417261
 203.652253, 3056.520566
 205.042124, 3063.672516
 206.431994, 3071.538650
 207.821864, 3080.239510
 209.211734, 3088.998755
 210.601605, 3098.053324
 211.991475, 3108.346452
 213.381345, 3118.707285
 214.771215, 3129.135825
 216.161086, 3140.523250
 217.550956, 3152.476192
 218.940826, 3164.505742
 220.330697, 3176.611901
 221.720567, 3189.960926
 223.110437, 3203.577814
 224.500307, 3217.279793
 225.890178, 3231.066864
 227.280048, 3245.981078
 228.669918, 3261.261013
 230.059788, 3276.634104
 231.449659, 3292.100351
 232.839529, 3308.158190
 234.229399, 3325.095243
 235.619270, 3342.133097
 237.009140, 3359.271751
 238.399010, 3376.511205
 239.788880, 3394.609710
 241.178751, 3413.300947
 242.568621, 3432.100210
 243.958491, 3451.007498
 245.348361, 3470.022812
 246.738232, 3489.621585
 248.128102, 3510.064628
 249.517972, 3530.622502
 250.907843, 3551.295209
 252.297713, 3572.082746
 253.687583, 3592.985116
 255.077453, 3614.789841
 256.467324, 3637.097242
 257.857194, 3659.525860
 259.247064, 3682.075698
 260.636935, 3704.746754
 262.026805, 3727.539029
 263.416675, 3750.858811
 264.806545, 3775.027549
 266.196416, 3799.323474
 267.586286, 3823.746585
 268.976156, 3848.296883
 270.366026, 3872.974366
 271.755897, 3897.779037
 273.145767, 3923.084998
 274.535637, 3949.237244
 275.925508, 3975.522225
 277.315378, 4001.939941
 278.705248, 4028.490391
 280.095118, 4055.173577
 281.484989, 4081.989497
 282.874859, 4108.938152
 284.264729, 4136.526421
 285.654599, 4164.792185
 287.044470, 4193.195814
 288.434340, 4221.737307
