Speed, Forces
 163.651921, 4724.639562
 164.857059, 4703.603129
 166.062198, 4682.566695
 167.267337, 4661.530261
 168.472476, 4640.493827
 169.677615, 4619.457393
 170.882754, 4598.420959
 172.087893, 4577.384525
 173.293032, 4556.348091
 174.498171, 4535.311657
 175.703310, 4514.275223
 176.908449, 4493.238789
 178.113588, 4472.202356
 179.318727, 4451.165922
 180.523865, 4430.129488
 181.729004, 4409.093054
 182.934143, 4388.056620
 184.139282, 4367.020186
 185.344421, 4350.000114
 186.549560, 4334.977555
 187.754699, 4319.954996
 188.959838, 4304.932438
 190.164977, 4289.909879
 191.370116, 4274.887320
 192.575255, 4259.864761
 193.780394, 4244.842203
 194.985533, 4229.819644
 196.190672, 4214.797085
 197.395810, 4199.774526
 198.600949, 4184.751968
 199.806088, 4169.729409
 201.011227, 4154.706850
 202.216366, 4139.684291
 203.421505, 4124.661733
 204.626644, 4109.639174
 205.831783, 4094.616615
 207.036922, 4079.594056
 208.242061, 4064.571498
 209.447200, 4049.548939
 210.652339, 4034.526380
 211.857478, 4019.503821
 213.062616, 4004.481262
 214.267755, 3989.458704
 215.472894, 3974.848918
 216.678033, 3962.641114
 217.883172, 3950.433310
 219.088311, 3938.225506
 220.293450, 3926.017702
 221.498589, 3913.809897
 222.703728, 3901.602093
 223.908867, 3889.394289
 225.114006, 3877.186485
 226.319145, 3864.978680
 227.524284, 3852.770876
 228.729423, 3840.563072
 229.934561, 3828.355268
 231.139700, 3816.147464
 232.344839, 3803.939659
 233.549978, 3791.731855
 234.755117, 3779.524051
 235.960256, 3767.316247
 237.165395, 3755.108443
 238.370534, 3742.900638
 239.575673, 3730.692834
 240.780812, 3718.485030
 241.985951, 3706.277226
 243.191090, 3694.069421
 244.396229, 3681.861617
 245.601367, 3669.653813
 246.806506, 3658.797294
 248.011645, 3648.750014
 249.216784, 3638.702733
 250.421923, 3628.655452
 251.627062, 3618.608172
 252.832201, 3608.560891
 254.037340, 3598.513611
 255.242479, 3588.466330
 256.447618, 3578.419050
 257.652757, 3568.371769
 258.857896, 3558.324488
 260.063035, 3548.277208
 261.268173, 3538.229927
 262.473312, 3528.182647
 263.678451, 3518.135366
 264.883590, 3508.088086
 266.088729, 3498.040805
 267.293868, 3487.993524
 268.499007, 3477.946244
 269.704146, 3467.898963
 270.909285, 3457.851683
 272.114424, 3447.804402
 273.319563, 3437.757122
 274.524702, 3427.709841
 275.729841, 3417.662560
 276.934980, 3407.814487
 278.140118, 3399.678234
 279.345257, 3391.541982
 280.550396, 3383.405730
 281.755535, 3375.269477
 282.960674, 3367.133225
