Ground distance, Vertical Forces
   0.000000,    0.000000
   0.000000,    0.000000
   0.000006,    0.000000
   0.000054,    0.000000
   0.001226,    0.000000
   0.005208,    0.000000
   0.012180,    0.000000
   0.022034,    0.000000
   0.034834,    0.000000
   0.050646,    0.000000
   0.069385,    0.000000
   0.091116,    0.000000
   0.116078,    0.000000
   0.144283,    0.000000
   0.175647,    0.000000
   0.210347,    0.000000
   0.247870,    0.000000
   0.289132,    0.000000
   0.334020,    0.000000
   0.382009,    0.000000
   0.433144,    0.000000
   0.487976,    0.000000
   0.546808,    0.000000
   0.610573,    0.000000
   0.678004,    0.000000
   0.749448,    0.000000
   0.825692,    0.000000
   0.904702,    0.000000
   0.988142,    0.000000
   1.075992,    0.000000
   1.168868,    0.000000
   1.266739,    0.000000
   1.367491,    0.000000
   1.474305,    0.000000
   1.587052,    0.000000
   1.703862,    0.000000
   1.826705,    0.000000
   1.954031,    0.000000
   2.087747,    0.000000
   2.228970,    0.000000
   2.372548,    0.000000
   2.522632,    0.000000
   2.679805,    0.000000
   2.841946,    0.000000
   3.012001,    0.000000
   3.187568,    0.000000
   3.369605,    0.000000
   3.561334,    0.000000
   3.758829,    0.000000
   3.960707,    0.000000
   4.172858,    0.000000
   4.387173,    0.000000
   4.613044,    0.000000
   4.846684,    0.000000
   5.080836,    0.000000
   5.328148,    0.000000
   5.582063,    0.000000
   5.842758,    0.000000
   6.109030,    0.000000
   6.390221,    0.000000
   6.673104,    0.000000
   6.972224,    0.000000
   7.278258,    0.000000
   7.589991,    0.000000
   7.912451,    0.000000
   8.242704,    0.000000
   8.582706,    0.000000
   8.933889,    0.000000
   9.291451,    0.000000
   9.660467,    0.000000
  10.036340,    0.000000
  10.421097,    0.000000
  10.816838,    0.000000
  11.228745,    0.000000
  11.648507,    0.000000
  12.074036,    0.000000
  12.515173,    0.000000
  12.964179,    0.000000
  13.423002,    0.000000
  13.895445,    0.000000
  14.381103,    0.000000
  14.873667,    0.000000
  15.372599,    0.000000
  15.885375,    0.000000
  16.413703,    0.000000
  16.948265,    0.000000
  17.496454,    0.000000
  18.061617,    0.000000
  18.635411,    0.000000
  19.229062,    0.000000
  19.828899,    0.000000
  20.445826,    0.000000
  21.066362,    0.000000
  21.703470,    0.000000
  22.354490,    0.000000
  23.024499,    0.000000
  23.698244,    0.000000
  24.387530,    0.000000
  25.088776,    0.000000
  25.117278,    0.000000
  25.204813,    0.000000
  25.215389,    0.000000
  25.217400,    0.000000
  25.219797,    0.000000
  25.220499,    0.000000
  25.220625,    0.000000
  25.220702,    0.000000
  25.220792,    0.000000
  25.221697,    0.000000
  25.230752,    0.000000
  25.274522,    0.000000
  25.415966,    0.000000
  25.802349,    0.000000
  26.472008,    0.000000
  27.136488,    0.000000
  27.809638,    0.000000
  28.499724,    0.000000
  29.192980,    0.000000
  29.901402,    0.000000
  30.618349,    0.000000
  31.347197,    0.000000
  32.088296,    0.000000
  32.845610,    0.000000
  33.610900,    0.000000
  34.388540,    0.000000
  35.176717,    0.000000
  35.978134,    0.000000
  36.795132,    0.000000
  37.620406,    0.000000
  38.455126,    0.000000
  39.306604,    0.000000
  40.173925,    0.000000
  41.051509,    0.000000
  41.937183,    0.000000
  42.838248,    0.000000
  43.750245,    0.000000
  44.677091,    0.000000
  45.618379,    0.000000
  46.573272,    0.000000
  47.545030,    0.000000
  48.531676,    0.000000
  49.522424,    0.000000
  50.545311,    0.000000
  51.566421,    0.000000
  52.593496,    0.000000
  53.648233,    0.000000
  54.715513,    0.000000
  55.801741,    0.000000
  56.897089,    0.000000
  58.005808,    0.000000
  59.122356,    0.000000
  60.256824,    0.000000
  61.412241,    0.000000
  62.574501,    0.000000
  63.753757,    0.000000
  64.951577,    0.000000
  66.169197,    0.000000
  67.396499,    0.000000
  68.632369,    0.000000
  69.892273,    0.000000
  71.174402,    0.000000
  72.465644,    0.000000
  73.766970,    0.000000
  75.086477,    0.000000
  76.419443,    0.000000
  77.769412,    0.000000
  79.136448,    0.000000
  80.524081,    0.000000
  81.920471,    0.000000
  83.331621,    0.000000
  84.764137,    0.000000
  86.206330,    0.000000
  87.668521,    0.000000
  89.158850,    0.000000
  90.655615,    0.000000
  92.174165,    0.000000
  93.701946,    0.000000
  95.251615,    0.000000
  96.816520,    0.000000
  98.398557,    0.000000
  99.994870,    0.000000
 101.613219,    0.000000
 103.252239,    0.000000
 103.583892,    0.000000
 103.801931,    0.000000
 103.948145,    0.000000
 104.062875,    0.000000
 104.156593,    0.000000
 104.239910,    0.000000
 104.304493,    0.000000
 104.357876,    0.000000
 104.417485,    0.000000
 104.471323,    0.000000
 104.481529,    0.000000
 104.493736,    0.000000
 104.507622,    0.000000
 104.510885,    0.000000
 104.517103,    0.000000
 104.518810,    0.000000
 104.519652,    0.000000
 104.520228,    0.000000
 104.520631,    0.000000
 104.520759,    0.000000
 104.520881,    0.000000
 104.522106,    0.000000
 104.533785,    0.000000
 104.603681,    0.000000
 104.897754,    0.000000
 105.942511,    0.000000
 107.472856,    0.000000
 108.978526,    0.000000
 110.502935,    0.000000
 112.042803,    0.000000
 113.584332,    0.000000
 115.147503,    0.000000
 116.725448,    0.000000
 118.316763,    0.000000
 119.921712,    0.000000
 121.538098,    0.000000
 123.172334,    0.000000
 124.824848,    0.000000
 126.489157,    0.000000
 128.166270,    0.000000
 129.855950,    0.000000
 131.563851,    0.000000
 133.280955,    0.000000
 135.018392,    0.000000
 136.769697,    0.000000
 138.533868,    0.000000
 140.312013,    0.000000
 142.112552,    0.000000
 143.933853,    0.000000
 145.769592,    0.000000
 147.612566,    0.000000
 149.477314,    0.000000
 151.365477,    0.000000
 153.256031,    0.000000
 155.159059,    0.000000
 157.086051,    0.000000
 159.021640,    0.000000
 160.978865,    0.000000
 162.949349,    0.000000
 164.938795,    0.000000
 166.947190,    0.000000
 168.967404,    0.000000
 171.010648,    0.000000
 173.054425,    0.000000
 175.131118,    0.000000
 177.217525,    0.000000
 179.322177,    0.000000
 181.446169,    0.000000
 183.581283,    0.000000
 185.728530,    0.000000
 187.901315,    0.000000
 190.093240,    0.000000
 192.294777,    0.000000
 194.517173,    0.000000
 196.755201,    0.000000
 199.008325,    0.000000
 201.279946,    0.000000
 203.563899,    0.000000
 205.872024,    0.000000
 208.200596,    0.000000
 210.541944,    0.000000
 212.903013,    0.000000
 215.278975,    0.000000
 217.670972,    0.000000
 220.083695,    0.000000
 222.512690,    0.000000
 224.962685,    0.000000
 227.427946,    0.000000
 229.904580,    0.000000
 232.392684,    0.000000
 234.911130,    0.000000
 237.446279,    0.000000
 239.997540,    0.000000
 242.564511,    0.000000
 245.152359,    0.000000
 245.675619,    0.000000
 246.035474,    0.000000
 246.285447,    0.000000
 246.323879,    0.000000
 246.363886,    0.000000
 246.406558,    0.000000
 246.457443,    0.000000
 246.460431,    0.000000
 246.462208,    0.000000
 246.463531,    0.000000
 246.464456,    0.000000
 246.465080,    0.000000
 246.465346,    0.000000
 246.465605,    0.000000
 246.468192,    0.000000
 246.493218,    0.000000
 246.692071,    0.000000
 247.407140,    0.000000
 249.878101,    0.000000
 252.171543,    0.000000
 254.480863,    0.000000
 256.811501,    0.000000
 259.148086,    0.000000
 261.498542,    0.000000
 263.871338,    0.000000
 266.253386,    0.000000
 268.650711,    0.000000
 271.067284,    0.000000
 273.491307,    0.000000
 275.921883,    0.000000
 278.368909,    0.000000
 280.840727,    0.000000
 283.320441,    0.000000
 285.820501,    0.000000
 288.332124,    0.000000
 290.856162,    0.000000
 293.394041,    0.000000
 295.948057,    0.000000
 298.516010,    0.000000
 301.106172,    0.000000
 303.709962,    0.000000
 306.324348,    0.000000
 308.953225,    0.000000
 311.598494,    0.000000
 314.261166,    0.000000
 316.943359,    0.000000
 319.634382,    0.000000
 322.347078,    0.000000
 325.062053,    0.000000
 327.797645,    0.000000
 330.552031,    0.000000
 333.314942,    0.000000
 336.097290,    0.000000
 338.902614,    0.000000
 341.719176,    0.000000
 344.551980,    0.000000
 347.394131,    0.000000
 350.251980,    0.000000
 353.123780,    0.000000
 356.017104,    0.000000
 358.925257,    0.000000
 361.846893,    0.000000
 364.774378,    0.000000
 367.733163,    0.000000
 370.698635,    0.000000
 373.676925,    0.000000
 376.675422,    0.000000
 379.693678,    0.000000
 382.725635,    0.000000
 385.773368,    0.000000
 388.833701,    0.000000
 391.914288,    0.000000
 395.008086,    0.000000
 398.113991,    0.000000
 401.240823,    0.000000
 404.384423,    0.000000
 407.538109,    0.000000
 410.714331,    0.000000
 413.911140,    0.000000
 417.116820,    0.000000
 420.341762,    0.000000
 423.577625,    0.000000
 426.831733,    0.000000
 430.099642,    0.000000
 433.384318,    0.000000
 436.684611,    0.000000
 439.999145,    0.000000
 443.340562,    0.000000
 446.696369,    0.000000
 450.069577,    0.000000
 453.451077,    0.000000
 456.847793,    0.000000
 460.263720,    0.000000
 463.701138,    0.000000
 464.392721,    0.000000
 466.953019,    0.000000
 466.980732,    0.000000
 466.990979,    0.000000
 466.993432,    0.000000
 467.011721,    0.000000
 467.028215,    0.000000
 467.136889,    0.000000
 467.761878,    0.000000
 470.660633,    0.000000
 474.110439,    0.000000
 477.586534,    0.000000
 481.083559,    0.000000
 484.596371,    0.000000
 488.134934,    0.000000
 491.681768,    0.000000
 495.241351,    0.000000
 498.831347,    0.000000
 502.428957,    0.000000
 506.042146,    0.000000
 509.678596,    0.000000
 513.340950,    0.000000
 517.004649,    0.000000
 520.694132,    0.000000
 524.401566,    0.000000
 528.122189,    0.000000
 531.853602,    0.000000
 535.613782,    0.000000
 539.389131,    0.000000
 543.177905,    0.000000
 546.992657,    0.000000
 550.816606,    0.000000
 554.649850,    0.000000
 558.504525,    0.000000
 562.379052,    0.000000
 566.268903,    0.000000
 570.184398,    0.000000
 574.108871,    0.000000
 578.054830,    0.000000
 582.012874,    0.000000
 585.996286,    0.000000
 589.989118,    0.000000
 593.996932,    0.000000
 598.027629,    0.000000
 602.073567,    0.000000
 606.142848,    0.000000
 610.224420,    0.000000
 614.328908,    0.000000
 618.447908,    0.000000
 622.592845,    0.000000
 626.754922,    0.000000
 630.928687,    0.000000
 635.118898,    0.000000
 639.328040,    0.000000
 643.552052,    0.000000
 646.210443,    0.000000
 647.795480,    0.000000
 652.051720,   76.520769
 656.332055,  280.491747
 660.636934,  482.542777
 664.964739,  682.693954
 669.314999,  880.870014
 673.684524, 1077.053269
 678.067216, 1271.108129
 682.479014, 1462.770363
 686.908412, 1652.759868
 691.352986, 1840.578561
 695.816369, 2026.137166
 700.305585, 2209.601533
 704.799839, 2391.288784
 709.316982, 2570.344773
 713.850293, 2747.525289
 718.397976, 2922.574099
 722.974688, 3095.426845
 727.555349, 3266.690569
 732.156064, 3435.399921
 736.768221, 3602.202347
 741.385338, 3766.802662
 746.021588, 3928.976934
 750.665623, 4089.280978
 755.320205, 4247.326360
 760.004774, 4403.214375
 764.688959, 4557.679015
 769.387760, 4709.673247
 769.707060, 4866.172551
 770.026659, 4876.253887
 770.346517, 4886.334120
 770.666469, 4896.412190
 770.985634, 4906.483891
 771.305846, 4916.517654
 771.626541, 4926.574606
 771.946328, 4936.638202
 772.266659, 4946.660649
 772.588248, 4956.688596
 772.909830, 4966.747256
 773.230806, 4976.795983
 773.552743, 4986.812961
 773.875332, 4996.849861
 774.197573, 5006.898000
 774.519804, 5016.924261
 774.843280, 5026.937848
 775.166073, 5036.982432
 775.489821, 5046.992834
 775.814011, 5057.023084
 776.138524, 5067.056681
 776.462115, 5077.091536
 776.787144, 5087.083850
 777.112609, 5097.111513
 777.437848, 5107.143102
 777.763689, 5117.155906
 778.088891, 5127.178558
 778.414358, 5137.169694
 778.740419, 5147.157979
 779.067289, 5157.153700
 779.394840, 5167.163861
 779.721906, 5177.186109
 780.049897, 5187.180821
 780.376949, 5197.196126
 780.705209, 5207.168984
 781.034164, 5217.168955
 781.362969, 5227.180843
 781.692620, 5237.176131
 782.021723, 5247.188679
 782.350646, 5257.173484
 782.681143, 5267.139702
 783.011000, 5277.146472
 783.341819, 5287.120898
 783.673760, 5297.113638
 784.005820, 5307.131265
 784.337858, 5317.142078
 784.670352, 5327.140945
 785.003191, 5337.143150
 785.333454, 5347.149651
 785.666370, 5357.060275
 785.999034, 5367.044505
 786.332839, 5377.008557
 786.667674, 5386.996414
 787.001570, 5397.007562
 787.337189, 5406.975992
 787.671885, 5416.989387
 788.007947, 5426.961179
 788.343023, 5436.966702
 788.679697, 5446.928399
 789.016387, 5456.929462
 789.353037, 5466.920537
 789.690854, 5476.898032
 790.028561, 5486.901504
 790.366997, 5496.889836
 790.706053, 5506.889339
 791.046119, 5516.895955
 791.386438, 5526.922900
 791.727725, 5536.945585
 792.068433, 5546.988477
 792.409917, 5557.001626
 792.478322, 5567.450287
 792.517043, 5569.502876
 792.537470, 5570.666827
 792.540633, 5571.292569
 792.544317, 5571.384513
 792.545586, 5571.496281
 792.546314, 5571.534356
 792.547813, 5571.554675
 792.549170, 5571.599029
 792.560454, 5571.624835
 792.602599, 5571.913077
 792.710364, 5573.060409
 792.968746, 5576.018175
 793.308340, 5583.505638
 793.649570, 5593.487931
 793.990955, 5603.510007
 794.334073, 5613.523904
 794.677987, 5623.579502
 795.020260, 5623.091116
 795.364633, 5622.600304
 795.709446, 5622.109443
 796.055532, 5621.617348
 796.400918, 5621.126829
 796.746847, 5620.636120
 797.091330, 5620.148041
 797.439004, 5619.656026
 797.787248, 5619.163795
 798.133915, 5618.674381
 798.480964, 5618.185016
 798.828145, 5617.696052
 799.177201, 5617.205042
 799.526346, 5616.714504
 799.875722, 5616.224238
 800.226665, 5615.732378
 800.576269, 5615.242993
 800.926826, 5614.752878
 801.278379, 5614.261976
 801.630599, 5613.770752
 801.981956, 5613.281341
 802.332946, 5612.793049
 802.685633, 5612.303008
 803.038650, 5611.813123
 803.393177, 5611.321763
 803.746221, 5610.833074
 804.100481, 5610.343323
 804.455171, 5609.853600
 804.810269, 5609.363938
 805.166256, 5608.873679
 805.522744, 5608.383359
 805.879410, 5607.893427
 806.236138, 5607.404042
 806.593659, 5606.914205
 806.952638, 5606.423011
 807.312098, 5605.931803
 807.671106, 5605.441855
 808.030503, 5604.952021
 808.390534, 5604.461971
 808.748911, 5603.974815
 809.109274, 5603.485608
 809.471228, 5602.994896
 809.833737, 5602.504090
 810.196989, 5602.012939
 810.560507, 5601.522092
 810.923154, 5601.033081
 811.287743, 5600.542120
 811.651321, 5600.053186
 812.015903, 5599.563571
 812.381838, 5599.072812
 812.747179, 5598.583523
 813.112414, 5598.095049
 813.478450, 5597.606181
 813.847418, 5597.114084
 814.216125, 5596.623020
 814.585292, 5596.132035
 814.955972, 5595.639734
 815.325837, 5595.149208
 815.698011, 5594.656321
 816.068632, 5594.166189
 816.441279, 5593.674083
 816.815069, 5593.181178
 817.188759, 5592.689114
 817.561731, 5592.198705
 817.936075, 5591.707207
 818.311440, 5591.215084
 818.685806, 5590.724990
 819.059638, 5590.236308
 819.434660, 5589.746788
 819.813851, 5589.252559
 820.190397, 5588.762506
 820.565060, 5588.275625
 820.942428, 5587.785956
 821.322288, 5587.293792
 821.701660, 5586.802999
 822.081489, 5586.312358
 822.462259, 5585.821244
 822.844283, 5585.329264
 823.227803, 5584.836113
 823.610931, 5584.344223
 823.995716, 5583.850969
 824.241828, 5583.535878
 824.379097, 5583.360273
 824.765990, 5582.865852
 825.148939, 5582.377234
 825.535918, 5581.884245
 825.923351, 5581.391453
 826.311842, 5580.898097
 826.696734, 5580.410082
 827.084876, 5579.918726
 827.474511, 5579.426266
 827.865902, 5578.932380
 828.257528, 5578.438995
 828.648713, 5577.946963
 829.041268, 5577.454008
 829.435240, 5576.960080
 829.829656, 5576.466406
 830.223337, 5575.974461
 830.619137, 5575.480685
 831.014575, 5574.988178
 831.410969, 5574.495298
 831.810259, 5573.999651
 832.207123, 5573.507840
 832.606641, 5573.013575
 833.004960, 5572.521625
 833.405295, 5572.028024
 833.806479, 5571.534221
 834.208358, 5571.040409
 834.612422, 5570.544769
 835.015193, 5570.051568
 835.420266, 5569.556409
 835.824699, 5569.062896
 836.228430, 5568.571099
 836.634547, 5568.077261
 837.042545, 5567.582014
 837.451211, 5567.086835
 837.859787, 5566.592649
 838.268199, 5566.099542
 838.678257, 5565.605336
 839.091143, 5565.108621
 839.503531, 5564.613405
 839.913722, 5564.121724
 840.327181, 5563.627027
 840.741842, 5563.131803
 841.155181, 5562.639068
 841.570043, 5562.145428
 841.988324, 5561.648647
 842.405849, 5561.153694
 842.824130, 5560.658773
 843.244868, 5560.161886
 843.665787, 5559.665729
 844.086451, 5559.170817
 844.509440, 5558.674122
 844.931915, 5558.178984
 845.356665, 5557.682142
 845.780195, 5557.187686
 846.201759, 5556.696480
 846.627727, 5556.201108
 847.051793, 5555.708913
 847.479909, 5555.212995
 847.908480, 5554.717535
 848.336497, 5554.223699
 848.768140, 5553.726675
 849.197134, 5553.233693
 849.627247, 5552.740420
 850.059323, 5552.245897
 850.494462, 5551.748883
 850.928488, 5551.254156
 851.363461, 5550.759369
 851.799069, 5550.264881
 852.236170, 5549.769728
 852.674209, 5549.274546
 853.112655, 5548.779943
 853.552647, 5548.284640
 853.990829, 5547.792415
 854.431277, 5547.298691
 854.873327, 5546.804227
 855.314808, 5546.311457
 855.757177, 5545.818754
 856.204987, 5545.321073
 856.648605, 5544.829123
 857.092979, 5544.337407
 857.537479, 5543.846623
 857.982913, 5543.355885
 858.432534, 5542.861630
 858.881689, 5542.368985
 859.332764, 5541.875339
 859.781322, 5541.385547
 860.230861, 5540.895784
 860.682259, 5540.405105
 861.138735, 5539.910035
 861.592531, 5539.419001
 862.050110, 5538.925011
 862.508068, 5538.431758
 862.966584, 5537.939054
 863.424969, 5537.447639
 863.883692, 5536.957014
 864.343997, 5536.465855
 864.806348, 5535.973682
 865.267441, 5535.484015
 865.730754, 5534.993166
 866.192766, 5534.504867
 866.659115, 5534.013174
 867.127012, 5533.521050
 867.596568, 5533.028389
 868.063397, 5532.539794
 868.531464, 5532.051106
 869.003061, 5531.559951
 869.474690, 5531.069990
 869.946228, 5530.581348
 870.417133, 5530.094585
 870.892822, 5529.604121
 871.369229, 5529.114167
 871.846001, 5528.625093
 872.321320, 5528.138758
 872.800908, 5527.649322
 873.281072, 5527.160573
 873.760945, 5526.673394
 874.242469, 5526.185821
 874.725379, 5525.698134
 875.208324, 5525.211704
 875.692177, 5524.725657
 876.178127, 5524.238810
 876.664285, 5523.753066
 877.151312, 5523.267769
 877.638437, 5522.783692
 878.125590, 5522.300907
 878.617736, 5521.814513
 879.108087, 5521.331234
 879.600919, 5520.846858
 880.092396, 5520.365159
 880.585968, 5519.882762
 881.079069, 5519.402182
 881.579020, 5518.916308
 882.074723, 5518.435940
 882.574431, 5517.953078
 883.072548, 5517.473143
 883.572862, 5516.992485
 884.072144, 5516.514213
 884.572938, 5516.035892
 885.074943, 5515.557823
 885.580473, 5515.077822
 886.087434, 5514.597899
 886.592542, 5514.121162
 887.095042, 5513.648305
 887.599213, 5513.175297
 888.108351, 5512.699077
 888.618707, 5512.223177
 889.129283, 5511.748535
 889.642605, 5511.272816
 890.155486, 5510.798984
 890.664578, 5510.330114
 891.180352, 5509.856577
 891.694183, 5509.386310
 892.211233, 5508.914598
 892.724237, 5508.448064
 893.244147, 5507.976762
 893.767112, 5507.504227
 894.289416, 5507.033828
 894.813056, 5506.563770
 895.335292, 5506.096511
 895.861597, 5505.627170
 896.387045, 5505.160154
 896.909365, 5504.697462
 897.436695, 5504.231897
 897.969820, 5503.762813
 898.498884, 5503.298891
 899.030319, 5502.834483
 899.557979, 5502.374956
 900.088296, 5501.914703
 900.624412, 5501.451036
 901.157942, 5500.991222
 901.691203, 5500.533252
 902.225025, 5500.076415
 902.762212, 5499.618329
 903.302523, 5499.159231
 903.842455, 5498.702111
 904.385183, 5498.244291
 904.925423, 5497.790231
 905.468792, 5497.335215
 906.005951, 5496.887048
 906.552134, 5496.433034
 907.094493, 5495.983879
 907.637292, 5495.536034
 908.183858, 5495.086776
 908.736697, 5494.634092
 909.285137, 5494.186731
 909.831594, 5493.742691
 910.381724, 5493.297386
 910.930091, 5492.855225
 911.484163, 5492.410207
 912.033376, 5491.970820
 912.588547, 5491.528415
 913.141240, 5491.089733
 913.696685, 5490.650624
 914.247542, 5490.216884
 914.805780, 5489.779100
 915.363350, 5489.343618
 915.922595, 5488.908615
 916.489566, 5488.469427
 917.050207, 5488.036952
 917.610595, 5487.606469
 918.173724, 5487.175693
 918.738099, 5486.745785
 919.302625, 5486.317588
 919.864504, 5485.893212
 920.430019, 5485.467917
 920.999691, 5485.041350
 921.562004, 5484.622118
 922.133347, 5484.198012
 922.708153, 5483.773227
 923.284672, 5483.349080
 923.856378, 5482.930359
 924.432927, 5482.509992
 925.015008, 5482.087530
 925.584987, 5481.675737
 926.161070, 5481.261433
 926.739502, 5480.847358
 927.318259, 5480.434977
 927.898322, 5480.023599
 928.479857, 5479.613121
 929.058662, 5479.206503
 929.640083, 5478.799989
 930.217495, 5478.398204
 930.802014, 5477.993430
 931.384629, 5477.591934
 931.968263, 5477.191697
 932.554556, 5476.791614
 933.139283, 5476.394573
 933.724097, 5475.999446
 934.312121, 5475.604139
 934.902001, 5475.209590
 935.490696, 5474.817834
 936.083018, 5474.425685
 936.673558, 5474.036731
 937.265079, 5473.649151
 937.860485, 5473.261067
 938.451603, 5472.877803
 939.045076, 5472.495045
 939.638446, 5472.114388
 940.232606, 5471.735264
 940.832680, 5471.354438
 941.425387, 5470.980332
 942.025814, 5470.603426
 942.618353, 5470.233517
 943.222588, 5469.858398
 943.824548, 5469.486794
 944.422720, 5469.119606
 945.028845, 5468.749649
 945.630913, 5468.384276
 946.241438, 5468.015915
 946.849127, 5467.651410
 947.459312, 5467.287560
 948.067687, 5466.926938
 948.675126, 5466.569012
 949.282436, 5466.213301
 949.892751, 5465.857985
 950.501233, 5465.505886
 951.111479, 5465.154924
 951.726616, 5464.803335
 952.339847, 5464.455022
 952.953351, 5464.108738
 953.565823, 5463.765216
 954.177985, 5463.424044
 954.794851, 5463.082451
 955.415311, 5462.741097
 956.028206, 5462.406101
 956.636911, 5462.075555
 957.250538, 5461.744514
 957.874645, 5461.410065
 958.488167, 5461.083494
 959.116916, 5460.751088
 959.738366, 5460.424799
 960.352399, 5460.104609
 960.969994, 5459.784774
 961.587636, 5459.467133
 962.209505, 5459.149558
 962.830711, 5458.834569
 963.452594, 5458.521485
 964.072957, 5458.211408
 964.693170, 5457.903644
 965.318310, 5457.595700
 965.947323, 5457.288145
 966.573608, 5456.984211
 967.195553, 5456.684642
 967.821084, 5456.385618
 968.452357, 5456.086159
 969.085996, 5455.787910
 969.717968, 5455.492776
 970.345444, 5455.202041
 970.977716, 5454.911404
 971.609439, 5454.623345
 972.242743, 5454.336898
 972.874263, 5454.053585
 973.512161, 5453.769769
 974.144581, 5453.490731
 974.782533, 5453.211613
 975.422936, 5452.933808
 976.058938, 5452.660278
 976.697217, 5452.388138
 977.337808, 5452.117400
 977.978709, 5451.848923
 978.616873, 5451.583973
 979.252910, 5451.322268
 979.901759, 5451.057721
 980.550806, 5450.795549
 981.191991, 5450.538963
 981.840950, 5450.281708
 982.486548, 5450.028221
 983.062022, 5449.804316
