Ground Distance, Horizontal Forces
   0.000000, 1240.100223
   0.016710, 1240.081303
   0.183420, 1239.910203
   0.368626, 1239.720341
   0.553832, 1239.530480
   0.739038, 1239.340618
   0.924244, 1239.150757
   1.109450, 1238.960895
   1.294656, 1238.771034
   1.479861, 1238.581172
   1.665067, 1238.391311
   1.850273, 1238.201449
   2.302722, 1237.744758
   2.788539, 1237.254750
   3.274355, 1236.764742
   3.760172, 1236.274734
   4.245989, 1235.784727
   4.731805, 1235.294719
   5.217622, 1234.804711
   5.703439, 1234.314703
   6.189255, 1233.824696
   6.675072, 1233.334688
   7.425098, 1232.587136
   8.208113, 1231.807427
   8.991129, 1231.027719
   9.774144, 1230.248010
  10.557159, 1229.468301
  11.340174, 1228.688592
  12.123190, 1227.908884
  12.906205, 1227.129175
  13.689220, 1226.349466
  14.472235, 1225.569757
  15.516345, 1224.542000
  16.593054, 1223.483271
  17.669764, 1222.424542
  18.746474, 1221.365812
  19.823183, 1220.307083
  20.899893, 1219.248354
  21.976602, 1218.189625
  23.053312, 1217.130896
  24.130021, 1216.072167
  25.206731, 1215.013438
  26.541343, 1213.716330
  27.908156, 1212.389457
  29.274969, 1211.062585
  30.641782, 1209.735713
  32.008595, 1208.408840
  33.375408, 1207.081968
  34.742222, 1205.755096
  36.109035, 1204.428223
  37.475848, 1203.101351
  38.842661, 1201.774479
  40.464113, 1200.219297
  42.117358, 1198.635608
  43.770603, 1197.051919
  45.423849, 1195.468231
  47.077094, 1193.884542
  48.730340, 1192.300853
  50.383585, 1190.717165
  52.036831, 1189.133476
  53.690076, 1187.549787
  55.343321, 1185.966099
  57.247422, 1184.170680
  59.182843, 1182.348824
  61.118265, 1180.526969
  63.053687, 1178.705113
  64.989109, 1176.883258
  66.924530, 1175.061402
  68.859952, 1173.239546
  70.795374, 1171.417691
  72.730796, 1169.595835
  74.666217, 1167.773980
  76.847931, 1165.754817
  79.060396, 1163.711019
  81.272861, 1161.667221
  83.485326, 1159.623423
  85.697791, 1157.579625
  87.910256, 1155.535826
  90.122721, 1153.492028
  92.335186, 1151.448230
  94.547651, 1149.404432
  96.760117, 1147.360634
  99.214249, 1145.132427
 101.698557, 1142.881196
 104.182864, 1140.629964
 106.667172, 1138.378732
 109.151479, 1136.127501
 111.635787, 1133.876269
 114.120094, 1131.625037
 116.604402, 1129.373805
 119.088709, 1127.122574
 121.573017, 1124.871342
 124.294359, 1122.448347
 127.045296, 1120.003906
 129.796234, 1117.559465
 132.547172, 1115.115024
 135.298110, 1112.670583
 138.049047, 1110.226142
 140.799985, 1107.781701
 143.550923, 1105.337260
 146.301861, 1102.892819
 149.052799, 1100.448378
 152.036133, 1097.844540
 155.048485, 1095.220800
 158.060836, 1092.597060
 161.073187, 1089.973320
 164.085539, 1087.349581
 167.097890, 1084.725841
 170.110242, 1082.102101
 173.122593, 1079.478361
 176.134945, 1076.854621
 179.147296, 1074.230881
 182.387408, 1071.459810
 185.655958, 1068.670342
 188.924509, 1065.880875
 192.193059, 1063.091408
 195.461609, 1060.301940
 198.730159, 1057.512473
 201.998709, 1054.723005
 205.267259, 1051.933538
 208.535809, 1049.144071
 211.804360, 1046.354603
 215.295818, 1043.437880
 218.815110, 1040.505268
 222.334401, 1037.572656
 225.853692, 1034.640044
 229.372983, 1031.707432
 232.892274, 1028.774820
 236.411565, 1025.842208
 239.930856, 1022.909596
 243.450148, 1019.976983
 246.969439, 1017.044371
 250.705861, 1014.006920
 254.469395, 1010.956379
 258.232928, 1007.905838
 261.996462, 1004.855297
 265.759995, 1001.804756
 269.523529,  998.754215
 273.287062,  995.703674
 277.050596,  992.653133
 280.814129,  989.602592
 284.577663,  986.552051
 288.552362,  983.410095
 292.553427,  980.256724
 296.554492,  977.103354
 300.555557,  973.949983
 304.556622,  970.796612
 308.557687,  967.643242
 312.558752,  964.489871
 316.559817,  961.336501
 320.560882,  958.183130
 324.561947,  955.029759
 328.768302,  951.797615
 333.000290,  948.555634
 337.232278,  945.313654
 341.464266,  942.071673
 345.696254,  938.829693
 349.928242,  935.587713
 354.160229,  932.345732
 358.392217,  929.103752
 362.624205,  925.861771
 366.856193,  922.619791
 371.287690,  919.310952
 375.744098,  915.993766
 380.200506,  912.676580
 384.656914,  909.359393
 389.113322,  906.042207
 393.569730,  902.725021
 398.026138,  899.407834
 402.482546,  896.090648
 406.938954,  892.773462
 411.395362,  889.456275
 416.045596,  886.083436
 420.720032,  882.703648
 425.394467,  879.323860
 430.068902,  875.944072
 434.743337,  872.564284
 439.417773,  869.184496
 444.092208,  865.804708
 448.766643,  862.424920
 453.441079,  859.045132
 458.115514,  855.665344
 462.978192,  852.240413
 467.864375,  848.809846
 472.750557,  845.379280
 477.636740,  841.948713
 482.522922,  838.518146
 487.409104,  835.087579
 492.295287,  831.657013
 497.181469,  828.226446
 502.067652,  824.795879
 506.953834,  821.365312
 512.022781,  817.899319
 517.114547,  814.428902
 522.206314,  810.958486
 527.298081,  807.488069
 532.389847,  804.017652
 537.481614,  800.547236
 542.573381,  797.076819
 547.665147,  793.606402
 552.756914,  790.135986
 557.848681,  786.665569
 563.117867,  783.167960
 568.409205,  779.666956
 573.700544,  776.165952
 578.991883,  772.664947
 584.283221,  769.163943
 589.574560,  765.662939
 594.865899,  762.161935
 600.157237,  758.660931
 605.448576,  755.159926
 610.739914,  751.658922
 616.203469,  748.139022
 621.688526,  744.616763
 627.173584,  741.094504
 632.658641,  737.572245
 638.143698,  734.049985
 643.628756,  730.527726
 649.113813,  727.005467
 654.598870,  723.483208
 660.083928,  719.960948
 665.568985,  716.438689
 671.216715,  712.905592
 676.884756,  709.371141
 682.552797,  705.836690
 688.220838,  702.302239
 693.888878,  698.767788
 699.556919,  695.233338
 705.224960,  691.698887
 710.893001,  688.164436
 716.561042,  684.629985
 719.782802,  682.620975
 725.585862,  438.952750
 731.439763,  432.752900
 737.293665,  426.553050
 743.147566,  420.353200
 749.001467,  414.153350
 754.855368,  407.953500
 760.709269,  401.753650
 766.563171,  395.553800
 772.417072,  389.353949
 778.270973,  383.154099
 784.203054,  366.662271
 790.227875,  337.961766
 796.252697,  309.261261
 802.277518,  280.560755
 808.302339,  251.860250
 814.327160,  223.159744
 820.351981,  194.459239
 826.376802,  165.758734
 832.401623,  137.058228
 838.426444,  108.357723
 844.523944,   80.504615
 850.707657,   53.656717
 856.891370,   26.808819
 863.075084,   -0.039079
 869.258797,  -26.886977
 875.442511,  -53.734875
 881.626224,  -80.582773
 887.809937, -107.430671
 893.993651, -134.278569
 900.177364, -161.126467
 903.532598, -175.693924
 909.840700, -158.124531
 916.148801, -140.555139
 922.456902, -122.985747
 928.765004, -105.416354
 935.073105,  -87.846962
 941.381207,  -70.277570
 947.689308,  -52.708177
 953.997409,  -35.138785
 960.305511,  -17.569392
 966.613612,    0.000000
 972.962380,    0.000000
 979.311148,    0.000000
 985.659917,    0.000000
 992.008685,    0.000000
 998.357453,    0.000000
1004.712743,    0.000000
1011.068034,    0.000000
1017.423324,    0.000000
1023.778615,    0.000000
1030.133905,    0.000000
1036.482271,    0.000000
1042.830637,    0.000000
1049.179002,    0.000000
1055.527368,    0.000000
