Time, Angles
   0.000100,    0.000000
   0.000563,    0.000000
   0.002175,    0.000000
   0.007627,    0.000000
   0.018279,    0.000000
   0.043028,    0.000000
   0.074761,    0.000000
   0.106589,    0.000000
   0.138419,    0.000000
   0.170367,    0.000000
   0.202449,    0.000000
   0.234606,    0.000000
   0.266795,    0.000000
   0.298936,    0.000000
   0.331344,    0.000000
   0.364128,    0.000000
   0.396992,    0.000000
   0.430231,    0.000000
   0.463468,    0.000000
   0.497017,    0.000000
   0.530749,    0.000000
   0.564722,    0.000000
   0.598971,    0.000000
   0.633962,    0.000000
   0.668628,    0.000000
   0.703295,    0.000000
   0.738638,    0.000000
   0.773839,    0.000000
   0.809514,    0.000000
   0.845820,    0.000000
   0.882477,    0.000000
   0.919539,    0.000000
   0.956759,    0.000000
   0.994074,    0.000000
   1.031360,    0.000000
   1.069143,    0.000000
   1.107675,    0.000000
   1.146076,    0.000000
   1.184756,    0.000000
   1.224656,    0.000000
   1.264031,    0.000000
   1.304592,    0.000000
   1.345193,    0.000000
   1.385681,    0.000000
   1.427201,    0.000000
   1.468964,    0.000000
   1.511334,    0.000000
   1.553785,    0.000000
   1.596117,    0.000000
   1.639305,    0.000000
   1.682639,    0.000000
   1.726109,    0.000000
   1.769876,    0.000000
   1.813591,    0.000000
   1.857923,    0.000000
   1.902586,    0.000000
   1.948056,    0.000000
   1.993212,    0.000000
   2.039212,    0.000000
   2.086002,    0.000000
   2.132129,    0.000000
   2.179480,    0.000000
   2.226599,    0.000000
   2.274107,    0.000000
   2.322608,    0.000000
   2.370983,    0.000000
   2.419662,    0.000000
   2.468385,    0.000000
   2.517680,    0.000000
   2.567397,    0.000000
   2.617949,    0.000000
   2.668443,    0.000000
   2.719108,    0.000000
   2.770340,    0.000000
   2.821979,    0.000000
   2.873739,    0.000000
   2.925653,    0.000000
   2.978478,    0.000000
   3.031016,    0.000000
   3.084059,    0.000000
   3.137460,    0.000000
   3.190999,    0.000000
   3.244725,    0.000000
   3.299622,    0.000000
   3.353968,    0.000000
   3.408985,    0.000000
   3.464851,    0.000000
   3.520715,    0.000000
   3.577044,    0.000000
   3.633149,    0.000000
   3.690624,    0.000000
   3.747547,    0.000000
   3.804784,    0.000000
   3.862238,    0.000000
   3.919593,    0.000000
   3.977980,    0.000000
   4.036509,    0.000000
   4.095383,    0.000000
   4.154362,    0.000000
   4.213627,    0.000000
   4.225591,    0.000000
   4.231550,    0.000000
   4.235140,    0.000000
   4.237473,    0.000000
   4.245497,    0.000000
   4.245545,    0.000000
   4.245624,    0.000000
   4.245657,    0.000000
   4.245667,    0.000000
   4.245672,    0.000000
   4.245676,    0.000000
   4.245722,    0.000000
   4.246108,    0.000000
   4.248483,    0.000000
   4.257281,    0.000000
   4.283310,    0.000000
   4.334905,    0.000000
   4.388402,    0.000000
   4.442624,    0.000000
   4.496760,    0.000000
   4.551242,    0.000000
   4.605903,    0.000000
   4.660765,    0.000000
   4.715778,    0.000000
   4.771417,    0.000000
   4.827290,    0.000000
   4.883905,    0.000000
   4.940491,    0.000000
   4.997232,    0.000000
   5.054250,    0.000000
   5.111466,    0.000000
   5.168656,    0.000000
   5.226433,    0.000000
   5.284476,    0.000000
   5.342147,    0.000000
   5.400677,    0.000000
   5.458925,    0.000000
   5.517536,    0.000000
   5.576156,    0.000000
   5.635518,    0.000000
   5.694961,    0.000000
   5.754496,    0.000000
   5.814341,    0.000000
   5.874378,    0.000000
   5.934336,    0.000000
   5.994787,    0.000000
   6.055382,    0.000000
   6.116305,    0.000000
   6.177577,    0.000000
   6.238877,    0.000000
   6.300784,    0.000000
   6.363159,    0.000000
   6.425250,    0.000000
   6.487380,    0.000000
   6.550281,    0.000000
   6.613184,    0.000000
   6.676534,    0.000000
   6.740024,    0.000000
   6.803165,    0.000000
   6.867067,    0.000000
   6.930834,    0.000000
   6.995340,    0.000000
   7.059616,    0.000000
   7.124514,    0.000000
   7.189303,    0.000000
   7.254312,    0.000000
   7.319620,    0.000000
   7.385219,    0.000000
   7.451111,    0.000000
   7.516637,    0.000000
   7.582852,    0.000000
   7.648821,    0.000000
   7.715137,    0.000000
   7.781862,    0.000000
   7.848710,    0.000000
   7.915549,    0.000000
   7.983113,    0.000000
   8.051030,    0.000000
   8.118940,    0.000000
   8.186825,    0.000000
   8.254714,    0.000000
   8.323430,    0.000000
   8.392405,    0.000000
   8.461157,    0.000000
   8.530125,    0.000000
   8.599211,    0.000000
   8.668705,    0.000000
   8.682592,    0.000000
   8.690805,    0.000000
   8.695537,    0.000000
   8.699890,    0.000000
   8.703292,    0.000000
   8.706068,    0.000000
   8.708076,    0.000000
   8.710027,    0.000000
   8.712253,    0.000000
   8.712656,    0.000000
   8.712758,    0.000000
   8.712782,    0.000000
   8.712795,    0.000000
   8.712801,    0.000000
   8.712808,    0.000000
   8.712876,    0.000000
   8.713557,    0.000000
   8.718392,    0.000000
   8.735729,    0.000000
   8.795400,    0.000000
   8.857640,    0.000000
   8.919888,    0.000000
   8.982560,    0.000000
   9.045127,    0.000000
   9.107881,    0.000000
   9.170470,    0.000000
   9.233838,    0.000000
   9.297198,    0.000000
   9.360602,    0.000000
   9.423968,    0.000000
   9.487829,    0.000000
   9.551605,    0.000000
   9.615567,    0.000000
   9.679952,    0.000000
   9.744304,    0.000000
   9.808842,    0.000000
   9.873501,    0.000000
   9.938148,    0.000000
  10.003079,    0.000000
  10.068440,    0.000000
  10.134092,    0.000000
  10.199508,    0.000000
  10.265284,    0.000000
  10.331199,    0.000000
  10.397235,    0.000000
  10.463330,    0.000000
  10.529581,    0.000000
  10.596195,    0.000000
  10.662914,    0.000000
  10.729970,    0.000000
  10.796962,    0.000000
  10.863952,    0.000000
  10.931306,    0.000000
  10.999026,    0.000000
  11.066634,    0.000000
  11.134651,    0.000000
  11.202549,    0.000000
  11.270743,    0.000000
  11.339155,    0.000000
  11.407555,    0.000000
  11.476041,    0.000000
  11.544498,    0.000000
  11.613515,    0.000000
  11.682422,    0.000000
  11.751561,    0.000000
  11.820758,    0.000000
  11.890236,    0.000000
  11.959728,    0.000000
  12.029462,    0.000000
  12.099594,    0.000000
  12.169840,    0.000000
  12.240267,    0.000000
  12.310696,    0.000000
  12.381483,    0.000000
  12.452094,    0.000000
  12.523047,    0.000000
  12.594051,    0.000000
  12.665311,    0.000000
  12.736830,    0.000000
  12.808262,    0.000000
  12.880237,    0.000000
  12.952100,    0.000000
  13.024065,    0.000000
  13.096364,    0.000000
  13.168726,    0.000000
  13.241291,    0.000000
  13.314175,    0.000000
  13.386964,    0.000000
  13.459845,    0.000000
  13.474426,    0.000000
  13.484159,    0.000000
  13.514687,    0.000000
  13.515287,    0.000000
  13.515438,    0.000000
  13.515681,    0.000000
  13.515714,    0.000000
  13.515732,    0.000000
  13.515744,    0.000000
  13.515755,    0.000000
  13.515862,    0.000000
  13.516805,    0.000000
  13.521939,    0.000000
  13.547688,    0.000000
  13.611193,    0.000000
  13.675096,    0.000000
  13.739150,    0.000000
  13.803268,    0.000000
  13.867434,    0.000000
  13.931586,    0.000000
  13.995945,    0.000000
  14.060451,    0.000000
  14.125034,    0.000000
  14.189756,    0.000000
  14.254703,    0.000000
  14.319783,    0.000000
  14.385118,    0.000000
  14.450605,    0.000000
  14.515866,    0.000000
  14.581550,    0.000000
  14.647229,    0.000000
  14.712979,    0.000000
  14.779057,    0.000000
  14.845199,    0.000000
  14.911148,    0.000000
  14.977270,    0.000000
  15.043660,    0.000000
  15.110304,    0.000000
  15.177069,    0.000000
  15.243949,    0.000000
  15.310694,    0.000000
  15.377691,    0.000000
  15.444728,    0.000000
  15.511905,    0.000000
  15.579305,    0.000000
  15.646876,    0.000000
  15.714396,    0.000000
  15.782218,    0.000000
  15.849993,    0.000000
  15.918091,    0.000000
  15.986306,    0.000000
  16.054407,    0.000000
  16.122897,    0.000000
  16.191331,    0.000000
  16.259743,    0.000000
  16.328243,    0.000000
  16.396943,    0.000000
  16.465782,    0.000000
  16.534713,    0.000000
  16.603872,    0.000000
  16.673040,    0.000000
  16.742434,    0.000000
  16.811864,    0.000000
  16.881573,    0.000000
  16.951013,    0.000000
  17.020725,    0.000000
  17.090678,    0.000000
  17.160676,    0.000000
  17.230844,    0.000000
  17.301083,    0.000000
  17.371658,    0.000000
  17.442018,    0.000000
  17.512453,    0.000000
  17.583229,    0.000000
  17.654065,    0.000000
  17.725022,    0.000000
  17.796141,    0.000000
  17.867328,    0.000000
  17.938623,    0.000000
  18.010105,    0.000000
  18.081539,    0.000000
  18.153278,    0.000000
  18.225005,    0.000000
  18.296936,    0.000000
  18.369071,    0.000000
  18.441217,    0.000000
  18.513348,    0.000000
  18.585732,    0.000000
  18.658112,    0.000000
  18.730787,    0.000000
  18.803439,    0.000000
  18.818024,    0.000000
  18.828509,    0.000000
  18.835714,    0.000000
  18.842384,    0.000000
  18.847961,    0.000000
  18.848994,    0.000000
  18.850175,    0.000000
  18.850428,    0.000000
  18.850678,    0.000000
  18.850764,    0.000000
  18.850797,    0.000000
  18.850834,    0.000000
  18.851200,    0.000000
  18.854214,    0.000000
  18.870526,    0.000000
  18.931045,    0.000000
  19.003471,    0.000000
  19.076288,    0.000000
  19.149273,    0.000000
  19.222036,    0.000000
  19.295059,    0.000000
  19.368240,    0.000000
  19.441642,    0.000000
  19.515169,    0.000000
  19.588577,    0.000000
  19.662290,    0.000000
  19.736163,    0.000000
  19.809868,    0.000000
  19.883680,    0.000000
  19.957723,    0.000000
  20.031827,    0.000000
  20.106083,    0.000000
  20.180476,    0.000000
  20.255005,    0.000000
  20.329509,    0.000000
  20.404272,    0.000000
  20.479145,    0.000000
  20.553977,    0.000000
  20.629021,    0.000000
  20.704187,    0.000000
  20.779423,    0.000000
  20.854826,    0.000000
  20.930414,    0.000000
  21.006016,    0.000000
  21.081806,    0.000000
  21.157722,    0.000000
  21.233619,    0.000000
  21.309695,    0.000000
  21.386047,    0.000000
  21.462366,    0.000000
  21.538800,    0.000000
  21.615264,    0.000000
  21.691979,    0.000000
  21.768675,    0.000000
  21.845458,    0.000000
  21.922394,    0.000000
  21.999406,    0.000000
  22.076471,    0.000000
  22.153695,    0.000000
  22.231298,    0.000000
  22.308798,    0.000000
  22.386316,    0.000000
  22.463976,    0.000000
  22.541717,    0.000000
  22.619838,    0.000000
  22.697774,    0.000000
  22.775989,    0.000000
  22.781275,    0.000000
  22.854265,    0.000000
  22.932592,    0.218969
  23.011104,    0.451894
  23.089671,    0.683172
  23.168688,    0.912431
  23.247757,    1.140831
  23.326843,    1.367214
  23.406168,    1.591495
  23.485656,    1.814321
  23.565108,    2.035479
  23.644881,    2.254429
  23.724674,    2.472167
  23.804475,    2.687873
  23.884552,    2.901537
  23.964416,    3.113887
  24.044396,    3.323637
  24.124445,    3.531679
  24.204831,    3.737899
  24.285085,    3.943000
  24.365304,    4.145791
  24.445603,    4.346538
  24.525884,    4.545553
  24.606149,    4.742604
  24.686475,    4.937720
  24.766695,    5.131103
  24.847055,    5.322369
  24.927300,    5.512124
  24.943382,    5.699780
  24.958277,    5.737027
  24.963806,    5.771457
  24.969337,    5.784215
  24.970443,    5.796969
  24.973628,    5.799519
  24.973679,    5.806857
  24.973750,    5.806973
  24.973766,    5.807139
  24.973771,    5.807174
  24.973778,    5.807187
  24.973820,    5.807201
  24.974038,    5.807298
  24.974897,    5.807800
  24.977207,    5.809779
  24.980974,    5.815098
  24.986493,    5.823772
  24.992019,    5.836472
  24.997548,    5.849179
  25.003090,    5.861886
  25.008635,    5.874613
  25.014182,    5.887339
  25.019730,    5.900060
  25.025283,    5.912776
  25.030813,    5.925497
  25.036345,    5.938155
  25.041897,    5.950807
  25.047457,    5.963499
  25.053026,    5.976200
  25.058597,    5.988913
  25.064166,    6.001623
  25.069746,    6.014320
  25.075327,    6.027032
  25.080901,    6.039738
  25.086489,    6.052420
  25.092082,    6.065127
  25.097680,    6.077835
  25.103281,    6.090544
  25.108870,    6.103255
  25.114473,    6.115927
  25.120060,    6.128625
  25.125675,    6.141278
  25.131298,    6.153984
  25.136924,    6.166700
  25.142520,    6.179415
  25.148154,    6.192053
  25.153785,    6.204769
  25.159405,    6.217471
  25.165050,    6.230137
  25.170696,    6.242852
  25.176341,    6.255560
  25.181995,    6.268258
  25.187659,    6.280967
  25.193326,    6.293689
  25.198983,    6.306410
  25.204650,    6.319101
  25.210316,    6.331804
  25.215973,    6.344496
  25.221629,    6.357162
  25.227325,    6.369814
  25.233016,    6.382548
  25.238720,    6.395262
  25.244430,    6.407997
  25.250120,    6.420736
  25.255841,    6.433422
  25.261560,    6.446169
  25.267275,    6.458901
  25.273010,    6.471618
  25.278715,    6.484368
  25.284435,    6.497044
  25.290182,    6.509746
  25.295934,    6.522497
  25.301692,    6.535251
  25.307422,    6.548009
  25.313186,    6.560696
  25.318964,    6.573451
  25.324750,    6.586227
  25.330546,    6.599012
  25.336291,    6.611810
  25.342090,    6.624488
  25.347866,    6.637274
  25.353671,    6.650003
  25.359455,    6.662785
  25.365279,    6.675513
  25.371067,    6.688318
  25.376885,    6.701037
  25.382716,    6.713812
  25.388553,    6.726608
  25.394399,    6.739408
  25.400261,    6.752219
  25.406122,    6.765054
  25.411970,    6.777879
  25.417819,    6.790666
  25.423710,    6.803447
  25.429565,    6.816310
  25.435456,    6.829087
  25.441369,    6.841932
  25.447279,    6.854816
  25.453170,    6.867685
  25.459077,    6.880502
  25.464970,    6.893347
  25.470897,    6.906150
  25.476849,    6.919020
  25.482770,    6.931934
  25.488709,    6.944771
  25.494590,    6.957639
  25.500568,    6.970372
  25.506503,    6.983306
  25.512493,    6.983306
  25.518476,    6.983306
  25.524453,    6.983306
  25.530448,    6.983306
  25.536448,    6.983306
  25.542450,    6.983306
  25.548477,    6.983306
  25.554526,    6.983306
  25.560561,    6.983306
  25.566593,    6.983306
  25.572620,    6.983306
  25.578660,    6.983306
  25.584707,    6.983306
  25.590790,    6.983306
  25.596847,    6.983306
  25.602949,    6.983306
  25.609055,    6.983306
  25.615151,    6.983306
  25.621250,    6.983306
  25.627341,    6.983306
  25.633459,    6.983306
  25.639585,    6.983306
  25.645685,    6.983306
  25.651819,    6.983306
  25.657961,    6.983306
  25.664089,    6.983306
  25.670235,    6.983306
  25.676382,    6.983306
  25.682550,    6.983306
  25.688725,    6.983306
  25.694919,    6.983306
  25.701099,    6.983306
  25.707301,    6.983306
  25.713498,    6.983306
  25.719700,    6.983306
  25.725937,    6.983306
  25.732174,    6.983306
  25.738405,    6.983306
  25.744639,    6.983306
  25.750865,    6.983306
  25.757121,    6.983306
  25.763345,    6.983306
  25.769601,    6.983306
  25.775877,    6.983306
  25.782156,    6.983306
  25.788488,    6.983306
  25.794811,    6.983306
  25.801123,    6.983306
  25.807440,    6.983306
  25.813764,    6.983306
  25.820097,    6.983306
  25.826475,    6.983306
  25.832851,    6.983306
  25.839212,    6.983306
  25.845585,    6.983306
  25.851949,    6.983306
  25.858343,    6.983306
  25.864735,    6.983306
  25.871180,    6.983306
  25.877627,    6.983306
  25.884071,    6.983306
  25.890498,    6.983306
  25.896967,    6.983306
  25.903447,    6.983306
  25.909904,    6.983306
  25.916359,    6.983306
  25.922849,    6.983306
  25.929391,    6.983306
  25.935916,    6.983306
  25.942437,    6.983306
  25.948969,    6.983306
  25.955533,    6.983306
  25.962098,    6.983306
  25.968667,    6.983306
  25.975235,    6.983306
  25.981782,    6.983306
  25.988389,    6.983306
  25.995015,    6.983306
  26.001665,    6.983306
  26.006503,    6.983306
  26.008277,    6.983306
  26.014923,    6.983306
  26.021592,    6.983306
  26.028254,    6.983306
  26.034933,    6.983306
  26.041614,    6.983306
  26.048295,    6.983306
  26.054948,    6.983306
  26.061665,    6.983306
  26.068346,    6.983306
  26.075082,    6.983306
  26.081831,    6.983306
  26.088590,    6.983306
  26.095335,    6.983306
  26.102072,    6.983306
  26.108800,    6.983306
  26.115596,    6.983306
  26.122392,    6.983306
  26.129204,    6.983306
  26.136029,    6.983306
  26.142882,    6.983306
  26.149722,    6.983306
  26.156570,    6.983306
  26.163419,    6.983306
  26.170273,    6.983306
  26.177139,    6.983306
  26.184026,    6.983306
  26.190935,    6.983306
  26.197866,    6.983306
  26.204818,    6.983306
  26.211791,    6.983306
  26.218749,    6.983306
  26.225710,    6.983306
  26.232725,    6.983306
  26.239715,    6.983306
  26.246750,    6.983306
  26.253776,    6.983306
  26.260792,    6.983306
  26.267878,    6.983306
  26.274956,    6.983306
  26.282031,    6.983306
  26.289122,    6.983306
  26.296206,    6.983306
  26.303329,    6.983306
  26.310437,    6.983306
  26.317615,    6.983306
  26.324795,    6.983306
  26.331937,    6.983306
  26.339136,    6.983306
  26.346285,    6.983306
  26.353487,    6.983306
  26.360674,    6.983306
  26.367879,    6.983306
  26.375088,    6.983306
  26.382363,    6.983306
  26.389652,    6.983306
  26.396942,    6.983306
  26.404243,    6.983306
  26.411548,    6.983306
  26.418861,    6.983306
  26.426248,    6.983306
  26.433621,    6.983306
  26.440985,    6.983306
  26.448367,    6.983306
  26.455759,    6.983306
  26.463154,    6.983306
  26.470614,    6.983306
  26.478027,    6.983306
  26.485477,    6.983306
  26.492874,    6.983306
  26.500353,    6.983306
  26.507857,    6.983306
  26.515318,    6.983306
  26.522833,    6.983306
  26.530395,    6.983306
  26.537931,    6.983306
  26.545512,    6.983306
  26.553075,    6.983306
  26.560615,    6.983306
  26.568226,    6.983306
  26.575857,    6.983306
  26.583504,    6.983306
  26.591158,    6.983306
  26.598834,    6.983306
  26.606517,    6.983306
  26.614183,    6.983306
  26.621886,    6.983306
  26.629611,    6.983306
  26.637341,    6.983306
  26.645092,    6.983306
  26.652843,    6.983306
  26.660628,    6.983306
  26.668446,    6.983306
  26.676289,    6.983306
  26.684116,    6.983306
  26.691922,    6.983306
  26.699805,    6.983306
  26.707679,    6.983306
  26.715604,    6.983306
  26.723495,    6.983306
  26.731452,    6.983306
  26.739378,    6.983306
  26.747321,    6.983306
  26.755316,    6.983306
  26.763287,    6.983306
  26.771283,    6.983306
  26.779297,    6.983306
  26.787288,    6.983306
  26.795345,    6.983306
  26.803403,    6.983306
  26.811502,    6.983306
  26.819560,    6.983306
  26.827633,    6.983306
  26.835749,    6.983306
  26.843893,    6.983306
  26.852015,    6.983306
  26.860154,    6.983306
  26.868348,    6.983306
  26.876520,    6.983306
  26.884724,    6.983306
  26.892972,    6.983306
  26.901181,    6.983306
  26.909478,    6.983306
  26.917707,    6.983306
  26.926005,    6.983306
  26.934340,    6.983306
  26.942654,    6.983306
  26.950998,    6.983306
  26.959284,    6.983306
  26.967656,    6.983306
  26.975997,    6.983306
  26.984426,    6.983306
  26.992852,    6.983306
  27.001310,    6.983306
  27.009727,    6.983306
  27.018162,    6.983306
  27.026603,    6.983306
  27.035088,    6.983306
  27.043563,    6.983306
  27.052080,    6.983306
  27.060581,    6.983306
  27.069078,    6.983306
  27.077600,    6.983306
  27.086191,    6.983306
  27.094742,    6.983306
  27.103367,    6.983306
  27.111930,    6.983306
  27.120514,    6.983306
  27.129235,    6.983306
  27.137848,    6.983306
  27.146549,    6.983306
  27.155177,    6.983306
  27.163902,    6.983306
  27.172637,    6.983306
  27.181390,    6.983306
  27.190155,    6.983306
  27.198901,    6.983306
  27.207731,    6.983306
  27.216571,    6.983306
  27.225358,    6.983306
  27.234210,    6.983306
  27.243098,    6.983306
  27.251911,    6.983306
  27.260819,    6.983306
  27.269756,    6.983306
  27.278648,    6.983306
  27.287564,    6.983306
  27.296494,    6.983306
  27.305481,    6.983306
  27.314430,    6.983306
  27.323421,    6.983306
  27.332486,    6.983306
  27.341551,    6.983306
  27.350565,    6.983306
  27.359573,    6.983306
  27.368695,    6.983306
  27.377764,    6.983306
  27.386823,    6.983306
  27.395943,    6.983306
  27.405158,    6.983306
  27.414228,    6.983306
  27.423413,    6.983306
  27.432576,    6.983306
  27.441762,    6.983306
  27.450977,    6.983306
  27.460195,    6.983306
  27.469485,    6.983306
  27.478729,    6.983306
  27.488004,    6.983306
  27.497328,    6.983306
  27.506695,    6.983306
  27.515993,    6.983306
  27.525303,    6.983306
  27.534606,    6.983306
  27.543996,    6.983306
  27.553278,    6.983306
  27.562753,    6.983306
  27.572186,    6.983306
  27.581532,    6.983306
  27.590965,    6.983306
  27.600435,    6.983306
  27.609872,    6.983306
  27.619349,    6.983306
  27.628694,    6.983306
  27.638105,    6.983306
  27.647565,    6.983306
  27.657105,    6.983306
  27.666633,    6.983306
  27.676212,    6.983306
  27.685832,    6.983306
  27.695400,    6.983306
  27.704920,    6.983306
  27.714451,    6.983306
  27.724032,    6.983306
  27.733619,    6.983306
  27.743324,    6.983306
  27.752970,    6.983306
  27.762610,    6.983306
  27.772286,    6.983306
  27.782008,    6.983306
  27.791758,    6.983306
  27.801448,    6.983306
  27.811173,    6.983306
  27.820906,    6.983306
  27.830604,    6.983306
  27.840231,    6.983306
  27.849979,    6.983306
  27.859813,    6.983306
  27.869515,    6.983306
  27.879334,    6.983306
  27.889180,    6.983306
  27.899027,    6.983306
  27.908879,    6.983306
  27.918720,    6.983306
  27.928512,    6.983306
  27.938422,    6.983306
  27.948180,    6.983306
  27.958150,    6.983306
  27.967957,    6.983306
  27.977892,    6.983306
  27.987757,    6.983306
  27.997642,    6.983306
  28.007532,    6.983306
  28.017459,    6.983306
  28.027435,    6.983306
  28.037411,    6.983306
  28.047290,    6.983306
  28.057309,    6.983306
  28.067381,    6.983306
  28.077390,    6.983306
  28.087479,    6.983306
  28.097518,    6.983306
  28.107611,    6.983306
  28.117705,    6.983306
  28.127713,    6.983306
  28.137753,    6.983306
  28.147813,    6.983306
  28.157759,    6.983306
  28.167934,    6.983306
  28.178073,    6.983306
  28.188128,    6.983306
  28.198201,    6.983306
  28.208409,    6.983306
  28.218600,    6.983306
  28.228826,    6.983306
  28.238957,    6.983306
  28.249085,    6.983306
  28.259278,    6.983306
  28.269521,    6.983306
  28.279716,    6.983306
  28.290024,    6.983306
  28.300347,    6.983306
  28.310610,    6.983306
  28.320958,    6.983306
  28.331278,    6.983306
  28.341431,    6.983306
  28.351677,    6.983306
  28.361961,    6.983306
  28.372305,    6.983306
  28.382583,    6.983306
  28.392910,    6.983306
  28.403171,    6.983306
  28.413521,    6.983306
  28.423829,    6.983306
  28.434333,    6.983306
  28.444671,    6.983306
  28.455023,    6.983306
  28.465499,    6.983306
  28.475937,    6.983306
  28.486289,    6.983306
  28.496710,    6.983306
  28.507080,    6.983306
  28.517450,    6.983306
  28.527905,    6.983306
  28.538217,    6.983306
  28.548738,    6.983306
  28.559140,    6.983306
  28.569678,    6.983306
  28.579450,    6.983306
