Time, Angles
   0.000100,    0.000000
   0.000597,    0.000000
   0.002118,    0.000000
   0.006000,    0.000000
   0.013409,    0.000000
   0.025776,    0.000000
   0.050478,    0.000000
   0.078860,    0.000000
   0.107231,    0.000000
   0.135754,    0.000000
   0.164285,    0.000000
   0.192786,    0.000000
   0.221427,    0.000000
   0.250002,    0.000000
   0.278792,    0.000000
   0.307720,    0.000000
   0.336801,    0.000000
   0.365999,    0.000000
   0.395324,    0.000000
   0.424752,    0.000000
   0.454334,    0.000000
   0.483922,    0.000000
   0.513902,    0.000000
   0.543998,    0.000000
   0.574132,    0.000000
   0.604589,    0.000000
   0.635202,    0.000000
   0.665680,    0.000000
   0.696805,    0.000000
   0.728105,    0.000000
   0.759386,    0.000000
   0.790805,    0.000000
   0.823009,    0.000000
   0.855112,    0.000000
   0.887601,    0.000000
   0.920021,    0.000000
   0.952657,    0.000000
   0.985716,    0.000000
   1.019144,    0.000000
   1.052681,    0.000000
   1.086312,    0.000000
   1.120768,    0.000000
   1.155376,    0.000000
   1.190329,    0.000000
   1.225051,    0.000000
   1.260463,    0.000000
   1.295730,    0.000000
   1.331831,    0.000000
   1.367713,    0.000000
   1.403564,    0.000000
   1.439859,    0.000000
   1.476690,    0.000000
   1.513168,    0.000000
   1.550329,    0.000000
   1.587555,    0.000000
   1.625520,    0.000000
   1.663335,    0.000000
   1.701359,    0.000000
   1.739975,    0.000000
   1.778616,    0.000000
   1.818149,    0.000000
   1.857714,    0.000000
   1.897315,    0.000000
   1.937493,    0.000000
   1.977233,    0.000000
   2.017468,    0.000000
   2.057621,    0.000000
   2.098892,    0.000000
   2.140367,    0.000000
   2.181313,    0.000000
   2.222727,    0.000000
   2.264752,    0.000000
   2.306943,    0.000000
   2.349666,    0.000000
   2.392480,    0.000000
   2.435325,    0.000000
   2.478412,    0.000000
   2.521890,    0.000000
   2.565666,    0.000000
   2.609548,    0.000000
   2.653538,    0.000000
   2.697987,    0.000000
   2.742758,    0.000000
   2.787783,    0.000000
   2.832751,    0.000000
   2.878364,    0.000000
   2.924142,    0.000000
   2.970033,    0.000000
   3.016121,    0.000000
   3.062908,    0.000000
   3.109176,    0.000000
   3.155950,    0.000000
   3.203176,    0.000000
   3.250564,    0.000000
   3.298182,    0.000000
   3.345500,    0.000000
   3.393585,    0.000000
   3.441717,    0.000000
   3.490411,    0.000000
   3.539407,    0.000000
   3.588110,    0.000000
   3.637471,    0.000000
   3.686899,    0.000000
   3.736685,    0.000000
   3.786223,    0.000000
   3.836643,    0.000000
   3.886872,    0.000000
   3.937877,    0.000000
   3.989209,    0.000000
   4.040325,    0.000000
   4.091267,    0.000000
   4.142668,    0.000000
   4.193968,    0.000000
   4.246300,    0.000000
   4.248393,    0.000000
   4.248869,    0.000000
   4.248974,    0.000000
   4.249123,    0.000000
   4.249175,    0.000000
   4.249275,    0.000000
   4.249316,    0.000000
   4.249320,    0.000000
   4.249324,    0.000000
   4.249364,    0.000000
   4.249766,    0.000000
   4.251923,    0.000000
   4.260001,    0.000000
   4.285765,    0.000000
   4.334340,    0.000000
   4.382405,    0.000000
   4.430454,    0.000000
   4.478753,    0.000000
   4.527143,    0.000000
   4.575592,    0.000000
   4.624658,    0.000000
   4.673806,    0.000000
   4.723125,    0.000000
   4.772612,    0.000000
   4.822316,    0.000000
   4.872217,    0.000000
   4.922507,    0.000000
   4.973108,    0.000000
   5.023738,    0.000000
   5.074108,    0.000000
   5.124756,    0.000000
   5.175556,    0.000000
   5.226723,    0.000000
   5.278219,    0.000000
   5.330175,    0.000000
   5.381689,    0.000000
   5.433555,    0.000000
   5.485692,    0.000000
   5.537972,    0.000000
   5.590382,    0.000000
   5.642837,    0.000000
   5.695399,    0.000000
   5.748291,    0.000000
   5.801419,    0.000000
   5.854678,    0.000000
   5.908203,    0.000000
   5.961203,    0.000000
   6.014767,    0.000000
   6.068625,    0.000000
   6.122578,    0.000000
   6.176799,    0.000000
   6.231116,    0.000000
   6.285440,    0.000000
   6.340042,    0.000000
   6.394772,    0.000000
   6.450166,    0.000000
   6.505531,    0.000000
   6.560856,    0.000000
   6.616344,    0.000000
   6.672373,    0.000000
   6.727766,    0.000000
   6.784048,    0.000000
   6.840168,    0.000000
   6.896461,    0.000000
   6.952964,    0.000000
   7.009604,    0.000000
   7.066298,    0.000000
   7.123010,    0.000000
   7.179721,    0.000000
   7.236718,    0.000000
   7.293922,    0.000000
   7.351312,    0.000000
   7.409361,    0.000000
   7.467271,    0.000000
   7.525191,    0.000000
   7.583316,    0.000000
   7.641609,    0.000000
   7.700113,    0.000000
   7.758616,    0.000000
   7.817439,    0.000000
   7.876215,    0.000000
   7.935129,    0.000000
   7.994180,    0.000000
   8.053264,    0.000000
   8.112483,    0.000000
   8.172226,    0.000000
   8.232014,    0.000000
   8.291963,    0.000000
   8.352085,    0.000000
   8.412656,    0.000000
   8.472889,    0.000000
   8.533217,    0.000000
   8.593887,    0.000000
   8.654559,    0.000000
   8.715533,    0.000000
   8.727746,    0.000000
   8.736018,    0.000000
   8.742617,    0.000000
   8.743599,    0.000000
   8.743833,    0.000000
   8.743905,    0.000000
   8.743939,    0.000000
   8.743946,    0.000000
   8.743954,    0.000000
   8.744031,    0.000000
   8.744724,    0.000000
   8.748743,    0.000000
   8.763093,    0.000000
   8.811984,    0.000000
   8.867623,    0.000000
   8.923520,    0.000000
   8.979573,    0.000000
   9.035881,    0.000000
   9.092404,    0.000000
   9.148720,    0.000000
   9.205512,    0.000000
   9.262126,    0.000000
   9.318660,    0.000000
   9.375511,    0.000000
   9.432481,    0.000000
   9.489629,    0.000000
   9.546727,    0.000000
   9.604263,    0.000000
   9.661821,    0.000000
   9.719218,    0.000000
   9.776764,    0.000000
   9.834634,    0.000000
   9.892602,    0.000000
   9.950469,    0.000000
  10.008520,    0.000000
  10.066906,    0.000000
  10.125242,    0.000000
  10.183644,    0.000000
  10.242354,    0.000000
  10.301234,    0.000000
  10.360008,    0.000000
  10.418895,    0.000000
  10.477722,    0.000000
  10.536972,    0.000000
  10.596207,    0.000000
  10.655393,    0.000000
  10.714881,    0.000000
  10.774554,    0.000000
  10.834559,    0.000000
  10.894432,    0.000000
  10.954355,    0.000000
  11.014374,    0.000000
  11.074565,    0.000000
  11.134861,    0.000000
  11.195128,    0.000000
  11.255503,    0.000000
  11.316177,    0.000000
  11.376900,    0.000000
  11.437915,    0.000000
  11.498965,    0.000000
  11.559984,    0.000000
  11.621290,    0.000000
  11.682601,    0.000000
  11.743915,    0.000000
  11.805463,    0.000000
  11.867069,    0.000000
  11.928781,    0.000000
  11.990563,    0.000000
  12.052456,    0.000000
  12.114489,    0.000000
  12.176490,    0.000000
  12.238494,    0.000000
  12.300810,    0.000000
  12.363436,    0.000000
  12.426286,    0.000000
  12.489304,    0.000000
  12.552133,    0.000000
  12.614921,    0.000000
  12.677848,    0.000000
  12.740675,    0.000000
  12.803771,    0.000000
  12.867135,    0.000000
  12.930653,    0.000000
  12.994164,    0.000000
  13.057722,    0.000000
  13.121378,    0.000000
  13.185269,    0.000000
  13.249443,    0.000000
  13.313645,    0.000000
  13.377613,    0.000000
  13.441981,    0.000000
  13.506369,    0.000000
  13.570793,    0.000000
  13.583718,    0.000000
  13.632699,    0.000000
  13.633215,    0.000000
  13.633362,    0.000000
  13.633600,    0.000000
  13.633678,    0.000000
  13.633832,    0.000000
  13.633852,    0.000000
  13.633863,    0.000000
  13.633873,    0.000000
  13.633882,    0.000000
  13.633974,    0.000000
  13.634887,    0.000000
  13.641271,    0.000000
  13.669796,    0.000000
  13.726223,    0.000000
  13.784283,    0.000000
  13.842305,    0.000000
  13.900518,    0.000000
  13.958825,    0.000000
  14.017140,    0.000000
  14.075459,    0.000000
  14.133968,    0.000000
  14.192534,    0.000000
  14.251115,    0.000000
  14.310013,    0.000000
  14.368785,    0.000000
  14.427570,    0.000000
  14.486516,    0.000000
  14.545512,    0.000000
  14.604755,    0.000000
  14.664056,    0.000000
  14.723339,    0.000000
  14.782810,    0.000000
  14.842262,    0.000000
  14.901854,    0.000000
  14.961589,    0.000000
  15.021263,    0.000000
  15.081189,    0.000000
  15.141002,    0.000000
  15.201095,    0.000000
  15.261217,    0.000000
  15.321506,    0.000000
  15.381845,    0.000000
  15.442218,    0.000000
  15.502652,    0.000000
  15.563200,    0.000000
  15.623815,    0.000000
  15.684519,    0.000000
  15.745140,    0.000000
  15.806020,    0.000000
  15.866801,    0.000000
  15.927864,    0.000000
  15.989006,    0.000000
  16.050203,    0.000000
  16.111474,    0.000000
  16.172956,    0.000000
  16.234510,    0.000000
  16.295991,    0.000000
  16.357633,    0.000000
  16.419417,    0.000000
  16.481199,    0.000000
  16.543123,    0.000000
  16.605086,    0.000000
  16.667231,    0.000000
  16.729337,    0.000000
  16.791521,    0.000000
  16.853902,    0.000000
  16.916218,    0.000000
  16.978579,    0.000000
  17.041098,    0.000000
  17.103618,    0.000000
  17.166373,    0.000000
  17.229173,    0.000000
  17.292014,    0.000000
  17.354772,    0.000000
  17.417879,    0.000000
  17.480932,    0.000000
  17.544131,    0.000000
  17.607450,    0.000000
  17.670939,    0.000000
  17.734490,    0.000000
  17.797970,    0.000000
  17.861371,    0.000000
  17.924916,    0.000000
  17.988668,    0.000000
  18.052596,    0.000000
  18.116486,    0.000000
  18.180529,    0.000000
  18.244675,    0.000000
  18.308912,    0.000000
  18.373012,    0.000000
  18.437370,    0.000000
  18.501788,    0.000000
  18.566283,    0.000000
  18.630786,    0.000000
  18.695282,    0.000000
  18.759920,    0.000000
  18.824800,    0.000000
  18.889688,    0.000000
  18.954630,    0.000000
  19.019543,    0.000000
  19.084698,    0.000000
  19.149841,    0.000000
  19.162902,    0.000000
  19.172900,    0.000000
  19.180257,    0.000000
  19.181423,    0.000000
  19.181778,    0.000000
  19.182388,    0.000000
  19.182592,    0.000000
  19.182627,    0.000000
  19.182664,    0.000000
  19.183030,    0.000000
  19.186252,    0.000000
  19.204628,    0.000000
  19.260788,    0.000000
  19.326063,    0.000000
  19.391247,    0.000000
  19.456328,    0.000000
  19.521615,    0.000000
  19.587058,    0.000000
  19.652481,    0.000000
  19.718105,    0.000000
  19.783721,    0.000000
  19.849488,    0.000000
  19.915331,    0.000000
  19.981202,    0.000000
  20.047129,    0.000000
  20.113097,    0.000000
  20.179258,    0.000000
  20.245458,    0.000000
  20.311688,    0.000000
  20.378014,    0.000000
  20.444471,    0.000000
  20.510968,    0.000000
  20.577468,    0.000000
  20.644186,    0.000000
  20.711054,    0.000000
  20.777855,    0.000000
  20.844748,    0.000000
  20.911727,    0.000000
  20.978858,    0.000000
  21.046008,    0.000000
  21.113248,    0.000000
  21.180441,    0.000000
  21.247762,    0.000000
  21.315162,    0.000000
  21.382751,    0.000000
  21.450409,    0.000000
  21.518081,    0.000000
  21.585792,    0.000000
  21.653579,    0.000000
  21.721439,    0.000000
  21.789321,    0.000000
  21.857288,    0.000000
  21.925403,    0.000000
  21.993633,    0.000000
  22.061984,    0.000000
  22.130342,    0.000000
  22.198806,    0.000000
  22.267172,    0.000000
  22.335786,    0.000000
  22.404448,    0.000000
  22.473232,    0.000000
  22.542042,    0.000000
  22.610851,    0.000000
  22.679893,    0.000000
  22.748967,    0.000000
  22.818074,    0.000000
  22.887356,    0.000000
  22.956541,    0.000000
  23.025791,    0.000000
  23.095313,    0.000000
  23.164660,    0.000000
  23.234274,    0.000000
  23.304014,    0.000000
  23.373743,    0.000000
  23.443587,    0.000000
  23.513363,    0.000000
  23.583261,    0.000000
  23.653353,    0.000000
  23.723314,    0.000000
  23.793589,    0.000000
  23.863779,    0.000000
  23.934074,    0.000000
  23.968044,    0.000000
  24.004621,    0.000000
  24.075192,    0.000000
  24.145625,    0.000000
  24.216207,    0.000000
  24.286838,    0.000000
  24.357653,    0.000000
  24.428434,    0.000000
  24.499351,    0.000000
  24.570341,    0.000000
  24.641390,    0.000000
  24.712465,    0.000000
  24.783691,    0.000000
  24.854983,    0.000000
  24.926295,    0.000000
  24.997611,    0.000000
  25.069004,    0.000000
  25.140384,    0.000000
  25.211740,    0.000000
  25.283289,    0.000000
  25.354902,    0.000000
  25.426419,    0.000000
  25.498005,    0.000000
  25.569673,    0.000000
  25.641402,    0.000000
  25.713177,    0.000000
  25.784919,    0.000000
  25.787793,    0.000000
  25.787930,    0.000000
  25.788020,    0.000000
  25.788087,    0.000000
  25.788127,    0.000000
  25.788144,    0.000000
  25.788160,    0.000000
  25.788326,    0.000000
  25.789987,    0.000000
  25.800024,    0.000000
  25.844615,    0.000000
  25.918101,    0.000000
  25.992378,    0.000000
  26.066619,    0.000000
  26.140992,    0.000000
  26.215407,    0.000000
  26.289751,    0.000000
  26.364219,    0.000000
  26.438608,    0.000000
  26.512937,    0.000000
  26.587368,    0.000000
  26.661705,    0.000000
  26.736178,    0.000000
  26.810645,    0.000000
  26.816516,    0.003304
  26.822395,    0.006671
  26.828280,    0.010098
  26.834155,    0.013578
  26.840043,    0.017124
  26.845938,    0.020730
  26.851789,    0.024368
  26.857677,    0.028086
  26.863568,    0.031863
  26.869437,    0.035684
  26.875356,    0.039595
  26.881192,    0.043509
  26.887111,    0.047535
  26.893035,    0.051623
  26.898971,    0.055778
  26.904908,    0.059992
  26.910791,    0.064225
  26.916694,    0.068530
  26.922647,    0.072929
  26.928585,    0.077377
  26.934536,    0.081891
  26.940496,    0.086472
  26.946454,    0.091109
  26.952427,    0.095816
  26.958376,    0.100564
  26.964364,    0.105400
  26.970329,    0.110277
  26.976301,    0.115219
  26.982257,    0.120205
  26.988259,    0.125288
  26.994236,    0.130410
  27.000223,    0.135598
  27.006252,    0.140882
  27.012257,    0.146204
  27.018260,    0.151583
  27.024269,    0.157027
  27.030290,    0.162540
  27.036323,    0.168124
  27.042337,    0.173749
  27.048382,    0.179462
  27.054439,    0.185247
  27.060428,    0.191026
  27.066518,    0.196961
  27.072613,    0.202961
  27.078703,    0.209017
  27.084808,    0.215148
  27.090918,    0.221346
  27.097022,    0.227596
  27.103130,    0.233912
  27.109227,    0.240276
  27.115344,    0.246722
  27.121483,    0.253250
  27.127607,    0.259825
  27.133760,    0.266490
  27.139880,    0.273181
  27.146046,    0.279984
  27.152219,    0.286854
  27.158390,    0.293784
  27.164569,    0.300784
  27.170731,    0.307826
  27.176896,    0.314933
  27.183112,    0.322159
  27.189272,    0.329382
  27.195487,    0.336731
  27.201718,    0.344160
  27.207962,    0.351667
  27.214209,    0.359240
  27.220412,    0.366822
  27.226673,    0.374537
  27.232902,    0.382274
  27.239126,    0.390067
  27.245417,    0.398005
  27.251695,    0.405990
  27.258024,    0.414103
  27.264324,    0.422243
  27.270653,    0.430483
  27.276937,    0.438727
  27.283294,    0.447130
  27.289634,    0.455575
  27.295942,    0.464040
  27.302283,    0.472613
  27.308669,    0.481311
  27.315041,    0.490053
  27.321463,    0.498928
  27.327840,    0.507806
  27.334284,    0.516841
  27.340714,    0.525923
  27.347143,    0.535067
  27.353604,    0.544323
  27.360048,    0.553619
  27.366505,    0.562999
  27.372943,    0.572416
  27.379402,    0.581929
  27.385858,    0.591504
  27.392390,    0.601208
  27.398890,    0.610883
  27.405415,    0.620612
  27.411927,    0.630340
  27.418477,    0.640142
  27.425000,    0.649922
  27.431541,    0.659746
  27.438112,    0.669633
  27.444697,    0.679560
  27.451305,    0.689538
  27.457894,    0.699506
  27.464466,    0.709466
  27.471056,    0.719472
  27.477650,    0.729501
  27.484242,    0.739546
  27.490903,    0.749714
  27.497572,    0.759910
  27.504242,    0.770128
  27.510912,    0.780363
  27.517581,    0.790615
  27.524266,    0.800910
  27.530963,    0.811241
  27.537667,    0.821603
  27.544410,    0.832042
  27.551138,    0.842476
  27.557905,    0.852988
  27.564634,    0.863461
  27.571383,    0.873982
  27.578145,    0.884542
  27.584932,    0.895159
  27.591681,    0.905735
  27.598455,    0.916370
  27.605246,    0.927049
  27.612059,    0.937780
  27.618853,    0.948501
  27.625693,    0.959312
  27.632538,    0.970150
  27.639364,    0.980975
  27.646227,    0.991879
  27.653122,    1.002851
  27.659978,    1.013781
  27.666843,    1.024742
  27.673797,    1.035864
  27.680744,    1.046995
  27.687729,    1.058206
  27.694712,    1.069432
  27.701707,    1.080695
  27.708703,    1.091980
  27.715665,    1.103229
  27.722702,    1.114619
  27.729750,    1.126045
  27.736786,    1.137471
  27.743870,    1.148993
  27.750966,    1.160555
  27.758007,    1.172045
  27.765088,    1.183620
  27.772203,    1.195271
  27.779290,    1.206894
  27.786405,    1.218583
  27.793532,    1.230311
  27.800692,    1.242113
  27.807857,    1.253941
  27.815010,    1.265769
  27.822211,    1.277697
  27.829367,    1.289568
  27.836566,    1.301530
  27.843769,    1.313519
  27.850982,    1.325544
  27.858246,    1.337674
  27.865532,    1.349860
  27.872802,    1.362038
  27.880071,    1.374234
  27.885858,    1.383959
  27.887360,    1.386484
  27.894645,    1.398746
  27.901967,    1.411091
  27.909307,    1.423485
  27.916628,    1.435868
  27.923981,    1.448324
  27.931365,    1.460853
  27.938774,    1.473442
  27.946183,    1.486054
  27.953577,    1.498658
  27.960999,    1.511332
  27.968478,    1.524122
  27.975918,    1.536866
  27.983422,    1.549739
  27.990949,    1.562673
  27.998425,    1.575539
  28.005957,    1.588521
  28.013503,    1.601546
  28.021092,    1.614667
  28.028666,    1.627784
  28.036281,    1.640991
  28.043919,    1.654258
  28.051601,    1.667623
  28.059271,    1.680988
  28.066912,    1.694324
  28.074613,    1.707783
  28.082302,    1.721243
  28.089987,    1.734717
  28.097707,    1.748273
  28.105470,    1.761925
  28.113190,    1.775521
  28.121042,    1.789372
  28.128801,    1.803080
  28.136630,    1.816932
  28.144455,    1.830797
  28.152330,    1.844773
  28.160163,    1.858696
  28.168029,    1.872698
  28.175910,    1.886748
  28.183777,    1.900795
  28.191664,    1.914898
  28.199571,    1.929057
  28.207507,    1.943289
  28.215430,    1.957520
  28.223401,    1.971858
  28.231366,    1.986206
  28.239379,    2.000663
  28.247367,    2.015096
  28.255368,    2.029571
  28.263389,    2.044107
  28.271499,    2.058824
  28.279568,    2.073488
  28.287691,    2.088272
  28.295852,    2.103147
  28.304004,    2.118029
  28.312156,    2.132931
  28.320365,    2.147958
  28.328546,    2.162958
  28.336745,    2.178012
  28.344976,    2.193145
  28.353241,    2.208365
  28.361486,    2.223568
  28.369820,    2.238957
  28.378098,    2.254266
  28.386444,    2.269723
  28.394761,    2.285146
  28.403117,    2.300665
  28.411456,    2.316176
  28.419870,    2.331846
  28.428249,    2.347474
  28.436624,    2.363117
  28.445079,    2.378930
  28.453463,    2.394634
  28.461935,    2.410524
  28.470403,    2.426428
  28.478862,    2.442340
  28.487310,    2.458250
  28.495804,    2.474271
  28.504275,    2.490270
  28.512858,    2.506502
  28.521376,    2.522633
  28.529916,    2.538830
  28.538476,    2.555085
  28.547088,    2.571463
  28.555750,    2.587957
  28.564376,    2.604405
  28.573005,    2.620882
  28.581608,    2.637330
  28.590333,    2.654035
  28.599012,    2.670674
  28.607692,    2.687336
  28.616509,    2.704285
  28.625223,    2.721058
  28.633950,    2.737879
  28.642771,    2.754903
  28.651581,    2.771928
  28.660458,    2.789107
  28.669300,    2.806239
  28.678114,    2.823340
  28.686972,    2.840549
  28.695759,    2.857642
  28.704631,    2.874923
  28.713564,    2.892345
  28.722602,    2.909994
  28.731577,    2.927544
  28.740604,    2.945219
  28.749595,    2.962845
  28.758586,    2.980495
  28.767636,    2.998282
  28.776653,    3.016029
  28.785754,    3.033962
  28.794724,    3.051659
  28.803757,    3.069504
  28.812760,    3.087311
  28.821940,    3.105491
  28.831106,    3.123667
  28.840245,    3.141811
  28.849374,    3.159960
  28.858568,    3.178259
  28.867813,    3.196682
  28.877055,    3.215124
  28.886291,    3.233575
  28.895524,    3.252042
  28.904799,    3.270617
  28.914166,    3.289399
  28.923434,    3.308004
  28.932767,    3.326764
  28.941987,    3.345319
  28.951455,    3.364396
  28.960754,    3.383153
  28.970137,    3.402104
  28.979586,    3.421211
  28.988911,    3.440089
  28.998306,    3.459131
  29.007764,    3.478325
  29.017208,    3.497512
  29.026712,    3.516842
  29.036095,    3.535949
  29.045554,    3.555235
  29.054995,    3.574504
  29.064426,    3.593777
  29.073974,    3.613310
  29.083540,    3.632903
  29.093167,    3.652642
  29.102781,    3.672378
  29.112383,    3.692111
  29.122037,    3.711974
  29.131526,    3.731519
  29.141252,    3.751574
  29.150897,    3.771487
  29.160620,    3.791580
  29.170276,    3.811559
  29.179960,    3.831616
  29.189652,    3.851712
  29.199346,    3.871837
  29.209080,    3.892063
  29.218966,    3.912631
  29.228642,    3.932780
  29.238289,    3.952892
  29.248133,    3.973438
  29.257964,    3.993977
  29.267847,    4.014647
  29.277716,    4.035310
  29.287524,    4.055868
  29.297414,    4.076617
  29.307258,    4.097292
  29.317156,    4.118104
  29.327069,    4.138968
  29.336948,    4.159781
  29.346890,    4.180748
  29.356849,    4.201774
  29.366720,    4.222633
  29.376731,    4.243812
  29.386598,    4.264706
  29.396690,    4.286098
  29.406793,    4.307534
  29.416806,    4.328803
  29.426851,    4.350159
  29.436806,    4.371343
  29.446817,    4.392669
  29.456849,    4.414061
  29.466921,    4.435557
  29.476888,    4.456850
  29.487000,    4.478475
  29.497083,    4.500056
  29.507081,    4.521476
  29.517212,    4.543203
  29.527366,    4.564999
  29.537553,    4.586886
  29.547606,    4.608505
  29.557777,    4.630398
  29.567919,    4.652249
  29.578026,    4.674043
  29.588233,    4.696075
  29.598401,    4.718041
  29.608477,    4.739829
  29.618696,    4.761944
  29.628874,    4.783991
  29.639192,    4.806360
  29.649510,    4.828750
  29.659802,    4.851103
  29.670110,    4.873511
  29.680297,    4.895673
  29.690618,    4.918147
  29.700948,    4.940661
  29.711179,    4.962977
  29.721457,    4.985415
  29.731711,    5.007818
  29.742092,    5.030517
  29.752510,    5.053318
  29.762855,    5.075976
  29.773143,    5.098529
  29.783603,    5.121476
  29.793985,    5.144273
  29.804480,    5.167333
  29.814942,    5.190341
  29.825353,    5.213257
  29.835722,    5.236097
  29.846218,    5.259233
  29.856703,    5.282365
  29.867142,    5.305413
  29.877523,    5.328349
  29.888072,    5.351676
  29.898500,    5.374751
  29.909000,    5.398005
  29.919462,    5.421190
  29.929979,    5.444517
  29.940502,    5.467871
  29.950997,    5.491183
  29.961446,    5.514408
  29.971898,    5.537656
  29.982374,    5.560974
  29.992910,    5.584443
  30.003407,    5.607841
  30.013965,    5.631393
  30.024538,    5.654993
  30.035133,    5.678659
  30.045715,    5.702311
  30.056295,    5.725976
  30.066989,    5.749913
  30.077651,    5.773792
  30.088249,    5.797545
  30.098804,    5.821217
  30.109400,    5.844997
  30.120128,    5.869085
  30.130776,    5.893014
  30.141529,    5.917192
  30.152224,    5.941254
  30.162915,    5.965323
  30.173601,    5.989397
  30.184214,    6.013320
  30.194871,    6.037356
  30.205571,    6.061504
  30.216229,    6.085573
  30.226929,    6.109751
  30.237666,    6.134026
  30.248357,    6.158212
  30.259095,    6.182517
  30.269784,    6.206724
  30.280534,    6.231086
  30.291258,    6.255402
  30.301982,    6.279731
  30.312764,    6.304205
  30.321915,    6.324987
