Time, Angles
   0.000100,    0.000000
   0.000632,    0.000000
   0.002658,    0.000000
   0.010813,    0.000000
   0.025337,    0.000000
   0.052438,    0.000000
   0.080756,    0.000000
   0.109151,    0.000000
   0.137475,    0.000000
   0.165924,    0.000000
   0.194561,    0.000000
   0.223268,    0.000000
   0.251881,    0.000000
   0.280809,    0.000000
   0.309715,    0.000000
   0.338699,    0.000000
   0.368081,    0.000000
   0.397342,    0.000000
   0.426895,    0.000000
   0.456628,    0.000000
   0.486143,    0.000000
   0.515893,    0.000000
   0.546240,    0.000000
   0.576696,    0.000000
   0.607149,    0.000000
   0.637996,    0.000000
   0.668871,    0.000000
   0.700113,    0.000000
   0.731322,    0.000000
   0.763022,    0.000000
   0.794720,    0.000000
   0.826546,    0.000000
   0.858859,    0.000000
   0.891226,    0.000000
   0.923987,    0.000000
   0.957066,    0.000000
   0.990520,    0.000000
   1.023672,    0.000000
   1.056808,    0.000000
   1.090362,    0.000000
   1.124297,    0.000000
   1.158939,    0.000000
   1.193709,    0.000000
   1.228613,    0.000000
   1.263827,    0.000000
   1.299374,    0.000000
   1.335333,    0.000000
   1.371267,    0.000000
   1.407707,    0.000000
   1.444142,    0.000000
   1.480707,    0.000000
   1.518105,    0.000000
   1.555786,    0.000000
   1.593149,    0.000000
   1.630917,    0.000000
   1.668815,    0.000000
   1.707771,    0.000000
   1.746453,    0.000000
   1.785409,    0.000000
   1.824306,    0.000000
   1.863714,    0.000000
   1.903442,    0.000000
   1.943357,    0.000000
   1.983599,    0.000000
   2.023895,    0.000000
   2.064363,    0.000000
   2.105067,    0.000000
   2.146850,    0.000000
   2.188147,    0.000000
   2.229894,    0.000000
   2.271762,    0.000000
   2.313916,    0.000000
   2.356660,    0.000000
   2.399529,    0.000000
   2.442515,    0.000000
   2.486167,    0.000000
   2.529532,    0.000000
   2.573081,    0.000000
   2.617413,    0.000000
   2.661707,    0.000000
   2.706131,    0.000000
   2.751359,    0.000000
   2.796088,    0.000000
   2.841126,    0.000000
   2.886382,    0.000000
   2.931919,    0.000000
   2.978012,    0.000000
   3.023810,    0.000000
   3.069837,    0.000000
   3.117171,    0.000000
   3.164173,    0.000000
   3.211172,    0.000000
   3.258823,    0.000000
   3.306476,    0.000000
   3.354392,    0.000000
   3.402537,    0.000000
   3.451201,    0.000000
   3.499963,    0.000000
   3.548561,    0.000000
   3.597683,    0.000000
   3.646529,    0.000000
   3.695882,    0.000000
   3.745358,    0.000000
   3.795275,    0.000000
   3.845122,    0.000000
   3.895289,    0.000000
   3.946060,    0.000000
   3.997251,    0.000000
   4.048293,    0.000000
   4.099339,    0.000000
   4.150836,    0.000000
   4.203207,    0.000000
   4.213623,    0.000000
   4.222181,    0.000000
   4.248275,    0.000000
   4.248673,    0.000000
   4.249019,    0.000000
   4.249095,    0.000000
   4.249133,    0.000000
   4.249201,    0.000000
   4.249210,    0.000000
   4.249215,    0.000000
   4.249219,    0.000000
   4.249267,    0.000000
   4.249690,    0.000000
   4.252402,    0.000000
   4.263208,    0.000000
   4.296545,    0.000000
   4.346130,    0.000000
   4.394214,    0.000000
   4.442159,    0.000000
   4.490780,    0.000000
   4.539116,    0.000000
   4.588034,    0.000000
   4.637220,    0.000000
   4.686517,    0.000000
   4.736073,    0.000000
   4.785890,    0.000000
   4.835599,    0.000000
   4.885333,    0.000000
   4.935507,    0.000000
   4.985866,    0.000000
   5.036514,    0.000000
   5.087323,    0.000000
   5.138593,    0.000000
   5.189482,    0.000000
   5.240800,    0.000000
   5.292242,    0.000000
   5.343674,    0.000000
   5.395388,    0.000000
   5.447523,    0.000000
   5.499790,    0.000000
   5.551821,    0.000000
   5.604327,    0.000000
   5.657122,    0.000000
   5.709862,    0.000000
   5.762575,    0.000000
   5.815843,    0.000000
   5.869189,    0.000000
   5.922726,    0.000000
   5.976250,    0.000000
   6.030013,    0.000000
   6.083682,    0.000000
   6.137844,    0.000000
   6.192220,    0.000000
   6.246317,    0.000000
   6.300580,    0.000000
   6.355191,    0.000000
   6.410002,    0.000000
   6.465018,    0.000000
   6.520351,    0.000000
   6.575494,    0.000000
   6.631043,    0.000000
   6.686863,    0.000000
   6.742963,    0.000000
   6.799092,    0.000000
   6.855475,    0.000000
   6.911870,    0.000000
   6.968183,    0.000000
   7.024938,    0.000000
   7.081384,    0.000000
   7.138307,    0.000000
   7.195322,    0.000000
   7.252454,    0.000000
   7.309991,    0.000000
   7.367677,    0.000000
   7.425368,    0.000000
   7.483269,    0.000000
   7.541544,    0.000000
   7.599963,    0.000000
   7.658227,    0.000000
   7.716613,    0.000000
   7.775218,    0.000000
   7.833858,    0.000000
   7.892667,    0.000000
   7.951721,    0.000000
   8.011161,    0.000000
   8.070831,    0.000000
   8.130410,    0.000000
   8.189876,    0.000000
   8.249436,    0.000000
   8.309561,    0.000000
   8.369460,    0.000000
   8.429665,    0.000000
   8.490076,    0.000000
   8.550362,    0.000000
   8.611048,    0.000000
   8.671989,    0.000000
   8.733065,    0.000000
   8.735514,    0.000000
   8.737607,    0.000000
   8.739641,    0.000000
   8.742127,    0.000000
   8.742682,    0.000000
   8.743352,    0.000000
   8.743493,    0.000000
   8.743563,    0.000000
   8.743701,    0.000000
   8.743716,    0.000000
   8.743725,    0.000000
   8.743816,    0.000000
   8.743929,    0.000000
   8.745058,    0.000000
   8.751410,    0.000000
   8.773873,    0.000000
   8.825941,    0.000000
   8.881811,    0.000000
   8.937860,    0.000000
   8.993927,    0.000000
   9.050154,    0.000000
   9.106220,    0.000000
   9.162728,    0.000000
   9.219317,    0.000000
   9.276054,    0.000000
   9.332797,    0.000000
   9.389730,    0.000000
   9.446577,    0.000000
   9.503703,    0.000000
   9.560852,    0.000000
   9.618324,    0.000000
   9.675771,    0.000000
   9.733194,    0.000000
   9.790908,    0.000000
   9.848630,    0.000000
   9.906377,    0.000000
   9.964418,    0.000000
  10.022419,    0.000000
  10.080549,    0.000000
  10.139048,    0.000000
  10.197540,    0.000000
  10.256306,    0.000000
  10.314900,    0.000000
  10.373545,    0.000000
  10.432610,    0.000000
  10.491838,    0.000000
  10.550919,    0.000000
  10.610485,    0.000000
  10.669931,    0.000000
  10.729587,    0.000000
  10.789269,    0.000000
  10.848904,    0.000000
  10.908531,    0.000000
  10.968608,    0.000000
  11.028690,    0.000000
  11.088953,    0.000000
  11.149277,    0.000000
  11.209650,    0.000000
  11.270424,    0.000000
  11.331182,    0.000000
  11.392066,    0.000000
  11.452787,    0.000000
  11.513669,    0.000000
  11.574900,    0.000000
  11.636200,    0.000000
  11.697552,    0.000000
  11.759047,    0.000000
  11.820512,    0.000000
  11.882249,    0.000000
  11.943990,    0.000000
  12.005911,    0.000000
  12.067807,    0.000000
  12.129737,    0.000000
  12.191896,    0.000000
  12.254202,    0.000000
  12.316645,    0.000000
  12.379231,    0.000000
  12.441718,    0.000000
  12.504194,    0.000000
  12.567178,    0.000000
  12.630040,    0.000000
  12.693062,    0.000000
  12.756189,    0.000000
  12.819533,    0.000000
  12.883028,    0.000000
  12.946426,    0.000000
  13.009801,    0.000000
  13.073526,    0.000000
  13.137278,    0.000000
  13.201257,    0.000000
  13.265230,    0.000000
  13.329196,    0.000000
  13.393376,    0.000000
  13.457570,    0.000000
  13.522034,    0.000000
  13.586432,    0.000000
  13.599392,    0.000000
  13.608217,    0.000000
  13.615227,    0.000000
  13.620126,    0.000000
  13.623802,    0.000000
  13.627521,    0.000000
  13.630650,    0.000000
  13.631552,    0.000000
  13.632899,    0.000000
  13.633184,    0.000000
  13.633296,    0.000000
  13.633519,    0.000000
  13.633534,    0.000000
  13.633549,    0.000000
  13.633692,    0.000000
  13.634882,    0.000000
  13.642222,    0.000000
  13.681772,    0.000000
  13.739743,    0.000000
  13.797912,    0.000000
  13.856017,    0.000000
  13.914109,    0.000000
  13.972329,    0.000000
  14.030702,    0.000000
  14.089048,    0.000000
  14.147659,    0.000000
  14.206281,    0.000000
  14.264802,    0.000000
  14.323447,    0.000000
  14.382239,    0.000000
  14.441245,    0.000000
  14.500144,    0.000000
  14.559290,    0.000000
  14.618562,    0.000000
  14.677885,    0.000000
  14.737128,    0.000000
  14.796642,    0.000000
  14.856058,    0.000000
  14.915644,    0.000000
  14.975266,    0.000000
  15.035017,    0.000000
  15.094719,    0.000000
  15.154784,    0.000000
  15.214706,    0.000000
  15.274816,    0.000000
  15.335089,    0.000000
  15.395270,    0.000000
  15.455589,    0.000000
  15.516108,    0.000000
  15.576628,    0.000000
  15.637224,    0.000000
  15.697817,    0.000000
  15.758578,    0.000000
  15.819490,    0.000000
  15.880458,    0.000000
  15.941488,    0.000000
  16.002586,    0.000000
  16.063799,    0.000000
  16.124990,    0.000000
  16.186168,    0.000000
  16.247844,    0.000000
  16.309469,    0.000000
  16.370863,    0.000000
  16.432565,    0.000000
  16.494322,    0.000000
  16.556203,    0.000000
  16.618024,    0.000000
  16.680143,    0.000000
  16.742204,    0.000000
  16.804267,    0.000000
  16.866480,    0.000000
  16.929038,    0.000000
  16.991566,    0.000000
  17.054138,    0.000000
  17.116678,    0.000000
  17.179318,    0.000000
  17.242122,    0.000000
  17.304960,    0.000000
  17.367945,    0.000000
  17.431010,    0.000000
  17.494262,    0.000000
  17.557292,    0.000000
  17.620391,    0.000000
  17.683846,    0.000000
  17.747425,    0.000000
  17.810979,    0.000000
  17.874352,    0.000000
  17.938096,    0.000000
  18.001987,    0.000000
  18.065859,    0.000000
  18.129744,    0.000000
  18.193673,    0.000000
  18.257823,    0.000000
  18.321894,    0.000000
  18.386184,    0.000000
  18.450438,    0.000000
  18.514793,    0.000000
  18.579328,    0.000000
  18.643987,    0.000000
  18.708539,    0.000000
  18.773222,    0.000000
  18.838009,    0.000000
  18.902914,    0.000000
  18.967936,    0.000000
  19.033104,    0.000000
  19.098203,    0.000000
  19.163320,    0.000000
  19.176408,    0.000000
  19.178533,    0.000000
  19.180862,    0.000000
  19.181386,    0.000000
  19.181743,    0.000000
  19.181922,    0.000000
  19.182050,    0.000000
  19.182125,    0.000000
  19.182172,    0.000000
  19.182215,    0.000000
  19.182643,    0.000000
  19.186108,    0.000000
  19.207347,    0.000000
  19.264769,    0.000000
  19.330096,    0.000000
  19.395185,    0.000000
  19.460489,    0.000000
  19.525808,    0.000000
  19.591274,    0.000000
  19.656838,    0.000000
  19.722436,    0.000000
  19.788088,    0.000000
  19.853770,    0.000000
  19.919587,    0.000000
  19.985511,    0.000000
  20.051414,    0.000000
  20.117350,    0.000000
  20.183326,    0.000000
  20.249442,    0.000000
  20.315737,    0.000000
  20.381975,    0.000000
  20.448427,    0.000000
  20.514867,    0.000000
  20.581477,    0.000000
  20.648104,    0.000000
  20.714923,    0.000000
  20.781694,    0.000000
  20.848595,    0.000000
  20.915508,    0.000000
  20.982529,    0.000000
  21.049656,    0.000000
  21.116935,    0.000000
  21.184116,    0.000000
  21.251573,    0.000000
  21.318992,    0.000000
  21.386447,    0.000000
  21.453954,    0.000000
  21.521493,    0.000000
  21.589342,    0.000000
  21.657052,    0.000000
  21.724956,    0.000000
  21.792864,    0.000000
  21.860877,    0.000000
  21.929004,    0.000000
  21.997206,    0.000000
  22.065524,    0.000000
  22.133808,    0.000000
  22.202272,    0.000000
  22.270736,    0.000000
  22.339293,    0.000000
  22.407878,    0.000000
  22.476730,    0.000000
  22.545552,    0.000000
  22.614458,    0.000000
  22.683398,    0.000000
  22.752445,    0.000000
  22.821702,    0.000000
  22.890851,    0.000000
  22.959974,    0.000000
  23.029289,    0.000000
  23.098736,    0.000000
  23.168081,    0.000000
  23.237668,    0.000000
  23.307226,    0.000000
  23.377005,    0.000000
  23.446710,    0.000000
  23.516719,    0.000000
  23.586575,    0.000000
  23.656507,    0.000000
  23.726536,    0.000000
  23.796740,    0.000000
  23.867005,    0.000000
  23.937359,    0.000000
  23.967061,    0.000000
  24.007723,    0.000000
  24.078299,    0.121985
  24.148844,    0.332680
  24.219490,    0.541497
  24.290268,    0.748847
  24.361048,    0.954819
  24.431805,    1.159049
  24.502713,    1.361480
  24.573733,    1.562619
  24.644876,    1.762362
  24.715999,    1.960744
  24.787062,    2.157381
  24.858332,    2.352170
  24.929562,    2.545864
  25.000896,    2.737795
  25.072192,    2.928359
  25.143504,    3.117194
  25.215019,    3.304455
  25.286510,    3.490642
  25.358125,    3.675170
  25.429753,    3.858431
  25.501380,    4.040150
  25.573152,    4.220304
  25.644947,    4.399272
  25.716642,    4.576757
  25.731009,    4.752465
  25.781596,    4.787373
  25.784464,    4.910072
  25.785359,    4.916986
  25.786514,    4.919144
  25.786789,    4.921928
  25.787313,    4.922589
  25.787437,    4.923852
  25.787475,    4.924152
  25.787514,    4.924242
  25.787551,    4.924336
  25.787926,    4.924426
  25.790516,    4.925330
  25.804901,    4.931569
  25.867860,    4.966211
  25.942166,    5.117567
  26.016388,    5.294852
  26.090677,    5.470359
  26.164910,    5.644460
  26.239166,    5.816879
  26.313450,    5.987814
  26.387905,    6.157290
  26.462339,    6.325643
  26.536750,    6.492444
  26.611017,    6.657704
  26.685460,    6.821171
  26.759824,    6.983565
  26.765667,    7.147134
  26.771513,    7.162511
  26.777368,    7.177945
  26.783225,    7.193450
  26.789082,    7.209005
  26.794942,    7.224611
  26.800784,    7.240264
  26.806649,    7.255939
  26.812524,    7.271717
  26.818386,    7.287557
  26.824261,    7.303426
  26.830126,    7.319366
  26.835999,    7.335339
  26.841878,    7.351379
  26.847777,    7.367493
  26.853662,    7.383691
  26.859552,    7.399911
  26.865462,    7.416204
  26.871357,    7.432577
  26.877278,    7.448987
  26.883207,    7.465503
  26.889132,    7.482084
  26.895061,    7.498710
  26.900984,    7.515390
  26.906924,    7.532116
  26.912830,    7.548903
  26.918780,    7.565701
  26.924697,    7.582616
  26.930650,    7.599537
  26.936594,    7.616578
  26.942555,    7.633660
  26.948526,    7.650835
  26.954503,    7.668088
  26.960489,    7.685410
  26.966479,    7.702803
  26.972461,    7.720248
  26.978470,    7.737748
  26.984490,    7.755365
  26.990500,    7.773046
  26.996513,    7.790758
  27.002526,    7.808528
  27.008539,    7.826348
  27.014576,    7.844238
  27.020614,    7.862231
  27.026633,    7.880258
  27.032691,    7.898330
  27.038701,    7.916492
  27.044756,    7.934646
  27.050800,    7.952933
  27.056859,    7.971261
  27.062920,    7.989673
  27.068995,    8.008155
  27.075073,    8.026717
  27.081174,    8.045361
  27.087300,    8.064127
  27.093414,    8.082986
  27.099527,    8.101869
  27.105629,    8.120791
  27.111735,    8.139745
  27.117876,    8.158795
  27.124017,    8.177968
  27.130169,    8.197204
  27.136320,    8.216514
  27.142479,    8.235883
  27.148664,    8.255348
  27.154855,    8.274925
  27.161043,    8.294564
  27.167259,    8.314279
  27.173481,    8.334112
  27.179690,    8.353995
  27.185887,    8.373889
  27.192141,    8.393879
  27.198387,    8.414028
  27.204623,    8.434199
  27.210826,    8.454365
  27.217052,    8.474543
  27.223332,    8.494887
  27.229594,    8.515372
  27.235882,    8.535904
  27.242161,    8.556532
  27.248459,    8.577220
  27.254793,    8.598045
  27.261100,    8.618961
  27.267450,    8.639930
  27.273810,    8.661055
  27.280124,    8.682196
  27.286479,    8.703350
  27.292837,    8.724643
  27.299215,    8.746024
  27.305613,    8.767528
  27.312015,    8.789132
  27.318419,    8.810802
  27.324834,    8.832544
  27.331235,    8.854344
  27.337695,    8.876254
  27.344134,    8.898307
  27.350578,    8.920382
  27.357029,    8.942530
  27.363466,    8.964728
  27.369929,    8.986990
  27.376423,    9.009407
  27.382977,    9.032028
  27.389477,    9.041656
  27.396045,    9.051401
  27.402605,    9.061154
  27.409143,    9.070891
  27.415656,    9.080609
  27.422223,    9.090425
  27.428800,    9.100275
  27.435373,    9.110136
  27.441921,    9.119976
  27.448481,    9.129854
  27.455121,    9.139870
  27.461772,    9.149920
  27.468416,    9.159978
  27.475046,    9.170031
  27.481676,    9.180105
  27.488361,    9.190278
  27.495047,    9.200472
  27.501731,    9.210682
  27.508440,    9.220948
  27.515165,    9.231257
  27.521860,    9.241537
  27.528564,    9.251849
  27.535309,    9.262243
  27.542039,    9.272633
  27.548794,    9.283079
  27.555536,    9.293523
  27.562329,    9.304065
  27.569092,    9.314578
  27.575883,    9.325154
  27.582704,    9.335794
  27.589541,    9.346479
  27.596372,    9.357172
  27.603192,    9.367867
  27.610025,    9.378601
  27.616901,    9.389420
  27.623803,    9.400300
  27.630654,    9.411117
  27.637524,    9.421983
  27.644453,    9.432962
  27.651372,    9.443942
  27.658279,    9.454924
  27.665224,    9.465983
  27.672201,    9.477114
  27.679111,    9.488155
  27.686102,    9.499345
  27.693098,    9.510563
  27.700072,    9.521764
  27.707063,    9.533010
  27.714104,    9.544357
  27.721121,    9.555683
  27.728186,    9.567107
  27.735265,    9.578571
  27.742318,    9.590014
  27.749336,    9.601419
  27.756460,    9.613014
  27.763568,    9.624603
  27.770675,    9.636210
  27.777806,    9.647875
  27.784901,    9.659500
  27.792031,    9.671202
  27.799167,    9.682931
  27.806338,    9.694739
  27.813541,    9.706619
  27.820746,    9.718522
  27.827995,    9.730516
  27.835214,    9.742482
  27.842472,    9.754531
  27.849722,    9.766586
  27.856966,    9.778651
  27.864238,    9.790782
  27.871559,    9.803015
  27.878882,    9.815269
  27.882977,    9.822133
  27.886268,    9.827652
  27.893635,    9.840020
  27.901014,    9.852429
  27.908377,    9.864832
  27.915771,    9.877307
  27.923157,    9.889788
  27.930567,    9.902329
  27.937993,    9.914917
  27.945427,    9.927540
  27.952918,    9.940279
  27.960366,    9.952965
  27.967863,    9.965755
  27.975332,    9.978517
  27.982815,    9.991324
  27.990329,   10.004203
  27.997821,   10.017064
  28.005413,   10.030118
  28.013003,   10.043189
  28.020577,   10.056253
  28.028238,   10.069487
  28.035852,   10.082661
  28.043515,   10.095940
  28.051180,   10.109243
  28.058845,   10.122568
  28.066558,   10.135995
  28.074237,   10.149385
  28.081932,   10.162823
  28.089663,   10.176345
  28.097406,   10.189908
  28.105171,   10.203531
  28.112938,   10.217179
  28.120735,   10.230899
  28.128531,   10.244639
  28.136326,   10.258399
  28.144136,   10.272205
  28.151925,   10.285996
  28.159784,   10.299930
  28.167622,   10.313849
  28.175569,   10.327982
  28.183441,   10.342004
  28.191382,   10.356169
  28.199340,   10.370386
  28.207273,   10.384579
  28.215249,   10.398871
  28.223180,   10.413103
  28.231122,   10.427377
  28.239113,   10.441759
  28.247170,   10.456280
  28.255253,   10.470872
  28.263391,   10.485584
  28.271434,   10.500144
  28.279550,   10.514860
  28.287622,   10.529517
  28.295736,   10.544271
  28.303870,   10.559085
  28.312021,   10.573949
  28.320222,   10.588927
  28.328370,   10.603830
  28.336554,   10.618819
  28.344821,   10.633984
  28.353071,   10.649139
  28.361355,   10.664378
  28.369599,   10.679565
  28.377906,   10.694891
  28.386232,   10.710272
  28.394603,   10.725760
  28.402921,   10.741171
  28.411280,   10.756681
  28.419658,   10.772247
  28.428038,   10.787839
  28.436504,   10.803615
  28.444934,   10.819344
  28.453373,   10.835112
  28.461835,   10.850946
  28.470275,   10.866761
  28.478752,   10.882666
  28.487301,   10.898730
  28.495795,   10.914712
  28.504307,   10.930750
  28.512901,   10.946966
  28.521514,   10.963238
  28.530179,   10.979634
  28.538803,   10.995972
  28.547455,   11.012387
  28.556044,   11.028705
  28.564723,   11.045216
  28.573393,   11.061732
  28.582098,   11.078336
  28.590775,   11.094911
  28.599565,   11.111725
  28.608284,   11.128423
  28.617053,   11.145241
  28.625840,   11.162116
  28.634593,   11.178947
  28.643411,   11.195927
  28.652272,   11.213012
  28.661153,   11.230159
  28.670041,   11.247340
  28.678937,   11.264562
  28.687775,   11.281693
  28.696662,   11.298941
  28.705632,   11.316374
  28.714550,   11.333727
  28.723519,   11.351203
  28.732440,   11.368607
  28.741409,   11.386128
  28.750423,   11.403759
  28.759467,   11.421471
  28.768583,   11.439349
  28.777680,   11.457211
  28.786659,   11.474864
  28.795755,   11.492769
  28.804835,   11.510667
  28.813982,   11.528719
  28.823182,   11.546899
  28.832294,   11.564925
  28.841460,   11.583084
  28.850676,   11.601363
  28.859880,   11.619641
  28.869210,   11.638193
  28.878449,   11.656587
  28.887687,   11.675001
  28.897017,   11.693620
  28.906286,   11.712142
  28.915582,   11.730740
  28.924813,   11.749230
  28.934099,   11.767854
  28.943392,   11.786514
  28.952726,   11.805279
  28.962125,   11.824196
  28.971474,   11.843034
  28.980899,   11.862051
  28.990202,   11.880842
  28.999548,   11.899741
  29.009085,   11.919051
  29.018549,   11.938236
  29.027989,   11.957393
  29.037560,   11.976838
  29.047047,   11.996137
  29.056604,   12.015600
  29.066213,   12.035191
  29.075783,   12.054727
  29.085283,   12.074142
  29.094978,   12.093976
  29.104563,   12.113610
  29.114101,   12.133168
  29.123685,   12.152843
  29.133347,   12.172700
  29.142962,   12.192481
  29.152587,   12.212307
  29.162212,   12.232153
  29.171903,   12.252160
  29.181508,   12.272009
  29.191230,   12.292122
  29.200944,   12.312242
  29.210686,   12.332439
  29.220389,   12.352579
  29.230192,   12.372948
  29.239881,   12.393103
  29.249636,   12.413414
  29.259402,   12.433772
  29.269160,   12.454134
  29.279021,   12.474732
  29.288938,   12.495469
  29.298816,   12.516148
  29.308749,   12.536961
  29.318584,   12.557592
  29.328538,   12.578494
  29.338435,   12.599298
  29.348336,   12.620132
  29.358304,   12.641126
  29.368231,   12.662057
  29.378164,   12.683021
  29.388126,   12.704069
  29.398015,   12.724981
  29.407997,   12.746112
  29.417965,   12.767234
  29.427913,   12.788334
  29.437997,   12.809743
  29.448066,   12.831143
  29.458107,   12.852502
  29.468246,   12.874091
  29.478254,   12.895424
  29.488348,   12.916959
  29.498445,   12.938521
  29.508611,   12.960249
  29.518706,   12.981848
  29.528818,   13.003503
  29.538949,   13.025219
  29.549118,   13.047038
  29.559397,   13.069110
  29.569669,   13.091191
  29.579828,   13.113048
  29.589965,   13.134877
  29.600053,   13.156618
  29.610233,   13.178580
  29.620422,   13.200580
  29.630651,   13.222685
  29.640805,   13.244648
  29.650985,   13.266686
  29.661433,   13.289324
  29.671687,   13.311563
  29.681950,   13.333839
  29.692180,   13.356063
  29.702307,   13.378080
  29.712630,   13.400544
  29.722980,   13.423085
  29.733242,   13.445454
  29.743500,   13.467832
  29.753730,   13.490168
  29.764032,   13.512677
  29.774359,   13.535262
  29.784667,   13.557821
  29.795017,   13.580492
  29.805401,   13.603255
  29.815775,   13.626016
  29.826172,   13.648844
  29.836553,   13.671653
  29.847139,   13.694934
  29.857585,   13.717921
  29.867989,   13.740838
  29.878448,   13.763890
  29.888887,   13.786917
  29.899359,   13.810034
  29.909832,   13.833171
  29.920247,   13.856195
  29.930717,   13.879359
  29.941221,   13.902617
  29.951757,   13.925961
  29.962330,   13.949405
  29.972939,   13.972944
  29.983510,   13.996418
  29.994067,   14.019876
  30.004620,   14.043341
  30.015140,   14.066751
  30.025646,   14.090146
  30.036298,   14.113880
  30.046869,   14.137452
  30.057501,   14.161174
  30.068141,   14.184931
  30.078752,   14.208638
  30.089423,   14.232498
  30.100033,   14.256235
  30.110612,   14.279918
  30.121151,   14.303526
  30.131828,   14.327460
  30.142474,   14.351337
  30.153179,   14.375364
  30.163889,   14.399418
  30.174544,   14.423362
  30.185261,   14.447459
  30.195962,   14.471535
  30.206630,   14.495554
  30.217331,   14.519659
  30.227972,   14.543643
  30.238721,   14.567886
  30.249493,   14.592196
  30.260295,   14.616586
  30.271111,   14.641021
  30.281862,   14.665324
  30.292666,   14.689761
  30.303465,   14.714201
  30.310498,   14.730124
