Time, Angles
   0.000100,    0.000000
   0.000563,    0.000000
   0.002175,    0.000000
   0.007627,    0.000000
   0.018279,    0.000000
   0.043028,    0.000000
   0.074761,    0.000000
   0.106589,    0.000000
   0.138419,    0.000000
   0.170367,    0.000000
   0.202449,    0.000000
   0.234606,    0.000000
   0.266795,    0.000000
   0.298936,    0.000000
   0.331344,    0.000000
   0.364128,    0.000000
   0.396992,    0.000000
   0.430231,    0.000000
   0.463468,    0.000000
   0.497017,    0.000000
   0.530749,    0.000000
   0.564722,    0.000000
   0.598971,    0.000000
   0.633962,    0.000000
   0.668628,    0.000000
   0.703295,    0.000000
   0.738638,    0.000000
   0.773839,    0.000000
   0.809514,    0.000000
   0.845820,    0.000000
   0.882477,    0.000000
   0.919539,    0.000000
   0.956759,    0.000000
   0.994074,    0.000000
   1.031360,    0.000000
   1.069143,    0.000000
   1.107675,    0.000000
   1.146076,    0.000000
   1.184756,    0.000000
   1.224656,    0.000000
   1.264031,    0.000000
   1.304592,    0.000000
   1.345193,    0.000000
   1.385681,    0.000000
   1.427201,    0.000000
   1.468964,    0.000000
   1.511334,    0.000000
   1.553785,    0.000000
   1.596117,    0.000000
   1.639305,    0.000000
   1.682639,    0.000000
   1.726109,    0.000000
   1.769876,    0.000000
   1.813591,    0.000000
   1.857923,    0.000000
   1.902586,    0.000000
   1.948056,    0.000000
   1.993212,    0.000000
   2.039212,    0.000000
   2.086002,    0.000000
   2.132129,    0.000000
   2.179480,    0.000000
   2.226599,    0.000000
   2.274107,    0.000000
   2.322608,    0.000000
   2.370983,    0.000000
   2.419662,    0.000000
   2.468385,    0.000000
   2.517680,    0.000000
   2.567397,    0.000000
   2.617949,    0.000000
   2.668443,    0.000000
   2.719108,    0.000000
   2.770340,    0.000000
   2.821979,    0.000000
   2.873739,    0.000000
   2.925653,    0.000000
   2.978478,    0.000000
   3.031016,    0.000000
   3.084059,    0.000000
   3.137460,    0.000000
   3.190999,    0.000000
   3.244725,    0.000000
   3.299622,    0.000000
   3.353968,    0.000000
   3.408985,    0.000000
   3.464851,    0.000000
   3.520715,    0.000000
   3.577044,    0.000000
   3.633149,    0.000000
   3.690624,    0.000000
   3.747547,    0.000000
   3.804784,    0.000000
   3.862238,    0.000000
   3.919593,    0.000000
   3.977980,    0.000000
   4.036509,    0.000000
   4.095383,    0.000000
   4.154362,    0.000000
   4.213627,    0.000000
   4.225591,    0.000000
   4.231550,    0.000000
   4.235140,    0.000000
   4.237473,    0.000000
   4.245497,    0.000000
   4.245545,    0.000000
   4.245624,    0.000000
   4.245657,    0.000000
   4.245667,    0.000000
   4.245672,    0.000000
   4.245676,    0.000000
   4.245722,    0.000000
   4.246108,    0.000000
   4.248483,    0.000000
   4.257281,    0.000000
   4.283310,    0.000000
   4.334905,    0.000000
   4.388402,    0.000000
   4.442624,    0.000000
   4.496760,    0.000000
   4.551242,    0.000000
   4.605903,    0.000000
   4.660765,    0.000000
   4.715778,    0.000000
   4.771417,    0.000000
   4.827290,    0.000000
   4.883905,    0.000000
   4.940491,    0.000000
   4.997232,    0.000000
   5.054250,    0.000000
   5.111466,    0.000000
   5.168656,    0.000000
   5.226433,    0.000000
   5.284476,    0.000000
   5.342147,    0.000000
   5.400677,    0.000000
   5.458925,    0.000000
   5.517536,    0.000000
   5.576156,    0.000000
   5.635518,    0.000000
   5.694961,    0.000000
   5.754496,    0.000000
   5.814341,    0.000000
   5.874378,    0.000000
   5.934336,    0.000000
   5.994787,    0.000000
   6.055382,    0.000000
   6.116305,    0.000000
   6.177577,    0.000000
   6.238877,    0.000000
   6.300784,    0.000000
   6.363159,    0.000000
   6.425250,    0.000000
   6.487380,    0.000000
   6.550281,    0.000000
   6.613184,    0.000000
   6.676534,    0.000000
   6.740024,    0.000000
   6.803165,    0.000000
   6.867067,    0.000000
   6.930834,    0.000000
   6.995340,    0.000000
   7.059616,    0.000000
   7.124514,    0.000000
   7.189303,    0.000000
   7.254312,    0.000000
   7.319620,    0.000000
   7.385219,    0.000000
   7.451111,    0.000000
   7.516637,    0.000000
   7.582852,    0.000000
   7.648821,    0.000000
   7.715137,    0.000000
   7.781862,    0.000000
   7.848710,    0.000000
   7.915549,    0.000000
   7.983113,    0.000000
   8.051030,    0.000000
   8.118940,    0.000000
   8.186825,    0.000000
   8.254714,    0.000000
   8.323430,    0.000000
   8.392405,    0.000000
   8.461157,    0.000000
   8.530125,    0.000000
   8.599211,    0.000000
   8.668705,    0.000000
   8.682592,    0.000000
   8.690805,    0.000000
   8.695537,    0.000000
   8.699890,    0.000000
   8.703292,    0.000000
   8.706068,    0.000000
   8.708076,    0.000000
   8.710027,    0.000000
   8.712253,    0.000000
   8.712656,    0.000000
   8.712758,    0.000000
   8.712782,    0.000000
   8.712795,    0.000000
   8.712801,    0.000000
   8.712808,    0.000000
   8.712876,    0.000000
   8.713557,    0.000000
   8.718392,    0.000000
   8.735729,    0.000000
   8.795400,    0.000000
   8.857640,    0.000000
   8.919888,    0.000000
   8.982560,    0.000000
   9.045127,    0.000000
   9.107881,    0.000000
   9.170470,    0.000000
   9.233838,    0.000000
   9.297198,    0.000000
   9.360602,    0.000000
   9.423968,    0.000000
   9.487829,    0.000000
   9.551605,    0.000000
   9.615567,    0.000000
   9.679952,    0.000000
   9.744304,    0.000000
   9.808842,    0.000000
   9.873501,    0.000000
   9.938148,    0.000000
  10.003079,    0.000000
  10.068440,    0.000000
  10.134092,    0.000000
  10.199508,    0.000000
  10.265284,    0.000000
  10.331199,    0.000000
  10.397235,    0.000000
  10.463330,    0.000000
  10.529581,    0.000000
  10.596195,    0.000000
  10.662914,    0.000000
  10.729970,    0.000000
  10.796962,    0.000000
  10.863952,    0.000000
  10.931306,    0.000000
  10.999026,    0.000000
  11.066634,    0.000000
  11.134651,    0.000000
  11.202549,    0.000000
  11.270743,    0.000000
  11.339155,    0.000000
  11.407555,    0.000000
  11.476041,    0.000000
  11.544498,    0.000000
  11.613515,    0.000000
  11.682422,    0.000000
  11.751561,    0.000000
  11.820758,    0.000000
  11.890236,    0.000000
  11.959728,    0.000000
  12.029462,    0.000000
  12.099594,    0.000000
  12.169840,    0.000000
  12.240267,    0.000000
  12.310696,    0.000000
  12.381483,    0.000000
  12.452094,    0.000000
  12.523047,    0.000000
  12.594051,    0.000000
  12.665311,    0.000000
  12.736830,    0.000000
  12.808262,    0.000000
  12.880237,    0.000000
  12.952100,    0.000000
  13.024065,    0.000000
  13.096364,    0.000000
  13.168726,    0.000000
  13.241291,    0.000000
  13.314175,    0.000000
  13.386964,    0.000000
  13.459845,    0.000000
  13.474426,    0.000000
  13.484159,    0.000000
  13.514687,    0.000000
  13.515287,    0.000000
  13.515438,    0.000000
  13.515681,    0.000000
  13.515714,    0.000000
  13.515732,    0.000000
  13.515744,    0.000000
  13.515755,    0.000000
  13.515862,    0.000000
  13.516805,    0.000000
  13.521939,    0.000000
  13.547688,    0.000000
  13.611193,    0.000000
  13.675096,    0.000000
  13.739150,    0.000000
  13.803268,    0.000000
  13.867434,    0.000000
  13.931586,    0.000000
  13.995945,    0.000000
  14.060451,    0.000000
  14.125034,    0.000000
  14.189756,    0.000000
  14.254703,    0.000000
  14.319783,    0.000000
  14.385118,    0.000000
  14.450605,    0.000000
  14.515866,    0.000000
  14.581550,    0.000000
  14.647229,    0.000000
  14.712979,    0.000000
  14.779057,    0.000000
  14.845199,    0.000000
  14.911148,    0.000000
  14.977270,    0.000000
  15.043660,    0.000000
  15.110304,    0.000000
  15.177069,    0.000000
  15.243949,    0.000000
  15.310694,    0.000000
  15.377691,    0.000000
  15.444728,    0.000000
  15.511905,    0.000000
  15.579305,    0.000000
  15.646876,    0.000000
  15.714396,    0.000000
  15.782218,    0.000000
  15.849993,    0.000000
  15.918091,    0.000000
  15.986306,    0.000000
  16.054407,    0.000000
  16.122897,    0.000000
  16.191331,    0.000000
  16.259743,    0.000000
  16.328243,    0.000000
  16.396943,    0.000000
  16.465782,    0.000000
  16.534713,    0.000000
  16.603872,    0.000000
  16.673040,    0.000000
  16.742434,    0.000000
  16.811864,    0.000000
  16.881573,    0.000000
  16.951013,    0.000000
  17.020725,    0.000000
  17.090678,    0.000000
  17.160676,    0.000000
  17.230844,    0.000000
  17.301083,    0.000000
  17.371658,    0.000000
  17.442018,    0.000000
  17.512453,    0.000000
  17.583229,    0.000000
  17.654065,    0.000000
  17.725022,    0.000000
  17.796141,    0.000000
  17.867328,    0.000000
  17.938623,    0.000000
  18.010105,    0.000000
  18.081539,    0.000000
  18.153278,    0.000000
  18.225005,    0.000000
  18.296936,    0.000000
  18.369071,    0.000000
  18.441217,    0.000000
  18.513348,    0.000000
  18.585732,    0.000000
  18.658112,    0.000000
  18.730787,    0.000000
  18.803439,    0.000000
  18.818024,    0.000000
  18.828509,    0.000000
  18.835714,    0.000000
  18.842384,    0.000000
  18.847961,    0.000000
  18.848994,    0.000000
  18.850175,    0.000000
  18.850428,    0.000000
  18.850678,    0.000000
  18.850764,    0.000000
  18.850797,    0.000000
  18.850834,    0.000000
  18.851200,    0.000000
  18.854214,    0.000000
  18.870526,    0.000000
  18.931045,    0.000000
  19.003471,    0.000000
  19.076288,    0.000000
  19.149273,    0.000000
  19.222036,    0.000000
  19.295059,    0.000000
  19.368240,    0.000000
  19.441642,    0.000000
  19.515169,    0.000000
  19.588577,    0.000000
  19.662290,    0.000000
  19.736163,    0.000000
  19.809868,    0.000000
  19.883680,    0.000000
  19.957723,    0.000000
  20.031827,    0.000000
  20.106083,    0.000000
  20.180476,    0.000000
  20.255005,    0.000000
  20.329509,    0.000000
  20.404272,    0.000000
  20.479145,    0.000000
  20.553977,    0.000000
  20.629021,    0.000000
  20.704187,    0.000000
  20.779423,    0.000000
  20.854826,    0.000000
  20.930414,    0.000000
  21.006016,    0.000000
  21.081806,    0.000000
  21.157722,    0.000000
  21.233619,    0.000000
  21.309695,    0.000000
  21.386047,    0.000000
  21.462366,    0.000000
  21.538800,    0.000000
  21.615264,    0.000000
  21.691979,    0.000000
  21.768675,    0.000000
  21.845458,    0.000000
  21.922394,    0.000000
  21.999406,    0.000000
  22.076471,    0.000000
  22.153695,    0.000000
  22.231298,    0.000000
  22.308798,    0.000000
  22.386316,    0.000000
  22.463976,    0.000000
  22.541717,    0.000000
  22.619838,    0.000000
  22.697774,    0.000000
  22.775989,    0.000000
  22.781275,    0.000000
  22.854265,    0.000000
  22.932592,    0.218969
  23.011104,    0.451894
  23.089671,    0.683172
  23.168688,    0.912431
  23.247757,    1.140831
  23.326843,    1.367214
  23.406168,    1.591495
  23.485656,    1.814321
  23.565108,    2.035479
  23.644881,    2.254429
  23.724674,    2.472167
  23.804475,    2.687873
  23.884552,    2.901537
  23.964416,    3.113887
  24.044396,    3.323637
  24.124445,    3.531679
  24.204831,    3.737899
  24.285085,    3.943000
  24.365304,    4.145791
  24.445603,    4.346538
  24.525884,    4.545553
  24.606149,    4.742604
  24.686475,    4.937720
  24.766695,    5.131103
  24.847055,    5.322369
  24.927300,    5.512124
  24.943382,    5.699780
  24.958277,    5.737027
  24.963806,    5.773133
  24.969337,    5.787626
  24.970443,    5.800737
  24.973628,    5.804325
  24.973679,    5.811680
  24.973750,    5.811820
  24.973766,    5.811990
  24.973771,    5.812028
  24.973778,    5.812042
  24.973820,    5.812071
  24.974038,    5.812240
  24.974897,    5.813027
  24.977207,    5.815779
  24.980974,    5.822375
  24.986493,    5.832963
  24.992019,    5.847638
  24.997548,    5.862381
  25.003090,    5.877187
  25.008635,    5.892073
  25.014182,    5.907018
  25.019730,    5.922018
  25.025283,    5.937074
  25.030813,    5.952184
  25.036345,    5.967291
  25.041897,    5.982460
  25.047457,    5.997732
  25.053026,    6.013076
  25.058597,    6.028492
  25.064166,    6.043964
  25.069746,    6.059487
  25.075327,    6.075086
  25.080901,    6.090735
  25.086489,    6.106426
  25.092082,    6.122205
  25.097680,    6.138047
  25.103281,    6.153952
  25.108870,    6.169911
  25.114473,    6.185900
  25.120060,    6.201965
  25.125675,    6.218060
  25.131298,    6.234275
  25.136924,    6.250561
  25.142520,    6.266887
  25.148154,    6.283220
  25.153785,    6.299689
  25.159405,    6.316197
  25.165050,    6.332746
  25.170696,    6.349405
  25.176341,    6.366117
  25.181995,    6.382886
  25.187659,    6.399734
  25.193326,    6.416657
  25.198983,    6.433632
  25.204650,    6.450646
  25.210316,    6.467730
  25.215973,    6.484859
  25.221629,    6.502020
  25.227325,    6.519259
  25.233016,    6.536638
  25.238720,    6.554069
  25.244430,    6.571586
  25.250120,    6.589152
  25.255841,    6.606752
  25.261560,    6.624473
  25.267275,    6.642237
  25.273010,    6.660064
  25.278715,    6.677960
  25.284435,    6.695857
  25.290182,    6.713865
  25.295934,    6.731989
  25.301692,    6.750182
  25.307422,    6.768415
  25.313186,    6.786672
  25.318964,    6.805072
  25.324750,    6.823562
  25.330546,    6.842134
  25.336291,    6.860731
  25.342090,    6.879324
  25.347866,    6.898064
  25.353671,    6.916839
  25.359455,    6.935707
  25.365279,    6.954625
  25.371067,    6.973646
  25.376885,    6.992674
  25.382716,    7.011837
  25.388553,    7.031090
  25.394399,    7.050419
  25.400261,    7.069839
  25.406122,    7.089348
  25.411970,    7.108894
  25.417819,    7.128467
  25.423710,    7.148145
  25.429565,    7.167927
  25.435456,    7.187729
  25.441369,    7.207690
  25.447279,    7.227750
  25.453170,    7.247835
  25.459077,    7.267954
  25.464970,    7.288145
  25.470897,    7.308402
  25.476849,    7.328820
  25.482770,    7.349309
  25.488709,    7.369808
  25.494590,    7.390326
  25.500568,    7.410901
  25.506503,    7.431684
  25.512493,    7.439625
  25.518476,    7.447577
  25.524453,    7.455538
  25.530448,    7.463542
  25.536448,    7.471571
  25.542450,    7.479622
  25.548477,    7.487727
  25.554526,    7.495878
  25.560561,    7.504031
  25.566593,    7.512198
  25.572620,    7.520376
  25.578660,    7.528593
  25.584707,    7.536837
  25.590790,    7.545148
  25.596847,    7.553445
  25.602949,    7.561821
  25.609055,    7.570222
  25.615151,    7.578629
  25.621250,    7.587059
  25.627341,    7.595497
  25.633459,    7.603991
  25.639585,    7.612515
  25.645685,    7.621024
  25.651819,    7.629597
  25.657961,    7.638202
  25.664089,    7.646807
  25.670235,    7.655456
  25.676382,    7.664125
  25.682550,    7.672843
  25.688725,    7.681591
  25.694919,    7.690384
  25.701099,    7.699178
  25.707301,    7.708022
  25.713498,    7.716879
  25.719700,    7.725760
  25.725937,    7.734713
  25.732174,    7.743686
  25.738405,    7.752669
  25.744639,    7.761675
  25.750865,    7.770689
  25.757121,    7.779767
  25.763345,    7.788818
  25.769601,    7.797935
  25.775877,    7.807100
  25.782156,    7.816289
  25.788488,    7.825576
  25.794811,    7.834868
  25.801123,    7.844165
  25.807440,    7.853489
  25.813764,    7.862844
  25.820097,    7.872230
  25.826475,    7.881704
  25.832851,    7.891196
  25.839212,    7.900684
  25.845585,    7.910210
  25.851949,    7.919743
  25.858343,    7.929341
  25.864735,    7.938957
  25.871180,    7.948671
  25.877627,    7.958409
  25.884071,    7.968163
  25.890498,    7.977910
  25.896967,    7.987742
  25.903447,    7.997611
  25.909904,    8.007466
  25.916359,    8.017337
  25.922849,    8.027283
  25.929391,    8.037327
  25.935916,    8.047368
  25.942437,    8.057421
  25.948969,    8.067513
  25.955533,    8.077674
  25.962098,    8.087859
  25.968667,    8.098069
  25.975235,    8.108300
  25.981782,    8.118517
  25.988389,    8.128848
  25.995015,    8.139231
  26.001665,    8.149672
  26.006503,    8.157281
  26.008277,    8.160073
  26.014923,    8.170551
  26.021592,    8.181084
  26.028254,    8.191627
  26.034933,    8.202219
  26.041614,    8.212835
  26.048295,    8.223472
  26.054948,    8.234083
  26.061665,    8.244821
  26.068346,    8.255520
  26.075082,    8.266328
  26.081831,    8.277178
  26.088590,    8.288066
  26.095335,    8.298953
  26.102072,    8.309848
  26.108800,    8.320749
  26.115596,    8.331782
  26.122392,    8.342835
  26.129204,    8.353936
  26.136029,    8.365080
  26.142882,    8.376291
  26.149722,    8.387503
  26.156570,    8.398749
  26.163419,    8.410018
  26.170273,    8.421317
  26.177139,    8.432658
  26.184026,    8.444053
  26.190935,    8.455508
  26.197866,    8.467020
  26.204818,    8.478591
  26.211791,    8.490216
  26.218749,    8.501839
  26.225710,    8.513489
  26.232725,    8.525252
  26.239715,    8.536995
  26.246750,    8.548834
  26.253776,    8.560682
  26.260792,    8.572535
  26.267878,    8.584527
  26.274956,    8.596528
  26.282031,    8.608548
  26.289122,    8.620616
  26.296206,    8.632695
  26.303329,    8.644863
  26.310437,    8.657027
  26.317615,    8.669333
  26.324795,    8.681667
  26.331937,    8.693956
  26.339136,    8.706368
  26.346285,    8.718715
  26.353487,    8.731175
  26.360674,    8.743634
  26.367879,    8.756146
  26.375088,    8.768687
  26.382363,    8.781366
  26.389652,    8.794091
  26.396942,    8.806842
  26.404243,    8.819634
  26.411548,    8.832459
  26.418861,    8.845318
  26.426248,    8.858331
  26.433621,    8.871345
  26.440985,    8.884363
  26.448367,    8.897437
  26.455759,    8.910554
  26.463154,    8.923697
  26.470614,    8.936981
  26.478027,    8.950204
  26.485477,    8.963517
  26.492874,    8.976757
  26.500353,    8.990168
  26.507857,    9.003647
  26.515318,    9.017072
  26.522833,    9.030619
  26.530395,    9.044273
  26.537931,    9.057905
  26.545512,    9.071641
  26.553075,    9.085369
  26.560615,    9.099079
  26.568226,    9.112941
  26.575857,    9.126865
  26.583504,    9.140841
  26.591158,    9.154855
  26.598834,    9.168933
  26.606517,    9.183046
  26.614183,    9.197154
  26.621886,    9.211353
  26.629611,    9.225618
  26.637341,    9.239916
  26.645092,    9.254277
  26.652843,    9.268664
  26.660628,    9.283135
  26.668446,    9.297695
  26.676289,    9.312324
  26.684116,    9.326949
  26.691922,    9.341560
  26.699805,    9.356337
  26.707679,    9.371125
  26.715604,    9.386031
  26.723495,    9.400899
  26.731452,    9.415917
  26.739378,    9.430901
  26.747321,    9.445941
  26.755316,    9.461104
  26.763287,    9.476247
  26.771283,    9.491464
  26.779297,    9.506739
  26.787288,    9.521995
  26.795345,    9.537404
  26.803403,    9.552837
  26.811502,    9.568375
  26.819560,    9.583860
  26.827633,    9.599398
  26.835749,    9.615044
  26.843893,    9.630771
  26.852015,    9.646479
  26.860154,    9.662246
  26.868348,    9.678144
  26.876520,    9.694025
  26.884724,    9.709996
  26.892972,    9.726076
  26.901181,    9.742105
  26.909478,    9.758332
  26.917707,    9.774451
  26.926005,    9.790732
  26.934340,    9.807111
  26.942654,    9.823476
  26.950998,    9.839924
  26.959284,    9.856283
  26.967656,    9.872836
  26.975997,    9.889356
  26.984426,    9.906076
  26.992852,    9.922816
  27.001310,    9.939645
  27.009727,    9.956419
  27.018162,    9.973254
  27.026603,    9.990126
  27.035088,   10.007112
  27.043563,   10.024106
  27.052080,   10.041210
  27.060581,   10.058306
  27.069078,   10.075421
  27.077600,   10.092611
  27.086191,   10.109967
  27.094742,   10.127269
  27.103367,   10.144746
  27.111930,   10.162124
  27.120514,   10.179569
  27.129235,   10.197322
  27.137848,   10.214879
  27.146549,   10.232641
  27.155177,   10.250281
  27.163902,   10.268146
  27.172637,   10.286058
  27.181390,   10.304033
  27.190155,   10.322058
  27.198901,   10.340071
  27.207731,   10.358284
  27.216571,   10.376543
  27.225358,   10.394719
  27.234210,   10.413058
  27.243098,   10.431496
  27.251911,   10.449805
  27.260819,   10.468340
  27.269756,   10.486960
  27.278648,   10.505513
  27.287564,   10.524141
  27.296494,   10.542827
  27.305481,   10.561659
  27.314430,   10.580437
  27.323421,   10.599329
  27.332486,   10.618403
  27.341551,   10.637506
  27.350565,   10.656526
  27.359573,   10.675562
  27.368695,   10.694864
  27.377764,   10.714081
  27.386823,   10.733302
  27.395943,   10.752679
  27.405158,   10.772288
  27.414228,   10.791612
  27.423413,   10.811207
  27.432576,   10.830784
  27.441762,   10.850436
  27.450977,   10.870175
  27.460195,   10.889949
  27.469485,   10.909904
  27.478729,   10.929786
  27.488004,   10.949761
  27.497328,   10.969870
  27.506695,   10.990097
  27.515993,   11.010203
  27.525303,   11.030361
  27.534606,   11.050530
  27.543996,   11.070914
  27.553278,   11.091090
  27.562753,   11.111712
  27.572186,   11.132270
  27.581532,   11.152664
  27.590965,   11.173275
  27.600435,   11.193993
  27.609872,   11.214666
  27.619349,   11.235452
  27.628694,   11.255974
  27.638105,   11.276668
  27.647565,   11.297496
  27.657105,   11.318526
  27.666633,   11.339555
  27.676212,   11.360723
  27.685832,   11.382009
  27.695400,   11.403205
  27.704920,   11.424322
  27.714451,   11.445487
  27.724032,   11.466793
  27.733619,   11.488134
  27.743324,   11.509766
  27.752970,   11.531292
  27.762610,   11.552832
  27.772286,   11.574477
  27.782008,   11.596250
  27.791758,   11.618113
  27.801448,   11.639868
  27.811173,   11.661727
  27.820906,   11.683628
  27.830604,   11.705478
  27.840231,   11.727192
  27.849979,   11.749204
  27.859813,   11.771437
  27.869515,   11.793394
  27.879334,   11.815644
  27.889180,   11.837980
  27.899027,   11.860345
  27.908879,   11.882746
  27.918720,   11.905145
  27.928512,   11.927459
  27.938422,   11.950068
  27.948180,   11.972354
  27.958150,   11.995150
  27.967957,   12.017597
  27.977892,   12.040362
  27.987757,   12.062991
  27.997642,   12.085692
  28.007532,   12.108428
  28.017459,   12.131274
  28.027435,   12.154256
  28.037411,   12.177262
  28.047290,   12.200072
  28.057309,   12.223227
  28.067381,   12.246530
  28.077390,   12.269709
  28.087479,   12.293101
  28.097518,   12.316399
  28.107611,   12.339848
  28.117705,   12.363324
  28.127713,   12.386621
  28.137753,   12.410020
  28.147813,   12.433487
  28.157759,   12.456711
  28.167934,   12.480494
  28.178073,   12.504215
  28.188128,   12.527765
  28.198201,   12.551381
  28.208409,   12.575336
  28.218600,   12.599273
  28.228826,   12.623316
  28.238957,   12.647160
  28.249085,   12.671018
  28.259278,   12.695053
  28.269521,   12.719230
  28.279716,   12.743315
  28.290024,   12.767691
  28.300347,   12.792125
  28.310610,   12.816439
  28.320958,   12.840978
  28.331278,   12.865474
  28.341431,   12.889596
  28.351677,   12.913959
  28.361961,   12.938435
  28.372305,   12.963076
  28.382583,   12.987581
  28.392910,   13.012226
  28.403171,   13.036734
  28.413521,   13.061479
  28.423829,   13.086142
  28.434333,   13.111296
  28.444671,   13.136074
  28.455023,   13.160910
  28.465499,   13.186062
  28.475937,   13.211144
  28.486289,   13.236042
  28.496710,   13.261125
  28.507080,   13.286107
  28.517450,   13.311110
  28.527905,   13.336337
  28.538217,   13.361241
  28.548738,   13.386669
  28.559140,   13.411830
  28.569678,   13.437340
  28.579450,   13.461014
