Ground Distance, Altitude
   0.000000,    0.000000
   0.000002,    0.000000
   0.000026,    0.000000
   0.000224,    0.000000
   0.001234,    0.000000
   0.005345,    0.000000
   0.018617,    0.000000
   0.042427,    0.000000
   0.075915,    0.000000
   0.119326,    0.000000
   0.172505,    0.000000
   0.235896,    0.000000
   0.308987,    0.000000
   0.393440,    0.000000
   0.487549,    0.000000
   0.591884,    0.000000
   0.707272,    0.000000
   0.833118,    0.000000
   0.971507,    0.000000
   1.120307,    0.000000
   1.282638,    0.000000
   1.455116,    0.000000
   1.641578,    0.000000
   1.839277,    0.000000
   2.049258,    0.000000
   2.274567,    0.000000
   2.513888,    0.000000
   2.767274,    0.000000
   3.034360,    0.000000
   3.315901,    0.000000
   3.607024,    0.000000
   3.921984,    0.000000
   4.246934,    0.000000
   4.584684,    0.000000
   4.945269,    0.000000
   5.317202,    0.000000
   5.708137,    0.000000
   6.115482,    0.000000
   6.537558,    0.000000
   6.978720,    0.000000
   7.437320,    0.000000
   7.928149,    0.000000
   8.438402,    0.000000
   8.958817,    0.000000
   9.500581,    0.000000
  10.060482,    0.000000
  10.654191,    0.000000
  11.264318,    0.000000
  11.897457,    0.000000
  12.544263,    0.000000
  13.223748,    0.000000
  13.918836,    0.000000
  14.646296,    0.000000
  15.384470,    0.000000
  16.154398,    0.000000
  16.946016,    0.000000
  17.765494,    0.000000
  18.621058,    0.000000
  19.491878,    0.000000
  20.394004,    0.000000
  21.332665,    0.000000
  22.292601,    0.000000
  23.275436,    0.000000
  24.310646,    0.000000
  25.352871,    0.000000
  26.421455,    0.000000
  27.525777,    0.000000
  28.656815,    0.000000
  29.826351,    0.000000
  31.027495,    0.000000
  32.262961,    0.000000
  33.515876,    0.000000
  34.812531,    0.000000
  36.141334,    0.000000
  37.519088,    0.000000
  38.920874,    0.000000
  40.345329,    0.000000
  41.811873,    0.000000
  43.300508,    0.000000
  44.840131,    0.000000
  46.404962,    0.000000
  48.013439,    0.000000
  49.681044,    0.000000
  51.383713,    0.000000
  53.111457,    0.000000
  54.869988,    0.000000
  56.679441,    0.000000
  58.512745,    0.000000
  60.386408,    0.000000
  62.311588,    0.000000
  64.278421,    0.000000
  66.279350,    0.000000
  68.308170,    0.000000
  70.401925,    0.000000
  72.556260,    0.000000
  74.719983,    0.000000
  76.941659,    0.000000
  79.194764,    0.000000
  81.514104,    0.000000
  81.985156,    0.000000
  82.213784,    0.000000
  82.346625,    0.000000
  82.445566,    0.000000
  82.530862,    0.000000
  82.601558,    0.000000
  82.655963,    0.000000
  82.697978,    0.000000
  82.735632,    0.000000
  82.737695,    0.000000
  82.740846,    0.000000
  82.741433,    0.000000
  82.741734,    0.000000
  82.741918,    0.000000
  82.742110,    0.000000
  82.744035,    0.000000
  82.762287,    0.000000
  82.851157,    0.000000
  83.233569,    0.000000
  84.259815,    0.000000
  86.402554,    0.000000
  88.555829,    0.000000
  90.768993,    0.000000
  93.020292,    0.000000
  95.296808,    0.000000
  97.632094,    0.000000
  99.978541,    0.000000
 102.376498,    0.000000
 104.797934,    0.000000
 107.276468,    0.000000
 109.810703,    0.000000
 112.370386,    0.000000
 114.969543,    0.000000
 117.609266,    0.000000
 120.276989,    0.000000
 122.991714,    0.000000
 125.732002,    0.000000
 128.528439,    0.000000
 131.372513,    0.000000
 134.262027,    0.000000
 137.173702,    0.000000
 140.139661,    0.000000
 143.157379,    0.000000
 146.215002,    0.000000
 149.311333,    0.000000
 152.460740,    0.000000
 155.648195,    0.000000
 158.877812,    0.000000
 162.170540,    0.000000
 165.492164,    0.000000
 168.856881,    0.000000
 172.261169,    0.000000
 175.725989,    0.000000
 179.228542,    0.000000
 182.811579,    0.000000
 186.415934,    0.000000
 190.057733,    0.000000
 193.754714,    0.000000
 197.500645,    0.000000
 201.295125,    0.000000
 205.135583,    0.000000
 209.023990,    0.000000
 212.940178,    0.000000
 216.949414,    0.000000
 220.989142,    0.000000
 225.092777,    0.000000
 229.219495,    0.000000
 233.412352,    0.000000
 237.659423,    0.000000
 241.971304,    0.000000
 246.354361,    0.000000
 250.763820,    0.000000
 255.220772,    0.000000
 259.727011,    0.000000
 264.284889,    0.000000
 268.930634,    0.000000
 273.630401,    0.000000
 278.358699,    0.000000
 283.133570,    0.000000
 287.987442,    0.000000
 292.876877,    0.000000
 297.813556,    0.000000
 302.816470,    0.000000
 307.890326,    0.000000
 313.021045,    0.000000
 318.219001,    0.000000
 323.450611,    0.000000
 328.747249,    0.000000
 334.099068,    0.000000
 339.509486,    0.000000
 340.596663,    0.000000
 341.374699,    0.000000
 341.901000,    0.000000
 342.340551,    0.000000
 342.696093,    0.000000
 342.748239,    0.000000
 342.799764,    0.000000
 342.855797,    0.000000
 342.857496,    0.000000
 342.858440,    0.000000
 342.859135,    0.000000
 342.859761,    0.000000
 342.866018,    0.000000
 342.928591,    0.000000
 343.273297,    0.000000
 344.614422,    0.000000
 349.248244,    0.000000
 354.159907,    0.000000
 359.110604,    0.000000
 364.147691,    0.000000
 369.209979,    0.000000
 374.294370,    0.000000
 379.455906,    0.000000
 384.647357,    0.000000
 389.892219,    0.000000
 395.199746,    0.000000
 400.529510,    0.000000
 405.932980,    0.000000
 411.382663,    0.000000
 416.869609,    0.000000
 422.442051,    0.000000
 428.035362,    0.000000
 433.686411,    0.000000
 439.404038,    0.000000
 445.164389,    0.000000
 450.977464,    0.000000
 456.820925,    0.000000
 462.739946,    0.000000
 468.676878,    0.000000
 474.680110,    0.000000
 480.752023,    0.000000
 486.854380,    0.000000
 492.982648,    0.000000
 499.185402,    0.000000
 505.422407,    0.000000
 511.735805,    0.000000
 518.096705,    0.000000
 524.506312,    0.000000
 530.997721,    0.000000
 537.525964,    0.000000
 544.134678,    0.000000
 550.764426,    0.000000
 557.455266,    0.000000
 564.180366,    0.000000
 570.957656,    0.000000
 577.837270,    0.000000
 584.766149,    0.000000
 591.724203,    0.000000
 598.746476,    0.000000
 605.817855,    0.000000
 612.926021,    0.000000
 620.100849,    0.000000
 627.349405,    0.000000
 634.618292,    0.000000
 641.969651,    0.000000
 649.370500,    0.000000
 656.817534,    0.000000
 664.350928,    0.000000
 671.936869,    0.000000
 679.563485,    0.000000
 687.251279,    0.000000
 695.000885,    0.000000
 702.800157,    0.000000
 710.657967,    0.000000
 718.586793,    0.000000
 726.576489,    0.000000
 734.605747,    0.000000
 742.696878,    0.000000
 750.827766,    0.000000
 759.044188,    0.000000
 767.296736,    0.000000
 775.672884,    0.000000
 784.069633,    0.000000
 792.516047,    0.000000
 801.016311,    0.000000
 802.729294,    0.000000
 803.879151,    0.000000
 804.890305,    0.000000
 808.078970,    0.000000
 808.142472,    0.000000
 808.222024,    0.000000
 808.241105,    0.000000
 808.274061,    0.000000
 808.284065,    0.000000
 808.285936,    0.000000
 808.286773,    0.000000
 808.287770,    0.000000
 808.297742,    0.000000
 808.386878,    0.000000
 808.938286,    0.000000
 812.117925,    0.000000
 819.806588,    0.000000
 827.349610,    0.000000
 834.944566,    0.000000
 842.617844,    0.000000
 850.336745,    0.000000
 858.076105,    0.000000
 865.878978,    0.000000
 873.704493,    0.000000
 881.603174,    0.000000
 889.540204,    0.000000
 897.535456,    0.000000
 905.577409,    0.000000
 913.662465,    0.000000
 921.792877,    0.000000
 929.962504,    0.000000
 938.196744,    0.000000
 946.493659,    0.000000
 954.830957,    0.000000
 963.186957,    0.000000
 971.588385,    0.000000
 980.058128,    0.000000
 988.574803,    0.000000
 997.170231,    0.000000
1005.792395,    0.000000
1014.469774,    0.000000
1023.202753,    0.000000
1031.989657,    0.000000
1040.784961,    0.000000
1049.662423,    0.000000
1058.601079,    0.000000
1067.567123,    0.000000
1076.571087,    0.000000
1085.651738,    0.000000
1094.771239,    0.000000
1103.925547,    0.000000
1113.157780,    0.000000
1122.409403,    0.000000
1131.739058,    0.000000
1141.141323,    0.000000
1150.559435,    0.000000
1160.041968,    0.000000
1169.575096,    0.000000
1179.174549,    0.000000
1188.785244,    0.000000
1198.451553,    0.000000
1208.185921,    0.000000
1217.961398,    0.000000
1227.790722,    0.000000
1237.691277,    0.000000
1247.631110,    0.000000
1257.637529,    0.000000
1267.680968,    0.000000
1277.824482,    0.000000
1287.989376,    0.000000
1298.203235,    0.000000
1308.478325,    0.000000
1318.785060,    0.000000
1329.146498,    0.000000
1339.566951,    0.000000
1350.057520,    0.000000
1360.589285,    0.000000
1371.140283,    0.000000
1381.805734,    0.000000
1392.496188,    0.000000
1403.231530,    0.000000
1414.030782,    0.000000
1424.909733,    0.000000
1435.806109,    0.000000
1446.755995,    0.000000
1457.762575,    0.000000
1468.826474,    0.000000
1479.952671,    0.000000
1491.136646,    0.000000
1502.386923,    0.000000
1513.665088,    0.000000
1525.018350,    0.000000
1527.293302,    0.000000
1529.201943,    0.000000
1530.691301,    0.000000
1530.750150,    0.000000
1530.865203,    0.000000
1530.900214,    0.000000
1530.909803,    0.000000
1530.917898,    0.000000
1530.925225,    0.000000
1530.998497,    0.000000
1531.559277,    0.000000
1534.712113,    0.000000
1544.593758,    0.000000
1556.050995,    0.000000
1567.522093,    0.000000
1579.082580,    0.000000
1590.650464,    0.000000
1602.311056,    0.000000
1613.988811,    0.000000
1625.743540,    0.000000
1637.550949,    0.000000
1649.416823,    0.000000
1661.368186,    0.000000
1673.385018,    0.000000
1685.433915,    0.000000
1697.507189,    0.000000
1709.686412,    0.000000
1721.880825,    0.000000
1734.177725,    0.000000
1746.513400,    0.000000
1758.900426,    0.000000
1771.354043,    0.000000
1783.865110,    0.000000
1796.404823,    0.000000
1809.013390,    0.000000
1821.675113,    0.000000
1834.394057,    0.000000
1847.183422,    0.000000
1860.028466,    0.000000
1872.930362,    0.000000
1885.880209,    0.000000
1898.868812,    0.000000
1911.939325,    0.000000
1925.058731,    0.000000
1938.258709,    0.000000
1951.506634,    0.000000
1964.792212,    0.000000
1978.139226,    0.000000
1991.581202,    0.000000
2005.038375,    0.000000
2018.585232,    0.000000
2032.176735,    0.000000
2045.839591,    0.000000
2049.371158,    0.000000
2059.554650,    0.000000
2073.311865,    0.000000
2087.152819,    0.000000
2101.084596,    0.000000
2115.093908,    0.000000
2129.142469,    0.000000
2143.258494,    0.000000
2157.454777,    0.000000
2171.748319,    0.000000
2186.059656,    0.000000
2200.472433,    0.000000
2214.920798,    0.000000
2229.453657,    0.000000
2244.037254,    0.000000
2258.688573,    0.000000
2273.397372,    0.000000
2288.158071,    0.000000
2302.931569,    0.000000
2317.779429,    0.000000
2332.640062,    0.000000
2347.583284,    0.000000
2362.567251,    0.000000
2377.598290,    0.000000
2392.677419,    0.000000
2407.813514,    0.000000
2422.970220,    0.000000
2438.156648,    0.000000
2453.385536,    0.000000
2454.413426,    0.000027
2455.442174,    0.000108
2456.466395,    0.000245
2457.493191,    0.000438
2458.523746,    0.000690
2459.552729,    0.001000
2460.584492,    0.001372
2461.618355,    0.001806
2462.652126,    0.002302
2463.686861,    0.002863
2464.722444,    0.003489
2465.758339,    0.004181
2466.795316,    0.004942
2467.832567,    0.005772
2468.866914,    0.006668
2469.907597,    0.007641
2470.944712,    0.008682
2471.986513,    0.009802
2473.022369,    0.010989
2474.065826,    0.012260
2475.107702,    0.013607
2476.146468,    0.015027
2477.187834,    0.016529
2478.228902,    0.018111
2479.270499,    0.019775
2480.318270,    0.021531
2481.366331,    0.023373
2482.418084,    0.025307
2483.470171,    0.027328
2484.521720,    0.029437
2485.575404,    0.031640
2486.631057,    0.033938
2487.687850,    0.036331
2488.744175,    0.038816
2489.803307,    0.041404
2490.861305,    0.044084
2491.922529,    0.046870
2492.982742,    0.049753
2494.042908,    0.052735
2495.101516,    0.055814
2496.167004,    0.059015
2497.230662,    0.062315
2498.296370,    0.065727
2499.365013,    0.069255
2500.433733,    0.072892
2501.499365,    0.076628
2502.566237,    0.080478
2503.628168,    0.084421
2504.700212,    0.088514
2505.776320,    0.092739
2506.850443,    0.097072
2507.928669,    0.101541
2509.008761,    0.106136
2510.086584,    0.110843
2511.164165,    0.115671
2512.244300,    0.120634
2513.326086,    0.125730
2514.410352,    0.130963
2515.497488,    0.136340
2516.579892,    0.141822
2517.663883,    0.147442
2518.752158,    0.153217
2519.837500,    0.159110
2520.928045,    0.165166
2522.024646,    0.171394
2523.120407,    0.177756
2524.209716,    0.184220
2525.308483,    0.190882
2526.404464,    0.197670
2527.500403,    0.204602
2528.600330,    0.211705
2529.703103,    0.218975
2530.809365,    0.226418
2531.918201,    0.234031
2533.022618,    0.241767
2534.131337,    0.249687
2535.245335,    0.257802
2536.357320,    0.266061
2537.469757,    0.274482
2538.587628,    0.283106
2539.700550,    0.291852
2540.816376,    0.300781
2541.935138,    0.309897
2543.055286,    0.319187
2544.172520,    0.328615
2545.295702,    0.338259
2546.419971,    0.348077
2547.549409,    0.358107
2548.672580,    0.368248
2549.798454,    0.378581
2550.928836,    0.389123
2552.064215,    0.399882
2553.197698,    0.410794
2554.331400,    0.421878
2555.468436,    0.433168
2556.605569,    0.444630
2557.744833,    0.456288
2558.883956,    0.468119
2560.019288,    0.480083
2561.160685,    0.492287
2562.308006,    0.504730
2563.450413,    0.517298
2564.597380,    0.530093
2565.749250,    0.543123
2566.896795,    0.556284
2568.046496,    0.569649
2569.198330,    0.583220
2570.352472,    0.597000
2571.505782,    0.610953
2572.663763,    0.625147
2573.825273,    0.639569
2574.987820,    0.654191
2576.154745,    0.669055
2577.316384,    0.684040
2578.481888,    0.699263
2579.644569,    0.714637
2580.812717,    0.730273
2581.983463,    0.746136
2583.159607,    0.762264
2584.331335,    0.778525
2585.501198,    0.794953
2586.678236,    0.811676
2587.856471,    0.828611
2589.035951,    0.845761
2590.218523,    0.863154
2591.400542,    0.880737
2592.588756,    0.898612
2593.773943,    0.916643
2594.960728,    0.934898
2596.152701,    0.953436
2597.346642,    0.972209
2598.537044,    0.991130
2599.735747,    1.010389
2600.932874,    1.029829
2602.130626,    1.049487
2603.328541,    1.069354
2603.568234,    1.073355
2604.105025,    1.082344
2604.150293,    1.083104
2604.186530,    1.083712
2604.216742,    1.084220
2604.237087,    1.084562
2604.254951,    1.084862
2604.271834,    1.085146
2604.286779,    1.085397
2604.292076,    1.085486
2604.295300,    1.085540
2604.297230,    1.085573
2604.298986,    1.085602
2604.312219,    1.085825
2604.364356,    1.086701
2604.528595,    1.089466
2605.164017,    1.100200
2606.209635,    1.117991
2607.420463,    1.138792
2608.627840,    1.159746
2609.839808,    1.180995
2611.053801,    1.202494
2612.266101,    1.224180
2613.478118,    1.246076
2614.690919,    1.268203
2615.905249,    1.290576
2617.123589,    1.313242
2618.341822,    1.336125
2619.571024,    1.359437
2620.792700,    1.382830
2622.016843,    1.406493
2623.245158,    1.430461
2624.478280,    1.454749
2625.710798,    1.479254
2626.952470,    1.504171
2628.187941,    1.529193
2629.423919,    1.554456
2630.665349,    1.580062
2631.911755,    1.606005
2632.330213,    1.614768
2633.161112,    1.632246
2634.410031,    1.658714
2635.663904,    1.685526
2636.913427,    1.712482
2638.166475,    1.739754
2639.425461,    1.767397
2640.681076,    1.795207
2641.943125,    1.823404
2643.210078,    1.851956
2644.480994,    1.880845
2645.747095,    1.909873
2647.015170,    1.939194
2648.285888,    1.968826
2649.560585,    1.998802
2650.837085,    2.029073
2652.121513,    2.059788
2653.405734,    2.090755
2654.684890,    2.121856
2655.973278,    2.153440
2657.258695,    2.185210
2658.544909,    2.217260
2659.835972,    2.249691
2661.133076,    2.282539
2662.430174,    2.315652
2663.736477,    2.349268
2665.045946,    2.383237
2666.350944,    2.417360
2667.658739,    2.451828
2668.967144,    2.486585
2670.287395,    2.521932
2671.609748,    2.557615
2672.931235,    2.593553
2674.251822,    2.629747
2675.579342,    2.666412
2676.913402,    2.703544
2678.246356,    2.740930
2679.584362,    2.778747
2680.917235,    2.816706
2682.252586,    2.855024
2683.593859,    2.893803
2684.940511,    2.933031
2686.291113,    2.972671
2687.641274,    3.012594
2688.998832,    3.053036
2690.351724,    3.093639
2691.707467,    3.134628
2693.063812,    3.175937
2694.423136,    3.217639
2695.788655,    3.259838
2697.157110,    3.302436
2698.522925,    3.345260
2699.895592,    3.388609
2701.263956,    3.432133
2702.637210,    3.476125
2704.026576,    3.520952
2705.413619,    3.566024
2706.796583,    3.611283
2708.185651,    3.657063
2709.584064,    3.703478
2710.979964,    3.750135
2712.378936,    3.797223
2713.776574,    3.844595
2715.168120,    3.892086
2716.570352,    3.940273
2717.983100,    3.989157
2719.397007,    4.038419
2720.812910,    4.088089
2722.227447,    4.138052
2723.648026,    4.188570
2725.066823,    4.239367
2726.477738,    4.290223
2727.913752,    4.342332
2729.332690,    4.394168
2730.773923,    4.447171
2732.215697,    4.500551
2733.651015,    4.554046
2735.092967,    4.608146
2736.533186,    4.662538
2737.981159,    4.717584
2739.430373,    4.773040
2740.895510,    4.829475
2742.356090,    4.886105
2743.826379,    4.943486
2745.296605,    5.001240
2746.760197,    5.059107
2748.226025,    5.117438
2749.704690,    5.176660
2751.183147,    5.236256
2752.664031,    5.296334
2754.137029,    5.356473
2755.619981,    5.417405
2757.106103,    5.478855
2758.601420,    5.541079
2760.090506,    5.603436
2761.594799,    5.666827
2763.091267,    5.730287
2764.596414,    5.794515
2766.092574,    5.858759
2767.598508,    5.923825
2769.111258,    5.989592
2770.623917,    6.055763
2772.148714,    6.122880
2773.671545,    6.190325
2775.196451,    6.258278
2776.727925,    6.326944
2778.237835,    6.395056
2779.780322,    6.465062
2781.319178,    6.535330
2782.865615,    6.606375
2784.410776,    6.677793
2785.950485,    6.749390
2787.503305,    6.822031
2789.066406,    6.895596
2790.625316,    6.969406
2792.179112,    7.043414
2793.742697,    7.118333
2795.303246,    7.193551
2796.860625,    7.269061
2798.426403,    7.345426
2800.003542,    7.422800
2801.579391,    7.500567
2803.155555,    7.578806
2804.748305,    7.658334
2806.334995,    7.738024
2807.929340,    7.818567
2809.534788,    7.900146
2811.140835,    7.982233
2812.729533,    8.063904
2814.323833,    8.146335
2815.941751,    8.230470
2817.549987,    8.314584
2819.161665,    8.399363
2820.784423,    8.485214
2822.392487,    8.570775
2824.011905,    8.657428
2825.637755,    8.744921
2827.270253,    8.833271
2828.902423,    8.922104
2830.534781,    9.011449
2832.169263,    9.101413
2833.812562,    9.192372
2835.452284,    9.283641
2837.090585,    9.375340
2838.751744,    9.468838
2840.410614,    9.562729
2842.064384,    9.656853
2843.725313,    9.751907
2845.401324,    9.848358
2847.076493,    9.945296
2848.753024,   10.042850
2850.427381,   10.140814
2852.107979,   10.239683
2853.783646,   10.338802
2855.462075,   10.438625
2857.162844,   10.540329
2858.856090,   10.642136
2860.555558,   10.744873
2862.241785,   10.847362
2863.943976,   10.951378
2865.652007,   11.056314
2867.348934,   11.161128
2869.075189,   11.268327
2870.791962,   11.375512
2872.509416,   11.483313
2874.234606,   11.592178
2875.952035,   11.701130
2877.666578,   11.810473
2879.393299,   11.921174
2881.111321,   12.031896
2882.845685,   12.144258
2884.583030,   12.257406
2886.323935,   12.371380
2888.065642,   12.486003
2889.799822,   12.600725
2891.552459,   12.717270
2893.304206,   12.834362
2895.060854,   12.952391
2896.815021,   13.070863
2898.580115,   13.190688
2900.348833,   13.311379
2902.116596,   13.432626
2903.883759,   13.554453
2905.660931,   13.677597
2907.435085,   13.801160
2909.216556,   13.925865
2910.989291,   14.050588
2912.780830,   14.177272
2914.583100,   14.305364
2916.383575,   14.433979
2918.172801,   14.562434
2919.984268,   14.693142
2921.779692,   14.823344
2923.578827,   14.954467
2925.382731,   15.086592
2927.199667,   15.220337
2929.014928,   15.354624
2930.831937,   15.489708
2932.656212,   15.626006
2934.471558,   15.762306
2936.300524,   15.900306
2938.125483,   16.038681
2939.966492,   16.178960
2941.792637,   16.318788
2943.636359,   16.460652
2945.474571,   16.602783
2947.329354,   16.746896
2949.168130,   16.890460
2951.009776,   17.034942
2952.863976,   17.181111
2954.708249,   17.327198
2956.556518,   17.474303
2958.415510,   17.622970
2960.263392,   17.771454
2962.141024,   17.923050
2963.988987,   18.072960
2965.835029,   18.223420
2967.703154,   18.376396
2969.568622,   18.529876
2971.446299,   18.685088
2973.326121,   18.841211
2975.209076,   18.998329
2977.087773,   19.155827
2978.973047,   19.314614
2980.875983,   19.475640
2982.779734,   19.637490
2984.686541,   19.800358
2986.585640,   19.963323
2988.492275,   20.127693
2990.390847,   20.292124
2992.303678,   20.458554
2994.196825,   20.624027
2996.116042,   20.792547
2998.025531,   20.960981
2999.960753,   21.132468
3001.884950,   21.303759
3003.794333,   21.474503
3005.730044,   21.648387
3007.646947,   21.821361
3009.577804,   21.996379
3011.526265,   22.173792
3013.456460,   22.350335
3015.404804,   22.529339
3017.339179,   22.707856
3019.274752,   22.887280
3021.235352,   23.069835
3023.179187,   23.251636
3025.119294,   23.433891
3027.048294,   23.615898
3029.005635,   23.801391
3030.965507,   23.987943
3032.940088,   24.176725
3034.891633,   24.364125
3036.862245,   24.554182
3038.818974,   24.743725
3040.797389,   24.936202
3042.772592,   25.129206
3044.742892,   25.322565
3046.701109,   25.515566
3048.680461,   25.711488
3050.664897,   25.908761
3052.660772,   26.108027
3054.629607,   26.305436
3056.613910,   26.505242
3058.598746,   26.705954
3060.588378,   26.908006
3062.587946,   27.111930
3064.586010,   27.316566
3066.594293,   27.523121
3068.606974,   27.731006
3070.612986,   27.939078
3072.624650,   28.148615
3074.637573,   28.359164
3076.636776,   28.569151
3078.651220,   28.781619
3080.660031,   28.994375
3082.653279,   29.206353
3084.661450,   29.420795
3086.676202,   29.636826
3088.695736,   29.854260
3090.719262,   30.073019
3092.757153,   30.294238
3094.785789,   30.515357
3096.802835,   30.736107
3098.828062,   30.958651
3100.853673,   31.182139
3102.869817,   31.405478
3104.876121,   31.628615
3106.942899,   31.859404
3108.972160,   32.086920
3111.029052,   32.318460
3113.063244,   32.548363
3115.105004,   32.780040
3117.143068,   33.012216
3119.195729,   33.246984
3121.248541,   33.482701
3123.307711,   33.720085
3125.363918,   33.958065
3127.407666,   34.195532
3129.466671,   34.435709
3131.520229,   34.676188
3133.590418,   34.919563
3134.272855,   35.000000
