Time, Forces
   0.000000,    0.000000
   0.001667,    0.065770
   0.003333,    0.716640
   0.005000,    1.439643
   0.006667,    2.162646
   0.008333,    2.885648
   0.010000,    3.608651
   0.011667,    4.331654
   0.013333,    5.054657
   0.015000,    5.777660
   0.016667,    6.500663
   0.018333,    7.223666
   0.020000,    8.970494
   0.021667,   10.845157
   0.023333,   12.719819
   0.025000,   14.594482
   0.026667,   16.469144
   0.028333,   18.343807
   0.030000,   20.218469
   0.031667,   22.093132
   0.033333,   23.967794
   0.035000,   25.842456
   0.036667,   28.702159
   0.038333,   31.684854
   0.040000,   34.667549
   0.041667,   37.650243
   0.043333,   40.632938
   0.045000,   43.615632
   0.046667,   46.598327
   0.048333,   49.581021
   0.050000,   52.563716
   0.051667,   55.546410
   0.053333,   59.474434
   0.055000,   63.520492
   0.056667,   67.566549
   0.058333,   71.612607
   0.060000,   75.658664
   0.061667,   79.704722
   0.063333,   83.750779
   0.065000,   87.796837
   0.066667,   91.842894
   0.068333,   95.888952
   0.070000,  100.839871
   0.071667,  105.903771
   0.073333,  110.967671
   0.075000,  116.031571
   0.076667,  121.095471
   0.078333,  126.159371
   0.080000,  131.223271
   0.081667,  136.287171
   0.083333,  141.351070
   0.085000,  146.414970
   0.086667,  152.332889
   0.088333,  158.357440
   0.090000,  164.381991
   0.091667,  170.406542
   0.093333,  176.431093
   0.095000,  182.455644
   0.096667,  188.480195
   0.098333,  194.504746
   0.100000,  200.529297
   0.101667,  206.553848
   0.103333,  213.363117
   0.105000,  220.270366
   0.106667,  227.177614
   0.108333,  234.084863
   0.110000,  240.992111
   0.111667,  247.899360
   0.113333,  254.806608
   0.115000,  261.713857
   0.116667,  268.621105
   0.118333,  275.528354
   0.120000,  283.165712
   0.121667,  290.894232
   0.123333,  298.622752
   0.125000,  306.351272
   0.126667,  314.079792
   0.128333,  321.808311
   0.130000,  329.536831
   0.131667,  337.265351
   0.133333,  344.993871
   0.135000,  352.722391
   0.136667,  361.127940
   0.138333,  369.618023
   0.140000,  378.108106
   0.141667,  386.598189
   0.143333,  395.088272
   0.145000,  403.578355
   0.146667,  412.068438
   0.148333,  420.558521
   0.150000,  429.048604
   0.151667,  437.538687
   0.153333,  446.653933
   0.155000,  455.847237
   0.156667,  465.040541
   0.158333,  474.233845
   0.160000,  483.427149
   0.161667,  492.620453
   0.163333,  501.813757
   0.165000,  511.007061
   0.166667,  520.200365
   0.168333,  529.393669
   0.170000,  539.161601
   0.171667,  549.001280
   0.173333,  558.840960
   0.175000,  568.680639
   0.176667,  578.520318
   0.178333,  588.359997
   0.180000,  598.199677
   0.181667,  608.039356
   0.183333,  617.879035
   0.185000,  627.718714
   0.186667,  638.052727
   0.188333,  648.448462
   0.190000,  658.844197
   0.191667,  669.239931
   0.193333,  679.635666
   0.195000,  690.031401
   0.196667,  700.427136
   0.198333,  710.822871
   0.200000,  721.218606
   0.201667,  731.614341
   0.203333,  742.413267
   0.205000,  753.262535
   0.206667,  764.111804
   0.208333,  774.961073
   0.210000,  785.810341
   0.211667,  796.659610
   0.213333,  807.508878
   0.215000,  818.358147
   0.216667,  829.207415
   0.218333,  840.056684
   0.220000,  851.253338
   0.221667,  862.493365
   0.223333,  873.733393
   0.225000,  884.973421
   0.226667,  896.213449
   0.228333,  907.453477
   0.230000,  918.693505
   0.231667,  929.933533
   0.233333,  941.173560
   0.235000,  952.413588
   0.236667,  963.948754
   0.238333,  975.520770
   0.240000,  987.092786
   0.241667,  998.664802
   0.243333, 1010.236818
   0.245000, 1021.808834
   0.246667, 1033.380850
   0.248333, 1044.952866
   0.250000, 1056.524882
   0.251667, 1068.096898
   0.253333, 1079.915059
   0.255000, 1091.763954
   0.256667, 1103.612849
   0.258333, 1115.461743
   0.260000, 1127.310638
   0.261667, 1139.159533
   0.263333, 1151.008428
   0.265000, 1162.857322
   0.266667, 1174.706217
   0.268333, 1186.555112
   0.270000, 1198.604343
   0.271667, 1210.678589
   0.273333, 1222.752834
   0.275000, 1234.827080
   0.276667, 1246.901325
   0.278333, 1258.975570
   0.280000, 1271.049816
   0.281667, 1283.124061
   0.283333, 1295.198306
   0.285000, 1307.272552
   0.286667, 1319.504450
   0.288333, 1331.756032
   0.290000, 1344.007614
   0.291667, 1356.259196
   0.293333, 1368.510778
   0.295000, 1380.762361
   0.296667, 1393.013943
   0.298333, 1405.265525
   0.300000, 1417.517107
   0.301667, 1429.768689
   0.303333, 1442.122803
   0.305000, 1454.489719
   0.306667, 1466.856634
   0.308333, 1479.223550
   0.310000, 1491.590465
   0.311667, 1503.957381
   0.312642, 1511.194232
   0.314309, 1579.141352
   0.315975, 1647.088473
   0.317642, 1715.035594
   0.319309, 1763.153072
   0.320975, 1789.281239
   0.322642, 1815.409406
   0.324309, 1841.537573
   0.325975, 1867.665739
   0.327642, 1893.793906
   0.329309, 1919.922073
   0.330975, 1946.050240
   0.332642, 1972.178407
   0.334309, 1998.306574
   0.335975, 2038.763271
   0.337642, 2095.109036
   0.339309, 2151.454801
   0.340975, 2207.800566
   0.342642, 2264.146331
   0.344309, 2320.492096
   0.345975, 2376.837861
   0.347642, 2433.183626
   0.349309, 2489.529391
   0.350975, 2545.875156
   0.352642, 2604.960193
   0.354309, 2667.082840
   0.355975, 2729.205486
   0.357642, 2791.328133
   0.359309, 2853.450780
   0.360975, 2915.573426
   0.362642, 2977.696073
   0.364309, 3039.818720
   0.365975, 3101.941366
   0.367642, 3164.064013
   0.368518, 3196.729446
   0.370185, 3414.905041
   0.371852, 3633.080636
   0.373518, 3851.256230
   0.375185, 4069.431825
   0.376852, 4287.607420
   0.378518, 4505.783015
   0.380185, 4723.958609
   0.381852, 4942.134204
   0.383518, 5160.309799
   0.385185, 5378.485394
   0.386852, 5388.669829
   0.388518, 5398.854264
   0.390185, 5409.038699
   0.391852, 5419.223135
   0.393518, 5429.407570
   0.395185, 5434.302569
   0.396852, 5439.197568
   0.398518, 5444.092567
   0.400185, 5448.987566
   0.401852, 5453.882564
   0.403518, 5453.180172
   0.405185, 5452.477780
   0.406852, 5451.775388
   0.408518, 5451.072996
   0.410185, 5450.370604
   0.410185, 3013.603843
   1.605400, 3013.601395
   2.825139, 3013.593827
   4.084250, 3013.594928
   5.433948, 3013.586095
   6.920962, 3013.589668
   8.567151, 3013.591160
  10.405942, 3013.589652
  12.496124, 3013.589694
  14.982109, 3013.587615
  14.982109, 3471.168996
  15.801212, 3470.394792
  16.620315, 3469.620715
  17.439418, 3468.846763
  18.258522, 3468.072937
  19.077625, 3467.299237
  19.896728, 3466.525663
  20.715832, 3465.752214
  21.534935, 3464.978892
  22.354038, 3464.205695
  23.173141, 3463.432623
  23.992245, 3462.659678
  24.811348, 3461.886858
  25.630451, 3461.114164
  26.449554, 3460.341596
  27.268658, 3459.569154
  28.087761, 3458.796838
  28.906864, 3458.024647
  29.725967, 3457.252582
  30.545071, 3456.480643
  31.364174, 3455.708830
  32.183277, 3454.937142
  33.002380, 3454.165580
  33.821484, 3453.394144
  34.640587, 3452.622834
  35.459690, 3451.851650
  36.278793, 3451.080591
  37.097897, 3450.309658
  37.917000, 3449.538851
  38.736103, 3448.768170
  38.736103, 3885.165933
  39.896032, 3884.536949
  41.058764, 3883.949446
  42.220084, 3883.350185
  43.376236, 3882.744303
  44.524976, 3882.134082
  45.661995, 3881.509310
  46.783206, 3880.873462
  47.900611, 3880.287820
  49.010509, 3879.683990
  49.010509, 2954.016604
  49.589924, 2954.000584
  50.174964, 2953.954115
  50.765469, 2953.964344
  51.364214, 2953.969033
  51.981985, 2953.967751
  52.628108, 2953.961651
  53.305596, 2953.964350
  54.016769, 2953.962077
  54.763442, 2953.958942
  54.763442, 2773.573754
  56.615618, 2771.152755
  58.468603, 2768.732689
  60.322397, 2766.313557
  62.177002, 2763.895360
  64.032418, 2761.478101
  65.888646, 2759.061780
  67.745686, 2756.646400
  69.603540, 2754.231962
  71.462208, 2751.818468
  71.462208, 3866.139640
  72.108615, 3865.871157
  72.744854, 3865.452654
  73.383630, 3865.141081
  74.025084, 3864.829215
  74.669359, 3864.517901
  75.316244, 3864.204524
  75.965602, 3863.888515
  76.616971, 3863.567784
  77.269434, 3863.239544
  77.269434, 2745.808541
  82.269434, 2739.423927
  87.269434, 2733.051785
  92.269434, 2726.752634
  97.269434, 2720.626166
 102.269434, 2714.511280
 107.269434, 2708.407964
 112.269434, 2702.316204
 117.269434, 2696.235989
 122.269434, 2690.167307
 122.269434, 4654.395454
 122.271101, 4624.214249
 122.272767, 4624.397614
 122.274434, 4624.580978
 122.276101, 4624.526575
 122.277767, 4624.425823
 122.279434, 4624.325071
 122.281101, 4624.224320
 122.282767, 4624.123568
 122.284434, 4624.022816
 122.286101, 4623.922065
 122.287767, 4623.821313
 122.289434, 4623.720561
 122.291101, 4623.619810
 122.292767, 4623.516227
 122.294434, 4623.412092
 122.296101, 4623.307957
 122.297767, 4623.203822
 122.299434, 4623.099687
 122.301101, 4622.995552
 122.302767, 4622.891417
 122.304434, 4622.787283
 122.306101, 4622.683148
 122.307767, 4622.579013
 122.309434, 4622.705752
 122.311101, 4622.877495
 122.312767, 4623.049238
 122.314434, 4623.220982
 122.316101, 4623.392725
 122.317767, 4623.564468
 122.319434, 4623.736212
 122.321101, 4623.907955
 122.322767, 4624.079698
 122.324434, 4624.251442
 122.326101, 4623.947373
 122.327767, 4623.550553
 122.329434, 4623.153734
 122.331101, 4622.756915
 122.332767, 4622.360096
 122.334434, 4621.963276
 122.336101, 4621.566457
 122.337767, 4621.169638
 122.339434, 4620.772819
 122.341101, 4620.375999
 122.342767, 4620.453093
 122.344434, 4620.622566
 122.346101, 4620.792039
 122.347767, 4620.961512
 122.349434, 4621.130985
 122.351101, 4621.300457
 122.352767, 4621.469930
 122.354434, 4621.639403
 122.356101, 4621.808876
 122.357767, 4621.978349
 122.359434, 4622.143368
 122.361101, 4622.307518
 122.362767, 4622.471669
 122.364434, 4622.635819
 122.366101, 4622.799969
 122.367767, 4622.964119
 122.369434, 4623.128270
 122.371101, 4623.292420
 122.372767, 4623.456570
 122.374434, 4623.620720
 122.376101, 4623.322275
 122.377767, 4622.933656
 122.379434, 4622.545037
 122.381101, 4622.156418
 122.382767, 4621.767799
 122.384434, 4621.379180
 122.386101, 4620.990560
 122.387767, 4620.601941
 122.389434, 4620.213322
 122.391101, 4619.824703
 122.392767, 4619.905236
 122.394434, 4620.077220
 122.396101, 4620.249204
 122.397767, 4620.421189
 122.399434, 4620.593173
 122.401101, 4620.765158
 122.402767, 4620.937142
 122.404434, 4621.109126
 122.406101, 4621.281111
 122.407767, 4621.453095
 122.409434, 4621.387672
 122.411101, 4621.275972
 122.412767, 4621.164271
 122.414434, 4621.052571
 122.416101, 4620.940870
 122.417767, 4620.829169
 122.419434, 4620.717469
 122.421101, 4620.605768
 122.422767, 4620.494068
 122.424434, 4620.382367
 122.426101, 4620.502204
 122.427767, 4620.667175
 122.429434, 4620.832146
 122.431101, 4620.997116
 122.432767, 4621.162087
 122.434434, 4621.327058
 122.436101, 4621.492028
 122.437767, 4621.656999
 122.439434, 4621.821970
 122.441101, 4621.986941
 122.442767, 4621.907326
 122.444434, 4621.780035
 122.446101, 4621.652744
 122.447767, 4621.525453
 122.449434, 4621.398162
 122.451101, 4621.270870
 122.452767, 4621.143579
 122.454434, 4621.016288
 122.456101, 4620.888997
 122.457767, 4620.761706
 122.459434, 4620.863994
 122.461101, 4621.011033
 122.462767, 4621.158073
 122.464434, 4621.305113
 122.466101, 4621.452152
 122.467767, 4621.599192
 122.469434, 4621.746232
 122.471101, 4621.893272
 122.472767, 4622.040311
 122.474434, 4622.187351
 122.476101, 4621.869597
 122.477767, 4621.461242
 122.479434, 4621.052886
 122.481101, 4620.644530
 122.482767, 4620.236174
 122.484434, 4619.827818
 122.486101, 4619.419463
 122.487767, 4619.011107
 122.489434, 4618.602751
 122.491101, 4618.194395
 122.492767, 4618.255950
 122.494434, 4618.409104
 122.496101, 4618.562259
 122.497767, 4618.715413
 122.499434, 4618.868568
 122.501101, 4619.021722
 122.502767, 4619.174876
 122.504434, 4619.328031
 122.506101, 4619.481185
 122.507767, 4619.634340
 122.509434, 4619.781779
 122.511101, 4619.928103
 122.512767, 4620.074428
 122.514434, 4620.220753
 122.516101, 4620.367077
 122.517767, 4620.513402
 122.519434, 4620.659726
 122.521101, 4620.806051
 122.522767, 4620.952376
 122.524434, 4621.098700
 122.526101, 4620.780782
 122.527767, 4620.372369
 122.529434, 4619.963957
 122.531101, 4619.555544
 122.532767, 4619.147131
 122.534434, 4618.738718
 122.536101, 4618.330305
 122.537767, 4617.921892
 122.539434, 4617.513479
 122.541101, 4617.105066
 122.542767, 4617.167951
 122.544434, 4617.322707
 122.546101, 4617.477462
 122.547767, 4617.632218
 122.549434, 4617.786973
 122.551101, 4617.941729
 122.552767, 4618.096484
 122.554434, 4618.251240
 122.556101, 4618.405996
 122.557767, 4618.560751
 122.559434, 4618.710606
 122.561101, 4618.859506
 122.562767, 4619.008406
 122.564434, 4619.157306
 122.566101, 4619.306206
 122.567767, 4619.455106
 122.569434, 4619.604005
 122.571101, 4619.752905
 122.572767, 4619.901805
 122.574434, 4620.050705
 122.576101, 4619.735575
 122.577767, 4619.329991
 122.579434, 4618.924408
 122.581101, 4618.518824
 122.582767, 4618.113240
 122.584434, 4617.707657
 122.586101, 4617.302073
 122.587767, 4616.896489
 122.589434, 4616.490906
 122.591101, 4616.085322
 122.592767, 4616.151937
 122.594434, 4616.310597
 122.596101, 4616.469258
 122.597767, 4616.627918
 122.599434, 4616.786579
 122.601101, 4616.945239
 122.602767, 4617.103900
 122.604434, 4617.262560
 122.606101, 4617.421221
 122.607767, 4617.579881
 122.609434, 4617.733880
 122.611101, 4617.886970
 122.612767, 4618.040060
 122.614434, 4618.193150
 122.616101, 4618.346240
 122.617767, 4618.499329
 122.619434, 4618.652419
 122.621101, 4618.805509
 122.622767, 4618.958599
 122.624434, 4619.111689
 122.626101, 4618.800300
 122.627767, 4618.398370
 122.629434, 4617.996440
 122.631101, 4617.594511
 122.632767, 4617.192581
 122.634434, 4616.790651
 122.636101, 4616.388721
 122.637767, 4615.986791
 122.639434, 4615.584861
 122.641101, 4615.182931
 122.642767, 4615.253477
 122.644434, 4615.416123
 122.646101, 4615.578769
 122.647767, 4615.741414
 122.649434, 4615.904060
 122.651101, 4616.066706
 122.652767, 4616.229352
 122.654434, 4616.391997
 122.656101, 4616.554643
 122.657767, 4616.717289
 122.659434, 4616.874885
 122.661101, 4617.031497
 122.662767, 4617.188109
 122.664434, 4617.344721
 122.666101, 4617.501332
 122.667767, 4617.657944
 122.669434, 4617.814556
 122.671101, 4617.971168
 122.672767, 4618.127780
 122.674434, 4618.284392
 122.676101, 4617.975488
 122.677767, 4617.575841
 122.679434, 4617.176193
 122.681101, 4616.776546
 122.682767, 4616.376899
 122.684434, 4615.977252
 122.686101, 4615.577604
 122.687767, 4615.177957
 122.689434, 4614.778310
 122.691101, 4614.378663
 122.692767, 4614.451328
 122.694434, 4614.616061
 122.696101, 4614.780793
 122.697767, 4614.945526
 122.699434, 4615.110259
 122.701101, 4615.274992
 122.702767, 4615.439725
 122.704434, 4615.604458
 122.706101, 4615.769191
 122.707767, 4615.933923
 122.709434, 4616.092869
 122.711101, 4616.250687
 122.712767, 4616.408505
 122.714434, 4616.566323
 122.716101, 4616.724141
 122.717767, 4616.881959
 122.719434, 4617.039777
 122.721101, 4617.197594
 122.722767, 4617.355412
 122.724434, 4617.513230
 122.726101, 4617.204290
 122.727767, 4616.804364
 122.729434, 4616.404438
 122.731101, 4616.004513
 122.732767, 4615.604587
 122.734434, 4615.204661
 122.736101, 4614.804736
 122.737767, 4614.404810
 122.739434, 4614.004884
 122.741101, 4613.604959
 122.742767, 4613.677101
 122.744434, 4613.841264
 122.746101, 4614.005427
 122.747767, 4614.169589
 122.749434, 4614.333752
 122.751101, 4614.497915
 122.752767, 4614.662078
 122.754434, 4614.826240
 122.756101, 4614.990403
 122.757767, 4615.154566
 122.759434, 4615.312273
 122.761101, 4615.468722
 122.762767, 4615.625170
 122.764434, 4615.781619
 122.766101, 4615.938067
 122.767767, 4616.094516
 122.769434, 4616.250965
 122.771101, 4616.407413
 122.772767, 4616.563862
 122.774434, 4616.720311
 122.776101, 4616.426453
 122.777767, 4616.044817
 122.779434, 4615.663181
 122.781101, 4615.281544
 122.782767, 4614.899908
 122.784434, 4614.518272
 122.786101, 4614.136636
 122.787767, 4613.755000
 122.789434, 4613.373364
 122.791101, 4612.991728
 122.792767, 4613.079139
 122.794434, 4613.257981
 122.796101, 4613.436824
 122.797767, 4613.615666
 122.799434, 4613.794508
 122.801101, 4613.973351
 122.802767, 4614.152193
 122.804434, 4614.331035
 122.806101, 4614.509878
 122.807767, 4614.688720
 122.809434, 4614.625422
 122.811101, 4614.514923
 122.812767, 4614.404424
 122.814434, 4614.293926
 122.816101, 4614.183427
 122.817767, 4614.072928
 122.819434, 4613.962430
 122.821101, 4613.851931
 122.822767, 4613.741432
 122.824434, 4613.630933
 122.826101, 4613.751072
 122.827767, 4613.916168
 122.829434, 4614.081265
 122.831101, 4614.246361
 122.832767, 4614.411458
 122.834434, 4614.576554
 122.836101, 4614.741651
 122.837767, 4614.906747
 122.839434, 4615.071844
 122.841101, 4615.236940
 122.842767, 4614.933885
 122.844434, 4614.539573
 122.846101, 4614.145261
 122.847767, 4613.750949
 122.849434, 4613.356638
 122.851101, 4612.962326
 122.852767, 4612.568014
 122.854434, 4612.173702
 122.856101, 4611.779390
 122.857767, 4611.385078
 122.859434, 4611.463481
 122.861101, 4611.634031
 122.862767, 4611.804580
 122.864434, 4611.975130
 122.866101, 4612.145680
 122.867767, 4612.316229
 122.869434, 4612.486779
 122.871101, 4612.657328
 122.872767, 4612.827878
 122.874434, 4612.998427
 122.876101, 4612.928528
 122.877767, 4612.811758
 122.879434, 4612.694988
 122.881101, 4612.578218
 122.882767, 4612.461449
 122.884434, 4612.344679
 122.886101, 4612.227909
 122.887767, 4612.111139
 122.889434, 4611.994369
 122.891101, 4611.877599
 122.892767, 4611.994063
 122.894434, 4612.155991
 122.896101, 4612.317919
 122.897767, 4612.479847
 122.899434, 4612.641775
 122.901101, 4612.803703
 122.902767, 4612.965631
 122.904434, 4613.127559
 122.906101, 4613.289487
 122.907767, 4613.451415
 122.909434, 4613.366146
 122.911101, 4613.232690
 122.912767, 4613.099235
 122.914434, 4612.965779
 122.916101, 4612.832324
 122.917767, 4612.698868
 122.919434, 4612.565413
 122.921101, 4612.431957
 122.922767, 4612.298502
 122.924434, 4612.165047
 122.926101, 4612.263352
 122.927767, 4612.406834
 122.929434, 4612.550317
 122.931101, 4612.693799
 122.932767, 4612.837282
 122.934434, 4612.980764
 122.936101, 4613.124247
 122.937767, 4613.267729
 122.939434, 4613.411212
 122.941101, 4613.554694
 122.942767, 4613.229110
 122.944434, 4612.812091
 122.946101, 4612.395073
 122.947767, 4611.978054
 122.949434, 4611.561035
 122.951101, 4611.144016
 122.952767, 4610.726997
 122.954434, 4610.309978
 122.956101, 4609.892959
 122.957767, 4609.475941
 122.959434, 4609.533764
 122.961101, 4609.684148
 122.962767, 4609.834533
 122.964434, 4609.984917
 122.966101, 4610.135302
 122.967767, 4610.285686
 122.969434, 4610.436071
 122.971101, 4610.586455
 122.972767, 4610.736839
 122.974434, 4610.887224
 122.976101, 4611.032465
 122.977767, 4611.176704
 122.979434, 4611.320942
 122.981101, 4611.465181
 122.982767, 4611.609420
 122.984434, 4611.753659
 122.986101, 4611.897897
 122.987767, 4612.042136
 122.989434, 4612.186375
 122.991101, 4612.330613
 122.992767, 4612.006905
 122.994434, 4611.591979
 122.996101, 4611.177054
 122.997767, 4610.762128
 122.999434, 4610.347203
 123.001101, 4609.932277
 123.002767, 4609.517352
 123.004434, 4609.102426
 123.006101, 4608.687501
 123.007767, 4608.272575
 123.009434, 4608.334279
 123.011101, 4608.488893
 123.012767, 4608.643507
 123.014434, 4608.798121
 123.016101, 4608.952735
 123.017767, 4609.107349
 123.019434, 4609.261963
 123.021101, 4609.416577
 123.022767, 4609.571191
 123.024434, 4609.725805
 123.026101, 4609.876356
 123.027767, 4610.026114
 123.029434, 4610.175872
 123.031101, 4610.325631
 123.032767, 4610.475389
 123.034434, 4610.625148
 123.036101, 4610.774906
 123.037767, 4610.924664
 123.039434, 4611.074423
 123.041101, 4611.224181
 123.042767, 4611.126125
 123.044434, 4610.979762
 123.046101, 4610.833399
 123.047767, 4610.687036
 123.049434, 4610.540673
 123.051101, 4610.394310
 123.052767, 4610.247947
 123.054434, 4610.101585
 123.056101, 4609.955222
 123.057767, 4609.808859
 123.059434, 4609.895496
 123.061101, 4610.027552
 123.062767, 4610.159608
 123.064434, 4610.291664
 123.066101, 4610.423721
 123.067767, 4610.555777
 123.069434, 4610.687833
 123.071101, 4610.819889
 123.072767, 4610.951945
 123.074434, 4611.084001
 123.076101, 4610.747050
 123.077767, 4610.318675
 123.079434, 4609.890300
 123.081101, 4609.461925
 123.082767, 4609.033550
 123.084434, 4608.605175
 123.086101, 4608.176800
 123.087767, 4607.748425
 123.089434, 4607.320050
 123.091101, 4606.891675
 123.092767, 4606.941027
 123.094434, 4607.083501
 123.096101, 4607.225976
 123.097767, 4607.368451
 123.099434, 4607.510925
 123.101101, 4607.653400
 123.102767, 4607.795875
 123.104434, 4607.938350
 123.106101, 4608.080824
 123.107767, 4608.223299
 123.109434, 4608.362673
 123.111101, 4608.501443
 123.112767, 4608.640213
 123.114434, 4608.778983
 123.116101, 4608.917753
 123.117767, 4609.056523
 123.119434, 4609.195293
 123.121101, 4609.334063
 123.122767, 4609.472833
 123.124434, 4609.611603
 123.126101, 4609.524284
 123.127767, 4609.392893
 123.129434, 4609.261503
 123.131101, 4609.130112
 123.132767, 4608.998721
 123.134434, 4608.867331
 123.136101, 4608.735940
 123.137767, 4608.604549
 123.139434, 4608.473159
 123.141101, 4608.341768
 123.142767, 4608.440940
 123.144434, 4608.585055
 123.146101, 4608.729170
 123.147767, 4608.873285
 123.149434, 4609.017400
 123.151101, 4609.161515
 123.152767, 4609.305631
 123.154434, 4609.449746
 123.156101, 4609.593861
 123.157767, 4609.737976
 123.159434, 4609.411613
 123.161101, 4608.993539
 123.162767, 4608.575465
 123.164434, 4608.157391
 123.166101, 4607.739317
 123.167767, 4607.321243
 123.169434, 4606.903170
 123.171101, 4606.485096
 123.172767, 4606.067022
 123.174434, 4605.648948
 123.176101, 4605.708056
 123.177767, 4605.860182
 123.179434, 4606.012307
 123.181101, 4606.164433
 123.182767, 4606.316558
 123.184434, 4606.468684
 123.186101, 4606.620810
 123.187767, 4606.772935
 123.189434, 4606.925061
 123.191101, 4607.077186
 123.192767, 4607.224497
 123.194434, 4607.370869
 123.196101, 4607.517241
 123.197767, 4607.663614
 123.199434, 4607.809986
 123.201101, 4607.956358
 123.202767, 4608.102730
 123.204434, 4608.249103
 123.206101, 4608.395475
 123.207767, 4608.541847
 123.209434, 4608.218611
 123.211101, 4607.803834
 123.212767, 4607.389057
 123.214434, 4606.974280
 123.216101, 4606.559503
 123.217767, 4606.144726
 123.219434, 4605.729949
 123.221101, 4605.315172
 123.222767, 4604.900395
 123.224434, 4604.485618
 123.226101, 4604.549526
 123.227767, 4604.706744
 123.229434, 4604.863963
 123.231101, 4605.021181
 123.232767, 4605.178399
 123.234434, 4605.335618
 123.236101, 4605.492836
 123.237767, 4605.650054
 123.239434, 4605.807272
 123.241101, 4605.964491
 123.242767, 4606.117650
 123.244434, 4606.270018
 123.246101, 4606.422386
 123.247767, 4606.574754
 123.249434, 4606.727122
 123.251101, 4606.879490
 123.252767, 4607.031858
 123.254434, 4607.184225
 123.256101, 4607.336593
 123.257767, 4607.488961
 123.259434, 4607.392424
 123.261101, 4607.247369
 123.262767, 4607.102313
 123.264434, 4606.957257
 123.266101, 4606.812201
 123.267767, 4606.667145
 123.269434, 4606.522089
 123.271101, 4606.377033
 123.272767, 4606.231977
 123.274434, 4606.086921
 123.276101, 4606.175622
 123.277767, 4606.309889
 123.279434, 4606.444156
 123.281101, 4606.578423
 123.282767, 4606.712690
 123.284434, 4606.846957
 123.286101, 4606.981224
 123.287767, 4607.115492
 123.289434, 4607.249759
 123.291101, 4607.384026
 123.292767, 4607.047087
 123.294434, 4606.618295
 123.296101, 4606.189504
 123.297767, 4605.760713
 123.299434, 4605.331922
 123.301101, 4604.903131
 123.302767, 4604.474339
 123.304434, 4604.045548
 123.306101, 4603.616757
 123.307767, 4603.187966
 123.309434, 4603.238502
 123.311101, 4603.382473
 123.312767, 4603.526445
 123.314434, 4603.670416
 123.316101, 4603.814388
 123.317767, 4603.958359
 123.319434, 4604.102330
 123.321101, 4604.246302
 123.322767, 4604.390273
 123.324434, 4604.534245
 123.326101, 4604.674727
 123.327767, 4604.814529
 123.329434, 4604.954331
 123.331101, 4605.094133
 123.332767, 4605.233935
 123.334434, 4605.373737
 123.336101, 4605.513539
 123.337767, 4605.653341
 123.339434, 4605.793143
 123.341101, 4605.932945
 123.342767, 4605.845312
 123.344434, 4605.713345
 123.346101, 4605.581378
 123.347767, 4605.449411
 123.349434, 4605.317444
 123.351101, 4605.185477
 123.352767, 4605.053510
 123.354434, 4604.921543
 123.356101, 4604.789576
 123.357767, 4604.657609
 123.359434, 4604.756788
 123.361101, 4604.901026
 123.362767, 4605.045263
 123.364434, 4605.189500
 123.366101, 4605.333737
 123.367767, 4605.477975
 123.369434, 4605.622212
 123.371101, 4605.766449
 123.372767, 4605.910686
 123.374434, 4606.054924
 123.376101, 4605.737846
 123.377767, 4605.330845
 123.379434, 4604.923844
 123.381101, 4604.516842
 123.382767, 4604.109841
 123.384434, 4603.702839
 123.386101, 4603.295838
 123.387767, 4602.888837
 123.389434, 4602.481835
 123.391101, 4602.074834
 123.392767, 4602.134847
 123.394434, 4602.285895
 123.396101, 4602.436943
 123.397767, 4602.587991
 123.399434, 4602.739039
 123.401101, 4602.890087
 123.402767, 4603.041135
 123.404434, 4603.192184
 123.406101, 4603.343232
 123.407767, 4603.494280
 123.409434, 4603.640325
 123.411101, 4603.785395
 123.412767, 4603.930466
 123.414434, 4604.075536
 123.416101, 4604.220606
 123.417767, 4604.365677
 123.419434, 4604.510747
 123.421101, 4604.655817
 123.422767, 4604.800888
 123.424434, 4604.945958
 123.426101, 4604.634354
 123.427767, 4604.233732
 123.429434, 4603.833109
 123.431101, 4603.432486
 123.432767, 4603.031863
 123.434434, 4602.631240
 123.436101, 4602.230617
 123.437767, 4601.829994
 123.439434, 4601.429371
 123.441101, 4601.028749
 123.442767, 4601.093356
 123.444434, 4601.248651
 123.446101, 4601.403945
 123.447767, 4601.559240
 123.449434, 4601.714535
 123.451101, 4601.869829
 123.452767, 4602.025124
 123.454434, 4602.180419
 123.456101, 4602.335713
 123.457767, 4602.491008
 123.459434, 4602.642417
 123.461101, 4602.793069
 123.462767, 4602.943720
 123.464434, 4603.094372
 123.466101, 4603.245024
 123.467767, 4603.395676
 123.469434, 4603.546327
 123.471101, 4603.696979
 123.472767, 4603.847631
 123.474434, 4603.998282
 123.476101, 4603.906910
 123.477767, 4603.768360
 123.479434, 4603.629811
 123.481101, 4603.491261
 123.482767, 4603.352711
 123.484434, 4603.214161
 123.486101, 4603.075611
 123.487767, 4602.937061
 123.489434, 4602.798512
 123.491101, 4602.659962
 123.492767, 4602.748649
 123.494434, 4602.881632
 123.496101, 4603.014615
 123.497767, 4603.147597
 123.499434, 4603.280580
 123.501101, 4603.413563
 123.502767, 4603.546545
 123.504434, 4603.679528
 123.506101, 4603.812511
 123.507767, 4603.945494
 123.509434, 4603.620763
 123.511101, 4603.206811
 123.512767, 4602.792859
 123.514434, 4602.378907
 123.516101, 4601.964954
 123.517767, 4601.551002
 123.519434, 4601.137050
 123.521101, 4600.723098
 123.522767, 4600.309145
 123.524434, 4599.895193
 123.526101, 4599.947559
 123.527767, 4600.090824
 123.529434, 4600.234089
 123.531101, 4600.377354
 123.532767, 4600.520619
 123.534434, 4600.663884
 123.536101, 4600.807149
 123.537767, 4600.950414
 123.539434, 4601.093679
 123.541101, 4601.236944
 123.542767, 4601.377284
 123.544434, 4601.517054
 123.546101, 4601.656824
 123.547767, 4601.796594
 123.549434, 4601.936363
 123.551101, 4602.076133
 123.552767, 4602.215903
 123.554434, 4602.355673
 123.556101, 4602.495443
 123.557767, 4602.635213
 123.559434, 4602.554416
 123.561101, 4602.430623
 123.562767, 4602.306830
 123.564434, 4602.183038
 123.566101, 4602.059245
 123.567767, 4601.935453
 123.569434, 4601.811660
 123.571101, 4601.687868
 123.572767, 4601.564075
 123.574434, 4601.440282
 123.576101, 4601.541668
 123.577767, 4601.686948
 123.579434, 4601.832228
 123.581101, 4601.977508
 123.582767, 4602.122788
 123.584434, 4602.268068
 123.586101, 4602.413348
 123.587767, 4602.558628
 123.589434, 4602.703908
 123.591101, 4602.849188
 123.592767, 4602.535287
 123.594434, 4602.131877
 123.596101, 4601.728467
 123.597767, 4601.325057
 123.599434, 4600.921647
 123.601101, 4600.518237
 123.602767, 4600.114827
 123.604434, 4599.711417
 123.606101, 4599.308007
 123.607767, 4598.904597
 123.609434, 4598.966930
 123.611101, 4599.120049
 123.612767, 4599.273169
 123.614434, 4599.426289
 123.616101, 4599.579409
 123.617767, 4599.732528
 123.619434, 4599.885648
 123.621101, 4600.038768
 123.622767, 4600.191887
 123.624434, 4600.345007
 123.626101, 4600.493459
 123.627767, 4600.641001
 123.629434, 4600.788543
 123.631101, 4600.936084
 123.632767, 4601.083626
 123.634434, 4601.231168
 123.636101, 4601.378710
 123.637767, 4601.526252
 123.639434, 4601.673794
 123.641101, 4601.821335
 123.642767, 4601.510564
 123.644434, 4601.110453
 123.646101, 4600.710342
 123.647767, 4600.310231
 123.649434, 4599.910120
 123.651101, 4599.510010
 123.652767, 4599.109899
 123.654434, 4598.709788
 123.656101, 4598.309677
 123.657767, 4597.909566
 123.659434, 4597.976686
 123.661101, 4598.134883
 123.662767, 4598.293080
 123.664434, 4598.451277
 123.666101, 4598.609474
 123.667767, 4598.767671
 123.669434, 4598.925869
 123.671101, 4599.084066
 123.672767, 4599.242263
 123.674434, 4599.400460
 123.676101, 4599.554738
 123.677767, 4599.708253
 123.679434, 4599.861768
 123.681101, 4600.015283
 123.682767, 4600.168797
 123.684434, 4600.322312
 123.686101, 4600.475827
 123.687767, 4600.629342
 123.689434, 4600.782856
 123.691101, 4600.936371
 123.692767, 4600.846739
 123.694434, 4600.709710
 123.696101, 4600.572681
 123.697767, 4600.435652
 123.699434, 4600.298622
 123.701101, 4600.161593
 123.702767, 4600.024564
 123.704434, 4599.887535
 123.706101, 4599.750506
 123.707767, 4599.613477
 123.709434, 4599.704372
 123.711101, 4599.839697
 123.712767, 4599.975022
 123.714434, 4600.110347
 123.716101, 4600.245671
 123.717767, 4600.380996
 123.719434, 4600.516321
 123.721101, 4600.651646
 123.722767, 4600.786970
 123.724434, 4600.922295
 123.726101, 4600.597682
 123.727767, 4600.183414
 123.729434, 4599.769145
 123.731101, 4599.354876
 123.732767, 4598.940608
 123.734434, 4598.526339
 123.736101, 4598.112070
 123.737767, 4597.697802
 123.739434, 4597.283533
 123.741101, 4596.869265
 123.742767, 4596.922829
 123.744434, 4597.067589
 123.746101, 4597.212349
 123.747767, 4597.357108
 123.749434, 4597.501868
 123.751101, 4597.646627
 123.752767, 4597.791387
 123.754434, 4597.936147
 123.756101, 4598.080906
 123.757767, 4598.225666
 123.759434, 4598.367060
 123.761101, 4598.507798
 123.762767, 4598.648535
 123.764434, 4598.789273
 123.766101, 4598.930011
 123.767767, 4599.070749
 123.769434, 4599.211487
 123.771101, 4599.352224
 123.772767, 4599.492962
 123.774434, 4599.633700
 123.776101, 4599.552511
 123.777767, 4599.428062
 123.779434, 4599.303612
 123.781101, 4599.179163
 123.782767, 4599.054713
 123.784434, 4598.930264
 123.786101, 4598.805815
 123.787767, 4598.681365
 123.789434, 4598.556916
 123.791101, 4598.432466
 123.792767, 4598.533713
 123.794434, 4598.678955
 123.796101, 4598.824198
 123.797767, 4598.969440
 123.799434, 4599.114682
 123.801101, 4599.259924
 123.802767, 4599.405166
 123.804434, 4599.550408
 123.806101, 4599.695650
 123.807767, 4599.840892
 123.809434, 4599.524685
 123.811101, 4599.118527
 123.812767, 4598.712369
 123.814434, 4598.306211
 123.816101, 4597.900053
 123.817767, 4597.493895
 123.819434, 4597.087737
 123.821101, 4596.681579
 123.822767, 4596.275421
 123.824434, 4595.869264
 123.826101, 4595.930462
 123.827767, 4596.082762
 123.829434, 4596.235062
 123.831101, 4596.387361
 123.832767, 4596.539661
 123.834434, 4596.691961
 123.836101, 4596.844261
 123.837767, 4596.996561
 123.839434, 4597.148861
 123.841101, 4597.301161
 123.842767, 4597.448558
 123.844434, 4597.594999
 123.846101, 4597.741440
 123.847767, 4597.887882
 123.849434, 4598.034323
 123.851101, 4598.180764
 123.852767, 4598.327206
 123.854434, 4598.473647
 123.856101, 4598.620088
 123.857767, 4598.766530
 123.859434, 4598.452637
 123.861101, 4598.049012
 123.862767, 4597.645387
 123.864434, 4597.241761
 123.866101, 4596.838136
 123.867767, 4596.434510
 123.869434, 4596.030885
 123.871101, 4595.627260
 123.872767, 4595.223634
 123.874434, 4594.820009
 123.876101, 4594.885503
 123.877767, 4595.042442
 123.879434, 4595.199382
 123.881101, 4595.356321
 123.882767, 4595.513260
 123.884434, 4595.670200
 123.886101, 4595.827139
 123.887767, 4595.984078
 123.889434, 4596.141018
 123.891101, 4596.297957
 123.892767, 4596.451030
 123.894434, 4596.603349
 123.896101, 4596.755667
 123.897767, 4596.907986
 123.899434, 4597.060305
 123.901101, 4597.212624
 123.902767, 4597.364942
 123.904434, 4597.517261
 123.906101, 4597.669580
 123.907767, 4597.821899
 123.909434, 4597.730234
 123.911101, 4597.591009
 123.912767, 4597.451784
 123.914434, 4597.312560
 123.916101, 4597.173335
 123.917767, 4597.034111
 123.919434, 4596.894886
 123.921101, 4596.755661
 123.922767, 4596.616437
 123.924434, 4596.477212
 123.926101, 4596.567076
 123.927767, 4596.701597
 123.929434, 4596.836117
 123.931101, 4596.970637
 123.932767, 4597.105158
 123.934434, 4597.239678
 123.936101, 4597.374199
 123.937767, 4597.508719
 123.939434, 4597.643240
 123.941101, 4597.777760
 123.942767, 4597.450728
 123.944434, 4597.033725
 123.946101, 4596.616722
 123.947767, 4596.199719
 123.949434, 4595.782716
 123.951101, 4595.365713
 123.952767, 4594.948710
 123.954434, 4594.531707
 123.956101, 4594.114704
 123.957767, 4593.697702
 123.959434, 4593.750764
 123.961101, 4593.895456
 123.962767, 4594.040149
 123.964434, 4594.184841
 123.966101, 4594.329534
 123.967767, 4594.474226
 123.969434, 4594.618918
 123.971101, 4594.763611
 123.972767, 4594.908303
 123.974434, 4595.052996
 123.976101, 4595.194643
 123.977767, 4595.335696
 123.979434, 4595.476750
 123.981101, 4595.617803
 123.982767, 4595.758856
 123.984434, 4595.899910
 123.986101, 4596.040963
 123.987767, 4596.182017
 123.989434, 4596.323070
 123.991101, 4596.464124
 123.992767, 4596.382651
 123.994434, 4596.257802
 123.996101, 4596.132953
 123.997767, 4596.008103
 123.999434, 4595.883254
 124.001101, 4595.758405
 124.002767, 4595.633555
 124.004434, 4595.508706
 124.006101, 4595.383857
 124.007767, 4595.259007
 124.009434, 4595.361089
 124.011101, 4595.507406
 124.012767, 4595.653723
 124.014434, 4595.800040
 124.016101, 4595.946357
 124.017767, 4596.092674
 124.019434, 4596.238991
 124.021101, 4596.385308
 124.022767, 4596.531625
 124.024434, 4596.677943
 124.026101, 4596.361165
 124.027767, 4595.954115
 124.029434, 4595.547066
 124.031101, 4595.140017
 124.032767, 4594.732968
 124.034434, 4594.325919
 124.036101, 4593.918870
 124.037767, 4593.511821
 124.039434, 4593.104772
 124.041101, 4592.697723
 124.042767, 4592.760149
 124.044434, 4592.914091
 124.046101, 4593.068032
 124.047767, 4593.221973
 124.049434, 4593.375914
 124.051101, 4593.529856
 124.052767, 4593.683797
 124.054434, 4593.837738
 124.056101, 4593.991680
 124.057767, 4594.145621
 124.059434, 4594.294779
 124.061101, 4594.443005
 124.062767, 4594.591230
 124.064434, 4594.739456
 124.066101, 4594.887682
 124.067767, 4595.035908
 124.069434, 4595.184133
 124.071101, 4595.332359
 124.072767, 4595.480585
 124.074434, 4595.628810
 124.076101, 4595.314859
 124.077767, 4594.910815
 124.079434, 4594.506772
 124.081101, 4594.102728
 124.082767, 4593.698684
 124.084434, 4593.294641
 124.086101, 4592.890597
 124.087767, 4592.486553
 124.089434, 4592.082510
 124.091101, 4591.678466
 124.092767, 4591.745461
 124.094434, 4591.904276
 124.096101, 4592.063092
 124.097767, 4592.221907
 124.099434, 4592.380722
 124.101101, 4592.539537
 124.102767, 4592.698352
 124.104434, 4592.857167
 124.106101, 4593.015982
 124.107767, 4593.174797
 124.109434, 4593.329655
 124.111101, 4593.483742
 124.112767, 4593.637829
 124.114434, 4593.791915
 124.116101, 4593.946002
 124.117767, 4594.100089
 124.119434, 4594.254176
 124.121101, 4594.408262
 124.122767, 4594.562349
 124.124434, 4594.716436
 124.126101, 4594.625403
 124.127767, 4594.486588
 124.129434, 4594.347774
 124.131101, 4594.208960
 124.132767, 4594.070145
 124.134434, 4593.931331
 124.136101, 4593.792517
 124.137767, 4593.653702
 124.139434, 4593.514888
 124.141101, 4593.376073
 124.142767, 4593.467110
 124.144434, 4593.602952
 124.146101, 4593.738794
 124.147767, 4593.874636
 124.149434, 4594.010478
 124.151101, 4594.146320
 124.152767, 4594.282162
 124.154434, 4594.418004
 124.156101, 4594.553846
 124.157767, 4594.689688
 124.159434, 4594.361834
 124.161101, 4593.943591
 124.162767, 4593.525347
 124.164434, 4593.107104
 124.166101, 4592.688861
 124.167767, 4592.270618
 124.169434, 4591.852375
 124.171101, 4591.434132
 124.172767, 4591.015889
 124.174434, 4590.597646
 124.176101, 4590.651165
 124.177767, 4590.796645
 124.179434, 4590.942124
 124.181101, 4591.087604
 124.182767, 4591.233084
 124.184434, 4591.378563
 124.186101, 4591.524043
 124.187767, 4591.669523
 124.189434, 4591.815003
 124.191101, 4591.960482
 124.192767, 4592.102657
 124.194434, 4592.244189
 124.196101, 4592.385720
 124.197767, 4592.527251
 124.199434, 4592.668782
 124.201101, 4592.810313
 124.202767, 4592.951844
 124.204434, 4593.093375
 124.206101, 4593.234906
 124.207767, 4593.376437
 124.209434, 4593.294269
 124.211101, 4593.168494
 124.212767, 4593.042720
 124.214434, 4592.916945
 124.216101, 4592.791171
 124.217767, 4592.665396
 124.219434, 4592.539622
 124.221101, 4592.413847
 124.222767, 4592.288073
 124.224434, 4592.162298
 124.226101, 4592.264191
 124.227767, 4592.410462
 124.229434, 4592.556733
 124.231101, 4592.703004
 124.232767, 4592.849276
 124.234434, 4592.995547
 124.236101, 4593.141818
 124.237767, 4593.288090
 124.239434, 4593.434361
 124.241101, 4593.580632
 124.242767, 4593.261709
 124.244434, 4592.852105
 124.246101, 4592.442501
 124.247767, 4592.032897
 124.249434, 4591.623293
 124.251101, 4591.213689
 124.252767, 4590.804085
 124.254434, 4590.394481
 124.256101, 4589.984877
 124.257767, 4589.575273
 124.259434, 4589.636962
 124.261101, 4589.790520
 124.262767, 4589.944078
 124.264434, 4590.097636
 124.266101, 4590.251194
 124.267767, 4590.404751
 124.269434, 4590.558309
 124.271101, 4590.711867
 124.272767, 4590.865425
 124.274434, 4591.018983
 124.276101, 4591.167669
 124.277767, 4591.315405
 124.279434, 4591.463141
 124.281101, 4591.610877
 124.282767, 4591.758613
 124.284434, 4591.906350
 124.286101, 4592.054086
 124.287767, 4592.201822
 124.289434, 4592.349558
 124.291101, 4592.497294
 124.292767, 4592.180912
 124.294434, 4591.774058
 124.296101, 4591.367205
 124.297767, 4590.960352
 124.299434, 4590.553499
 124.301101, 4590.146646
 124.302767, 4589.739793
 124.304434, 4589.332939
 124.306101, 4588.926086
 124.307767, 4588.519233
 124.309434, 4588.585402
 124.311101, 4588.743778
 124.312767, 4588.902154
 124.314434, 4589.060529
 124.316101, 4589.218905
 124.317767, 4589.377281
 124.319434, 4589.535656
 124.321101, 4589.694032
 124.322767, 4589.852408
 124.324434, 4590.010783
 124.326101, 4590.165274
 124.327767, 4590.319008
 124.329434, 4590.472742
 124.331101, 4590.626476
 124.332767, 4590.780210
 124.334434, 4590.933944
 124.336101, 4591.087678
 124.337767, 4591.241412
 124.339434, 4591.395146
 124.341101, 4591.548879
 124.342767, 4591.456617
 124.344434, 4591.316403
 124.346101, 4591.176190
 124.347767, 4591.035976
 124.349434, 4590.895762
 124.351101, 4590.755548
 124.352767, 4590.615334
 124.354434, 4590.475120
 124.356101, 4590.334906
 124.357767, 4590.194692
 124.359434, 4590.285445
 124.361101, 4590.421221
 124.362767, 4590.556997
 124.364434, 4590.692773
 124.366101, 4590.828549
 124.367767, 4590.964325
 124.369434, 4591.100101
 124.371101, 4591.235877
 124.372767, 4591.371653
 124.374434, 4591.507429
 124.376101, 4591.177760
 124.377767, 4590.757362
 124.379434, 4590.336964
 124.381101, 4589.916567
 124.382767, 4589.496169
 124.384434, 4589.075771
 124.386101, 4588.655373
 124.387767, 4588.234975
 124.389434, 4587.814578
 124.391101, 4587.394180
 124.392767, 4587.447683
 124.394434, 4587.593563
 124.396101, 4587.739444
 124.397767, 4587.885324
 124.399434, 4588.031205
 124.401101, 4588.177085
 124.402767, 4588.322966
 124.404434, 4588.468847
 124.406101, 4588.614727
 124.407767, 4588.760608
 124.409434, 4588.903359
 124.411101, 4589.045501
 124.412767, 4589.187642
 124.414434, 4589.329784
 124.416101, 4589.471925
 124.417767, 4589.614067
 124.419434, 4589.756208
 124.421101, 4589.898350
 124.422767, 4590.040491
 124.424434, 4590.182633
 124.426101, 4590.100305
 124.427767, 4589.974222
 124.429434, 4589.848138
 124.431101, 4589.722055
 124.432767, 4589.595971
 124.434434, 4589.469888
 124.436101, 4589.343805
 124.437767, 4589.217721
 124.439434, 4589.091638
 124.441101, 4588.965554
 124.442767, 4589.068237
 124.444434, 4589.215513
 124.446101, 4589.362789
 124.447767, 4589.510064
 124.449434, 4589.657340
 124.451101, 4589.804616
 124.452767, 4589.951892
 124.454434, 4590.099168
 124.456101, 4590.246444
 124.457767, 4590.393719
 124.459434, 4590.073979
 124.461101, 4589.663204
 124.462767, 4589.252428
 124.464434, 4588.841653
 124.466101, 4588.430877
 124.467767, 4588.020101
 124.469434, 4587.609326
 124.471101, 4587.198550
 124.472767, 4586.787775
 124.474434, 4586.376999
 124.476101, 4586.439548
 124.477767, 4586.594362
 124.479434, 4586.749176
 124.481101, 4586.903990
 124.482767, 4587.058804
 124.484434, 4587.213619
 124.486101, 4587.368433
 124.487767, 4587.523247
 124.489434, 4587.678061
 124.491101, 4587.832875
 124.492767, 4587.982839
 124.494434, 4588.131859
 124.496101, 4588.280878
 124.497767, 4588.429898
 124.499434, 4588.578917
 124.501101, 4588.727937
 124.502767, 4588.876956
 124.504434, 4589.025975
 124.506101, 4589.174995
 124.507767, 4589.324014
 124.509434, 4589.006973
 124.511101, 4588.599082
 124.512767, 4588.191191
 124.514434, 4587.783300
 124.516101, 4587.375409
 124.517767, 4586.967518
 124.519434, 4586.559626
 124.521101, 4586.151735
 124.522767, 4585.743844
 124.524434, 4585.335953
 124.526101, 4585.403005
 124.527767, 4585.562638
 124.529434, 4585.722270
 124.531101, 4585.881903
 124.532767, 4586.041536
 124.534434, 4586.201168
 124.536101, 4586.360801
 124.537767, 4586.520433
 124.539434, 4586.680066
 124.541101, 4586.839698
 124.542767, 4586.995357
 124.544434, 4587.150241
 124.546101, 4587.305125
 124.547767, 4587.460009
 124.549434, 4587.614893
 124.551101, 4587.769777
 124.552767, 4587.924661
 124.554434, 4588.079545
 124.556101, 4588.234429
 124.557767, 4588.389313
 124.559434, 4588.297083
 124.561101, 4588.156682
 124.562767, 4588.016282
 124.564434, 4587.875881
 124.566101, 4587.735481
 124.567767, 4587.595080
 124.569434, 4587.454679
 124.571101, 4587.314279
 124.572767, 4587.173878
 124.574434, 4587.033478
 124.576101, 4587.124885
 124.577767, 4587.261479
 124.579434, 4587.398073
 124.581101, 4587.534667
 124.582767, 4587.671260
 124.584434, 4587.807854
 124.586101, 4587.944448
 124.587767, 4588.081042
 124.589434, 4588.217636
 124.591101, 4588.354229
 124.592767, 4588.023290
 124.594434, 4587.601215
 124.596101, 4587.179139
 124.597767, 4586.757063
 124.599434, 4586.334988
 124.601101, 4585.912912
 124.602767, 4585.490837
 124.604434, 4585.068761
 124.606101, 4584.646686
 124.607767, 4584.224610
 124.609434, 4584.278266
 124.611101, 4584.424656
 124.612767, 4584.571046
 124.614434, 4584.717436
 124.616101, 4584.863827
 124.617767, 4585.010217
 124.619434, 4585.156607
 124.621101, 4585.302997
 124.622767, 4585.449387
 124.624434, 4585.595777
 124.626101, 4585.738892
 124.627767, 4585.881369
 124.629434, 4586.023845
 124.631101, 4586.166322
 124.632767, 4586.308799
 124.634434, 4586.451275
 124.636101, 4586.593752
 124.637767, 4586.736228
 124.639434, 4586.878705
 124.641101, 4587.021182
 124.642767, 4586.938116
 124.644434, 4586.811086
 124.646101, 4586.684056
 124.647767, 4586.557025
 124.649434, 4586.429995
 124.651101, 4586.302965
 124.652767, 4586.175934
 124.654434, 4586.048904
 124.656101, 4585.921874
 124.657767, 4585.794843
 124.659434, 4585.897441
 124.661101, 4586.044800
 124.662767, 4586.192160
 124.664434, 4586.339519
 124.666101, 4586.486878
 124.667767, 4586.634238
 124.669434, 4586.781597
 124.671101, 4586.928956
 124.672767, 4587.076316
 124.674434, 4587.223675
 124.676101, 4586.901988
 124.677767, 4586.488871
 124.679434, 4586.075753
 124.681101, 4585.662636
 124.682767, 4585.249518
 124.684434, 4584.836400
 124.686101, 4584.423283
 124.687767, 4584.010165
 124.689434, 4583.597048
 124.691101, 4583.183930
 124.692767, 4583.246068
 124.694434, 4583.400847
 124.696101, 4583.555626
 124.697767, 4583.710406
 124.699434, 4583.865185
 124.701101, 4584.019964
 124.702767, 4584.174743
 124.704434, 4584.329523
 124.706101, 4584.484302
 124.707767, 4584.639081
 124.709434, 4584.788984
 124.711101, 4584.937937
 124.712767, 4585.086889
 124.714434, 4585.235842
 124.716101, 4585.384795
 124.717767, 4585.533747
 124.719434, 4585.682700
 124.721101, 4585.831652
 124.722767, 4585.980605
 124.724434, 4586.129557
 124.726101, 4585.810514
 124.727767, 4585.400243
 124.729434, 4584.989973
 124.731101, 4584.579702
 124.732767, 4584.169432
 124.734434, 4583.759162
 124.736101, 4583.348891
 124.737767, 4582.938621
 124.739434, 4582.528350
 124.741101, 4582.118080
 124.742767, 4582.184780
 124.744434, 4582.344455
 124.746101, 4582.504131
 124.747767, 4582.663806
 124.749434, 4582.823482
 124.751101, 4582.983158
 124.752767, 4583.142833
 124.754434, 4583.302509
 124.756101, 4583.462184
 124.757767, 4583.621860
 124.759434, 4583.777621
 124.761101, 4583.932620
 124.762767, 4584.087618
 124.764434, 4584.242616
 124.766101, 4584.397615
 124.767767, 4584.552613
 124.769434, 4584.707611
 124.771101, 4584.862610
 124.772767, 4585.017608
 124.774434, 4585.172606
 124.776101, 4585.079562
 124.777767, 4584.938166
 124.779434, 4584.796770
 124.781101, 4584.655374
 124.782767, 4584.513979
 124.784434, 4584.372583
 124.786101, 4584.231187
 124.787767, 4584.089791
 124.789434, 4583.948396
 124.791101, 4583.807000
 124.792767, 4583.898489
 124.794434, 4584.035374
 124.796101, 4584.172259
 124.797767, 4584.309144
 124.799434, 4584.446029
 124.801101, 4584.582914
 124.802767, 4584.719799
 124.804434, 4584.856684
 124.806101, 4584.993569
 124.807767, 4585.130454
 124.809434, 4584.797953
 124.811101, 4584.373954
 124.812767, 4583.949955
 124.814434, 4583.525956
 124.816101, 4583.101957
 124.817767, 4582.677958
 124.819434, 4582.253959
 124.821101, 4581.829960
 124.822767, 4581.405961
 124.824434, 4580.981962
 124.826101, 4581.035785
 124.827767, 4581.182749
 124.829434, 4581.329713
 124.831101, 4581.476678
 124.832767, 4581.623642
 124.834434, 4581.770606
 124.836101, 4581.917571
 124.837767, 4582.064535
 124.839434, 4582.211499
 124.841101, 4582.358464
 124.842767, 4582.504509
 124.844434, 4582.650376
 124.846101, 4582.796242
 124.846511, 4582.832167
 124.848178, 4589.474031
 124.849844, 4596.115896
 124.851511, 4602.757761
 124.853178, 4609.399625
 124.854844, 4616.041490
 124.856511, 4622.683354
 124.858178, 4629.002452
 124.859844, 4631.762653
 124.861511, 4634.522853
 124.863178, 4637.283053
 124.864844, 4640.043254
 124.866511, 4642.803454
 124.868178, 4645.563655
 124.869844, 4648.323855
 124.871511, 4651.084056
 124.873178, 4653.844256
 124.874844, 4656.695391
 124.876511, 4660.549192
 124.878178, 4664.402992
 124.879844, 4668.256793
 124.881511, 4672.110594
 124.883178, 4675.964394
 124.884844, 4679.818195
 124.886511, 4683.671996
 124.888178, 4687.525796
 124.889844, 4691.379597
 124.891511, 4695.226120
 124.893178, 4698.992400
 124.894844, 4702.758681
 124.896511, 4706.524961
 124.898178, 4710.291241
 124.899844, 4714.057522
 124.901134, 4716.971219
 124.902801, 4810.479352
 124.904467, 4903.987484
 124.906134, 4997.495617
 124.907801, 5091.003749
 124.909467, 5103.828295
 124.911134, 5105.103341
 124.912801, 5106.378388
 124.914467, 5107.653434
 124.916134, 5108.928480
 124.917801, 5110.203526
 124.919467, 5111.478573
 124.921134, 5112.753619
 124.922801, 5114.028665
 124.924467, 5115.303711
 124.926134, 5141.646808
 124.927801, 5171.578285
 124.929467, 5201.509762
 124.931134, 5231.441238
 124.932801, 5261.372715
 124.934467, 5291.304192
 124.936134, 5321.235669
 124.937801, 5351.167146
 124.939467, 5381.098623
 124.941134, 5411.030100
 124.942801, 5416.637464
 124.944467, 5418.762939
 124.946134, 5420.888413
 124.947801, 5423.013888
 124.949467, 5425.139362
 124.951134, 5427.264836
 124.952801, 5429.390311
 124.954467, 5431.515785
 124.956134, 5433.641260
 124.957801, 5435.766734
 124.959467, 4261.408578
 124.961134, 2918.641974
 124.962081, 2155.521826
 124.963748, 2122.458229
 124.965414, 2089.394631
 124.967081, 2056.331034
 124.968748, 2023.267437
 124.970414, 1990.203840
 124.972081, 1957.140242
 124.973748, 1924.076645
 124.975414, 1897.916987
 124.977081, 1880.434440
 124.978748, 1862.951892
 124.980414, 1845.469344
 124.982081, 1827.986796
 124.983748, 1810.504248
 124.985414, 1793.021700
 124.987081, 1775.539153
 124.988748, 1758.056605
 124.990414, 1740.574057
 124.992081, 1716.332971
 124.993748, 1683.597520
 124.995414, 1650.862070
 124.997081, 1618.126619
 124.998748, 1585.391169
 125.000414, 1552.655718
 125.002081, 1519.920268
 125.003748, 1487.184817
 125.005414, 1455.291710
 125.007081, 1423.751722
 125.008748, 1392.211733
 125.010414, 1360.671745
 125.012081, 1329.131757
 125.013748, 1297.591768
 125.015414, 1266.051780
 125.017081, 1236.633853
 125.018748, 1208.398509
 125.020414, 1180.163165
 125.022081, 1151.927822
 125.023748, 1123.692478
 125.025414, 1095.457134
 125.027081, 1067.221791
 125.028748, 1038.986447
 125.030414, 1010.751103
 125.032081,  982.515759
 125.033748,  956.787911
 125.035414,  932.457443
 125.037081,  908.126974
 125.038748,  883.796505
 125.040414,  859.466036
 125.042081,  835.135567
 125.043748,  810.805099
 125.045414,  786.474630
 125.047081,  762.144161
 125.048748,  737.813692
 125.050414,  715.854461
 125.052081,  695.216676
 125.053748,  674.578890
 125.055414,  653.941104
 125.057081,  633.303318
 125.058748,  612.665532
 125.060414,  592.027747
 125.062081,  571.389961
 125.063748,  550.752175
 125.065414,  530.114389
 125.067081,  511.657190
 125.068748,  494.415190
 125.070414,  477.173190
 125.072081,  459.931190
 125.073748,  442.689190
 125.075414,  425.447189
 125.077081,  408.205189
 125.078748,  390.963189
 125.080414,  373.721189
 125.082081,  356.479189
 125.083748,  341.470526
 125.085414,  327.706459
 125.087081,  313.942391
 125.088748,  300.178324
 125.090414,  286.414257
 125.092081,  272.650189
 125.093748,  258.886122
 125.095414,  245.122055
 125.097081,  231.357987
 125.098748,  217.593920
 125.100414,  206.072599
 125.102081,  195.801118
 125.103748,  185.529636
 125.105414,  175.258154
 125.107081,  164.986673
 125.108748,  154.715191
 125.110414,  144.443710
 125.112081,  134.172228
 125.113748,  123.900746
 125.115414,  113.629265
 125.117081,  105.561695
 125.118748,   98.722323
 125.120414,   91.882951
 125.122081,   85.043578
 125.123748,   78.204206
 125.125414,   71.364834
 125.127081,   64.525462
 125.128748,   57.686090
 125.130414,   50.846717
 125.132081,   44.007345
 125.133748,   39.288064
 125.135414,   35.750268
 125.137081,   32.212472
 125.138748,   28.674677
 125.140414,   25.136881
 125.142081,   21.599085
 125.143748,   18.061290
 125.145414,   14.523494
 125.147081,   10.985698
 125.148748,    7.447903
 125.150414,    5.563880
 125.152081,    4.601472
 125.153748,    3.639065
 125.155414,    2.676657
 125.157081,    1.714250
 125.158748,    0.751843
 125.160050,    0.000012
