Time, Forces
   0.000000, 16631.982076
   0.001667, 16614.087171
   0.003333, 16596.278343
   0.005000, 16578.482341
   0.006667, 16560.686339
   0.008333, 16542.890337
   0.010000, 16525.094335
   0.011667, 16507.298333
   0.013333, 16489.502331
   0.015000, 16471.706329
   0.016667, 16453.910327
   0.018333, 16436.114325
   0.020000, 16418.509364
   0.021667, 16400.928256
   0.023333, 16383.347149
   0.025000, 16365.766041
   0.026667, 16348.184934
   0.028333, 16330.603826
   0.030000, 16313.022719
   0.031667, 16295.441611
   0.033333, 16277.860503
   0.035000, 16260.279396
   0.036667, 16242.895143
   0.038333, 16225.535469
   0.040000, 16208.175796
   0.041667, 16190.816122
   0.043333, 16173.456448
   0.045000, 16156.096775
   0.046667, 16138.737101
   0.048333, 16121.377427
   0.050000, 16104.017754
   0.051667, 16086.658080
   0.053333, 16069.500695
   0.055000, 16052.368568
   0.056667, 16035.236441
   0.058333, 16018.104313
   0.060000, 16000.972186
   0.061667, 15983.840059
   0.063333, 15966.707932
   0.065000, 15949.575804
   0.066667, 15932.443677
   0.068333, 15915.311550
   0.070000, 15898.386763
   0.071667, 15881.487866
   0.073333, 15864.588968
   0.075000, 15847.690070
   0.076667, 15830.791172
   0.078333, 15813.892274
   0.080000, 15796.993376
   0.081667, 15780.094478
   0.083333, 15763.195580
   0.085000, 15746.296682
   0.086667, 15724.186509
   0.088333, 15701.425658
   0.090000, 15678.664808
   0.091667, 15655.903957
   0.093333, 15633.143107
   0.095000, 15610.382256
   0.096667, 15587.621406
   0.098333, 15564.860556
   0.100000, 15542.099705
   0.101667, 15519.338855
   0.103333, 15495.618853
   0.105000, 15471.779092
   0.106667, 15447.939332
   0.108333, 15424.099571
   0.110000, 15400.259810
   0.111667, 15376.420050
   0.113333, 15352.580289
   0.115000, 15328.740528
   0.116667, 15304.900767
   0.118333, 15281.061007
   0.120000, 15257.652311
   0.121667, 15234.297437
   0.123333, 15210.942563
   0.125000, 15187.587690
   0.126667, 15164.232816
   0.128333, 15140.877942
   0.130000, 15117.523069
   0.131667, 15094.168195
   0.133333, 15070.813321
   0.135000, 15047.458447
   0.136667, 15024.535593
   0.138333, 15001.666681
   0.140000, 14978.797768
   0.141667, 14955.928856
   0.143333, 14933.059943
   0.145000, 14910.191031
   0.146667, 14887.322118
   0.148333, 14864.453206
   0.150000, 14841.584293
   0.151667, 14818.715381
   0.153333, 14796.278817
   0.155000, 14773.896236
   0.156667, 14751.513655
   0.158333, 14729.131073
   0.160000, 14706.748492
   0.161667, 14684.365911
   0.163333, 14661.983330
   0.165000, 14639.600749
   0.166667, 14617.218168
   0.168333, 14594.835586
   0.170000, 14572.885082
   0.171667, 14550.988527
   0.173333, 14529.091971
   0.175000, 14507.195416
   0.176667, 14485.298860
   0.178333, 14463.402305
   0.180000, 14441.505750
   0.181667, 14419.609194
   0.183333, 14397.712639
   0.185000, 14375.816083
   0.186667, 14346.804005
   0.188333, 14316.903488
   0.190000, 14287.002970
   0.191667, 14257.102452
   0.193333, 14227.201935
   0.195000, 14197.301417
   0.196667, 14167.400900
   0.198333, 14137.500382
   0.200000, 14107.599864
   0.201667, 14077.699347
   0.203333, 14048.223209
   0.205000, 14018.800058
   0.206667, 13989.376908
   0.208333, 13959.953758
   0.210000, 13930.530607
   0.211667, 13901.107457
   0.213333, 13871.684307
   0.215000, 13842.261157
   0.216667, 13812.838006
   0.218333, 13783.414856
   0.220000, 13754.774458
   0.221667, 13726.231794
   0.223333, 13697.689131
   0.225000, 13669.146467
   0.226667, 13640.603803
   0.228333, 13612.061139
   0.230000, 13583.518475
   0.231667, 13554.975811
   0.233333, 13526.433147
   0.235000, 13497.890484
   0.236667, 13470.117277
   0.238333, 13442.440145
   0.240000, 13414.763013
   0.241667, 13387.085881
   0.243333, 13359.408749
   0.245000, 13331.731617
   0.246667, 13304.054485
   0.248333, 13276.377353
   0.250000, 13248.700221
   0.251667, 13221.023089
   0.253333, 13194.101603
   0.255000, 13167.274467
   0.256667, 13140.447330
   0.258333, 13113.620194
   0.260000, 13086.793057
   0.261667, 13059.965921
   0.263333, 13033.138784
   0.265000, 13006.311648
   0.266667, 12979.484511
   0.268333, 12952.657375
   0.270000, 12926.571621
   0.271667, 12900.578435
   0.273333, 12874.585249
   0.275000, 12848.592063
   0.276667, 12822.598878
   0.278333, 12796.605692
   0.280000, 12770.612506
   0.281667, 12744.619321
   0.283333, 12718.626135
   0.285000, 12692.632949
   0.286667, 12667.384972
   0.288333, 12642.230041
   0.290000, 12617.075110
   0.291667, 12591.920179
   0.293333, 12566.765247
   0.295000, 12541.610316
   0.296667, 12516.455385
   0.298333, 12491.300454
   0.300000, 12466.145523
   0.301667, 12440.990592
   0.303333, 12416.787859
   0.305000, 12392.704016
   0.306667, 12368.620173
   0.308333, 12344.536330
   0.310000, 12320.452488
   0.311667, 12296.368645
   0.312642, 12282.275302
   0.314309, 12258.575068
   0.315975, 12234.874834
   0.317642, 12211.174600
   0.319309, 12187.863043
   0.320975, 12164.982496
   0.322642, 12142.101948
   0.324309, 12119.221401
   0.325975, 12096.340853
   0.327642, 12073.460305
   0.329309, 12050.579758
   0.330975, 12027.699210
   0.332642, 12004.818663
   0.334309, 11981.938115
   0.335975, 11959.709960
   0.337642, 11938.205251
   0.339309, 11916.700543
   0.340975, 11895.195834
   0.342642, 11873.691125
   0.344309, 11852.186416
   0.345975, 11830.681707
   0.347642, 11809.176998
   0.349309, 11787.672289
   0.350975, 11766.167580
   0.352642, 11745.396303
   0.354309, 11725.438335
   0.355975, 11705.480367
   0.357642, 11685.522399
   0.359309, 11665.564432
   0.360975, 11645.606464
   0.362642, 11625.648496
   0.364309, 11605.690528
   0.365975, 11585.732561
   0.367642, 11565.774593
   0.368518, 11555.280261
   0.370185, 11542.830440
   0.371852, 11530.380619
   0.373518, 11517.930798
   0.375185, 11505.480977
   0.376852, 11493.031156
   0.378518, 11480.581335
   0.380185, 11468.131514
   0.381852, 11455.681693
   0.383518, 11443.231872
   0.385185, 11430.782051
   0.386852, 11424.281170
   0.388518, 11417.780289
   0.390185, 11411.279409
   0.391852, 11404.778528
   0.393518, 11398.277647
   0.395185, 11394.960899
   0.396852, 11391.644151
   0.398518, 11388.327402
   0.400185, 11385.010654
   0.401852, 11381.693906
   0.403518, 11381.720255
   0.405185, 11381.746605
   0.406852, 11381.772954
   0.408518, 11381.799304
   0.410185, 11381.825654
   0.410185, 7258.321578
   1.605400, 7056.527752
   2.825139, 6867.679053
   4.084250, 6600.086171
   5.433948, 6186.079638
   6.920962, 5802.152552
   8.567151, 5454.548955
  10.405942, 5120.511927
  12.496124, 4793.974496
  14.982109, 4422.048786
  14.982109, 3471.168996
  15.801212, 3470.394792
  16.620315, 3469.620715
  17.439418, 3468.846763
  18.258522, 3468.072937
  19.077625, 3467.299237
  19.896728, 3466.525663
  20.715832, 3465.752214
  21.534935, 3464.978892
  22.354038, 3464.205695
  23.173141, 3463.432623
  23.992245, 3462.659678
  24.811348, 3461.886858
  25.630451, 3461.114164
  26.449554, 3460.341596
  27.268658, 3459.569154
  28.087761, 3458.796838
  28.906864, 3458.024647
  29.725967, 3457.252582
  30.545071, 3456.480643
  31.364174, 3455.708830
  32.183277, 3454.937142
  33.002380, 3454.165580
  33.821484, 3453.394144
  34.640587, 3452.622834
  35.459690, 3451.851650
  36.278793, 3451.080591
  37.097897, 3450.309658
  37.917000, 3449.538851
  38.736103, 3448.768170
  38.736103, 1620.336427
  39.896032, 1532.739498
  41.058764, 1472.364067
  42.220084, 1402.341080
  43.376236, 1322.887270
  44.524976, 1236.602560
  45.661995, 1137.838158
  46.783206, 1025.629484
  47.900611,  941.201632
  49.010509,  845.083260
  49.010509, 7100.404410
  49.589924, 7002.643062
  50.174964, 6908.201372
  50.765469, 6817.212116
  51.364214, 6692.499116
  51.981985, 6481.747974
  52.628108, 6274.536230
  53.305596, 6071.008467
  54.016769, 5880.551943
  54.763442, 5699.600252
  54.763442, 2773.573754
  56.615618, 2771.152755
  58.468603, 2768.732689
  60.322397, 2766.313557
  62.177002, 2763.895360
  64.032418, 2761.478101
  65.888646, 2759.061780
  67.745686, 2756.646400
  69.603540, 2754.231962
  71.462208, 2751.818468
  71.462208, 1326.481852
  72.108615, 1350.269450
  72.744854, 1272.719454
  73.383630, 1245.442103
  74.025084, 1218.650891
  74.669359, 1192.392636
  75.316244, 1165.214016
  75.965602, 1137.395621
  76.616971, 1107.558509
  77.269434, 1073.710458
  77.269434, 2745.808541
  82.269434, 2739.423927
  87.269434, 2733.051785
  92.269434, 2726.752634
  97.269434, 2720.626166
 102.269434, 2714.511280
 107.269434, 2708.407964
 112.269434, 2702.316204
 117.269434, 2696.235989
 122.269434, 2690.167307
 122.269434, 2268.866906
 122.271101, 2268.866906
 122.272767, 2268.866906
 122.274434, 2268.866906
 122.276101, 2268.866906
 122.277767, 2268.866906
 122.279434, 2268.866906
 122.281101, 2268.866906
 122.282767, 2268.866906
 122.284434, 2268.866906
 122.286101, 2268.866906
 122.287767, 2268.866906
 122.289434, 2268.866906
 122.291101, 2268.866906
 122.292767, 2268.866906
 122.294434, 2268.866906
 122.296101, 2268.866906
 122.297767, 2268.866906
 122.299434, 2268.866906
 122.301101, 2268.866906
 122.302767, 2268.866906
 122.304434, 2268.866906
 122.306101, 2268.866906
 122.307767, 2268.866906
 122.309434, 2268.866906
 122.311101, 2268.866906
 122.312767, 2268.866906
 122.314434, 2268.866906
 122.316101, 2268.866906
 122.317767, 2268.866906
 122.319434, 2268.866906
 122.321101, 2268.866906
 122.322767, 2268.866906
 122.324434, 2268.866906
 122.326101, 2268.866906
 122.327767, 2268.866906
 122.329434, 2268.866906
 122.331101, 2268.866906
 122.332767, 2268.866906
 122.334434, 2268.866906
 122.336101, 2268.866906
 122.337767, 2268.866906
 122.339434, 2268.866906
 122.341101, 2268.866906
 122.342767, 2268.866906
 122.344434, 2268.866906
 122.346101, 2268.866906
 122.347767, 2268.866906
 122.349434, 2268.866906
 122.351101, 2268.866906
 122.352767, 2268.866906
 122.354434, 2268.866906
 122.356101, 2268.866906
 122.357767, 2268.866906
 122.359434, 2268.866906
 122.361101, 2268.866906
 122.362767, 2268.866906
 122.364434, 2268.866906
 122.366101, 2268.866906
 122.367767, 2268.866906
 122.369434, 2268.866906
 122.371101, 2268.866906
 122.372767, 2268.866906
 122.374434, 2268.866906
 122.376101, 2268.866906
 122.377767, 2268.866906
 122.379434, 2268.866906
 122.381101, 2268.866906
 122.382767, 2268.866906
 122.384434, 2268.866906
 122.386101, 2268.866906
 122.387767, 2268.866906
 122.389434, 2268.866906
 122.391101, 2268.866906
 122.392767, 2268.866906
 122.394434, 2268.866906
 122.396101, 2268.866906
 122.397767, 2268.866906
 122.399434, 2268.866906
 122.401101, 2268.866906
 122.402767, 2268.866906
 122.404434, 2268.866906
 122.406101, 2268.866906
 122.407767, 2268.866906
 122.409434, 2268.866906
 122.411101, 2268.866906
 122.412767, 2268.866906
 122.414434, 2268.866906
 122.416101, 2268.866906
 122.417767, 2268.866906
 122.419434, 2268.866906
 122.421101, 2268.866906
 122.422767, 2268.866906
 122.424434, 2268.866906
 122.426101, 2268.866906
 122.427767, 2268.866906
 122.429434, 2268.866906
 122.431101, 2268.866906
 122.432767, 2268.866906
 122.434434, 2268.866906
 122.436101, 2268.866906
 122.437767, 2268.866906
 122.439434, 2268.866906
 122.441101, 2268.866906
 122.442767, 2268.866906
 122.444434, 2268.866906
 122.446101, 2268.866906
 122.447767, 2268.866906
 122.449434, 2268.866906
 122.451101, 2268.866906
 122.452767, 2268.866906
 122.454434, 2268.866906
 122.456101, 2268.866906
 122.457767, 2268.866906
 122.459434, 2268.866906
 122.461101, 2268.866906
 122.462767, 2268.866906
 122.464434, 2268.866906
 122.466101, 2268.866906
 122.467767, 2268.866906
 122.469434, 2268.866906
 122.471101, 2268.866906
 122.472767, 2268.866906
 122.474434, 2268.866906
 122.476101, 2268.866906
 122.477767, 2268.866906
 122.479434, 2268.866906
 122.481101, 2268.866906
 122.482767, 2268.866906
 122.484434, 2268.866906
 122.486101, 2268.866906
 122.487767, 2268.866906
 122.489434, 2268.866906
 122.491101, 2268.866906
 122.492767, 2268.866906
 122.494434, 2268.866906
 122.496101, 2268.866906
 122.497767, 2268.866906
 122.499434, 2268.866906
 122.501101, 2268.866906
 122.502767, 2268.866906
 122.504434, 2268.866906
 122.506101, 2268.866906
 122.507767, 2268.866906
 122.509434, 2268.866906
 122.511101, 2268.866906
 122.512767, 2268.866906
 122.514434, 2268.866906
 122.516101, 2268.866906
 122.517767, 2268.866906
 122.519434, 2268.866906
 122.521101, 2268.866906
 122.522767, 2268.866906
 122.524434, 2268.866906
 122.526101, 2268.866906
 122.527767, 2268.866906
 122.529434, 2268.866906
 122.531101, 2268.866906
 122.532767, 2268.866906
 122.534434, 2268.866906
 122.536101, 2268.866906
 122.537767, 2268.866906
 122.539434, 2268.866906
 122.541101, 2268.866906
 122.542767, 2268.866906
 122.544434, 2268.866906
 122.546101, 2268.866906
 122.547767, 2268.866906
 122.549434, 2268.866906
 122.551101, 2268.866906
 122.552767, 2268.866906
 122.554434, 2268.866906
 122.556101, 2268.866906
 122.557767, 2268.866906
 122.559434, 2268.866906
 122.561101, 2268.866906
 122.562767, 2268.866906
 122.564434, 2268.866906
 122.566101, 2268.866906
 122.567767, 2268.866906
 122.569434, 2268.866906
 122.571101, 2268.866906
 122.572767, 2268.866906
 122.574434, 2268.866906
 122.576101, 2268.866906
 122.577767, 2268.866906
 122.579434, 2268.866906
 122.581101, 2268.866906
 122.582767, 2268.866906
 122.584434, 2268.866906
 122.586101, 2268.866906
 122.587767, 2268.866906
 122.589434, 2268.866906
 122.591101, 2268.866906
 122.592767, 2268.866906
 122.594434, 2268.866906
 122.596101, 2268.866906
 122.597767, 2268.866906
 122.599434, 2268.866906
 122.601101, 2268.866906
 122.602767, 2268.866906
 122.604434, 2268.866906
 122.606101, 2268.866906
 122.607767, 2268.866906
 122.609434, 2268.866906
 122.611101, 2268.866906
 122.612767, 2268.866906
 122.614434, 2268.866906
 122.616101, 2268.866906
 122.617767, 2268.866906
 122.619434, 2268.866906
 122.621101, 2268.866906
 122.622767, 2268.866906
 122.624434, 2268.866906
 122.626101, 2268.866906
 122.627767, 2268.866906
 122.629434, 2268.866906
 122.631101, 2268.866906
 122.632767, 2268.866906
 122.634434, 2268.866906
 122.636101, 2268.866906
 122.637767, 2268.866906
 122.639434, 2268.866906
 122.641101, 2268.866906
 122.642767, 2268.866906
 122.644434, 2268.866906
 122.646101, 2268.866906
 122.647767, 2268.866906
 122.649434, 2268.866906
 122.651101, 2268.866906
 122.652767, 2268.866906
 122.654434, 2268.866906
 122.656101, 2268.866906
 122.657767, 2268.866906
 122.659434, 2268.866906
 122.661101, 2268.866906
 122.662767, 2268.866906
 122.664434, 2268.866906
 122.666101, 2268.866906
 122.667767, 2268.866906
 122.669434, 2268.866906
 122.671101, 2268.866906
 122.672767, 2268.866906
 122.674434, 2268.866906
 122.676101, 2268.866906
 122.677767, 2268.866906
 122.679434, 2268.866906
 122.681101, 2268.866906
 122.682767, 2268.866906
 122.684434, 2268.866906
 122.686101, 2268.866906
 122.687767, 2268.866906
 122.689434, 2268.866906
 122.691101, 2268.866906
 122.692767, 2268.866906
 122.694434, 2268.866906
 122.696101, 2268.866906
 122.697767, 2268.866906
 122.699434, 2268.866906
 122.701101, 2268.866906
 122.702767, 2268.866906
 122.704434, 2268.866906
 122.706101, 2268.866906
 122.707767, 2268.866906
 122.709434, 2268.866906
 122.711101, 2268.866906
 122.712767, 2268.866906
 122.714434, 2268.866906
 122.716101, 2268.866906
 122.717767, 2268.866906
 122.719434, 2268.866906
 122.721101, 2268.866906
 122.722767, 2268.866906
 122.724434, 2268.866906
 122.726101, 2268.866906
 122.727767, 2268.866906
 122.729434, 2268.866906
 122.731101, 2268.866906
 122.732767, 2268.866906
 122.734434, 2268.866906
 122.736101, 2268.866906
 122.737767, 2268.866906
 122.739434, 2268.866906
 122.741101, 2268.866906
 122.742767, 2268.866906
 122.744434, 2268.866906
 122.746101, 2268.866906
 122.747767, 2268.866906
 122.749434, 2268.866906
 122.751101, 2268.866906
 122.752767, 2268.866906
 122.754434, 2268.866906
 122.756101, 2268.866906
 122.757767, 2268.866906
 122.759434, 2268.866906
 122.761101, 2268.866906
 122.762767, 2268.866906
 122.764434, 2268.866906
 122.766101, 2268.866906
 122.767767, 2268.866906
 122.769434, 2268.866906
 122.771101, 2268.866906
 122.772767, 2268.866906
 122.774434, 2268.866906
 122.776101, 2268.866906
 122.777767, 2268.866906
 122.779434, 2268.866906
 122.781101, 2268.866906
 122.782767, 2268.866906
 122.784434, 2268.866906
 122.786101, 2268.866906
 122.787767, 2268.866906
 122.789434, 2268.866906
 122.791101, 2268.866906
 122.792767, 2268.866906
 122.794434, 2268.866906
 122.796101, 2268.866906
 122.797767, 2268.866906
 122.799434, 2268.866906
 122.801101, 2268.866906
 122.802767, 2268.866906
 122.804434, 2268.866906
 122.806101, 2268.866906
 122.807767, 2268.866906
 122.809434, 2268.866906
 122.811101, 2268.866906
 122.812767, 2268.866906
 122.814434, 2268.866906
 122.816101, 2268.866906
 122.817767, 2268.866906
 122.819434, 2268.866906
 122.821101, 2268.866906
 122.822767, 2268.866906
 122.824434, 2268.866906
 122.826101, 2268.866906
 122.827767, 2268.866906
 122.829434, 2268.866906
 122.831101, 2268.866906
 122.832767, 2268.866906
 122.834434, 2268.866906
 122.836101, 2268.866906
 122.837767, 2268.866906
 122.839434, 2268.866906
 122.841101, 2268.866906
 122.842767, 2268.866906
 122.844434, 2268.866906
 122.846101, 2268.866906
 122.847767, 2268.866906
 122.849434, 2268.866906
 122.851101, 2268.866906
 122.852767, 2268.866906
 122.854434, 2268.866906
 122.856101, 2268.866906
 122.857767, 2268.866906
 122.859434, 2268.866906
 122.861101, 2268.866906
 122.862767, 2268.866906
 122.864434, 2268.866906
 122.866101, 2268.866906
 122.867767, 2268.866906
 122.869434, 2268.866906
 122.871101, 2268.866906
 122.872767, 2268.866906
 122.874434, 2268.866906
 122.876101, 2268.866906
 122.877767, 2268.866906
 122.879434, 2268.866906
 122.881101, 2268.866906
 122.882767, 2268.866906
 122.884434, 2268.866906
 122.886101, 2268.866906
 122.887767, 2268.866906
 122.889434, 2268.866906
 122.891101, 2268.866906
 122.892767, 2268.866906
 122.894434, 2268.866906
 122.896101, 2268.866906
 122.897767, 2268.866906
 122.899434, 2268.866906
 122.901101, 2268.866906
 122.902767, 2268.866906
 122.904434, 2268.866906
 122.906101, 2268.866906
 122.907767, 2268.866906
 122.909434, 2268.866906
 122.911101, 2268.866906
 122.912767, 2268.866906
 122.914434, 2268.866906
 122.916101, 2268.866906
 122.917767, 2268.866906
 122.919434, 2268.866906
 122.921101, 2268.866906
 122.922767, 2268.866906
 122.924434, 2268.866906
 122.926101, 2268.866906
 122.927767, 2268.866906
 122.929434, 2268.866906
 122.931101, 2268.866906
 122.932767, 2268.866906
 122.934434, 2268.866906
 122.936101, 2268.866906
 122.937767, 2268.866906
 122.939434, 2268.866906
 122.941101, 2268.866906
 122.942767, 2268.866906
 122.944434, 2268.866906
 122.946101, 2268.866906
 122.947767, 2268.866906
 122.949434, 2268.866906
 122.951101, 2268.866906
 122.952767, 2268.866906
 122.954434, 2268.866906
 122.956101, 2268.866906
 122.957767, 2268.866906
 122.959434, 2268.866906
 122.961101, 2268.866906
 122.962767, 2268.866906
 122.964434, 2268.866906
 122.966101, 2268.866906
 122.967767, 2268.866906
 122.969434, 2268.866906
 122.971101, 2268.866906
 122.972767, 2268.866906
 122.974434, 2268.866906
 122.976101, 2268.866906
 122.977767, 2268.866906
 122.979434, 2268.866906
 122.981101, 2268.866906
 122.982767, 2268.866906
 122.984434, 2268.866906
 122.986101, 2268.866906
 122.987767, 2268.866906
 122.989434, 2268.866906
 122.991101, 2268.866906
 122.992767, 2268.866906
 122.994434, 2268.866906
 122.996101, 2268.866906
 122.997767, 2268.866906
 122.999434, 2268.866906
 123.001101, 2268.866906
 123.002767, 2268.866906
 123.004434, 2268.866906
 123.006101, 2268.866906
 123.007767, 2268.866906
 123.009434, 2268.866906
 123.011101, 2268.866906
 123.012767, 2268.866906
 123.014434, 2268.866906
 123.016101, 2268.866906
 123.017767, 2268.866906
 123.019434, 2268.866906
 123.021101, 2268.866906
 123.022767, 2268.866906
 123.024434, 2268.866906
 123.026101, 2268.866906
 123.027767, 2268.866906
 123.029434, 2268.866906
 123.031101, 2268.866906
 123.032767, 2268.866906
 123.034434, 2268.866906
 123.036101, 2268.866906
 123.037767, 2268.866906
 123.039434, 2268.866906
 123.041101, 2268.866906
 123.042767, 2268.866906
 123.044434, 2268.866906
 123.046101, 2268.866906
 123.047767, 2268.866906
 123.049434, 2268.866906
 123.051101, 2268.866906
 123.052767, 2268.866906
 123.054434, 2268.866906
 123.056101, 2268.866906
 123.057767, 2268.866906
 123.059434, 2268.866906
 123.061101, 2268.866906
 123.062767, 2268.866906
 123.064434, 2268.866906
 123.066101, 2268.866906
 123.067767, 2268.866906
 123.069434, 2268.866906
 123.071101, 2268.866906
 123.072767, 2268.866906
 123.074434, 2268.866906
 123.076101, 2268.866906
 123.077767, 2268.866906
 123.079434, 2268.866906
 123.081101, 2268.866906
 123.082767, 2268.866906
 123.084434, 2268.866906
 123.086101, 2268.866906
 123.087767, 2268.866906
 123.089434, 2268.866906
 123.091101, 2268.866906
 123.092767, 2268.866906
 123.094434, 2268.866906
 123.096101, 2268.866906
 123.097767, 2268.866906
 123.099434, 2268.866906
 123.101101, 2268.866906
 123.102767, 2268.866906
 123.104434, 2268.866906
 123.106101, 2268.866906
 123.107767, 2268.866906
 123.109434, 2268.866906
 123.111101, 2268.866906
 123.112767, 2268.866906
 123.114434, 2268.866906
 123.116101, 2268.866906
 123.117767, 2268.866906
 123.119434, 2268.866906
 123.121101, 2268.866906
 123.122767, 2268.866906
 123.124434, 2268.866906
 123.126101, 2268.866906
 123.127767, 2268.866906
 123.129434, 2268.866906
 123.131101, 2268.866906
 123.132767, 2268.866906
 123.134434, 2268.866906
 123.136101, 2268.866906
 123.137767, 2268.866906
 123.139434, 2268.866906
 123.141101, 2268.866906
 123.142767, 2268.866906
 123.144434, 2268.866906
 123.146101, 2268.866906
 123.147767, 2268.866906
 123.149434, 2268.866906
 123.151101, 2268.866906
 123.152767, 2268.866906
 123.154434, 2268.866906
 123.156101, 2268.866906
 123.157767, 2268.866906
 123.159434, 2268.866906
 123.161101, 2268.866906
 123.162767, 2268.866906
 123.164434, 2268.866906
 123.166101, 2268.866906
 123.167767, 2268.866906
 123.169434, 2268.866906
 123.171101, 2268.866906
 123.172767, 2268.866906
 123.174434, 2268.866906
 123.176101, 2268.866906
 123.177767, 2268.866906
 123.179434, 2268.866906
 123.181101, 2268.866906
 123.182767, 2268.866906
 123.184434, 2268.866906
 123.186101, 2268.866906
 123.187767, 2268.866906
 123.189434, 2268.866906
 123.191101, 2268.866906
 123.192767, 2268.866906
 123.194434, 2268.866906
 123.196101, 2268.866906
 123.197767, 2268.866906
 123.199434, 2268.866906
 123.201101, 2268.866906
 123.202767, 2268.866906
 123.204434, 2268.866906
 123.206101, 2268.866906
 123.207767, 2268.866906
 123.209434, 2268.866906
 123.211101, 2268.866906
 123.212767, 2268.866906
 123.214434, 2268.866906
 123.216101, 2268.866906
 123.217767, 2268.866906
 123.219434, 2268.866906
 123.221101, 2268.866906
 123.222767, 2268.866906
 123.224434, 2268.866906
 123.226101, 2268.866906
 123.227767, 2268.866906
 123.229434, 2268.866906
 123.231101, 2268.866906
 123.232767, 2268.866906
 123.234434, 2268.866906
 123.236101, 2268.866906
 123.237767, 2268.866906
 123.239434, 2268.866906
 123.241101, 2268.866906
 123.242767, 2268.866906
 123.244434, 2268.866906
 123.246101, 2268.866906
 123.247767, 2268.866906
 123.249434, 2268.866906
 123.251101, 2268.866906
 123.252767, 2268.866906
 123.254434, 2268.866906
 123.256101, 2268.866906
 123.257767, 2268.866906
 123.259434, 2268.866906
 123.261101, 2268.866906
 123.262767, 2268.866906
 123.264434, 2268.866906
 123.266101, 2268.866906
 123.267767, 2268.866906
 123.269434, 2268.866906
 123.271101, 2268.866906
 123.272767, 2268.866906
 123.274434, 2268.866906
 123.276101, 2268.866906
 123.277767, 2268.866906
 123.279434, 2268.866906
 123.281101, 2268.866906
 123.282767, 2268.866906
 123.284434, 2268.866906
 123.286101, 2268.866906
 123.287767, 2268.866906
 123.289434, 2268.866906
 123.291101, 2268.866906
 123.292767, 2268.866906
 123.294434, 2268.866906
 123.296101, 2268.866906
 123.297767, 2268.866906
 123.299434, 2268.866906
 123.301101, 2268.866906
 123.302767, 2268.866906
 123.304434, 2268.866906
 123.306101, 2268.866906
 123.307767, 2268.866906
 123.309434, 2268.866906
 123.311101, 2268.866906
 123.312767, 2268.866906
 123.314434, 2268.866906
 123.316101, 2268.866906
 123.317767, 2268.866906
 123.319434, 2268.866906
 123.321101, 2268.866906
 123.322767, 2268.866906
 123.324434, 2268.866906
 123.326101, 2268.866906
 123.327767, 2268.866906
 123.329434, 2268.866906
 123.331101, 2268.866906
 123.332767, 2268.866906
 123.334434, 2268.866906
 123.336101, 2268.866906
 123.337767, 2268.866906
 123.339434, 2268.866906
 123.341101, 2268.866906
 123.342767, 2268.866906
 123.344434, 2268.866906
 123.346101, 2268.866906
 123.347767, 2268.866906
 123.349434, 2268.866906
 123.351101, 2268.866906
 123.352767, 2268.866906
 123.354434, 2268.866906
 123.356101, 2268.866906
 123.357767, 2268.866906
 123.359434, 2268.866906
 123.361101, 2268.866906
 123.362767, 2268.866906
 123.364434, 2268.866906
 123.366101, 2268.866906
 123.367767, 2268.866906
 123.369434, 2268.866906
 123.371101, 2268.866906
 123.372767, 2268.866906
 123.374434, 2268.866906
 123.376101, 2268.866906
 123.377767, 2268.866906
 123.379434, 2268.866906
 123.381101, 2268.866906
 123.382767, 2268.866906
 123.384434, 2268.866906
 123.386101, 2268.866906
 123.387767, 2268.866906
 123.389434, 2268.866906
 123.391101, 2268.866906
 123.392767, 2268.866906
 123.394434, 2268.866906
 123.396101, 2268.866906
 123.397767, 2268.866906
 123.399434, 2268.866906
 123.401101, 2268.866906
 123.402767, 2268.866906
 123.404434, 2268.866906
 123.406101, 2268.866906
 123.407767, 2268.866906
 123.409434, 2268.866906
 123.411101, 2268.866906
 123.412767, 2268.866906
 123.414434, 2268.866906
 123.416101, 2268.866906
 123.417767, 2268.866906
 123.419434, 2268.866906
 123.421101, 2268.866906
 123.422767, 2268.866906
 123.424434, 2268.866906
 123.426101, 2268.866906
 123.427767, 2268.866906
 123.429434, 2268.866906
 123.431101, 2268.866906
 123.432767, 2268.866906
 123.434434, 2268.866906
 123.436101, 2268.866906
 123.437767, 2268.866906
 123.439434, 2268.866906
 123.441101, 2268.866906
 123.442767, 2268.866906
 123.444434, 2268.866906
 123.446101, 2268.866906
 123.447767, 2268.866906
 123.449434, 2268.866906
 123.451101, 2268.866906
 123.452767, 2268.866906
 123.454434, 2268.866906
 123.456101, 2268.866906
 123.457767, 2268.866906
 123.459434, 2268.866906
 123.461101, 2268.866906
 123.462767, 2268.866906
 123.464434, 2268.866906
 123.466101, 2268.866906
 123.467767, 2268.866906
 123.469434, 2268.866906
 123.471101, 2268.866906
 123.472767, 2268.866906
 123.474434, 2268.866906
 123.476101, 2268.866906
 123.477767, 2268.866906
 123.479434, 2268.866906
 123.481101, 2268.866906
 123.482767, 2268.866906
 123.484434, 2268.866906
 123.486101, 2268.866906
 123.487767, 2268.866906
 123.489434, 2268.866906
 123.491101, 2268.866906
 123.492767, 2268.866906
 123.494434, 2268.866906
 123.496101, 2268.866906
 123.497767, 2268.866906
 123.499434, 2268.866906
 123.501101, 2268.866906
 123.502767, 2268.866906
 123.504434, 2268.866906
 123.506101, 2268.866906
 123.507767, 2268.866906
 123.509434, 2268.866906
 123.511101, 2268.866906
 123.512767, 2268.866906
 123.514434, 2268.866906
 123.516101, 2268.866906
 123.517767, 2268.866906
 123.519434, 2268.866906
 123.521101, 2268.866906
 123.522767, 2268.866906
 123.524434, 2268.866906
 123.526101, 2268.866906
 123.527767, 2268.866906
 123.529434, 2268.866906
 123.531101, 2268.866906
 123.532767, 2268.866906
 123.534434, 2268.866906
 123.536101, 2268.866906
 123.537767, 2268.866906
 123.539434, 2268.866906
 123.541101, 2268.866906
 123.542767, 2268.866906
 123.544434, 2268.866906
 123.546101, 2268.866906
 123.547767, 2268.866906
 123.549434, 2268.866906
 123.551101, 2268.866906
 123.552767, 2268.866906
 123.554434, 2268.866906
 123.556101, 2268.866906
 123.557767, 2268.866906
 123.559434, 2268.866906
 123.561101, 2268.866906
 123.562767, 2268.866906
 123.564434, 2268.866906
 123.566101, 2268.866906
 123.567767, 2268.866906
 123.569434, 2268.866906
 123.571101, 2268.866906
 123.572767, 2268.866906
 123.574434, 2268.866906
 123.576101, 2268.866906
 123.577767, 2268.866906
 123.579434, 2268.866906
 123.581101, 2268.866906
 123.582767, 2268.866906
 123.584434, 2268.866906
 123.586101, 2268.866906
 123.587767, 2268.866906
 123.589434, 2268.866906
 123.591101, 2268.866906
 123.592767, 2268.866906
 123.594434, 2268.866906
 123.596101, 2268.866906
 123.597767, 2268.866906
 123.599434, 2268.866906
 123.601101, 2268.866906
 123.602767, 2268.866906
 123.604434, 2268.866906
 123.606101, 2268.866906
 123.607767, 2268.866906
 123.609434, 2268.866906
 123.611101, 2268.866906
 123.612767, 2268.866906
 123.614434, 2268.866906
 123.616101, 2268.866906
 123.617767, 2268.866906
 123.619434, 2268.866906
 123.621101, 2268.866906
 123.622767, 2268.866906
 123.624434, 2268.866906
 123.626101, 2268.866906
 123.627767, 2268.866906
 123.629434, 2268.866906
 123.631101, 2268.866906
 123.632767, 2268.866906
 123.634434, 2268.866906
 123.636101, 2268.866906
 123.637767, 2268.866906
 123.639434, 2268.866906
 123.641101, 2268.866906
 123.642767, 2268.866906
 123.644434, 2268.866906
 123.646101, 2268.866906
 123.647767, 2268.866906
 123.649434, 2268.866906
 123.651101, 2268.866906
 123.652767, 2268.866906
 123.654434, 2268.866906
 123.656101, 2268.866906
 123.657767, 2268.866906
 123.659434, 2268.866906
 123.661101, 2268.866906
 123.662767, 2268.866906
 123.664434, 2268.866906
 123.666101, 2268.866906
 123.667767, 2268.866906
 123.669434, 2268.866906
 123.671101, 2268.866906
 123.672767, 2268.866906
 123.674434, 2268.866906
 123.676101, 2268.866906
 123.677767, 2268.866906
 123.679434, 2268.866906
 123.681101, 2268.866906
 123.682767, 2268.866906
 123.684434, 2268.866906
 123.686101, 2268.866906
 123.687767, 2268.866906
 123.689434, 2268.866906
 123.691101, 2268.866906
 123.692767, 2268.866906
 123.694434, 2268.866906
 123.696101, 2268.866906
 123.697767, 2268.866906
 123.699434, 2268.866906
 123.701101, 2268.866906
 123.702767, 2268.866906
 123.704434, 2268.866906
 123.706101, 2268.866906
 123.707767, 2268.866906
 123.709434, 2268.866906
 123.711101, 2268.866906
 123.712767, 2268.866906
 123.714434, 2268.866906
 123.716101, 2268.866906
 123.717767, 2268.866906
 123.719434, 2268.866906
 123.721101, 2268.866906
 123.722767, 2268.866906
 123.724434, 2268.866906
 123.726101, 2268.866906
 123.727767, 2268.866906
 123.729434, 2268.866906
 123.731101, 2268.866906
 123.732767, 2268.866906
 123.734434, 2268.866906
 123.736101, 2268.866906
 123.737767, 2268.866906
 123.739434, 2268.866906
 123.741101, 2268.866906
 123.742767, 2268.866906
 123.744434, 2268.866906
 123.746101, 2268.866906
 123.747767, 2268.866906
 123.749434, 2268.866906
 123.751101, 2268.866906
 123.752767, 2268.866906
 123.754434, 2268.866906
 123.756101, 2268.866906
 123.757767, 2268.866906
 123.759434, 2268.866906
 123.761101, 2268.866906
 123.762767, 2268.866906
 123.764434, 2268.866906
 123.766101, 2268.866906
 123.767767, 2268.866906
 123.769434, 2268.866906
 123.771101, 2268.866906
 123.772767, 2268.866906
 123.774434, 2268.866906
 123.776101, 2268.866906
 123.777767, 2268.866906
 123.779434, 2268.866906
 123.781101, 2268.866906
 123.782767, 2268.866906
 123.784434, 2268.866906
 123.786101, 2268.866906
 123.787767, 2268.866906
 123.789434, 2268.866906
 123.791101, 2268.866906
 123.792767, 2268.866906
 123.794434, 2268.866906
 123.796101, 2268.866906
 123.797767, 2268.866906
 123.799434, 2268.866906
 123.801101, 2268.866906
 123.802767, 2268.866906
 123.804434, 2268.866906
 123.806101, 2268.866906
 123.807767, 2268.866906
 123.809434, 2268.866906
 123.811101, 2268.866906
 123.812767, 2268.866906
 123.814434, 2268.866906
 123.816101, 2268.866906
 123.817767, 2268.866906
 123.819434, 2268.866906
 123.821101, 2268.866906
 123.822767, 2268.866906
 123.824434, 2268.866906
 123.826101, 2268.866906
 123.827767, 2268.866906
 123.829434, 2268.866906
 123.831101, 2268.866906
 123.832767, 2268.866906
 123.834434, 2268.866906
 123.836101, 2268.866906
 123.837767, 2268.866906
 123.839434, 2268.866906
 123.841101, 2268.866906
 123.842767, 2268.866906
 123.844434, 2268.866906
 123.846101, 2268.866906
 123.847767, 2268.866906
 123.849434, 2268.866906
 123.851101, 2268.866906
 123.852767, 2268.866906
 123.854434, 2268.866906
 123.856101, 2268.866906
 123.857767, 2268.866906
 123.859434, 2268.866906
 123.861101, 2268.866906
 123.862767, 2268.866906
 123.864434, 2268.866906
 123.866101, 2268.866906
 123.867767, 2268.866906
 123.869434, 2268.866906
 123.871101, 2268.866906
 123.872767, 2268.866906
 123.874434, 2268.866906
 123.876101, 2268.866906
 123.877767, 2268.866906
 123.879434, 2268.866906
 123.881101, 2268.866906
 123.882767, 2268.866906
 123.884434, 2268.866906
 123.886101, 2268.866906
 123.887767, 2268.866906
 123.889434, 2268.866906
 123.891101, 2268.866906
 123.892767, 2268.866906
 123.894434, 2268.866906
 123.896101, 2268.866906
 123.897767, 2268.866906
 123.899434, 2268.866906
 123.901101, 2268.866906
 123.902767, 2268.866906
 123.904434, 2268.866906
 123.906101, 2268.866906
 123.907767, 2268.866906
 123.909434, 2268.866906
 123.911101, 2268.866906
 123.912767, 2268.866906
 123.914434, 2268.866906
 123.916101, 2268.866906
 123.917767, 2268.866906
 123.919434, 2268.866906
 123.921101, 2268.866906
 123.922767, 2268.866906
 123.924434, 2268.866906
 123.926101, 2268.866906
 123.927767, 2268.866906
 123.929434, 2268.866906
 123.931101, 2268.866906
 123.932767, 2268.866906
 123.934434, 2268.866906
 123.936101, 2268.866906
 123.937767, 2268.866906
 123.939434, 2268.866906
 123.941101, 2268.866906
 123.942767, 2268.866906
 123.944434, 2268.866906
 123.946101, 2268.866906
 123.947767, 2268.866906
 123.949434, 2268.866906
 123.951101, 2268.866906
 123.952767, 2268.866906
 123.954434, 2268.866906
 123.956101, 2268.866906
 123.957767, 2268.866906
 123.959434, 2268.866906
 123.961101, 2268.866906
 123.962767, 2268.866906
 123.964434, 2268.866906
 123.966101, 2268.866906
 123.967767, 2268.866906
 123.969434, 2268.866906
 123.971101, 2268.866906
 123.972767, 2268.866906
 123.974434, 2268.866906
 123.976101, 2268.866906
 123.977767, 2268.866906
 123.979434, 2268.866906
 123.981101, 2268.866906
 123.982767, 2268.866906
 123.984434, 2268.866906
 123.986101, 2268.866906
 123.987767, 2268.866906
 123.989434, 2268.866906
 123.991101, 2268.866906
 123.992767, 2268.866906
 123.994434, 2268.866906
 123.996101, 2268.866906
 123.997767, 2268.866906
 123.999434, 2268.866906
 124.001101, 2268.866906
 124.002767, 2268.866906
 124.004434, 2268.866906
 124.006101, 2268.866906
 124.007767, 2268.866906
 124.009434, 2268.866906
 124.011101, 2268.866906
 124.012767, 2268.866906
 124.014434, 2268.866906
 124.016101, 2268.866906
 124.017767, 2268.866906
 124.019434, 2268.866906
 124.021101, 2268.866906
 124.022767, 2268.866906
 124.024434, 2268.866906
 124.026101, 2268.866906
 124.027767, 2268.866906
 124.029434, 2268.866906
 124.031101, 2268.866906
 124.032767, 2268.866906
 124.034434, 2268.866906
 124.036101, 2268.866906
 124.037767, 2268.866906
 124.039434, 2268.866906
 124.041101, 2268.866906
 124.042767, 2268.866906
 124.044434, 2268.866906
 124.046101, 2268.866906
 124.047767, 2268.866906
 124.049434, 2268.866906
 124.051101, 2268.866906
 124.052767, 2268.866906
 124.054434, 2268.866906
 124.056101, 2268.866906
 124.057767, 2268.866906
 124.059434, 2268.866906
 124.061101, 2268.866906
 124.062767, 2268.866906
 124.064434, 2268.866906
 124.066101, 2268.866906
 124.067767, 2268.866906
 124.069434, 2268.866906
 124.071101, 2268.866906
 124.072767, 2268.866906
 124.074434, 2268.866906
 124.076101, 2268.866906
 124.077767, 2268.866906
 124.079434, 2268.866906
 124.081101, 2268.866906
 124.082767, 2268.866906
 124.084434, 2268.866906
 124.086101, 2268.866906
 124.087767, 2268.866906
 124.089434, 2268.866906
 124.091101, 2268.866906
 124.092767, 2268.866906
 124.094434, 2268.866906
 124.096101, 2268.866906
 124.097767, 2268.866906
 124.099434, 2268.866906
 124.101101, 2268.866906
 124.102767, 2268.866906
 124.104434, 2268.866906
 124.106101, 2268.866906
 124.107767, 2268.866906
 124.109434, 2268.866906
 124.111101, 2268.866906
 124.112767, 2268.866906
 124.114434, 2268.866906
 124.116101, 2268.866906
 124.117767, 2268.866906
 124.119434, 2268.866906
 124.121101, 2268.866906
 124.122767, 2268.866906
 124.124434, 2268.866906
 124.126101, 2268.866906
 124.127767, 2268.866906
 124.129434, 2268.866906
 124.131101, 2268.866906
 124.132767, 2268.866906
 124.134434, 2268.866906
 124.136101, 2268.866906
 124.137767, 2268.866906
 124.139434, 2268.866906
 124.141101, 2268.866906
 124.142767, 2268.866906
 124.144434, 2268.866906
 124.146101, 2268.866906
 124.147767, 2268.866906
 124.149434, 2268.866906
 124.151101, 2268.866906
 124.152767, 2268.866906
 124.154434, 2268.866906
 124.156101, 2268.866906
 124.157767, 2268.866906
 124.159434, 2268.866906
 124.161101, 2268.866906
 124.162767, 2268.866906
 124.164434, 2268.866906
 124.166101, 2268.866906
 124.167767, 2268.866906
 124.169434, 2268.866906
 124.171101, 2268.866906
 124.172767, 2268.866906
 124.174434, 2268.866906
 124.176101, 2268.866906
 124.177767, 2268.866906
 124.179434, 2268.866906
 124.181101, 2268.866906
 124.182767, 2268.866906
 124.184434, 2268.866906
 124.186101, 2268.866906
 124.187767, 2268.866906
 124.189434, 2268.866906
 124.191101, 2268.866906
 124.192767, 2268.866906
 124.194434, 2268.866906
 124.196101, 2268.866906
 124.197767, 2268.866906
 124.199434, 2268.866906
 124.201101, 2268.866906
 124.202767, 2268.866906
 124.204434, 2268.866906
 124.206101, 2268.866906
 124.207767, 2268.866906
 124.209434, 2268.866906
 124.211101, 2268.866906
 124.212767, 2268.866906
 124.214434, 2268.866906
 124.216101, 2268.866906
 124.217767, 2268.866906
 124.219434, 2268.866906
 124.221101, 2268.866906
 124.222767, 2268.866906
 124.224434, 2268.866906
 124.226101, 2268.866906
 124.227767, 2268.866906
 124.229434, 2268.866906
 124.231101, 2268.866906
 124.232767, 2268.866906
 124.234434, 2268.866906
 124.236101, 2268.866906
 124.237767, 2268.866906
 124.239434, 2268.866906
 124.241101, 2268.866906
 124.242767, 2268.866906
 124.244434, 2268.866906
 124.246101, 2268.866906
 124.247767, 2268.866906
 124.249434, 2268.866906
 124.251101, 2268.866906
 124.252767, 2268.866906
 124.254434, 2268.866906
 124.256101, 2268.866906
 124.257767, 2268.866906
 124.259434, 2268.866906
 124.261101, 2268.866906
 124.262767, 2268.866906
 124.264434, 2268.866906
 124.266101, 2268.866906
 124.267767, 2268.866906
 124.269434, 2268.866906
 124.271101, 2268.866906
 124.272767, 2268.866906
 124.274434, 2268.866906
 124.276101, 2268.866906
 124.277767, 2268.866906
 124.279434, 2268.866906
 124.281101, 2268.866906
 124.282767, 2268.866906
 124.284434, 2268.866906
 124.286101, 2268.866906
 124.287767, 2268.866906
 124.289434, 2268.866906
 124.291101, 2268.866906
 124.292767, 2268.866906
 124.294434, 2268.866906
 124.296101, 2268.866906
 124.297767, 2268.866906
 124.299434, 2268.866906
 124.301101, 2268.866906
 124.302767, 2268.866906
 124.304434, 2268.866906
 124.306101, 2268.866906
 124.307767, 2268.866906
 124.309434, 2268.866906
 124.311101, 2268.866906
 124.312767, 2268.866906
 124.314434, 2268.866906
 124.316101, 2268.866906
 124.317767, 2268.866906
 124.319434, 2268.866906
 124.321101, 2268.866906
 124.322767, 2268.866906
 124.324434, 2268.866906
 124.326101, 2268.866906
 124.327767, 2268.866906
 124.329434, 2268.866906
 124.331101, 2268.866906
 124.332767, 2268.866906
 124.334434, 2268.866906
 124.336101, 2268.866906
 124.337767, 2268.866906
 124.339434, 2268.866906
 124.341101, 2268.866906
 124.342767, 2268.866906
 124.344434, 2268.866906
 124.346101, 2268.866906
 124.347767, 2268.866906
 124.349434, 2268.866906
 124.351101, 2268.866906
 124.352767, 2268.866906
 124.354434, 2268.866906
 124.356101, 2268.866906
 124.357767, 2268.866906
 124.359434, 2268.866906
 124.361101, 2268.866906
 124.362767, 2268.866906
 124.364434, 2268.866906
 124.366101, 2268.866906
 124.367767, 2268.866906
 124.369434, 2268.866906
 124.371101, 2268.866906
 124.372767, 2268.866906
 124.374434, 2268.866906
 124.376101, 2268.866906
 124.377767, 2268.866906
 124.379434, 2268.866906
 124.381101, 2268.866906
 124.382767, 2268.866906
 124.384434, 2268.866906
 124.386101, 2268.866906
 124.387767, 2268.866906
 124.389434, 2268.866906
 124.391101, 2268.866906
 124.392767, 2268.866906
 124.394434, 2268.866906
 124.396101, 2268.866906
 124.397767, 2268.866906
 124.399434, 2268.866906
 124.401101, 2268.866906
 124.402767, 2268.866906
 124.404434, 2268.866906
 124.406101, 2268.866906
 124.407767, 2268.866906
 124.409434, 2268.866906
 124.411101, 2268.866906
 124.412767, 2268.866906
 124.414434, 2268.866906
 124.416101, 2268.866906
 124.417767, 2268.866906
 124.419434, 2268.866906
 124.421101, 2268.866906
 124.422767, 2268.866906
 124.424434, 2268.866906
 124.426101, 2268.866906
 124.427767, 2268.866906
 124.429434, 2268.866906
 124.431101, 2268.866906
 124.432767, 2268.866906
 124.434434, 2268.866906
 124.436101, 2268.866906
 124.437767, 2268.866906
 124.439434, 2268.866906
 124.441101, 2268.866906
 124.442767, 2268.866906
 124.444434, 2268.866906
 124.446101, 2268.866906
 124.447767, 2268.866906
 124.449434, 2268.866906
 124.451101, 2268.866906
 124.452767, 2268.866906
 124.454434, 2268.866906
 124.456101, 2268.866906
 124.457767, 2268.866906
 124.459434, 2268.866906
 124.461101, 2268.866906
 124.462767, 2268.866906
 124.464434, 2268.866906
 124.466101, 2268.866906
 124.467767, 2268.866906
 124.469434, 2268.866906
 124.471101, 2268.866906
 124.472767, 2268.866906
 124.474434, 2268.866906
 124.476101, 2268.866906
 124.477767, 2268.866906
 124.479434, 2268.866906
 124.481101, 2268.866906
 124.482767, 2268.866906
 124.484434, 2268.866906
 124.486101, 2268.866906
 124.487767, 2268.866906
 124.489434, 2268.866906
 124.491101, 2268.866906
 124.492767, 2268.866906
 124.494434, 2268.866906
 124.496101, 2268.866906
 124.497767, 2268.866906
 124.499434, 2268.866906
 124.501101, 2268.866906
 124.502767, 2268.866906
 124.504434, 2268.866906
 124.506101, 2268.866906
 124.507767, 2268.866906
 124.509434, 2268.866906
 124.511101, 2268.866906
 124.512767, 2268.866906
 124.514434, 2268.866906
 124.516101, 2268.866906
 124.517767, 2268.866906
 124.519434, 2268.866906
 124.521101, 2268.866906
 124.522767, 2268.866906
 124.524434, 2268.866906
 124.526101, 2268.866906
 124.527767, 2268.866906
 124.529434, 2268.866906
 124.531101, 2268.866906
 124.532767, 2268.866906
 124.534434, 2268.866906
 124.536101, 2268.866906
 124.537767, 2268.866906
 124.539434, 2268.866906
 124.541101, 2268.866906
 124.542767, 2268.866906
 124.544434, 2268.866906
 124.546101, 2268.866906
 124.547767, 2268.866906
 124.549434, 2268.866906
 124.551101, 2268.866906
 124.552767, 2268.866906
 124.554434, 2268.866906
 124.556101, 2268.866906
 124.557767, 2268.866906
 124.559434, 2268.866906
 124.561101, 2268.866906
 124.562767, 2268.866906
 124.564434, 2268.866906
 124.566101, 2268.866906
 124.567767, 2268.866906
 124.569434, 2268.866906
 124.571101, 2268.866906
 124.572767, 2268.866906
 124.574434, 2268.866906
 124.576101, 2268.866906
 124.577767, 2268.866906
 124.579434, 2268.866906
 124.581101, 2268.866906
 124.582767, 2268.866906
 124.584434, 2268.866906
 124.586101, 2268.866906
 124.587767, 2268.866906
 124.589434, 2268.866906
 124.591101, 2268.866906
 124.592767, 2268.866906
 124.594434, 2268.866906
 124.596101, 2268.866906
 124.597767, 2268.866906
 124.599434, 2268.866906
 124.601101, 2268.866906
 124.602767, 2268.866906
 124.604434, 2268.866906
 124.606101, 2268.866906
 124.607767, 2268.866906
 124.609434, 2268.866906
 124.611101, 2268.866906
 124.612767, 2268.866906
 124.614434, 2268.866906
 124.616101, 2268.866906
 124.617767, 2268.866906
 124.619434, 2268.866906
 124.621101, 2268.866906
 124.622767, 2268.866906
 124.624434, 2268.866906
 124.626101, 2268.866906
 124.627767, 2268.866906
 124.629434, 2268.866906
 124.631101, 2268.866906
 124.632767, 2268.866906
 124.634434, 2268.866906
 124.636101, 2268.866906
 124.637767, 2268.866906
 124.639434, 2268.866906
 124.641101, 2268.866906
 124.642767, 2268.866906
 124.644434, 2268.866906
 124.646101, 2268.866906
 124.647767, 2268.866906
 124.649434, 2268.866906
 124.651101, 2268.866906
 124.652767, 2268.866906
 124.654434, 2268.866906
 124.656101, 2268.866906
 124.657767, 2268.866906
 124.659434, 2268.866906
 124.661101, 2268.866906
 124.662767, 2268.866906
 124.664434, 2268.866906
 124.666101, 2268.866906
 124.667767, 2268.866906
 124.669434, 2268.866906
 124.671101, 2268.866906
 124.672767, 2268.866906
 124.674434, 2268.866906
 124.676101, 2268.866906
 124.677767, 2268.866906
 124.679434, 2268.866906
 124.681101, 2268.866906
 124.682767, 2268.866906
 124.684434, 2268.866906
 124.686101, 2268.866906
 124.687767, 2268.866906
 124.689434, 2268.866906
 124.691101, 2268.866906
 124.692767, 2268.866906
 124.694434, 2268.866906
 124.696101, 2268.866906
 124.697767, 2268.866906
 124.699434, 2268.866906
 124.701101, 2268.866906
 124.702767, 2268.866906
 124.704434, 2268.866906
 124.706101, 2268.866906
 124.707767, 2268.866906
 124.709434, 2268.866906
 124.711101, 2268.866906
 124.712767, 2268.866906
 124.714434, 2268.866906
 124.716101, 2268.866906
 124.717767, 2268.866906
 124.719434, 2268.866906
 124.721101, 2268.866906
 124.722767, 2268.866906
 124.724434, 2268.866906
 124.726101, 2268.866906
 124.727767, 2268.866906
 124.729434, 2268.866906
 124.731101, 2268.866906
 124.732767, 2268.866906
 124.734434, 2268.866906
 124.736101, 2268.866906
 124.737767, 2268.866906
 124.739434, 2268.866906
 124.741101, 2268.866906
 124.742767, 2268.866906
 124.744434, 2268.866906
 124.746101, 2268.866906
 124.747767, 2268.866906
 124.749434, 2268.866906
 124.751101, 2268.866906
 124.752767, 2268.866906
 124.754434, 2268.866906
 124.756101, 2268.866906
 124.757767, 2268.866906
 124.759434, 2268.866906
 124.761101, 2268.866906
 124.762767, 2268.866906
 124.764434, 2268.866906
 124.766101, 2268.866906
 124.767767, 2268.866906
 124.769434, 2268.866906
 124.771101, 2268.866906
 124.772767, 2268.866906
 124.774434, 2268.866906
 124.776101, 2268.866906
 124.777767, 2268.866906
 124.779434, 2268.866906
 124.781101, 2268.866906
 124.782767, 2268.866906
 124.784434, 2268.866906
 124.786101, 2268.866906
 124.787767, 2268.866906
 124.789434, 2268.866906
 124.791101, 2268.866906
 124.792767, 2268.866906
 124.794434, 2268.866906
 124.796101, 2268.866906
 124.797767, 2268.866906
 124.799434, 2268.866906
 124.801101, 2268.866906
 124.802767, 2268.866906
 124.804434, 2268.866906
 124.806101, 2268.866906
 124.807767, 2268.866906
 124.809434, 2268.866906
 124.811101, 2268.866906
 124.812767, 2268.866906
 124.814434, 2268.866906
 124.816101, 2268.866906
 124.817767, 2268.866906
 124.819434, 2268.866906
 124.821101, 2268.866906
 124.822767, 2268.866906
 124.824434, 2268.866906
 124.826101, 2268.866906
 124.827767, 2268.866906
 124.829434, 2268.866906
 124.831101, 2268.866906
 124.832767, 2268.866906
 124.834434, 2268.866906
 124.836101, 2268.866906
 124.837767, 2268.866906
 124.839434, 2268.866906
 124.841101, 2268.866906
 124.842767, 2268.866906
 124.844434, 2268.866906
 124.846101, 2268.866906
 124.846511, 2268.866906
 124.848178, 1667.664281
 124.849844, 1066.461656
 124.851511,  465.259030
 124.853178, -135.943595
 124.854844, -737.146220
 124.856511, -1338.348846
 124.858178, -1889.774419
 124.859844, -1892.347650
 124.861511, -1894.920881
 124.863178, -1897.494112
 124.864844, -1900.067343
 124.866511, -1902.640574
 124.868178, -1905.213805
 124.869844, -1907.787036
 124.871511, -1910.360267
 124.873178, -1912.933498
 124.874844, -1915.509940
 124.876511, -1918.121785
 124.878178, -1920.733630
 124.879844, -1923.345475
 124.881511, -1925.957320
 124.883178, -1928.569165
 124.884844, -1931.181010
 124.886511, -1933.792855
 124.888178, -1936.404700
 124.889844, -1939.016544
 124.891511, -1941.631015
 124.893178, -1944.274442
 124.894844, -1946.917868
 124.896511, -1949.561295
 124.898178, -1952.204722
 124.899844, -1954.848148
 124.901134, -1956.893175
 124.902801, -2204.716525
 124.904467, -2452.539875
 124.906134, -2700.363225
 124.907801, -2948.186574
 124.909467, -3196.009924
 124.911134, -3443.833274
 124.912801, -3691.656624
 124.914467, -3939.479973
 124.916134, -4187.303323
 124.917801, -4435.126673
 124.919467, -4682.950023
 124.921134, -4930.773372
 124.922801, -5178.596722
 124.924467, -5426.420072
 124.926134, -5674.243422
 124.927801, -5922.066771
 124.929467, -6169.890121
 124.931134, -6417.713471
 124.932801, -6665.536821
 124.934467, -6913.360170
 124.936134, -7161.183520
 124.937801, -7409.006870
 124.939467, -7656.830220
 124.941134, -7904.653570
 124.942801, -8063.045963
 124.944467, -8208.636709
 124.946134, -8354.227456
 124.947801, -8499.818202
 124.949467, -8645.408948
 124.951134, -8790.999695
 124.952801, -8936.590441
 124.954467, -9082.181187
 124.956134, -9227.771934
 124.957801, -9373.362680
 124.959467, -9391.593668
 124.961134, -9391.593668
 124.962081, -9391.593668
 124.963748, -9087.989552
 124.965414, -8784.385436
 124.967081, -8480.781319
 124.968748, -8177.177203
 124.970414, -7873.573087
 124.972081, -7569.968971
 124.973748, -7266.364854
 124.975414, -7074.289540
 124.977081, -7022.387482
 124.978748, -6970.485424
 124.980414, -6918.583366
 124.982081, -6866.681307
 124.983748, -6814.779249
 124.985414, -6762.877191
 124.987081, -6710.975133
 124.988748, -6659.073075
 124.990414, -6607.171016
 124.992081, -6532.398356
 124.993748, -6428.881131
 124.995414, -6325.363906
 124.997081, -6221.846682
 124.998748, -6118.329457
 125.000414, -6014.812232
 125.002081, -5911.295007
 125.003748, -5807.777783
 125.005414, -5701.043544
 125.007081, -5592.960697
 125.008748, -5484.877851
 125.010414, -5376.795005
 125.012081, -5268.712158
 125.013748, -5160.629312
 125.015414, -5052.546465
 125.017081, -4944.967906
 125.018748, -4837.670375
 125.020414, -4730.372845
 125.022081, -4623.075314
 125.023748, -4515.777784
 125.025414, -4408.480253
 125.027081, -4301.182723
 125.028748, -4193.885192
 125.030414, -4086.587661
 125.032081, -3979.290131
 125.033748, -3872.929004
 125.035414, -3767.089717
 125.037081, -3661.250430
 125.038748, -3555.411143
 125.040414, -3449.571856
 125.042081, -3343.732569
 125.043748, -3237.893282
 125.045414, -3132.053995
 125.047081, -3026.214708
 125.048748, -2920.375421
 125.050414, -2842.115184
 125.052081, -2779.224219
 125.053748, -2716.333255
 125.055414, -2653.442291
 125.057081, -2590.551327
 125.058748, -2527.660363
 125.060414, -2464.769399
 125.062081, -2401.878435
 125.063748, -2338.987471
 125.065414, -2276.096507
 125.067081, -2219.191314
 125.068748, -2165.621875
 125.070414, -2112.052437
 125.072081, -2058.482999
 125.073748, -2004.913560
 125.075414, -1951.344122
 125.077081, -1897.774684
 125.078748, -1844.205246
 125.080414, -1790.635807
 125.082081, -1737.066369
 125.083748, -1683.607534
 125.085414, -1630.210336
 125.087081, -1576.813138
 125.088748, -1523.415940
 125.090414, -1470.018742
 125.092081, -1416.621544
 125.093748, -1363.224346
 125.095414, -1309.827148
 125.097081, -1256.429950
 125.098748, -1203.032752
 125.100414, -1149.935118
 125.102081, -1097.004426
 125.103748, -1044.073733
 125.105414, -991.143041
 125.107081, -938.212349
 125.108748, -885.281656
 125.110414, -832.350964
 125.112081, -779.420271
 125.113748, -726.489579
 125.115414, -673.558887
 125.117081, -621.110143
 125.118748, -568.929980
 125.120414, -516.749818
 125.122081, -464.569655
 125.123748, -412.389492
 125.125414, -360.209330
 125.127081, -308.029167
 125.128748, -255.849004
 125.130414, -203.668841
 125.132081, -151.488679
 125.133748,  -99.962450
 125.135414,  -48.800646
 125.137081,    2.361157
 125.138748,   53.522961
 125.140414,  104.684764
 125.142081,  155.846568
 125.143748,  207.008372
 125.145414,  258.170175
 125.147081,  309.331979
 125.148748,  360.493783
 125.150414,  340.933228
 125.152081,  281.960464
 125.153748,  222.987700
 125.155414,  164.014937
 125.157081,  105.042173
 125.158748,   46.069410
 125.160050,    0.000000
