%HorizontalForces_vs_GroundDistance
\begin{tikzpicture}

\begin{axis}[
width=\figurewidth,
height=\figureheight,
scaled ticks=false, tick label style={/pgf/number format/fixed},
xmin=399.7247878623366,
xmax=1656.7639931726235,
xlabel={Ground Roll Distance (m)},
xmajorgrids,
ymin=-107235.71774999997,
ymax=107235.71774999997,
ylabel={Horizontal Forces (N)},
ymajorgrids,
legend style={at={(1.03,0.5)},anchor=west,draw=black,fill=white,legend cell align=left}
]

\addplot [
color=black,
solid
]
table[row sep=crcr]{
400.87738764742426	-20607.146591857512\\
412.3929654278579	-20559.04480605304\\
496.18650686136345	-20212.39488665649\\
512.8248939735029	-20144.26134525567\\
529.4234898876284	-20076.51959456278\\
545.982428415092	-20009.166681474766\\
562.5018425991666	-19942.19968078206\\
565.8009941688522	-19928.852334657546\\
566.1188203412685	-19927.56698018639\\
566.2960349453931	-19926.850323844374\\
566.4134557040416	-19926.375488172547\\
566.5036833788295	-19926.01062580604\\
566.549931049211	-19925.82361222258\\
566.5800841102362	-19925.701682010033\\
566.6030162613074	-19925.608951557544\\
566.6123495099121	-19925.571210940456\\
566.614144771383	-48899.79296034417\\
566.6157637682381	-48899.85092316971\\
566.6319536855772	-48900.43055337036\\
566.7938477376335	-48906.2270498967\\
568.4122759001446	-48964.2114515319\\
584.5450967009624	-49545.9833075903\\
665.2161605972408	-52560.45318927393\\
743.2913270039021	-55652.457081154425\\
818.6179623723133	-58807.89663826408\\
891.0403105105183	-62010.250404706865\\
960.4003085657034	-65240.54806945013\\
1026.538523686193	-68477.4058232597\\
1089.2952085770385	-71697.13248032788\\
1148.5114706745285	-74873.9146091379\\
1204.030545772399	-77980.08669510059\\
1255.699162745982	-80986.48930848305\\
1303.3689816903734	-83862.91441982769\\
1346.898083503646	-86578.63251839211\\
1386.1524849267926	-89102.99126321904\\
1421.0076495405428	-91406.0703337107\\
1451.3499624638362	-93459.37232113024\\
1477.0781347362017	-95236.525332608\\
1498.1045028006865	-96713.96988857904\\
1514.35618928638	-97871.6010648777\\
1525.776093499253	-98693.33695236518\\
1532.3236836603196	-99167.58653415454\\
1534.0407344190958	-99292.33124999996\\
};

\addplot [
color=black,
densely dashed
]
table[row sep=crcr]{
400.87738764742426	-0.0\\
412.3929654278579	-0.0\\
496.18650686136345	-0.0\\
512.8248939735029	-0.0\\
529.4234898876284	-0.0\\
545.982428415092	-0.0\\
562.5018425991666	-0.0\\
565.8009941688522	-0.0\\
566.1188203412685	-0.0\\
566.2960349453931	-0.0\\
566.4134557040416	-0.0\\
566.5036833788295	-0.0\\
566.549931049211	-0.0\\
566.5800841102362	-0.0\\
566.6030162613074	-0.0\\
566.6123495099121	-0.0\\
566.614144771383	-0.0\\
566.6157637682381	-0.0\\
566.6319536855772	-0.0\\
566.7938477376335	-0.0\\
568.4122759001446	-0.0\\
584.5450967009624	-0.0\\
665.2161605972408	-0.0\\
743.2913270039021	-0.0\\
818.6179623723133	-0.0\\
891.0403105105183	-0.0\\
960.4003085657034	-0.0\\
1026.538523686193	-0.0\\
1089.2952085770385	-0.0\\
1148.5114706745285	-0.0\\
1204.030545772399	-0.0\\
1255.699162745982	-0.0\\
1303.3689816903734	-0.0\\
1346.898083503646	-0.0\\
1386.1524849267926	-0.0\\
1421.0076495405428	-0.0\\
1451.3499624638362	-0.0\\
1477.0781347362017	-0.0\\
1498.1045028006865	-0.0\\
1514.35618928638	-0.0\\
1525.776093499253	-0.0\\
1532.3236836603196	-0.0\\
1534.0407344190958	-0.0\\
};

\addplot [
color=black,
dashdotted
]
table[row sep=crcr]{
400.87738764742426	18958.187544456974\\
412.3929654278579	18895.938591694634\\
496.18650686136345	18447.33581953773\\
512.8248939735029	18359.163592056808\\
529.4234898876284	18271.498384447666\\
545.982428415092	18184.336375073122\\
562.5018425991666	18097.673778393233\\
565.8009941688522	18080.40085797017\\
566.1188203412685	18078.73746921194\\
566.2960349453931	18077.81003780717\\
566.4134557040416	18077.19554870222\\
566.5036833788295	18076.723377038783\\
566.549931049211	18076.48136108183\\
566.5800841102362	18076.323570099354\\
566.6030162613074	18076.203566788456\\
566.6123495099121	18076.154726317123\\
566.614144771383	18076.143908807717\\
566.6157637682381	18076.123117150637\\
566.6319536855772	18075.915199881994\\
566.7938477376335	18073.83595742006\\
568.4122759001446	18053.03656084274\\
584.5450967009624	17844.351065943498\\
665.2161605972408	16763.0403552809\\
743.2913270039021	15653.917671383504\\
818.6179623723133	14522.040185831895\\
891.0403105105183	13373.33425646587\\
960.4003085657034	12214.60466200583\\
1026.538523686193	11053.521919281346\\
1089.2952085770385	9898.584216686286\\
1148.5114706745285	8759.051006487069\\
1204.030545772399	7644.846095659848\\
1255.699162745982	6566.429168634915\\
1303.3689816903734	5534.636049647557\\
1346.898083503646	4560.489621792756\\
1386.1524849267926	3654.9850868422836\\
1421.0076495405428	2828.8550659198017\\
1451.3499624638362	2092.321772052058\\
1477.0781347362017	1454.844981365422\\
1498.1045028006865	924.8756383347468\\
1514.35618928638	509.6255150760743\\
1525.776093499253	214.86330103804494\\
1532.3236836603196	44.74677228052528\\
1534.0407344190958	3.580092435876933E-25\\
};

\addplot [
color=black,
dashed
]
table[row sep=crcr]{
400.87738764742426	1648.9590474005422\\
412.3929654278579	1663.1062143584068\\
496.18650686136345	1765.0590671187606\\
512.8248939735029	1785.0977531988606\\
529.4234898876284	1805.021210115117\\
545.982428415092	1824.8303064016436\\
562.5018425991666	1844.5259023888325\\
565.8009941688522	1848.4514766873735\\
566.1188203412685	1848.8295109744454\\
566.2960349453931	1849.0402860372074\\
566.4134557040416	1849.179939470329\\
566.5036833788295	1849.2872487672566\\
566.549931049211	1849.3422511407516\\
566.5800841102362	1849.3781119106834\\
566.6030162613074	1849.405384769092\\
566.6123495099121	1849.4164846233325\\
566.614144771383	30823.649051536457\\
566.6157637682381	30823.727806019073\\
566.6319536855772	30824.515353488358\\
566.7938477376335	30832.39109247664\\
568.4122759001446	30911.17489068916\\
584.5450967009624	31701.632241646803\\
665.2161605972408	35797.41283399303\\
743.2913270039021	39998.53940977092\\
818.6179623723133	44285.856452432185\\
891.0403105105183	48636.91614824098\\
960.4003085657034	53025.9434074443\\
1026.538523686193	57423.88390397836\\
1089.2952085770385	61798.5482636416\\
1148.5114706745285	66114.86360265082\\
1204.030545772399	70335.24059944076\\
1255.699162745982	74420.06013984815\\
1303.3689816903734	78328.27837018014\\
1346.898083503646	82018.14289659937\\
1386.1524849267926	85448.00617637674\\
1421.0076495405428	88577.21526779089\\
1451.3499624638362	91367.05054907818\\
1477.0781347362017	93781.6803512426\\
1498.1045028006865	95789.09425024429\\
1514.35618928638	97361.97554980163\\
1525.776093499253	98478.47365132713\\
1532.3236836603196	99122.83976187403\\
1534.0407344190958	99292.33124999996\\
};
\end{axis}
\end{tikzpicture}%
