%HorizontalForces_vs_GroundDistance
\begin{tikzpicture}

\begin{axis}[
width=\figurewidth,
height=\figureheight,
scaled ticks=false, tick label style={/pgf/number format/fixed},
xmin=331.6148636150622,
xmax=752.1699852476067,
xlabel={Ground Roll Distance (m)},
xmajorgrids,
ymin=-125873.9278533773,
ymax=107235.71774999997,
ylabel={Horizontal Forces (N)},
ymajorgrids,
legend style={at={(1.03,0.5)},anchor=west,draw=black,fill=white,legend cell align=left}
]

\addplot [
color=black,
solid
]
table[row sep=crcr]{
332.36165153462684	-34651.08328116259\\
339.8099005221319	-34542.609584188715\\
390.3881608067031	-33789.09089419448\\
400.30238442575967	-33635.2664980721\\
410.15016831940557	-33479.57661543395\\
419.9318200773695	-33321.692245728904\\
429.6476516220948	-33161.296991353986\\
431.58294729680483	-33128.8896909014\\
431.62521503906953	-33128.18013558905\\
431.63058202100717	-33128.09003377656\\
431.633020021147	-33128.04910380799\\
431.6340321074124	-33128.0321124882\\
431.6343164420738	-67403.86382136185\\
431.63460645657096	-67403.90269463585\\
431.63750659495486	-67404.29142674865\\
431.6665073200504	-67408.1786851474\\
431.9564486825476	-67447.04496618742\\
434.8492594184023	-67835.04723349473\\
445.7964518620794	-69304.94694832014\\
453.0498996272777	-70278.11219124953\\
460.96658977177265	-71364.11802925996\\
491.73102423964895	-75929.3743162278\\
519.5833183432458	-80505.66265300894\\
544.4061182593528	-84851.25614902755\\
566.9062616327874	-88854.21104397232\\
574.3321334082477	-90146.97793273113\\
585.8217164219618	-92198.5174413464\\
605.8236131214694	-96081.19161247235\\
623.4446837989176	-99758.9279244905\\
638.9420051666971	-103049.08654757211\\
644.963718758366	-104286.22591438275\\
647.132735944986	-104721.7761798522\\
649.2031952925527	-105145.21934353845\\
661.9567514355028	-107943.49881493542\\
672.6743962047021	-110504.6093965112\\
681.4262850222156	-112617.25374561155\\
683.6262245035552	-113117.60612401186\\
684.9582595282457	-113409.09387118815\\
686.145897157511	-113676.21634582285\\
691.7697533366493	-115091.7228477505\\
695.2653459844666	-116140.35311951325\\
696.0334653056939	-116399.39585386717\\
696.3019106792424	-116494.36655379282\\
696.4478773459186	-116547.7502487158\\
696.4536900440803	-116549.93319757158\\
};

\addplot [
color=black,
densely dashed
]
table[row sep=crcr]{
332.36165153462684	-12912.598273638192\\
339.8099005221319	-12954.549885283599\\
390.3881608067031	-13209.886371492521\\
400.30238442575967	-13251.171472751357\\
410.15016831940557	-13288.394087672536\\
419.9318200773695	-13321.231619224884\\
429.6476516220948	-13349.372477791614\\
431.58294729680483	-13354.410423767218\\
431.62521503906953	-13354.518280868986\\
431.63058202100717	-13354.531969428997\\
431.633020021147	-13354.538187083635\\
431.6340321074124	-13354.540768125404\\
431.6343164420738	-13354.54157138008\\
431.63460645657096	-13354.543076172795\\
431.63750659495486	-13354.55812313643\\
431.6665073200504	-13354.708496396779\\
431.9564486825476	-13356.202568092223\\
434.8492594184023	-13370.15371999428\\
445.7964518620794	-13405.101146858819\\
453.0498996272777	-13410.551308245529\\
460.96658977177265	-13424.819382417914\\
491.73102423964895	-13661.589224056024\\
519.5833183432458	-14075.056319873423\\
544.4061182593528	-14498.134322553622\\
566.9062616327874	-14765.236431228404\\
574.3321334082477	-14787.47202243875\\
585.8217164219618	-14836.773826141907\\
605.8236131214694	-15121.105997564817\\
623.4446837989176	-15500.923795781742\\
638.9420051666971	-15786.853142966287\\
644.963718758366	-15830.608543229704\\
647.132735944986	-15832.851736815937\\
649.2031952925527	-15840.978947584674\\
661.9567514355028	-16042.361898968255\\
672.6743962047021	-16365.924936925694\\
681.4262850222156	-16611.9958208335\\
683.6262245035552	-16637.682184773897\\
684.9582595282457	-16640.76278770012\\
686.145897157511	-16650.110319366322\\
691.7697533366493	-16836.156615564752\\
695.2653459844666	-17112.309247216726\\
696.0334653056939	-17200.629041820604\\
696.3019106792424	-17235.843451365537\\
696.4478773459186	-17256.714048759706\\
696.4536900440803	-17257.60194757161\\
};

\addplot [
color=black,
dashdotted
]
table[row sep=crcr]{
332.36165153462684	20086.821467775037\\
339.8099005221319	19895.352180410053\\
390.3881608067031	18611.22796344739\\
400.30238442575967	18362.882277707286\\
410.15016831940557	18117.333049518755\\
419.9318200773695	17874.57212814301\\
429.6476516220948	17634.59339372095\\
431.58294729680483	17586.93110394657\\
431.62521503906953	17585.89065820077\\
431.63058202100717	17585.75854832618\\
431.633020021147	17585.69853633816\\
431.6340321074124	17585.673623601382\\
431.6343164420738	17585.66587032201\\
431.63460645657096	17585.6513454343\\
431.63750659495486	17585.506096426347\\
431.6665073200504	17584.053593268567\\
431.9564486825476	17569.527256473215\\
434.8492594184023	17424.135999805578\\
445.7964518620794	16866.379298081258\\
453.0498996272777	16490.234685735195\\
460.96658977177265	16073.65712752163\\
491.73102423964895	14391.202356404268\\
519.5833183432458	12773.140582010838\\
544.4061182593528	11248.484102222254\\
566.9062616327874	9796.382213065655\\
574.3321334082477	9302.534890124221\\
585.8217164219618	8524.278004700653\\
605.8236131214694	7125.625671609834\\
623.4446837989176	5843.746010351362\\
638.9420051666971	4676.021462151135\\
644.963718758366	4212.160809322078\\
647.132735944986	4043.7371444552546\\
649.2031952925527	3882.3065115232403\\
661.9567514355028	2872.9095790438187\\
672.6743962047021	2003.1892765985071\\
681.4262850222156	1277.664206387712\\
683.6262245035552	1093.1645872247636\\
684.9582595282457	981.0625899108172\\
686.145897157511	880.8671317178478\\
691.7697533366493	402.9838773391863\\
695.2653459844666	102.72679958209869\\
696.0334653056939	36.36789372679044\\
696.3019106792424	13.141008965763753\\
696.4478773459186	0.5033776015299736\\
696.4536900440803	3.0044754516053484E-29\\
};

\addplot [
color=black,
dashed
]
table[row sep=crcr]{
332.36165153462684	1651.6635397493546\\
339.8099005221319	1692.7075184950631\\
390.3881608067031	1967.9765592545637\\
400.30238442575967	2021.2127476134565\\
410.15016831940557	2073.8494782426533\\
419.9318200773695	2125.888498361014\\
429.6476516220948	2177.331119841426\\
431.58294729680483	2187.5481631876128\\
431.62521503906953	2187.7711965192984\\
431.63058202100717	2187.799516021393\\
431.633020021147	2187.8123803861945\\
431.6340321074124	2187.81772076142\\
431.6343164420738	36463.65637965976\\
431.63460645657096	36463.70827302874\\
431.63750659495486	36464.22720718586\\
431.6665073200504	36469.41659548205\\
431.9564486825476	36521.31514162198\\
434.8492594184023	37040.75751369487\\
445.7964518620794	39033.466503380056\\
453.0498996272777	40377.326197268805\\
460.96658977177265	41865.641519320416\\
491.73102423964895	47876.5827357675\\
519.5833183432458	53657.46575112466\\
544.4061182593528	59104.637724251676\\
566.9062616327874	64292.59239967825\\
574.3321334082477	66056.97102016816\\
585.8217164219618	68837.46561050383\\
605.8236131214694	73834.4599432977\\
623.4446837989176	78414.2581183574\\
638.9420051666971	82586.21194245468\\
644.963718758366	84243.45656183097\\
647.132735944986	84845.187298581\\
649.2031952925527	85421.93388443053\\
661.9567514355028	89028.22733692333\\
672.6743962047021	92135.49518298698\\
681.4262850222156	94727.59371839036\\
683.6262245035552	95386.7593520132\\
684.9582595282457	95787.2684935772\\
686.145897157511	96145.23889473866\\
691.7697533366493	97852.58235484656\\
695.2653459844666	98925.31707271445\\
696.0334653056939	99162.39891831976\\
696.3019106792424	99245.38209346152\\
696.4478773459186	99290.53282235458\\
696.4536900440803	99292.33124999996\\
};
\end{axis}
\end{tikzpicture}%
