%HorizontalForces_vs_GroundDistance
\begin{tikzpicture}

\begin{axis}[
width=\figurewidth,
height=\figureheight,
scaled ticks=false, tick label style={/pgf/number format/fixed},
xmin=328.3885578947157,
xmax=711.1475140357629,
xlabel={Ground Roll Distance (m)},
xmajorgrids,
ymin=-200181.8753800628,
ymax=199114.21682283128,
ylabel={Horizontal Forces (N)},
ymajorgrids,
legend style={at={(1.03,0.5)},anchor=west,draw=black,fill=white,legend cell align=left}
]

\addplot [
color=black,
solid
]
table[row sep=crcr]{
329.13048088441667	601.8573848838939\\
336.5350271316554	589.2731042956705\\
386.98285562624733	498.76018465665175\\
396.92354806225	479.9536155445817\\
406.815365071723	460.9258971680151\\
416.65862211888066	441.6826001889872\\
426.45363195744585	422.2291890009601\\
428.40687159344316	418.313766568348\\
428.42228514349415	418.2828211428605\\
428.43069429533784	418.2659379693821\\
428.4410651321276	418.2451159868083\\
428.444022447474	418.23917839344244\\
428.44557806679995	418.2360550648318\\
428.4468126010685	418.233576396319\\
428.44714343298836	-37515.04501671037\\
428.44744667581324	-37515.12561131998\\
428.4504790974936	-37515.931562126876\\
428.4808026574457	-37523.99154128376\\
428.7839725455483	-37604.6384565702\\
431.8090740202671	-38415.83488268466\\
461.3732979750217	-47015.17622667544\\
490.77622876132546	-56982.01732794446\\
517.3606243042066	-67523.77376149755\\
541.1180488448072	-78509.79934889107\\
562.1859662715092	-89832.56822044766\\
580.7276686522316	-101379.4931505995\\
596.9137907950953	-113033.39210364869\\
597.6001664604507	-113563.64424703436\\
598.381762826689	-114151.71345523084\\
605.9606490545011	-120077.89700811487\\
609.7696825226865	-123222.53846886317\\
612.4340893966137	-125495.19026569498\\
615.7365724617075	-128402.0411736982\\
616.504917395939	-129062.02567033566\\
617.204389681387	-129663.60432802065\\
623.9109390585184	-135688.81685681088\\
633.9572830055213	-145766.4215790835\\
634.2683499268969	-146090.38022851985\\
634.6988932786344	-146530.62332665367\\
638.8062113847591	-150881.6189219227\\
646.7834632159249	-160340.35628288786\\
649.0607750814488	-163391.69205842802\\
650.4987747038756	-165437.12655881752\\
651.9962659292316	-167692.92172533774\\
652.4285834392745	-168373.186475116\\
652.6972185846239	-168803.47369802964\\
652.806726738625	-168985.70497050352\\
652.9127732628856	-169175.68403176236\\
653.9194757370553	-171046.03448217164\\
657.6900951191285	-180272.28708134452\\
658.0402995055206	-181705.76054261788\\
658.2176777413747	-182623.55104307982\\
658.3400360853964	-183438.45791356807\\
658.4185539007103	-184175.59548600006\\
658.4597697718514	-184841.10324586346\\
658.4654608858468	-185015.91539524723\\
658.4690046928054	-185201.5576316481\\
658.4698891003363	-185325.5876097387\\
658.4699204034841	-185352.56653178058\\
658.4699160432363	-185353.58831487293\\
};

\addplot [
color=black,
densely dashed
]
table[row sep=crcr]{
329.13048088441667	-13068.173451530161\\
336.5350271316554	-13001.29917587014\\
386.98285562624733	-12547.730366463988\\
396.92354806225	-12458.776328578468\\
406.815365071723	-12370.397060111496\\
416.65862211888066	-12282.587615972363\\
426.45363195744585	-12195.343106770215\\
428.40687159344316	-12177.961570730695\\
428.42228514349415	-12177.82442946421\\
428.43069429533784	-12177.749609609447\\
428.4410651321276	-12177.657335932821\\
428.444022447474	-12177.631023487658\\
428.44557806679995	-12177.617182510658\\
428.4468126010685	-12177.606198360234\\
428.44714343298836	-12177.59897886377\\
428.44744667581324	-12177.592005107002\\
428.4504790974936	-12177.522267126122\\
428.4808026574457	-12176.824845998552\\
428.7839725455483	-12169.846501226311\\
431.8090740202671	-12099.64807981787\\
461.3732979750217	-11354.506749093704\\
490.77622876132546	-10487.115405395936\\
517.3606243042066	-9562.544860706745\\
541.1180488448072	-8587.670647482322\\
562.1859662715092	-7566.416187754501\\
580.7276686522316	-6502.20145176462\\
596.9137907950953	-5397.8977028910485\\
597.6001664604507	-5346.496908805533\\
598.381762826689	-5287.455112104299\\
605.9606490545011	-4684.741341298579\\
609.7696825226865	-4358.793164194816\\
612.4340893966137	-4120.352910149055\\
615.7365724617075	-3811.6262663067337\\
616.504917395939	-3769.0091402042926\\
617.204389681387	-3733.9787985990943\\
623.9109390585184	-3376.196502635664\\
633.9572830055213	-2744.6477454306587\\
634.2683499268969	-2722.7028541547925\\
634.6988932786344	-2692.04704044165\\
638.8062113847591	-2381.3194236304453\\
646.7834632159249	-1646.0516311489564\\
649.0607750814488	-1386.0168679484887\\
650.4987747038756	-1203.603864170524\\
651.9962659292316	-993.6015591632365\\
652.4285834392745	-928.23163101677\\
652.6972185846239	-886.3526535971384\\
652.806726738625	-868.9848886615193\\
652.9127732628856	-851.9945806769349\\
653.9194757370553	-681.2487969042145\\
657.6900951191285	288.77286733174765\\
658.0402995055206	468.19604891306983\\
658.2176777413747	589.3713064437961\\
658.3400360853964	701.819121424378\\
658.4185539007103	808.0744446119652\\
658.4597697718514	908.2678229544999\\
658.4654608858468	935.3329874041158\\
658.4690046928054	964.4413324355869\\
658.4698891003363	984.107196979877\\
658.4699204034841	988.4086583202964\\
658.4699160432363	988.572388177761\\
};

\addplot [
color=black,
dashdotted
]
table[row sep=crcr]{
329.13048088441667	11392.066799484066\\
336.5350271316554	11310.29025830459\\
386.98285562624733	10763.422370754997\\
396.92354806225	10657.759856672954\\
406.815365071723	10553.296227889641\\
416.65862211888066	10450.015644619358\\
426.45363195744585	10347.902511048029\\
428.40687159344316	10327.618622783779\\
428.42228514349415	10327.458660924272\\
428.43069429533784	10327.371391411783\\
428.4410651321276	10327.263764354659\\
428.444022447474	10327.233073894935\\
428.44557806679995	10327.216929995608\\
428.4468126010685	10327.204118263155\\
428.44714343298836	10327.195697565508\\
428.44744667581324	10327.187563497711\\
428.4504790974936	10327.106222514009\\
428.4808026574457	10326.292782104207\\
428.7839725455483	10318.155320945218\\
431.8090740202671	10236.475231915672\\
461.3732979750217	9389.467053435259\\
490.77622876132546	8449.560478282168\\
517.3606243042066	7502.25873306806\\
541.1180488448072	6564.400442766018\\
562.1859662715092	5649.060011673711\\
580.7276686522316	4768.307201070929\\
596.9137907950953	3933.242689517904\\
597.6001664604507	3896.3302680885954\\
598.381762826689	3854.145369385863\\
605.9606490545011	3436.6466838307915\\
609.7696825226865	3220.831870660936\\
612.4340893966137	3067.389244574065\\
615.7365724617075	2874.2787783288013\\
616.504917395939	2828.8720380289906\\
617.204389681387	2787.3671148934445\\
623.9109390585184	2381.0215759704924\\
633.9572830055213	1741.839051111443\\
634.2683499268969	1721.4212239913954\\
634.6988932786344	1693.100168009515\\
638.8062113847591	1419.2952227800724\\
646.7834632159249	867.5172476538082\\
649.0607750814488	704.7219866264215\\
650.4987747038756	600.6088977679901\\
651.9962659292316	491.04845807576896\\
652.4285834392745	459.19404461120837\\
652.6972185846239	439.34798963107085\\
652.806726738625	431.2461710165679\\
652.9127732628856	423.3933884287943\\
653.9194757370553	348.4823265959832\\
657.6900951191285	61.205169618713\\
658.0402995055206	33.84354966282602\\
658.2176777413747	19.917014665923098\\
658.3400360853964	10.27679214264704\\
658.4185539007103	4.071789713399522\\
658.4597697718514	0.8059744870545029\\
658.4654608858468	0.3542477835843416\\
658.4690046928054	0.07277688617942113\\
658.4698891003363	0.002491844539460943\\
658.4699204034841	3.350399473607493E-6\\
658.4699160432363	3.4999959597988885E-4\\
};

\addplot [
color=black,
dashed
]
table[row sep=crcr]{
329.13048088441667	1074.2492671622012\\
336.5350271316554	1101.735813269876\\
386.98285562624733	1285.5478110523386\\
396.92354806225	1321.0628563609303\\
406.815365071723	1356.1749350538398\\
416.65862211888066	1390.889371164018\\
426.45363195744585	1425.2114067212278\\
428.40687159344316	1432.0291813785661\\
428.42228514349415	1432.082947397077\\
428.43069429533784	1432.1122802282798\\
428.4410651321276	1432.1484555913544\\
428.444022447474	1432.1587711992788\\
428.44557806679995	1432.1641974502163\\
428.4468126010685	1432.1685037007583\\
428.44714343298836	39365.44829800863\\
428.44744667581324	39365.53005292927\\
428.4504790974936	39366.347606738986\\
428.4808026574457	39374.523605178096\\
428.7839725455483	39456.3296368513\\
431.8090740202671	40279.00773058686\\
461.3732979750217	48980.21592233388\\
490.77622876132546	59019.57225505823\\
517.3606243042066	69584.05988913623\\
541.1180488448072	80533.06955360738\\
562.1859662715092	91749.92439652845\\
580.7276686522316	103113.3874012932\\
596.9137907950953	114498.04711702184\\
597.6001664604507	115013.81088775129\\
598.381762826689	115585.02319794928\\
605.9606490545011	121325.99166558267\\
609.7696825226865	124360.49976239706\\
612.4340893966137	126548.15393126998\\
615.7365724617075	129339.38866167614\\
616.504917395939	130002.16277251096\\
617.204389681387	130610.2160117263\\
623.9109390585184	136683.99178347609\\
633.9572830055213	146769.2302734027\\
634.2683499268969	147091.66185868328\\
634.6988932786344	147529.5701990858\\
638.8062113847591	151843.6431227731\\
646.7834632159249	161118.89066638297\\
649.0607750814488	164072.9869397501\\
650.4987747038756	166040.12152522005\\
651.9962659292316	168195.4748264252\\
652.4285834392745	168842.22406152153\\
652.6972185846239	169250.47836199572\\
652.806726738625	169423.44368814846\\
652.9127732628856	169604.28522401047\\
653.9194757370553	171378.80095247988\\
657.6900951191285	179922.30904439406\\
658.0402995055206	181203.72094404197\\
658.2176777413747	182014.2627219701\\
658.3400360853964	182726.362000001\\
658.4185539007103	183363.4492516747\\
658.4597697718514	183932.0294484219\\
658.4654608858468	184080.22816005955\\
658.4690046928054	184237.04352232633\\
658.4698891003363	184341.4779209143\\
658.4699204034841	184364.1578701099\\
658.4699160432363	184365.01557669562\\
};
\end{axis}
\end{tikzpicture}%
