%TrajectoryAndSpeed_vs_GroundDistance
\begin{tikzpicture}

\begin{axis}[
width=\figurewidth,
height=\figureheight,
scaled ticks=false, tick label style={/pgf/number format/fixed},
xmin=0.0,
xmax=1656.7639931726235,
xlabel={Ground Distance (m)},
xmajorgrids,
ymin=-1.0,
ymax=103.10356764109919,
ylabel={ },
ymajorgrids,
legend style={at={(1.03,0.5)},anchor=west,draw=black,fill=white,legend cell align=left}
]

\addplot [
color=black,
solid
]
table[row sep=crcr]{
0.0	15.239999999999998\\
182.0175407806854	5.7008648971232105\\
206.20723490086885	4.503738581975085\\
230.39692902105236	3.4477369959849966\\
254.5866231412358	2.5327525965030873\\
278.7763172614193	1.758692290338331\\
302.9660113816027	1.1254773863010996\\
327.1557055017862	0.6330435551508344\\
351.3453996219696	0.2813407968806132\\
375.5350937421531	0.07033341531678161\\
399.7247878623366	0.0\\
400.87738764742426	0.0\\
412.3929654278579	0.0\\
496.18650686136345	0.0\\
512.8248939735029	0.0\\
529.4234898876284	0.0\\
545.982428415092	0.0\\
562.5018425991666	0.0\\
565.8009941688522	0.0\\
566.1188203412685	0.0\\
566.2960349453931	0.0\\
566.4134557040416	0.0\\
566.5036833788295	0.0\\
566.549931049211	0.0\\
566.5800841102362	0.0\\
566.6030162613074	0.0\\
566.6123495099121	0.0\\
566.614144771383	0.0\\
566.6157637682381	0.0\\
566.6319536855772	0.0\\
566.7938477376335	0.0\\
568.4122759001446	0.0\\
584.5450967009624	0.0\\
665.2161605972408	0.0\\
743.2913270039021	0.0\\
818.6179623723133	0.0\\
891.0403105105183	0.0\\
960.4003085657034	0.0\\
1026.538523686193	0.0\\
1089.2952085770385	0.0\\
1148.5114706745285	0.0\\
1204.030545772399	0.0\\
1255.699162745982	0.0\\
1303.3689816903734	0.0\\
1346.898083503646	0.0\\
1386.1524849267926	0.0\\
1421.0076495405428	0.0\\
1451.3499624638362	0.0\\
1477.0781347362017	0.0\\
1498.1045028006865	0.0\\
1514.35618928638	0.0\\
1525.776093499253	0.0\\
1532.3236836603196	0.0\\
1534.0407344190958	0.0\\
};

\addplot [
color=black,
densely dashed
]
table[row sep=crcr]{
0.0	95.46626633435109\\
182.0175407806854	95.46626633435108\\
206.20723490086885	94.24233984288503\\
230.39692902105236	93.01841335141899\\
254.5866231412358	91.79448685995294\\
278.7763172614193	90.5705603684869\\
302.9660113816027	89.34663387702085\\
327.1557055017862	88.1227073855548\\
351.3453996219696	86.89878089408876\\
375.5350937421531	85.67485440262271\\
399.7247878623366	84.45092791115673\\
400.87738764742426	84.4370362732216\\
412.3929654278579	84.29829835944628\\
496.18650686136345	83.29163754057134\\
512.8248939735029	83.09234573471514\\
529.4234898876284	82.89372491551356\\
545.982428415092	82.69577122803511\\
562.5018425991666	82.49848084637668\\
565.8009941688522	82.45910203209132\\
566.1188203412685	82.45530884467095\\
566.2960349453931	82.45319385672423\\
566.4134557040416	82.45179249727443\\
566.5036833788295	82.45071568051557\\
566.549931049211	82.45016374266626\\
566.5800841102362	82.44980388500167\\
566.6030162613074	82.44953020474165\\
566.6123495099121	82.44941881861396\\
566.614144771383	82.44939414806012\\
566.6157637682381	82.44934673031352\\
566.6319536855772	82.4488725497562\\
566.7938477376335	82.44413043504184\\
568.4122759001446	82.39667836682338\\
584.5450967009624	81.91905864454887\\
665.2161605972408	79.3982570476457\\
743.2913270039021	76.72662520543298\\
818.6179623723133	73.90067253658901\\
891.0403105105183	70.91766428597583\\
960.4003085657034	67.77574205050595\\
1026.538523686193	64.47404410936036\\
1089.2952085770385	61.012822298339955\\
1148.5114706745285	57.393551722777886\\
1204.030545772399	53.61902924776615\\
1255.699162745982	49.69345647895635\\
1303.3689816903734	45.62250289193025\\
1346.898083503646	41.413344918958146\\
1386.1524849267926	37.07467718626857\\
1421.0076495405428	32.616692727299\\
1451.3499624638362	28.05102987555297\\
1477.0781347362017	23.390684642715748\\
1498.1045028006865	18.649888670673477\\
1514.35618928638	13.8439542470458\\
1525.776093499253	8.989089312987222\\
1532.3236836603196	4.102186778406287\\
1534.0407344190958	-3.6692870963861424E-13\\
};
\end{axis}
\end{tikzpicture}%
