%TrajectoryAndSpeed_vs_GroundDistance
\begin{tikzpicture}

\begin{axis}[
width=\figurewidth,
height=\figureheight,
scaled ticks=false, tick label style={/pgf/number format/fixed},
xmin=0.0,
xmax=711.1475140357629,
xlabel={Ground Distance (m)},
xmajorgrids,
ymin=-1.0,
ymax=59.234022591483004,
ylabel={ },
ymajorgrids,
legend style={at={(1.03,0.5)},anchor=west,draw=black,fill=white,legend cell align=left}
]

\addplot [
color=black,
solid
]
table[row sep=crcr]{
0.0	15.239999999999998\\
253.25600692440025	1.9674150870014273\\
261.6040681433242	1.5542770077850037\\
269.9521293622481	1.1898422264550845\\
278.30019058117205	0.8740736291640587\\
286.648251800096	0.6069390886898418\\
294.9963130190199	0.38841144806042394\\
303.34437423794384	0.2184685067279588\\
311.69243545686777	0.09709300928170705\\
320.0404966757917	0.02427263668073465\\
328.38855789471563	0.0\\
329.13048088441667	0.0\\
336.5350271316554	0.0\\
386.98285562624733	0.0\\
396.92354806225	0.0\\
406.815365071723	0.0\\
416.65862211888066	0.0\\
426.45363195744585	0.0\\
428.40687159344316	0.0\\
428.42228514349415	0.0\\
428.43069429533784	0.0\\
428.4410651321276	0.0\\
428.444022447474	0.0\\
428.44557806679995	0.0\\
428.4468126010685	0.0\\
428.44714343298836	0.0\\
428.44744667581324	0.0\\
428.4504790974936	0.0\\
428.4808026574457	0.0\\
428.7839725455483	0.0\\
431.8090740202671	0.0\\
461.3732979750217	0.0\\
490.77622876132546	0.0\\
517.3606243042066	0.0\\
541.1180488448072	0.0\\
562.1859662715092	0.0\\
580.7276686522316	0.0\\
596.9137907950953	0.0\\
597.6001664604507	0.0\\
598.381762826689	0.0\\
605.9606490545011	0.0\\
609.7696825226865	0.0\\
612.4340893966137	0.0\\
615.7365724617075	0.0\\
616.504917395939	0.0\\
617.204389681387	0.0\\
623.9109390585184	0.0\\
633.9572830055213	0.0\\
634.2683499268969	0.0\\
634.6988932786344	0.0\\
638.8062113847591	0.0\\
646.7834632159249	0.0\\
649.0607750814488	0.0\\
650.4987747038756	0.0\\
651.9962659292316	0.0\\
652.4285834392745	0.0\\
652.6972185846239	0.0\\
652.806726738625	0.0\\
652.9127732628856	0.0\\
653.9194757370553	0.0\\
657.6900951191285	0.0\\
658.0402995055206	0.0\\
658.2176777413747	0.0\\
658.3400360853964	0.0\\
658.4185539007103	0.0\\
658.4597697718514	0.0\\
658.4654608858468	0.0\\
658.4690046928054	0.0\\
658.4698891003363	0.0\\
658.4699204034841	0.0\\
658.4699160432363	0.0\\
};

\addplot [
color=black,
densely dashed
]
table[row sep=crcr]{
0.0	54.84631721433611\\
253.25600692440025	54.84631721433611\\
261.6040681433242	54.44995719833368\\
269.9521293622481	54.053597182331245\\
278.30019058117205	53.65723716632881\\
286.648251800096	53.26087715032638\\
294.9963130190199	52.86451713432395\\
303.34437423794384	52.468157118321514\\
311.69243545686777	52.07179710231908\\
320.0404966757917	51.67543708631665\\
328.38855789471563	51.279077070314244\\
329.13048088441667	51.260597262160644\\
336.5350271316554	51.07628196960722\\
386.98285562624733	49.826179938987735\\
396.92354806225	49.58100958977856\\
406.815365071723	49.33742338921975\\
416.65862211888066	49.095407707917445\\
426.45363195744585	48.8549490699948\\
428.40687159344316	48.80704301241835\\
428.42228514349415	48.80666503101364\\
428.43069429533784	48.80645881654202\\
428.4410651321276	48.80620449678253\\
428.444022447474	48.80613197583213\\
428.44557806679995	48.806093828073514\\
428.4468126010685	48.80606355414713\\
428.44714343298836	48.80604365615811\\
428.44744667581324	48.806024435463655\\
428.4504790974936	48.805832227380336\\
428.4808026574457	48.80391003266658\\
428.7839725455483	48.78467669300734\\
431.8090740202671	48.59119956819386\\
461.3732979750217	46.53748098940447\\
490.77622876132546	44.14682348030891\\
517.3606243042066	41.5985717235794\\
541.1180488448072	38.911675693082856\\
562.1859662715092	36.096948914236464\\
580.7276686522316	33.16381732562925\\
596.9137907950953	30.120194549418017\\
597.6001664604507	29.97852643704079\\
598.381762826689	29.81579860299005\\
605.9606490545011	28.154631227409162\\
609.7696825226865	27.256270340099412\\
612.4340893966137	26.599094097856693\\
615.7365724617075	25.748198277046328\\
616.504917395939	25.54400861923336\\
617.204389681387	25.35592664048854\\
623.9109390585184	23.434951876865938\\
633.9572830055213	20.044093138813587\\
634.2683499268969	19.926268464963066\\
634.6988932786344	19.76167383530794\\
638.8062113847591	18.09334111736952\\
646.7834632159249	14.145602814505573\\
649.0607750814488	12.749445924105004\\
650.4987747038756	11.770049288867696\\
651.9962659292316	10.642522486192114\\
652.4285834392745	10.291543738260941\\
652.6972185846239	10.066690637207401\\
652.806726738625	9.973441087080793\\
652.9127732628856	9.882218147229409\\
653.9194757370553	8.965464173310359\\
657.6900951191285	3.757305026847339\\
658.0402995055206	2.793961094754555\\
658.2176777413747	2.143357042183471\\
658.3400360853964	1.5396116438245762\\
658.4185539007103	0.9691144542018089\\
658.4597697718514	0.43116455156668043\\
658.4654608858468	0.2858485354653083\\
658.4690046928054	0.1295624451608549\\
658.4698891003363	0.02397413092447019\\
658.4699204034841	8.790846494912145E-4\\
658.4699160432363	-0.008984960498864127\\
};
\end{axis}
\end{tikzpicture}%
