%VerticalForces_vs_GroundDistance
\begin{tikzpicture}

\begin{axis}[
width=\figurewidth,
height=\figureheight,
scaled ticks=false, tick label style={/pgf/number format/fixed},
xmin=328.3885578947157,
xmax=711.1475140357629,
xlabel={Ground Roll distance (m)},
xmajorgrids,
ymin=0.0,
ymax=211823.63999999996,
ylabel={Vertical Forces (N)},
ymajorgrids,
legend style={at={(1.03,0.5)},anchor=west,draw=black,fill=white,legend cell align=left}
]

\addplot [
color=black,
solid
]
table[row sep=crcr]{
329.13048088441667	153163.02931351186\\
336.5350271316554	152063.5674692049\\
386.98285562624733	144711.0875579064\\
396.92354806225	143290.4857455627\\
406.815365071723	141886.00259784632\\
416.65862211888066	140497.42515343922\\
426.45363195744585	139124.5437311508\\
428.40687159344316	138851.8327448573\\
428.42228514349415	138849.68210411683\\
428.43069429533784	138848.50879086874\\
428.4410651321276	138847.06177634577\\
428.444022447474	138846.64915202878\\
428.44557806679995	138846.43210199126\\
428.4468126010685	138846.2598519696\\
428.44714343298836	138846.14663813548\\
428.44744667581324	138846.0372779565\\
428.4504790974936	138844.94367205596\\
428.4808026574457	138834.0072020085\\
428.7839725455483	138724.601400237\\
431.8090740202671	137626.43632707145\\
461.3732979750217	126238.6573794221\\
490.77622876132546	113601.88647068277\\
517.3606243042066	100865.68964838702\\
541.1180488448072	88256.45733454937\\
562.1859662715092	75949.97109751441\\
580.7276686522316	64108.505372048225\\
596.9137907950953	52881.30555722077\\
597.6001664604507	52385.02877225091\\
598.381762826689	51817.86506172152\\
605.9606490545011	46204.71649618464\\
609.7696825226865	43303.1490161448\\
612.4340893966137	41240.15747554481\\
615.7365724617075	38643.84334546888\\
616.504917395939	38033.362910444936\\
617.204389681387	37475.34127391866\\
623.9109390585184	32012.143525439038\\
633.9572830055213	23418.52012813725\\
634.2683499268969	23144.008372829798\\
634.6988932786344	22763.24000095378\\
638.8062113847591	19082.012038503555\\
646.7834632159249	11663.517425862967\\
649.0607750814488	9474.782424943936\\
650.4987747038756	8075.012184703912\\
651.9962659292316	6602.003894676953\\
652.4285834392745	6173.730557703702\\
652.6972185846239	5906.906112747143\\
652.806726738625	5797.979514633966\\
652.9127732628856	5692.401133568093\\
653.9194757370553	4685.243665010696\\
657.6900951191285	822.8857285908787\\
658.0402995055206	455.01669541785645\\
658.2176777413747	267.7784773218308\\
658.3400360853964	138.1684854818796\\
658.4185539007103	54.74403005257231\\
658.4597697718514	10.836092884590723\\
658.4654608858468	4.7627585596524415\\
658.4690046928054	0.9784640967650944\\
658.4698891003363	0.0335021260812354\\
658.4699204034841	4.50451478050813E-5\\
658.4699160432363	0.004705642911189113\\
};

\addplot [
color=black,
densely dashed
]
table[row sep=crcr]{
329.13048088441667	196132.99999999994\\
336.5350271316554	196132.99999999994\\
386.98285562624733	196132.99999999994\\
396.92354806225	196132.99999999994\\
406.815365071723	196132.99999999994\\
416.65862211888066	196132.99999999994\\
426.45363195744585	196132.99999999994\\
428.40687159344316	196132.99999999994\\
428.42228514349415	196132.99999999994\\
428.43069429533784	196132.99999999994\\
428.4410651321276	196132.99999999994\\
428.444022447474	196132.99999999994\\
428.44557806679995	196132.99999999994\\
428.4468126010685	196132.99999999994\\
428.44714343298836	196132.99999999994\\
428.44744667581324	196132.99999999994\\
428.4504790974936	196132.99999999994\\
428.4808026574457	196132.99999999994\\
428.7839725455483	196132.99999999994\\
431.8090740202671	196132.99999999994\\
461.3732979750217	196132.99999999994\\
490.77622876132546	196132.99999999994\\
517.3606243042066	196132.99999999994\\
541.1180488448072	196132.99999999994\\
562.1859662715092	196132.99999999994\\
580.7276686522316	196132.99999999994\\
596.9137907950953	196132.99999999994\\
597.6001664604507	196132.99999999994\\
598.381762826689	196132.99999999994\\
605.9606490545011	196132.99999999994\\
609.7696825226865	196132.99999999994\\
612.4340893966137	196132.99999999994\\
615.7365724617075	196132.99999999994\\
616.504917395939	196132.99999999994\\
617.204389681387	196132.99999999994\\
623.9109390585184	196132.99999999994\\
633.9572830055213	196132.99999999994\\
634.2683499268969	196132.99999999994\\
634.6988932786344	196132.99999999994\\
638.8062113847591	196132.99999999994\\
646.7834632159249	196132.99999999994\\
649.0607750814488	196132.99999999994\\
650.4987747038756	196132.99999999994\\
651.9962659292316	196132.99999999994\\
652.4285834392745	196132.99999999994\\
652.6972185846239	196132.99999999994\\
652.806726738625	196132.99999999994\\
652.9127732628856	196132.99999999994\\
653.9194757370553	196132.99999999994\\
657.6900951191285	196132.99999999994\\
658.0402995055206	196132.99999999994\\
658.2176777413747	196132.99999999994\\
658.3400360853964	196132.99999999994\\
658.4185539007103	196132.99999999994\\
658.4597697718514	196132.99999999994\\
658.4654608858468	196132.99999999994\\
658.4690046928054	196132.99999999994\\
658.4698891003363	196132.99999999994\\
658.4699204034841	196132.99999999994\\
658.4699160432363	196132.99999999994\\
};
\end{axis}
\end{tikzpicture}%
