Ground distance, Vertical Forces
   0.000000,    0.000003
   0.000000,    0.000114
   0.000006,    0.001438
   0.000081,    0.019433
   0.000699,    0.166658
   0.003468,    0.826783
   0.009283,    2.212777
   0.017960,    4.280161
   0.029596,    7.051651
   0.044123,   10.510871
   0.061553,   14.659929
   0.081999,   19.525564
   0.105450,   25.104629
   0.131994,   31.417615
   0.161747,   38.491335
   0.194513,   46.279262
   0.230914,   54.928246
   0.270526,   64.337275
   0.313173,   74.464051
   0.359084,   85.362231
   0.408542,   97.098560
   0.461757,  109.722650
   0.519904,  123.511928
   0.581296,  138.065760
   0.646687,  153.562553
   0.715945,  169.970319
   0.788688,  187.197825
   0.864259,  205.088850
   0.945221,  224.249883
   1.029760,  244.250353
   1.119383,  265.446278
   1.212530,  287.467718
   1.312001,  310.976167
   1.414970,  335.302462
   1.525017,  361.291409
   1.639121,  388.228725
   1.758011,  416.285291
   1.884984,  446.237930
   2.015833,  477.093258
   2.152143,  509.223778
   2.294481,  542.762238
   2.441864,  577.475857
   2.593988,  613.291971
   2.754303,  651.021807
   2.916678,  689.220887
   3.087543,  729.401490
   3.262882,  770.617314
   3.447395,  813.971905
   3.636847,  858.468401
   3.836192,  905.268840
   4.040665,  953.252971
   4.250971, 1002.584609
   4.466715, 1053.170469
   4.693176, 1106.246258
   4.924425, 1160.420267
   5.163882, 1216.492648
   5.412825, 1274.760330
   5.674078, 1335.881606
   5.938114, 1397.625554
   6.212622, 1461.788679
   6.492260, 1527.121026
   6.781912, 1594.761250
   7.079639, 1664.254548
   7.383248, 1735.087258
   7.697232, 1808.305839
   8.016771, 1882.784109
   8.347162, 1959.755005
   8.685301, 2038.492711
   9.033737, 2119.588372
   9.393934, 2203.380103
   9.762446, 2289.063118
  10.142003, 2377.269982
  10.524603, 2466.139297
  10.923586, 2558.766725
  11.329340, 2652.917915
  11.749655, 2750.397549
  12.173712, 2848.693580
  12.613157, 2950.503327
  13.061504, 3054.320651
  13.518263, 3160.029683
  13.991016, 3269.381531
  14.467732, 3379.590736
  14.958757, 3493.046525
  15.456775, 3608.055526
  15.973773, 3727.382035
  16.495344, 3847.697252
  17.029105, 3970.756499
  17.574798, 4096.496194
  18.134788, 4225.457435
  18.702388, 4356.097286
  19.286740, 4490.516039
  19.885425, 4628.152286
  20.494528, 4768.102280
  21.115462, 4910.687115
  21.746890, 5055.596846
  22.390314, 5203.172587
  23.048963, 5354.150825
  23.716674, 5507.114785
  24.402398, 5664.111341
  25.107305, 5825.401259
  25.135325, 5831.810630
  25.154587, 5836.216338
  25.171818, 5840.157705
  25.185688, 5843.329981
  25.201701, 5846.992582
  25.213792, 5849.758134
  25.216352, 5850.343616
  25.219779, 5851.127449
  25.220523, 5851.297689
  25.221723, 5851.571999
  25.222112, 5851.661130
  25.222191, 5851.679136
  25.222357, 5851.717134
  25.224019, 5852.097122
  25.237170, 5855.105052
  25.296358, 5868.641712
  25.498740, 5914.921026
  26.000947, 6029.717712
  26.642256, 6176.219346
  27.302605, 6326.964422
  27.974971, 6480.343166
  28.653947, 6635.119169
  29.346020, 6792.767554
  30.053653, 6953.843632
  30.769314, 7116.628740
  31.493917, 7281.327623
  32.235460, 7449.753259
  32.986662, 7620.246487
  33.749175, 7793.178859
  34.521758, 7968.264435
  35.309010, 8146.540994
  36.110702, 8327.950575
  36.918686, 8510.645642
  37.737715, 8695.698293
  38.565372, 8882.558407
  39.411603, 9073.466086
  40.272584, 9267.552105
  41.143597, 9463.747253
  42.028225, 9662.854692
  42.927001, 9864.988372
  43.837619, 10069.624580
  44.766343, 10278.164507
  45.699879, 10487.618932
  46.644286, 10699.344640
  47.608940, 10915.436963
  48.581376, 11133.097929
  49.574219, 11355.147735
  50.577529, 11579.356298
  51.594742, 11806.486782
  52.624413, 12036.211348
  53.659619, 12266.982007
  54.722782, 12503.790142
  55.793643, 12742.115200
  56.886581, 12985.150953
  57.986542, 13229.543457
  59.097008, 13476.063553
  60.230149, 13727.405929
  61.373373, 13980.769733
  62.533107, 14237.574330
  63.705654, 14496.994653
  64.887957, 14758.349707
  66.098842, 15025.792686
  67.316009, 15294.390256
  68.552761, 15567.072540
  69.802626, 15842.405432
  71.066063, 16120.484599
  72.337267, 16400.028129
  73.633184, 16684.755533
  74.937627, 16971.102675
  76.259104, 17260.931775
  77.604494, 17555.742399
  78.964225, 17853.427563
  80.341091, 18154.592047
  81.731271, 18458.393518
  83.142511, 18766.516799
  84.561698, 19076.092473
  85.995265, 19388.519424
  87.444770, 19704.131047
  88.909104, 20022.678389
  90.400811, 20346.880412
  91.901031, 20672.629504
  93.423639, 21002.931618
  94.964104, 21336.793971
  96.517240, 21673.086210
  98.080217, 22011.190719
  99.664272, 22353.531719
 101.266676, 22699.509950
 102.891796, 23050.057898
 104.526630, 23402.363889
 104.539735, 23405.186594
 104.542737, 23405.833178
 104.543987, 23406.102587
 104.546489, 23406.641407
 104.546777, 23406.703430
 104.546938, 23406.738187
 104.547182, 23406.790810
 104.549626, 23407.317047
 104.574059, 23412.579688
 104.717274, 23443.425200
 105.202036, 23547.808371
 106.378729, 23801.029431
 107.871336, 24121.920978
 109.366606, 24443.035929
 110.882950, 24768.322627
 112.407164, 25094.940628
 113.943577, 25423.813370
 115.497772, 25756.127645
 117.071981, 26092.350099
 118.654749, 26430.026547
 120.245072, 26768.939830
 121.861354, 27113.002784
 123.485075, 27458.263836
 125.124172, 27806.404953
 126.780605, 28157.833584
 128.452606, 28512.165661
 130.136489, 28868.612826
 131.835861, 29227.931825
 133.556284, 29591.287912
 135.287735, 29956.555543
 137.033772, 30324.479076
 138.793246, 30694.808856
 140.565230, 31067.343377
 142.361784, 31444.607426
 144.164887, 31822.808191
 145.979488, 32202.980107
 147.815380, 32587.165674
 149.672591, 32975.358518
 151.547364, 33366.761546
 153.429532, 33759.246309
 155.329287, 34154.931949
 157.237444, 34551.898569
 159.171616, 34953.800790
 161.112003, 35356.515627
 163.075804, 35763.604458
 165.046358, 36171.605621
 167.036178, 36583.103319
 169.042826, 36997.583097
 171.062032, 37414.154990
 173.107959, 37835.729580
 175.162859, 38258.639567
 177.231972, 38683.957879
 179.321368, 39112.922506
 181.424434, 39544.166302
 183.537603, 39976.952177
 185.678299, 40414.837677
 187.832754, 40854.994166
 190.009434, 41299.141141
 192.198701, 41745.301983
 194.405030, 42194.380831
 196.620050, 42644.667479
 198.856798, 43098.803768
 201.111476, 43556.007219
 203.379910, 44015.422821
 205.669758, 44478.591137
 207.977134, 44944.715014
 210.306103, 45414.603992
 212.646846, 45886.267685
 214.994192, 46358.660694
 217.363102, 46834.786618
 219.756760, 47315.271157
 222.166594, 47798.381261
 224.602090, 48286.005971
 227.041404, 48773.764475
 229.496927, 49264.129736
 231.973480, 49758.054123
 234.466238, 50254.564551
 236.981575, 50754.918896
 239.508770, 51256.975185
 242.065907, 51764.313346
 244.638466, 52274.038544
 245.156938, 52376.686948
 245.494762, 52443.555378
 245.750051, 52494.079410
 245.955696, 52534.773724
 246.156817, 52574.568559
 246.360575, 52614.881011
 246.509926, 52644.426597
 246.536485, 52649.680539
 246.569959, 52656.302182
 246.609033, 52664.031405
 246.611229, 52664.465891
 246.612549, 52664.726867
 246.613518, 52664.918672
 246.614303, 52665.073907
 246.614556, 52665.123999
 246.614814, 52665.175091
 246.617397, 52665.686007
 246.639574, 52670.072795
 246.780542, 52697.955619
 247.315184, 52803.682528
 249.139642, 53164.195977
 251.404036, 53611.044693
 253.699369, 54063.328209
 256.004014, 54516.770853
 258.328686, 54973.471806
 260.655828, 55429.975301
 263.004579, 55890.028650
 265.366922, 56352.049990
 267.740256, 56815.522992
 270.131666, 57281.822586
 272.535832, 57749.901260
 274.948439, 58218.913163
 277.381395, 58691.164262
 279.827113, 59165.170981
 282.292498, 59642.261047
 284.769320, 60120.831607
 287.256506, 60600.669626
 289.758171, 61082.561572
 292.278909, 61567.381466
 294.806368, 62052.745926
 297.350989, 62540.653140
 299.915435, 63031.601356
 302.495314, 63524.737649
 305.082355, 64018.475029
 307.690629, 64515.490088
 310.309911, 65013.824130
 312.945474, 65514.472125
 315.596902, 66017.344635
 318.256757, 66521.023880
 320.932506, 67026.917164
 323.630245, 67536.164144
 326.343042, 68047.443491
 329.067365, 68560.081874
 331.802828, 69074.000546
 334.555459, 69590.323336
 337.328881, 70109.716767
 340.110638, 70629.839314
 342.912817, 71152.942388
 345.735048, 71678.942438
 348.571929, 72206.821323
 351.416009, 72735.187194
 354.278718, 73266.155882
 357.155150, 73798.807015
 360.049072, 74333.828250
 362.964475, 74871.944355
 365.884928, 75410.114822
 368.817322, 75949.605995
 371.766818, 76491.358611
 374.729592, 77034.660725
 377.712618, 77580.780681
 380.705417, 78127.790564
 383.719420, 78677.770239
 386.759157, 79231.529159
 389.800591, 79784.680717
 392.867138, 80341.475837
 395.945380, 80899.465803
 399.043014, 81460.036516
 402.157724, 82022.756487
 405.284131, 82586.645399
 408.419544, 83151.213104
 411.577222, 83718.837358
 414.764999, 84290.907130
 417.948210, 84861.194390
 421.160956, 85435.801948
 424.378335, 86010.264821
 427.616846, 86587.521867
 430.876829, 87167.619190
 434.145576, 87748.285922
 437.428615, 88330.498709
 440.728039, 88914.618958
 444.048966, 89501.540386
 447.386551, 90090.394154
 450.732892, 90679.778992
 454.108833, 91273.353681
 457.487058, 91866.305421
 460.888088, 92462.229345
 464.304706, 93059.848214
 464.990495, 93179.678566
 467.377924, 93596.517913
 467.515046, 93620.443800
 467.538661, 93624.564167
 467.548684, 93626.312915
 467.551293, 93626.768148
 467.552849, 93627.039637
 467.554620, 93627.348557
 467.572325, 93630.437768
 467.698666, 93652.480399
 468.534335, 93798.243165
 472.194187, 94435.887404
 475.641414, 95035.401890
 479.110670, 95637.689760
 482.595078, 96241.545113
 486.098418, 96847.612090
 489.616727, 97455.194675
 493.149280, 98064.159040
 496.693071, 98673.980268
 500.266628, 99287.832858
 503.847318, 99901.816943
 507.450139, 100518.495734
 511.064352, 101136.020959
 514.692557, 101754.829832
 518.341361, 102376.038525
 522.013405, 103000.081706
 525.693678, 103624.398818
 529.390924, 104250.466705
 533.101684, 104877.690529
 536.830320, 105506.798671
 540.583884, 106138.966100
 544.350946, 106772.255523
 548.132836, 107406.882443
 551.938246, 108044.293020
 555.759270, 108683.150470
 559.594637, 109323.233485
 563.445223, 109964.679796
 567.303561, 110606.240553
 571.184742, 111250.415924
 575.086347, 111896.789870
 579.001870, 112544.274227
 582.928818, 113192.450236
 586.875636, 113842.702802
 590.844468, 114495.371275
 594.826134, 115148.935321
 598.830514, 115805.005546
 602.857980, 116463.627618
 606.896590, 117122.837917
 610.951745, 117783.511157
 615.022109, 118445.420032
 619.112651, 119109.362086
 623.222789, 119775.229934
 627.351194, 120442.796442
 631.499344, 121112.288479
 635.657072, 121782.057505
 639.837451, 122454.199827
 644.029999, 123127.019761
 648.237023, 123800.881012
 652.466889, 124477.111721
 656.712596, 125154.580787
 660.980636, 125834.312120
 665.264700, 126515.288962
 669.570956, 127198.479743
 673.892541, 127882.784311
 676.160155, 128241.324808
 678.226955, 128567.799258
 682.580782, 130506.317341
 686.946938, 133834.275190
 691.344019, 137169.461080
 695.758548, 140520.682717
 700.197558, 143880.754789
 704.644708, 147250.897786
 709.105097, 150622.178038
 713.600697, 154001.346775
 718.119169, 157398.731971
 722.646755, 160804.434571
 727.198480, 164213.181672
 731.766217, 167631.834725
 736.344433, 171054.380946
 740.946719, 174480.199564
 745.564039, 177914.990274
 750.191281, 181352.527685
 754.835658, 184791.086093
 759.502489, 188235.565771
 764.175716, 191685.400909
 768.856914, 195132.096509
 773.555080, 198578.116319
 778.263018, 202026.526440
 782.988593, 205475.062114
 787.715931, 208924.299546
 792.453010, 212367.553047
 792.643139, 214810.820427
 792.899094, 214962.296212
 793.151053, 215145.902141
 793.217329, 215286.729108
 793.301442, 215338.390567
 793.321433, 215384.910796
 793.351294, 215401.477339
 793.353384, 215416.890421
 793.354241, 215418.125455
 793.355122, 215418.747800
 793.363923, 215421.120903
 793.451944, 215444.852427
 793.967135, 215602.043085
 796.012112, 216309.325205
 800.932922, 218418.084127
 805.905826, 221985.812071
 806.236681, 224529.449849
 806.566898, 224765.001531
 806.898423, 225000.444017
 807.229874, 225236.426516
 807.561840, 225472.400534
 807.893824, 225708.543566
 808.225486, 225944.536357
 808.558288, 226180.535398
 808.891287, 226417.047483
 809.224474, 226653.607305
 809.556565, 226889.926495
 809.888823, 227125.656199
 810.222823, 227361.761162
 810.556584, 227598.570137
 810.890991, 227835.309922
 811.225027, 228072.187925
 811.558493, 228308.663064
 811.893839, 228545.178250
 812.229759, 228782.638672
 812.565602, 229020.263578
 812.898568, 229257.116754
 813.232727, 229492.733849
 813.568861, 229729.267709
 813.906228, 229966.932627
 814.240510, 230204.414817
 814.576350, 230440.640390
 814.912871, 230677.669824
 815.249137, 230914.869957
 815.587293, 231152.258366
 815.924423, 231390.231452
 816.263204, 231627.964726
 816.602649, 231866.536908
 816.942211, 232105.348079
 817.282686, 232344.307859
 817.623920, 232583.765215
 817.965140, 232823.475754
 818.305496, 233062.878181
 818.647001, 233302.003581
 818.989324, 233541.750284
 819.331926, 233781.838682
 819.673757, 234021.777445
 820.017327, 234261.610718
 820.359033, 234501.756445
 820.701454, 234741.045321
 821.044816, 234980.767317
 821.390004, 235221.223107
 821.734523, 235462.289417
 822.079587, 235703.033452
 822.423887, 235943.750437
 822.769502, 236184.266862
 823.112594, 236424.740197
 823.457130, 236664.197504
 823.803423, 236904.606541
 824.150767, 237145.960612
 824.497731, 237387.607966
 824.845767, 237629.180782
 825.192354, 237870.821437
 825.541948, 238112.296444
 825.891199, 238355.002136
 826.241842, 238597.715448
 826.592505, 238840.964129
 826.943630, 239084.189019
 827.295039, 239327.561562
 827.645908, 239403.683887
 827.999299, 239480.277717
 828.349563, 239556.118980
 828.701677, 239632.285258
 829.054635, 239708.558469
 829.407189, 239784.668376
 829.762143, 239861.219330
 830.116670, 239937.601235
 830.468208, 240013.263027
 830.824009, 240089.764772
 831.180284, 240166.290476
 831.535037, 240242.411483
 831.891661, 240318.855512
 832.248324, 240395.229055
 832.605092, 240471.546465
 832.960269, 240547.444840
 833.318761, 240623.972245
 833.676508, 240700.260721
 834.035569, 240776.749032
 834.392862, 240852.780824
 834.753261, 240929.392837
 835.114144, 241006.025905
 835.474406, 241082.445725
 835.834996, 241158.853418
 836.196586, 241235.390819
 836.557140, 241311.626917
 836.918014, 241387.848286
 837.280459, 241464.318650
 837.643742, 241540.882521
 838.005706, 241617.084800
 838.368911, 241693.464959
 838.733942, 241770.144363
 839.098750, 241846.692084
 839.464945, 241923.445533
 839.829376, 241999.744010
 840.195898, 242076.394662
 840.562416, 242152.958259
 840.929494, 242229.552475
 841.297076, 242306.164944
 841.664141, 242382.582758
 842.031536, 242458.982448
 842.400603, 242535.641931
 842.770595, 242612.405197
 843.141760, 242689.322699
 843.511769, 242765.911648
 843.882689, 242842.599901
 844.254771, 242919.438529
 844.627622, 242996.345450
 845.001863, 243073.447633
 845.375418, 243150.317513
 845.749667, 243227.238521
 846.124187, 243304.123198
 846.499161, 243381.008982
 846.874047, 243457.784357
 847.249101, 243534.501488
 847.625681, 243611.437594
 848.002908, 243688.411853
 848.380154, 243765.296163
 848.756866, 243841.977404
 849.136393, 243919.136583
 849.516274, 243996.271944
 849.896483, 244073.377947
 850.274475, 244149.938758
 850.651819, 244226.273396
 851.033687, 244303.426388
 851.415841, 244380.539718
 851.797365, 244457.428327
 852.179981, 244534.438792
 852.564766, 244611.786901
 852.950007, 244689.126929
 853.334789, 244766.275085
 853.719457, 244843.300558
 854.104943, 244920.389766
 854.492253, 244997.742296
 854.879276, 245074.936210
 855.267379, 245152.243663
 855.656270, 245229.605318
 856.044594, 245306.751844
 856.435740, 245384.355071
 856.825734, 245461.625940
 857.216260, 245538.898142
 857.313734, 245558.168861
 857.607364, 245616.180270
 858.000336, 245693.726129
 858.393600, 245771.223588
 858.785537, 245848.354124
 859.179128, 245925.703785
 859.572171, 246002.839398
 859.967117, 246080.241228
 860.362796, 246157.678780
 860.760255, 246235.355840
 861.157309, 246312.844711
 861.558207, 246390.972893
 861.956036, 246468.392935
 862.355882, 246546.094499
 862.756088, 246623.754879
 863.157061, 246701.452219
 863.557516, 246778.937259
 863.960706, 246856.838339
 864.359707, 246933.818304
 864.764125, 247011.729592
 865.166178, 247089.071576
 865.570859, 247166.804650
 865.974751, 247244.271269
 866.382404, 247322.342946
 866.790407, 247400.364451
 867.198303, 247478.248077
 867.607160, 247556.197387
 868.016387, 247634.098794
 868.428370, 247712.404904
 868.841258, 247790.762330
 869.252705, 247868.726039
 869.664291, 247946.595579
 870.079102, 248024.953135
 870.490432, 248102.532277
 870.904933, 248180.587207
 871.319475, 248258.527011
 871.736259, 248336.764483
 872.152709, 248414.815037
 872.571378, 248493.156221
 872.988585, 248571.098350
 873.407026, 248649.145544
 873.828325, 248727.598308
 874.249166, 248805.838052
 874.669900, 248883.930227
 875.092793, 248962.294368
 875.514340, 249040.280111
 875.936788, 249118.303385
 876.359515, 249196.248888
 876.785346, 249274.635297
 877.212719, 249353.173185
 877.638508, 249431.287620
 878.065822, 249509.549093
 878.494814, 249587.983791
 878.926131, 249666.708174
 879.355284, 249744.902428
 879.786560, 249823.347619
 880.217856, 249901.660037
 880.650605, 249980.099177
 881.082838, 250058.307338
 881.518686, 250137.030260
 881.953170, 250215.367641
 882.388135, 250293.652303
 882.827019, 250372.500607
 883.262775, 250450.646185
 883.702141, 250529.296771
 884.142207, 250607.929156
 884.583542, 250686.644104
 885.024929, 250765.223497
 885.466250, 250843.646462
 885.907722, 250921.950913
 886.350292, 251000.304398
 886.794035, 251078.718872
 887.241563, 251157.653080
 887.687342, 251236.129920
 888.137453, 251315.218404
 888.584883, 251393.685234
 889.034499, 251472.384004
 889.483631, 251550.846206
 889.935720, 251629.671892
 890.388675, 251708.494159
 890.839060, 251786.715877
 891.289848, 251864.854148
 891.742976, 251943.243240
 892.194337, 252021.172128
 892.652820, 252100.172711
 893.108670, 252178.561641
 893.566714, 252257.168704
 894.025099, 252335.674895
 894.487541, 252414.713667
 894.951755, 252493.891552
 895.414974, 252572.735972
 895.874008, 252650.706325
 896.338777, 252729.486778
 896.803065, 252808.020626
 897.269913, 252886.821023
 897.733999, 252964.989557
 898.199581, 253043.243830
 898.670297, 253122.191647
 899.136172, 253200.159832
 899.608136, 253278.976449
 900.078317, 253357.324472
 900.550524, 253435.838454
 901.025698, 253514.671737
 901.499913, 253593.171808
 901.976972, 253671.966984
 902.455443, 253750.818057
 902.932880, 253829.321625
 903.412175, 253907.952617
 903.893436, 253986.726197
 904.375710, 254065.484794
 904.858117, 254144.083821
 905.341414, 254222.645661
 905.825655, 254301.177943
 906.307963, 254379.214558
 906.792044, 254457.354981
 907.275054, 254535.139356
 907.764509, 254613.775022
 908.252413, 254691.974335
 908.739848, 254769.911610
 909.230884, 254848.235667
 909.718306, 254925.795376
 910.208872, 255003.666292
 910.701236, 255081.631518
 911.194743, 255159.585605
 911.690610, 255237.718387
 912.183854, 255315.244775
 912.678655, 255392.822333
 913.173923, 255470.278378
 913.673358, 255548.188909
 914.173322, 255625.983496
 914.673550, 255703.619941
 915.179006, 255781.865371
 915.683997, 255859.835435
 916.188370, 255937.507050
 916.693425, 256015.079779
 917.197598, 256092.313869
 917.704768, 256169.801591
 918.213165, 256247.269916
 918.723747, 256324.862633
 919.234283, 256402.239082
 919.745399, 256479.493572
 920.258433, 256556.826558
 920.771740, 256633.988735
 921.286737, 256711.191560
 921.808078, 256789.127418
 922.324138, 256866.057621
 922.842956, 256943.182025
 923.360616, 257019.917122
 923.880403, 257096.749235
 924.399356, 257173.239622
 924.923949, 257250.339206
 925.445867, 257326.823883
 925.972403, 257403.760739
 926.497827, 257480.310422
 927.022257, 257556.491007
 927.553174, 257633.385685
 928.082439, 257709.812052
 928.615170, 257786.507903
 929.142353, 257862.176514
 929.669570, 257937.622809
 930.199181, 258013.182314
 930.727988, 258088.397835
 931.265367, 258164.597570
 931.802384, 258240.508990
 932.337279, 258315.884864
 932.870322, 258390.765670
 933.408978, 258466.197234
 933.952512, 258542.069578
 934.494651, 258617.504434
 935.036756, 258692.691957
 935.578429, 258767.576888
 936.122733, 258842.581256
 936.668893, 258917.594826
 937.210190, 258991.696610
 937.755543, 259066.108080
 938.301797, 259140.394915
 938.853365, 259215.152987
 939.401540, 259289.200594
 939.951147, 259363.190561
 940.506242, 259437.664171
 941.056927, 259511.292158
 941.611036, 259585.122764
 942.164136, 259658.563177
 942.721136, 259732.263218
 943.279062, 259805.825662
 943.836490, 259879.062150
 944.397389, 259952.492122
 944.955884, 260025.345152
 945.516172, 260098.169250
 946.076851, 260170.780213
 946.636561, 260243.002178
 947.200212, 260315.466328
 947.761325, 260387.338645
 948.328218, 260459.682078
 948.899542, 260532.316709
 949.467815, 260604.290221
 950.036504, 260676.043563
 950.607997, 260747.875233
 951.178154, 260819.263817
 951.748932, 260890.454446
 952.321689, 260961.614552
 952.894253, 261032.472771
 953.468456, 261103.254454
 954.036535, 261173.005821
 954.610039, 261243.145142
 955.188737, 261313.636199
 955.762027, 261383.187438
 956.343323, 261453.424300
 956.926953, 261523.653446
 957.506950, 261593.157641
 958.089281, 261662.652707
 958.671177, 261731.806582
 959.254097, 261800.791911
 959.840943, 261869.948349
 960.426181, 261938.621598
 961.015847, 262007.517855
 961.598091, 262075.254497
 962.185732, 262143.324028
 962.777821, 262211.609159
 963.366047, 262279.150462
 963.956071, 262346.599462
 964.549300, 262414.112955
 965.141692, 262481.228848
 965.735435, 262548.194605
 966.330756, 262615.033177
 966.928131, 262681.795027
 967.521810, 262747.838812
 968.117845, 262813.838400
 968.712985, 262879.432416
 969.309653, 262944.887523
 969.910094, 263010.445389
 970.509475, 263075.576187
 971.112830, 263140.824336
 971.714277, 263205.552018
 972.316663, 263270.066231
 972.919621, 263334.326127
 973.527303, 263398.769930
 974.134409, 263462.832170
 974.744648, 263526.901873
 975.356137, 263590.777632
 975.966504, 263654.211509
 976.581516, 263717.799633
 977.199943, 263781.408389
 977.819353, 263844.783713
 978.432003, 263907.137883
 979.043925, 263969.090647
 979.667866, 264031.923274
 980.285347, 264093.770074
 980.900476, 264155.049590
 981.517911, 264216.225587
 982.132529, 264276.790786
 982.748605, 264337.167257
 983.373846, 264398.101647
 983.993658, 264458.168149
 984.616662, 264518.204146
 985.234317, 264577.388058
 985.862233, 264637.211370
 986.490554, 264696.726163
 987.115172, 264755.545785
 987.736511, 264813.715851
 988.358319, 264871.589280
 988.987877, 264929.836889
 989.612720, 264987.302541
 990.244768, 265045.080447
 990.873834, 265102.235509
 991.506753, 265159.387877
 992.139798, 265216.197534
 992.767273, 265272.157608
 993.393892, 265327.693835
 994.029562, 265383.677129
 994.663437, 265439.146090
 995.302882, 265494.741737
 995.934763, 265549.323805
 996.576569, 265604.400727
 997.210255, 265658.422350
 997.850668, 265712.655264
 998.488917, 265766.342590
 999.122395, 265819.270707
 999.762229, 265872.367846
1000.399394, 265924.881810
1001.042265, 265977.499960
1001.679256, 266029.274067
1002.318896, 266080.899971
1002.959184, 266132.213191
1003.604742, 266183.578873
1004.248075, 266234.397851
1004.894921, 266285.122253
1005.538273, 266335.202344
1006.190313, 266385.581760
1006.832135, 266434.800920
1007.473391, 266483.609169
1008.119030, 266532.379790
1008.771666, 266581.300126
1009.424936, 266629.886573
1010.068713, 266677.393374
1010.719465, 266725.037927
1011.376823, 266772.781173
1012.029079, 266819.771283
1012.684650, 266866.616147
1013.337218, 266912.863836
1013.986888, 266958.526782
1014.645253, 267004.414722
1015.300441, 267049.695045
1015.958363, 267094.776659
1016.617797, 267139.571812
1017.279458, 267184.125764
1017.943456, 267228.441617
1018.603081, 267272.073240
1019.269732, 267315.772154
1019.927122, 267358.472629
1020.587314, 267400.963803
1021.247711, 267443.075832
1021.907759, 267484.773264
1022.573135, 267526.410304
1023.235997, 267567.493542
1023.898553, 267608.162193
1024.058882, 267617.944003
