Ground distance, Vertical Forces
   0.000000,    0.000000
   0.000000,    0.000000
   0.000006,    0.000000
   0.000081,    0.000000
   0.000699,    0.000000
   0.003468,    0.000000
   0.009283,    0.000000
   0.017960,    0.000000
   0.029596,    0.000000
   0.044123,    0.000000
   0.061553,    0.000000
   0.081999,    0.000000
   0.105450,    0.000000
   0.131994,    0.000000
   0.161747,    0.000000
   0.194513,    0.000000
   0.230914,    0.000000
   0.270526,    0.000000
   0.313173,    0.000000
   0.359084,    0.000000
   0.408542,    0.000000
   0.461757,    0.000000
   0.519904,    0.000000
   0.581296,    0.000000
   0.646687,    0.000000
   0.715945,    0.000000
   0.788688,    0.000000
   0.864259,    0.000000
   0.945221,    0.000000
   1.029760,    0.000000
   1.119383,    0.000000
   1.212530,    0.000000
   1.312001,    0.000000
   1.414970,    0.000000
   1.525017,    0.000000
   1.639121,    0.000000
   1.758011,    0.000000
   1.884984,    0.000000
   2.015833,    0.000000
   2.152143,    0.000000
   2.294481,    0.000000
   2.441864,    0.000000
   2.593988,    0.000000
   2.754303,    0.000000
   2.916678,    0.000000
   3.087543,    0.000000
   3.262882,    0.000000
   3.447395,    0.000000
   3.636847,    0.000000
   3.836192,    0.000000
   4.040665,    0.000000
   4.250971,    0.000000
   4.466715,    0.000000
   4.693176,    0.000000
   4.924425,    0.000000
   5.163882,    0.000000
   5.412825,    0.000000
   5.674078,    0.000000
   5.938114,    0.000000
   6.212622,    0.000000
   6.492260,    0.000000
   6.781912,    0.000000
   7.079639,    0.000000
   7.383248,    0.000000
   7.697232,    0.000000
   8.016771,    0.000000
   8.347162,    0.000000
   8.685301,    0.000000
   9.033737,    0.000000
   9.393934,    0.000000
   9.762446,    0.000000
  10.142003,    0.000000
  10.524603,    0.000000
  10.923586,    0.000000
  11.329340,    0.000000
  11.749655,    0.000000
  12.173712,    0.000000
  12.613157,    0.000000
  13.061504,    0.000000
  13.518263,    0.000000
  13.991016,    0.000000
  14.467732,    0.000000
  14.958757,    0.000000
  15.456775,    0.000000
  15.973773,    0.000000
  16.495344,    0.000000
  17.029105,    0.000000
  17.574798,    0.000000
  18.134788,    0.000000
  18.702388,    0.000000
  19.286740,    0.000000
  19.885425,    0.000000
  20.494528,    0.000000
  21.115462,    0.000000
  21.746890,    0.000000
  22.390314,    0.000000
  23.048963,    0.000000
  23.716674,    0.000000
  24.402398,    0.000000
  25.107305,    0.000000
  25.135325,    0.000000
  25.154587,    0.000000
  25.171818,    0.000000
  25.185688,    0.000000
  25.201701,    0.000000
  25.213792,    0.000000
  25.216352,    0.000000
  25.219779,    0.000000
  25.220523,    0.000000
  25.221723,    0.000000
  25.222112,    0.000000
  25.222191,    0.000000
  25.222357,    0.000000
  25.224019,    0.000000
  25.237170,    0.000000
  25.296358,    0.000000
  25.498740,    0.000000
  26.000947,    0.000000
  26.642256,    0.000000
  27.302605,    0.000000
  27.974971,    0.000000
  28.653947,    0.000000
  29.346020,    0.000000
  30.053653,    0.000000
  30.769314,    0.000000
  31.493917,    0.000000
  32.235460,    0.000000
  32.986662,    0.000000
  33.749175,    0.000000
  34.521758,    0.000000
  35.309010,    0.000000
  36.110702,    0.000000
  36.918686,    0.000000
  37.737715,    0.000000
  38.565372,    0.000000
  39.411603,    0.000000
  40.272584,    0.000000
  41.143597,    0.000000
  42.028225,    0.000000
  42.927001,    0.000000
  43.837619,    0.000000
  44.766343,    0.000000
  45.699879,    0.000000
  46.644286,    0.000000
  47.608940,    0.000000
  48.581376,    0.000000
  49.574219,    0.000000
  50.577529,    0.000000
  51.594742,    0.000000
  52.624413,    0.000000
  53.659619,    0.000000
  54.722782,    0.000000
  55.793643,    0.000000
  56.886581,    0.000000
  57.986542,    0.000000
  59.097008,    0.000000
  60.230149,    0.000000
  61.373373,    0.000000
  62.533107,    0.000000
  63.705654,    0.000000
  64.887957,    0.000000
  66.098842,    0.000000
  67.316009,    0.000000
  68.552761,    0.000000
  69.802626,    0.000000
  71.066063,    0.000000
  72.337267,    0.000000
  73.633184,    0.000000
  74.937627,    0.000000
  76.259104,    0.000000
  77.604494,    0.000000
  78.964225,    0.000000
  80.341091,    0.000000
  81.731271,    0.000000
  83.142511,    0.000000
  84.561698,    0.000000
  85.995265,    0.000000
  87.444770,    0.000000
  88.909104,    0.000000
  90.400811,    0.000000
  91.901031,    0.000000
  93.423639,    0.000000
  94.964104,    0.000000
  96.517240,    0.000000
  98.080217,    0.000000
  99.664272,    0.000000
 101.266676,    0.000000
 102.891796,    0.000000
 104.526630,    0.000000
 104.539735,    0.000000
 104.542737,    0.000000
 104.543987,    0.000000
 104.546489,    0.000000
 104.546777,    0.000000
 104.546938,    0.000000
 104.547182,    0.000000
 104.549626,    0.000000
 104.574059,    0.000000
 104.717274,    0.000000
 105.202036,    0.000000
 106.378729,    0.000000
 107.871336,    0.000000
 109.366606,    0.000000
 110.882950,    0.000000
 112.407164,    0.000000
 113.943577,    0.000000
 115.497772,    0.000000
 117.071981,    0.000000
 118.654749,    0.000000
 120.245072,    0.000000
 121.861354,    0.000000
 123.485075,    0.000000
 125.124172,    0.000000
 126.780605,    0.000000
 128.452606,    0.000000
 130.136489,    0.000000
 131.835861,    0.000000
 133.556284,    0.000000
 135.287735,    0.000000
 137.033772,    0.000000
 138.793246,    0.000000
 140.565230,    0.000000
 142.361784,    0.000000
 144.164887,    0.000000
 145.979488,    0.000000
 147.815380,    0.000000
 149.672591,    0.000000
 151.547364,    0.000000
 153.429532,    0.000000
 155.329287,    0.000000
 157.237444,    0.000000
 159.171616,    0.000000
 161.112003,    0.000000
 163.075804,    0.000000
 165.046358,    0.000000
 167.036178,    0.000000
 169.042826,    0.000000
 171.062032,    0.000000
 173.107959,    0.000000
 175.162859,    0.000000
 177.231972,    0.000000
 179.321368,    0.000000
 181.424434,    0.000000
 183.537603,    0.000000
 185.678299,    0.000000
 187.832754,    0.000000
 190.009434,    0.000000
 192.198701,    0.000000
 194.405030,    0.000000
 196.620050,    0.000000
 198.856798,    0.000000
 201.111476,    0.000000
 203.379910,    0.000000
 205.669758,    0.000000
 207.977134,    0.000000
 210.306103,    0.000000
 212.646846,    0.000000
 214.994192,    0.000000
 217.363102,    0.000000
 219.756760,    0.000000
 222.166594,    0.000000
 224.602090,    0.000000
 227.041404,    0.000000
 229.496927,    0.000000
 231.973480,    0.000000
 234.466238,    0.000000
 236.981575,    0.000000
 239.508770,    0.000000
 242.065907,    0.000000
 244.638466,    0.000000
 245.156938,    0.000000
 245.494762,    0.000000
 245.750051,    0.000000
 245.955696,    0.000000
 246.156817,    0.000000
 246.360575,    0.000000
 246.509926,    0.000000
 246.536485,    0.000000
 246.569959,    0.000000
 246.609033,    0.000000
 246.611229,    0.000000
 246.612549,    0.000000
 246.613518,    0.000000
 246.614303,    0.000000
 246.614556,    0.000000
 246.614814,    0.000000
 246.617397,    0.000000
 246.639574,    0.000000
 246.780542,    0.000000
 247.315184,    0.000000
 249.139642,    0.000000
 251.404036,    0.000000
 253.699369,    0.000000
 256.004014,    0.000000
 258.328686,    0.000000
 260.655828,    0.000000
 263.004579,    0.000000
 265.366922,    0.000000
 267.740256,    0.000000
 270.131666,    0.000000
 272.535832,    0.000000
 274.948439,    0.000000
 277.381395,    0.000000
 279.827113,    0.000000
 282.292498,    0.000000
 284.769320,    0.000000
 287.256506,    0.000000
 289.758171,    0.000000
 292.278909,    0.000000
 294.806368,    0.000000
 297.350989,    0.000000
 299.915435,    0.000000
 302.495314,    0.000000
 305.082355,    0.000000
 307.690629,    0.000000
 310.309911,    0.000000
 312.945474,    0.000000
 315.596902,    0.000000
 318.256757,    0.000000
 320.932506,    0.000000
 323.630245,    0.000000
 326.343042,    0.000000
 329.067365,    0.000000
 331.802828,    0.000000
 334.555459,    0.000000
 337.328881,    0.000000
 340.110638,    0.000000
 342.912817,    0.000000
 345.735048,    0.000000
 348.571929,    0.000000
 351.416009,    0.000000
 354.278718,    0.000000
 357.155150,    0.000000
 360.049072,    0.000000
 362.964475,    0.000000
 365.884928,    0.000000
 368.817322,    0.000000
 371.766818,    0.000000
 374.729592,    0.000000
 377.712618,    0.000000
 380.705417,    0.000000
 383.719420,    0.000000
 386.759157,    0.000000
 389.800591,    0.000000
 392.867138,    0.000000
 395.945380,    0.000000
 399.043014,    0.000000
 402.157724,    0.000000
 405.284131,    0.000000
 408.419544,    0.000000
 411.577222,    0.000000
 414.764999,    0.000000
 417.948210,    0.000000
 421.160956,    0.000000
 424.378335,    0.000000
 427.616846,    0.000000
 430.876829,    0.000000
 434.145576,    0.000000
 437.428615,    0.000000
 440.728039,    0.000000
 444.048966,    0.000000
 447.386551,    0.000000
 450.732892,    0.000000
 454.108833,    0.000000
 457.487058,    0.000000
 460.888088,    0.000000
 464.304706,    0.000000
 464.990495,    0.000000
 467.377924,    0.000000
 467.515046,    0.000000
 467.538661,    0.000000
 467.548684,    0.000000
 467.551293,    0.000000
 467.552849,    0.000000
 467.554620,    0.000000
 467.572325,    0.000000
 467.698666,    0.000000
 468.534335,    0.000000
 472.194187,    0.000000
 475.641414,    0.000000
 479.110670,    0.000000
 482.595078,    0.000000
 486.098418,    0.000000
 489.616727,    0.000000
 493.149280,    0.000000
 496.693071,    0.000000
 500.266628,    0.000000
 503.847318,    0.000000
 507.450139,    0.000000
 511.064352,    0.000000
 514.692557,    0.000000
 518.341361,    0.000000
 522.013405,    0.000000
 525.693678,    0.000000
 529.390924,    0.000000
 533.101684,    0.000000
 536.830320,    0.000000
 540.583884,    0.000000
 544.350946,    0.000000
 548.132836,    0.000000
 551.938246,    0.000000
 555.759270,    0.000000
 559.594637,    0.000000
 563.445223,    0.000000
 567.303561,    0.000000
 571.184742,    0.000000
 575.086347,    0.000000
 579.001870,    0.000000
 582.928818,    0.000000
 586.875636,    0.000000
 590.844468,    0.000000
 594.826134,    0.000000
 598.830514,    0.000000
 602.857980,    0.000000
 606.896590,    0.000000
 610.951745,    0.000000
 615.022109,    0.000000
 619.112651,    0.000000
 623.222789,    0.000000
 627.351194,    0.000000
 631.499344,    0.000000
 635.657072,    0.000000
 639.837451,    0.000000
 644.029999,    0.000000
 648.237023,    0.000000
 652.466889,    0.000000
 656.712596,    0.000000
 660.980636,    0.000000
 665.264700,    0.000000
 669.570956,    0.000000
 673.892541,    0.000000
 676.160155,    0.000000
 678.226955,    0.000000
 682.580782,   97.035013
 686.946938,  299.700416
 691.344019,  499.903108
 695.758548,  698.508142
 700.197558,  894.900474
 704.644708, 1089.408160
 709.105097, 1281.322455
 713.600697, 1470.883698
 718.119169, 1659.045924
 722.646755, 1845.285728
 727.198480, 2029.035334
 731.766217, 2210.938196
 736.344433, 2390.678601
 740.946719, 2568.046891
 745.564039, 2743.605483
 750.191281, 2917.017986
 754.835658, 3088.106326
 759.502489, 3257.162290
 764.175716, 3424.414052
 768.856914, 3589.287532
 773.555080, 3751.864062
 778.263018, 3912.500036
 782.988593, 4070.953419
 787.715931, 4227.541016
 792.453010, 4381.733242
 792.643139, 4539.939469
 792.899094, 4545.884492
 793.151053, 4554.006745
 793.217329, 4562.240439
 793.301442, 4564.314926
 793.321433, 4567.064204
 793.351294, 4567.683574
 793.353384, 4568.666072
 793.354241, 4568.733919
 793.355122, 4568.761098
 793.363923, 4568.779191
 793.451944, 4568.960119
 793.967135, 4571.223058
 796.012112, 4585.661117
 800.932922, 4646.732042
 805.905826, 4800.952701
 806.236681, 4960.589342
 806.566898, 4970.678761
 806.898423, 4980.735728
 807.229874, 4990.823840
 807.561840, 5000.898479
 807.893824, 5010.978917
 808.225486, 5021.049851
 808.558288, 5031.098640
 808.891287, 5041.172767
 809.224474, 5051.242360
 809.556565, 5061.308850
 809.888823, 5071.330147
 810.222823, 5081.343989
 810.556584, 5091.402546
 810.890991, 5101.442254
 811.225027, 5111.492330
 811.558493, 5121.521111
 811.893839, 5131.519096
 812.229759, 5141.564762
 812.565602, 5151.618069
 812.898568, 5161.662374
 813.232727, 5171.604823
 813.568861, 5181.571574
 813.906228, 5191.587860
 814.240510, 5201.636286
 814.576350, 5211.576249
 814.912871, 5221.553418
 815.249137, 5231.541731
 815.587293, 5241.509212
 815.924423, 5251.526301
 816.263204, 5261.498954
 816.602649, 5271.511433
 816.942211, 5281.533825
 817.282686, 5291.548181
 817.623920, 5301.579157
 817.965140, 5311.623079
 818.305496, 5321.657281
 818.647001, 5331.652851
 818.989324, 5341.672198
 819.331926, 5351.705807
 819.673757, 5361.738546
 820.017327, 5371.734790
 820.359033, 5381.776392
 820.701454, 5391.749539
 821.044816, 5401.732861
 821.390004, 5411.732001
 821.734523, 5421.777236
 822.079587, 5431.790862
 822.423887, 5441.811642
 822.769502, 5451.796918
 823.112594, 5461.815212
 823.457130, 5471.744530
 823.803423, 5481.704871
 824.150767, 5491.706582
 824.497731, 5501.730114
 824.845767, 5511.730252
 825.192354, 5521.754266
 825.541948, 5531.719932
 825.891199, 5541.766281
 826.241842, 5551.789823
 826.592505, 5561.844686
 826.943630, 5571.888920
 827.295039, 5581.936105
 827.645908, 5581.449480
 827.999299, 5580.959914
 828.349563, 5580.475231
 828.701677, 5579.988543
 829.054635, 5579.501245
 829.407189, 5579.015062
 829.762143, 5578.526136
 830.116670, 5578.038362
 830.468208, 5577.555259
 830.824009, 5577.066865
 831.180284, 5576.578391
 831.535037, 5576.092573
 831.891661, 5575.604766
 832.248324, 5575.117481
 832.605092, 5574.630627
 832.960269, 5574.146517
 833.318761, 5573.658468
 833.676508, 5573.172015
 834.035569, 5572.684360
 834.392862, 5572.199687
 834.753261, 5571.711388
 835.114144, 5571.223027
 835.474406, 5570.736097
 835.834996, 5570.249317
 836.196586, 5569.761783
 836.557140, 5569.276239
 836.918014, 5568.790861
 837.280459, 5568.303969
 837.643742, 5567.816553
 838.005706, 5567.331511
 838.368911, 5566.845409
 838.733942, 5566.357473
 839.098750, 5565.870447
 839.464945, 5565.382185
 839.829376, 5564.896888
 840.195898, 5564.409422
 840.562416, 5563.922582
 840.929494, 5563.435619
 841.297076, 5562.948611
 841.664141, 5562.462911
 842.031536, 5561.977398
 842.400603, 5561.490305
 842.770595, 5561.002624
 843.141760, 5560.514035
 843.511769, 5560.027604
 843.882689, 5559.540614
 844.254771, 5559.052740
 844.627622, 5558.564504
 845.001863, 5558.075100
 845.375418, 5557.587241
 845.749667, 5557.099130
 846.124187, 5556.611320
 846.499161, 5556.123575
 846.874047, 5555.636600
 847.249101, 5555.150066
 847.625681, 5554.662214
 848.002908, 5554.174191
 848.380154, 5553.686809
 848.756866, 5553.200785
 849.136393, 5552.711803
 849.516274, 5552.223042
 849.896483, 5551.734539
 850.274475, 5551.249559
 850.651819, 5550.766082
 851.033687, 5550.277492
 851.415841, 5549.789224
 851.797365, 5549.302449
 852.179981, 5548.814973
 852.564766, 5548.325430
 852.950007, 5547.836010
 853.334789, 5547.347874
 853.719457, 5546.860584
 854.104943, 5546.372961
 854.492253, 5545.883743
 854.879276, 5545.395599
 855.267379, 5544.906807
 855.656270, 5544.417742
 856.044594, 5543.930107
 856.435740, 5543.439656
 856.825734, 5542.951376
 857.216260, 5542.463157
 857.313734, 5542.341412
 857.607364, 5541.974945
 858.000336, 5541.485138
 858.393600, 5540.995706
 858.785537, 5540.508661
 859.179128, 5540.020302
 859.572171, 5539.533364
 859.967117, 5539.044814
 860.362796, 5538.556109
 860.760255, 5538.065962
 861.157309, 5537.577072
 861.558207, 5537.084219
 861.956036, 5536.595903
 862.355882, 5536.105880
 862.756088, 5535.616187
 863.157061, 5535.126331
 863.557516, 5534.637882
 863.960706, 5534.146880
 864.359707, 5533.661752
 864.764125, 5533.170824
 865.166178, 5532.683552
 865.570859, 5532.193886
 865.974751, 5531.705966
 866.382404, 5531.214305
 866.790407, 5530.723029
 867.198303, 5530.232690
 867.607160, 5529.742008
 868.016387, 5529.251695
 868.428370, 5528.758905
 868.841258, 5528.265861
 869.252705, 5527.775364
 869.664291, 5527.285528
 870.079102, 5526.792691
 870.490432, 5526.304819
 870.904933, 5525.814022
 871.319475, 5525.324018
 871.736259, 5524.832211
 872.152709, 5524.341648
 872.571378, 5523.849326
 872.988585, 5523.359581
 873.407026, 5522.869243
 873.828325, 5522.376426
 874.249166, 5521.885016
 874.669900, 5521.394600
 875.092793, 5520.902545
 875.514340, 5520.412933
 875.936788, 5519.923153
 876.359515, 5519.433929
 876.785346, 5518.942005
 877.212719, 5518.449199
 877.638508, 5517.959117
 878.065822, 5517.468180
 878.494814, 5516.976224
 878.926131, 5516.482519
 879.355284, 5515.992206
 879.786560, 5515.500387
 880.217856, 5515.009467
 880.650605, 5514.517820
 881.082838, 5514.027688
 881.518686, 5513.534397
 881.953170, 5513.043589
 882.388135, 5512.553177
 882.827019, 5512.059302
 883.262775, 5511.569895
 883.702141, 5511.077392
 884.142207, 5510.585069
 884.583542, 5510.092296
 885.024929, 5509.600439
 885.466250, 5509.109626
 885.907722, 5508.619621
 886.350292, 5508.129376
 886.794035, 5507.638814
 887.241563, 5507.145067
 887.687342, 5506.654246
 888.137453, 5506.159667
 888.584883, 5505.669041
 889.034499, 5505.177030
 889.483631, 5504.686563
 889.935720, 5504.193890
 890.388675, 5503.701303
 890.839060, 5503.212534
 891.289848, 5502.724351
 891.742976, 5502.234665
 892.194337, 5501.747918
 892.652820, 5501.254542
 893.108670, 5500.765050
 893.566714, 5500.274260
 894.025099, 5499.784164
 894.487541, 5499.290808
 894.951755, 5498.796648
 895.414974, 5498.304634
 895.874008, 5497.818137
 896.338777, 5497.326650
 896.803065, 5496.836764
 897.269913, 5496.345279
 897.733999, 5495.857798
 898.199581, 5495.369845
 898.670297, 5494.877630
 899.136172, 5494.391586
 899.608136, 5493.900315
 900.078317, 5493.412027
 900.550524, 5492.922767
 901.025698, 5492.431580
 901.499913, 5491.942531
 901.976972, 5491.451705
 902.455443, 5490.960594
 902.932880, 5490.471709
 903.412175, 5489.982092
 903.893436, 5489.491649
 904.375710, 5489.001360
 904.858117, 5488.512126
 905.341414, 5488.023185
 905.825655, 5487.534488
 906.307963, 5487.048936
 906.792044, 5486.562797
 907.275054, 5486.078933
 907.764509, 5485.589834
 908.252413, 5485.103508
 908.739848, 5484.618871
 909.230884, 5484.131887
 909.718306, 5483.649715
 910.208872, 5483.165666
 910.701236, 5482.681089
 911.194743, 5482.196639
 911.690610, 5481.711137
 912.183854, 5481.229460
 912.678655, 5480.747523
 913.173923, 5480.266397
 913.673358, 5479.782505
 914.173322, 5479.299390
 914.673550, 5478.817314
 915.179006, 5478.331513
 915.683997, 5477.847479
 916.188370, 5477.365353
 916.693425, 5476.883897
 917.197598, 5476.404598
 917.704768, 5475.923780
 918.213165, 5475.443137
 918.723747, 5474.961777
 919.234283, 5474.481814
 919.745399, 5474.002661
 920.258433, 5473.523075
 920.771740, 5473.044602
 921.286737, 5472.565930
 921.808078, 5472.082768
 922.324138, 5471.605893
 922.842956, 5471.127866
 923.360616, 5470.652305
 923.880403, 5470.176194
 924.399356, 5469.702253
 924.923949, 5469.224588
 925.445867, 5468.750784
 925.972403, 5468.274229
 926.497827, 5467.800123
 927.022257, 5467.328353
 927.553174, 5466.852211
 928.082439, 5466.379019
 928.615170, 5465.904207
 929.142353, 5465.435804
 929.669570, 5464.968824
 930.199181, 5464.501191
 930.727988, 5464.035734
 931.265367, 5463.564234
 931.802384, 5463.094565
 932.337279, 5462.628256
 932.870322, 5462.165055
 933.408978, 5461.698493
 933.952512, 5461.229250
 934.494651, 5460.762759
 935.036756, 5460.297842
 935.578429, 5459.834841
 936.122733, 5459.371145
 936.668893, 5458.907435
 937.210190, 5458.449405
 937.755543, 5457.989503
 938.301797, 5457.530414
 938.853365, 5457.068454
 939.401540, 5456.610926
 939.951147, 5456.153795
 940.506242, 5455.693717
 941.056927, 5455.238903
 941.611036, 5454.782877
 942.164136, 5454.329300
 942.721136, 5453.874159
 943.279062, 5453.419906
 943.836490, 5452.967704
 944.397389, 5452.514345
 944.955884, 5452.064585
 945.516172, 5451.615040
 946.076851, 5451.166847
 946.636561, 5450.721090
 947.200212, 5450.273873
 947.761325, 5449.830343
 948.328218, 5449.383941
 948.899542, 5448.935775
 949.467815, 5448.491722
 950.036504, 5448.049060
 950.607997, 5447.605948
 951.178154, 5447.165600
 951.748932, 5446.726504
 952.321689, 5446.287627
 952.894253, 5445.850642
 953.468456, 5445.414159
 954.036535, 5444.984058
 954.610039, 5444.551592
 955.188737, 5444.116986
 955.762027, 5443.688201
 956.343323, 5443.255217
 956.926953, 5442.822306
 957.506950, 5442.393890
 958.089281, 5441.965556
 958.671177, 5441.539348
 959.254097, 5441.114204
 959.840943, 5440.688029
 960.426181, 5440.264854
 961.015847, 5439.840327
 961.598091, 5439.422967
 962.185732, 5439.003577
 962.777821, 5438.582879
 963.366047, 5438.166784
 963.956071, 5437.751276
 964.549300, 5437.335390
 965.141692, 5436.921971
 965.735435, 5436.509494
 966.330756, 5436.097817
 966.928131, 5435.686629
 967.521810, 5435.279879
 968.117845, 5434.873416
 968.712985, 5434.469465
 969.309653, 5434.066382
 969.910094, 5433.662680
 970.509475, 5433.261619
 971.112830, 5432.859847
 971.714277, 5432.461291
 972.316663, 5432.064060
 972.919621, 5431.668404
 973.527303, 5431.271624
 974.134409, 5430.877202
 974.744648, 5430.482741
 975.356137, 5430.089481
 975.966504, 5429.698948
 976.581516, 5429.307470
 977.199943, 5428.915870
 977.819353, 5428.525711
 978.432003, 5428.141841
 979.043925, 5427.760445
 979.667866, 5427.373634
 980.285347, 5426.992893
 980.900476, 5426.615644
 981.517911, 5426.239031
 982.132529, 5425.866177
 982.748605, 5425.494483
 983.373846, 5425.119351
 983.993658, 5424.749559
 984.616662, 5424.379949
 985.234317, 5424.015580
 985.862233, 5423.647269
 986.490554, 5423.280849
 987.115172, 5422.918702
 987.736511, 5422.560545
 988.358319, 5422.204206
 988.987877, 5421.845552
 989.612720, 5421.491702
 990.244768, 5421.135918
 990.873834, 5420.783955
 991.506753, 5420.431996
 992.139798, 5420.082133
 992.767273, 5419.737486
 993.393892, 5419.395434
 994.029562, 5419.050611
 994.663437, 5418.708938
 995.302882, 5418.366466
 995.934763, 5418.030217
 996.576569, 5417.690899
 997.210255, 5417.358062
 997.850668, 5417.023899
 998.488917, 5416.693075
 999.122395, 5416.366905
 999.762229, 5416.039668
1000.399394, 5415.715999
1001.042265, 5415.391661
1001.679256, 5415.072497
1002.318896, 5414.754218
1002.959184, 5414.437837
1003.604742, 5414.121101
1004.248075, 5413.807704
1004.894921, 5413.494858
1005.538273, 5413.185951
1006.190313, 5412.875162
1006.832135, 5412.571495
1007.473391, 5412.270327
1008.119030, 5411.969353
1008.771666, 5411.667415
1009.424936, 5411.367498
1010.068713, 5411.074204
1010.719465, 5410.780017
1011.376823, 5410.485176
1012.029079, 5410.194942
1012.684650, 5409.905559
1013.337218, 5409.619817
1013.986888, 5409.337641
1014.645253, 5409.054025
1015.300441, 5408.774114
1015.958363, 5408.495379
1016.617797, 5408.218362
1017.279458, 5407.942783
1017.943456, 5407.668619
1018.603081, 5407.398632
1019.269732, 5407.128169
1019.927122, 5406.863827
1020.587314, 5406.600720
1021.247711, 5406.339900
1021.907759, 5406.081585
1022.573135, 5405.823579
1023.235997, 5405.568939
1023.898553, 5405.316801
1024.058882, 5405.256146
