Ground distance, Vertical Forces
   0.000000, 216385.893179
   0.000000, 216385.893179
   0.000006, 216385.893179
   0.000081, 216385.893179
   0.000699, 216385.893179
   0.003468, 216385.893179
   0.009283, 216385.893179
   0.017960, 216385.893179
   0.029596, 216385.893179
   0.044123, 216385.893179
   0.061553, 216385.893179
   0.081999, 216385.893179
   0.105450, 216385.893179
   0.131994, 216385.893179
   0.161747, 216385.893179
   0.194513, 216385.893179
   0.230914, 216385.893179
   0.270526, 216385.893179
   0.313173, 216385.893179
   0.359084, 216385.893179
   0.408542, 216385.893179
   0.461757, 216385.893179
   0.519904, 216385.893179
   0.581296, 216385.893179
   0.646687, 216385.893179
   0.715945, 216385.893179
   0.788688, 216385.893179
   0.864259, 216385.893179
   0.945221, 216385.893179
   1.029760, 216385.893179
   1.119383, 216385.893179
   1.212530, 216385.893179
   1.312001, 216385.893179
   1.414970, 216385.893179
   1.525017, 216385.893179
   1.639121, 216385.893179
   1.758011, 216385.893179
   1.884984, 216385.893179
   2.015833, 216385.893179
   2.152143, 216385.893179
   2.294481, 216385.893179
   2.441864, 216385.893179
   2.593988, 216385.893179
   2.754303, 216385.893179
   2.916678, 216385.893179
   3.087543, 216385.893179
   3.262882, 216385.893179
   3.447395, 216385.893179
   3.636847, 216385.893179
   3.836192, 216385.893179
   4.040665, 216385.893179
   4.250971, 216385.893179
   4.466715, 216385.893179
   4.693176, 216385.893179
   4.924425, 216385.893179
   5.163882, 216385.893179
   5.412825, 216385.893179
   5.674078, 216385.893179
   5.938114, 216385.893179
   6.212622, 216385.893179
   6.492260, 216385.893179
   6.781912, 216385.893179
   7.079639, 216385.893179
   7.383248, 216385.893179
   7.697232, 216385.893179
   8.016771, 216385.893179
   8.347162, 216385.893179
   8.685301, 216385.893179
   9.033737, 216385.893179
   9.393934, 216385.893179
   9.762446, 216385.893179
  10.142003, 216385.893179
  10.524603, 216385.893179
  10.923586, 216385.893179
  11.329340, 216385.893179
  11.749655, 216385.893179
  12.173712, 216385.893179
  12.613157, 216385.893179
  13.061504, 216385.893179
  13.518263, 216385.893179
  13.991016, 216385.893179
  14.467732, 216385.893179
  14.958757, 216385.893179
  15.456775, 216385.893179
  15.973773, 216385.893179
  16.495344, 216385.893179
  17.029105, 216385.893179
  17.574798, 216385.893179
  18.134788, 216385.893179
  18.702388, 216385.893179
  19.286740, 216385.893179
  19.885425, 216385.893179
  20.494528, 216385.893179
  21.115462, 216385.893179
  21.746890, 216385.893179
  22.390314, 216385.893179
  23.048963, 216385.893179
  23.716674, 216385.893179
  24.402398, 216385.893179
  25.107305, 216385.893179
  25.135325, 216385.893179
  25.154587, 216385.893179
  25.171818, 216385.893179
  25.185688, 216385.893179
  25.201701, 216385.893179
  25.213792, 216385.893179
  25.216352, 216385.893179
  25.219779, 216385.893179
  25.220523, 216385.893179
  25.221723, 216385.893179
  25.222112, 216385.893179
  25.222191, 216385.893179
  25.222357, 216385.893179
  25.224019, 216385.893179
  25.237170, 216385.893179
  25.296358, 216385.893179
  25.498740, 216385.893179
  26.000947, 216385.893179
  26.642256, 216385.893179
  27.302605, 216385.893179
  27.974971, 216385.893179
  28.653947, 216385.893179
  29.346020, 216385.893179
  30.053653, 216385.893179
  30.769314, 216385.893179
  31.493917, 216385.893179
  32.235460, 216385.893179
  32.986662, 216385.893179
  33.749175, 216385.893179
  34.521758, 216385.893179
  35.309010, 216385.893179
  36.110702, 216385.893179
  36.918686, 216385.893179
  37.737715, 216385.893179
  38.565372, 216385.893179
  39.411603, 216385.893179
  40.272584, 216385.893179
  41.143597, 216385.893179
  42.028225, 216385.893179
  42.927001, 216385.893179
  43.837619, 216385.893179
  44.766343, 216385.893179
  45.699879, 216385.893179
  46.644286, 216385.893179
  47.608940, 216385.893179
  48.581376, 216385.893179
  49.574219, 216385.893179
  50.577529, 216385.893179
  51.594742, 216385.893179
  52.624413, 216385.893179
  53.659619, 216385.893179
  54.722782, 216385.893179
  55.793643, 216385.893179
  56.886581, 216385.893179
  57.986542, 216385.893179
  59.097008, 216385.893179
  60.230149, 216385.893179
  61.373373, 216385.893179
  62.533107, 216385.893179
  63.705654, 216385.893179
  64.887957, 216385.893179
  66.098842, 216385.893179
  67.316009, 216385.893179
  68.552761, 216385.893179
  69.802626, 216385.893179
  71.066063, 216385.893179
  72.337267, 216385.893179
  73.633184, 216385.893179
  74.937627, 216385.893179
  76.259104, 216385.893179
  77.604494, 216385.893179
  78.964225, 216385.893179
  80.341091, 216385.893179
  81.731271, 216385.893179
  83.142511, 216385.893179
  84.561698, 216385.893179
  85.995265, 216385.893179
  87.444770, 216385.893179
  88.909104, 216385.893179
  90.400811, 216385.893179
  91.901031, 216385.893179
  93.423639, 216385.893179
  94.964104, 216385.893179
  96.517240, 216385.893179
  98.080217, 216385.893179
  99.664272, 216385.893179
 101.266676, 216385.893179
 102.891796, 216385.893179
 104.526630, 216385.893179
 104.539735, 216385.893179
 104.542737, 216385.893179
 104.543987, 216385.893179
 104.546489, 216385.893179
 104.546777, 216385.893179
 104.546938, 216385.893179
 104.547182, 216385.893179
 104.549626, 216385.893179
 104.574059, 216385.893179
 104.717274, 216385.893179
 105.202036, 216385.893179
 106.378729, 216385.893179
 107.871336, 216385.893179
 109.366606, 216385.893179
 110.882950, 216385.893179
 112.407164, 216385.893179
 113.943577, 216385.893179
 115.497772, 216385.893179
 117.071981, 216385.893179
 118.654749, 216385.893179
 120.245072, 216385.893179
 121.861354, 216385.893179
 123.485075, 216385.893179
 125.124172, 216385.893179
 126.780605, 216385.893179
 128.452606, 216385.893179
 130.136489, 216385.893179
 131.835861, 216385.893179
 133.556284, 216385.893179
 135.287735, 216385.893179
 137.033772, 216385.893179
 138.793246, 216385.893179
 140.565230, 216385.893179
 142.361784, 216385.893179
 144.164887, 216385.893179
 145.979488, 216385.893179
 147.815380, 216385.893179
 149.672591, 216385.893179
 151.547364, 216385.893179
 153.429532, 216385.893179
 155.329287, 216385.893179
 157.237444, 216385.893179
 159.171616, 216385.893179
 161.112003, 216385.893179
 163.075804, 216385.893179
 165.046358, 216385.893179
 167.036178, 216385.893179
 169.042826, 216385.893179
 171.062032, 216385.893179
 173.107959, 216385.893179
 175.162859, 216385.893179
 177.231972, 216385.893179
 179.321368, 216385.893179
 181.424434, 216385.893179
 183.537603, 216385.893179
 185.678299, 216385.893179
 187.832754, 216385.893179
 190.009434, 216385.893179
 192.198701, 216385.893179
 194.405030, 216385.893179
 196.620050, 216385.893179
 198.856798, 216385.893179
 201.111476, 216385.893179
 203.379910, 216385.893179
 205.669758, 216385.893179
 207.977134, 216385.893179
 210.306103, 216385.893179
 212.646846, 216385.893179
 214.994192, 216385.893179
 217.363102, 216385.893179
 219.756760, 216385.893179
 222.166594, 216385.893179
 224.602090, 216385.893179
 227.041404, 216385.893179
 229.496927, 216385.893179
 231.973480, 216385.893179
 234.466238, 216385.893179
 236.981575, 216385.893179
 239.508770, 216385.893179
 242.065907, 216385.893179
 244.638466, 216385.893179
 245.156938, 216385.893179
 245.494762, 216385.893179
 245.750051, 216385.893179
 245.955696, 216385.893179
 246.156817, 216385.893179
 246.360575, 216385.893179
 246.509926, 216385.893179
 246.536485, 216385.893179
 246.569959, 216385.893179
 246.609033, 216385.893179
 246.611229, 216385.893179
 246.612549, 216385.893179
 246.613518, 216385.893179
 246.614303, 216385.893179
 246.614556, 216385.893179
 246.614814, 216385.893179
 246.617397, 216385.893179
 246.639574, 216385.893179
 246.780542, 216385.893179
 247.315184, 216385.893179
 249.139642, 216385.893179
 251.404036, 216385.893179
 253.699369, 216385.893179
 256.004014, 216385.893179
 258.328686, 216385.893179
 260.655828, 216385.893179
 263.004579, 216385.893179
 265.366922, 216385.893179
 267.740256, 216385.893179
 270.131666, 216385.893179
 272.535832, 216385.893179
 274.948439, 216385.893179
 277.381395, 216385.893179
 279.827113, 216385.893179
 282.292498, 216385.893179
 284.769320, 216385.893179
 287.256506, 216385.893179
 289.758171, 216385.893179
 292.278909, 216385.893179
 294.806368, 216385.893179
 297.350989, 216385.893179
 299.915435, 216385.893179
 302.495314, 216385.893179
 305.082355, 216385.893179
 307.690629, 216385.893179
 310.309911, 216385.893179
 312.945474, 216385.893179
 315.596902, 216385.893179
 318.256757, 216385.893179
 320.932506, 216385.893179
 323.630245, 216385.893179
 326.343042, 216385.893179
 329.067365, 216385.893179
 331.802828, 216385.893179
 334.555459, 216385.893179
 337.328881, 216385.893179
 340.110638, 216385.893179
 342.912817, 216385.893179
 345.735048, 216385.893179
 348.571929, 216385.893179
 351.416009, 216385.893179
 354.278718, 216385.893179
 357.155150, 216385.893179
 360.049072, 216385.893179
 362.964475, 216385.893179
 365.884928, 216385.893179
 368.817322, 216385.893179
 371.766818, 216385.893179
 374.729592, 216385.893179
 377.712618, 216385.893179
 380.705417, 216385.893179
 383.719420, 216385.893179
 386.759157, 216385.893179
 389.800591, 216385.893179
 392.867138, 216385.893179
 395.945380, 216385.893179
 399.043014, 216385.893179
 402.157724, 216385.893179
 405.284131, 216385.893179
 408.419544, 216385.893179
 411.577222, 216385.893179
 414.764999, 216385.893179
 417.948210, 216385.893179
 421.160956, 216385.893179
 424.378335, 216385.893179
 427.616846, 216385.893179
 430.876829, 216385.893179
 434.145576, 216385.893179
 437.428615, 216385.893179
 440.728039, 216385.893179
 444.048966, 216385.893179
 447.386551, 216385.893179
 450.732892, 216385.893179
 454.108833, 216385.893179
 457.487058, 216385.893179
 460.888088, 216385.893179
 464.304706, 216385.893179
 464.990495, 216385.893179
 467.377924, 216385.893179
 467.515046, 216385.893179
 467.538661, 216385.893179
 467.548684, 216385.893179
 467.551293, 216385.893179
 467.552849, 216385.893179
 467.554620, 216385.893179
 467.572325, 216385.893179
 467.698666, 216385.893179
 468.534335, 216385.893179
 472.194187, 216385.893179
 475.641414, 216385.893179
 479.110670, 216385.893179
 482.595078, 216385.893179
 486.098418, 216385.893179
 489.616727, 216385.893179
 493.149280, 216385.893179
 496.693071, 216385.893179
 500.266628, 216385.893179
 503.847318, 216385.893179
 507.450139, 216385.893179
 511.064352, 216385.893179
 514.692557, 216385.893179
 518.341361, 216385.893179
 522.013405, 216385.893179
 525.693678, 216385.893179
 529.390924, 216385.893179
 533.101684, 216385.893179
 536.830320, 216385.893179
 540.583884, 216385.893179
 544.350946, 216385.893179
 548.132836, 216385.893179
 551.938246, 216385.893179
 555.759270, 216385.893179
 559.594637, 216385.893179
 563.445223, 216385.893179
 567.303561, 216385.893179
 571.184742, 216385.893179
 575.086347, 216385.893179
 579.001870, 216385.893179
 582.928818, 216385.893179
 586.875636, 216385.893179
 590.844468, 216385.893179
 594.826134, 216385.893179
 598.830514, 216385.893179
 602.857980, 216385.893179
 606.896590, 216385.893179
 610.951745, 216385.893179
 615.022109, 216385.893179
 619.112651, 216385.893179
 623.222789, 216385.893179
 627.351194, 216385.893179
 631.499344, 216385.893179
 635.657072, 216385.893179
 639.837451, 216385.893179
 644.029999, 216385.893179
 648.237023, 216385.893179
 652.466889, 216385.893179
 656.712596, 216385.893179
 660.980636, 216385.893179
 665.264700, 216385.893179
 669.570956, 216385.893179
 673.892541, 216385.893179
 676.160155, 216385.893179
 678.226955, 216385.893179
 682.580782, 216385.893179
 686.946938, 216385.893179
 691.344019, 216385.893179
 695.758548, 216385.893179
 700.197558, 216385.893179
 704.644708, 216385.893179
 709.105097, 216385.893179
 713.600697, 216385.893179
 718.119169, 216385.893179
 722.646755, 216385.893179
 727.198480, 216385.893179
 731.766217, 216385.893179
 736.344433, 216385.893179
 740.946719, 216385.893179
 745.564039, 216385.893179
 750.191281, 216385.893179
 754.835658, 216385.893179
 759.502489, 216385.893179
 764.175716, 216385.893179
 768.856914, 216385.893179
 773.555080, 216385.893179
 778.263018, 216385.893179
 782.988593, 216385.893179
 787.715931, 216385.893179
 792.453010, 216385.893179
 792.643139, 216385.893179
 792.899094, 216385.893179
 793.151053, 216385.893179
 793.217329, 216385.893179
 793.301442, 216385.893179
 793.321433, 216385.893179
 793.351294, 216385.893179
 793.353384, 216385.893179
 793.354241, 216385.893179
 793.355122, 216385.893179
 793.363923, 216385.893179
 793.451944, 216385.893179
 793.967135, 216385.893179
 796.012112, 216385.893179
 800.932922, 216385.893179
 805.905826, 216385.893179
 806.236681, 216385.892838
 806.566898, 216385.891790
 806.898423, 216385.889989
 807.229874, 216385.887399
 807.561840, 216385.883974
 807.893824, 216385.879675
 808.225486, 216385.874468
 808.558288, 216385.868283
 808.891287, 216385.861089
 809.224474, 216385.852841
 809.556565, 216385.843529
 809.888823, 216385.833080
 810.222823, 216385.821387
 810.556584, 216385.808464
 810.890991, 216385.794229
 811.225027, 216385.778675
 811.558493, 216385.761767
 811.893839, 216385.743324
 812.229759, 216385.723351
 812.565602, 216385.701832
 812.898568, 216385.678914
 813.232727, 216385.654279
 813.568861, 216385.627793
 813.906228, 216385.599436
 814.240510, 216385.569528
 814.576350, 216385.537613
 814.912871, 216385.503700
 815.249137, 216385.467822
 815.587293, 216385.429678
 815.924423, 216385.389531
 816.263204, 216385.346996
 816.602649, 216385.302114
 816.942211, 216385.254888
 817.282686, 216385.205135
 817.623920, 216385.152794
 817.965140, 216385.097913
 818.305496, 216385.040571
 818.647001, 216384.980363
 818.989324, 216384.917257
 819.331926, 216384.851270
 819.673757, 216384.782542
 820.017327, 216384.710489
 820.359033, 216384.635795
 820.701454, 216384.557845
 821.044816, 216384.476491
 821.390004, 216384.391416
 821.734523, 216384.303141
 822.079587, 216384.211284
 822.423887, 216384.116121
 822.769502, 216384.016994
 823.112594, 216383.914944
 823.457130, 216383.808736
 823.803423, 216383.698144
 824.150767, 216383.583266
 824.497731, 216383.464481
 824.845767, 216383.341203
 825.192354, 216383.214246
 825.541948, 216383.081871
 825.891199, 216382.945209
 826.241842, 216382.803478
 826.592505, 216382.657118
 826.943630, 216382.505846
 827.295039, 216382.349637
 827.645908, 216382.189776
 827.999299, 216382.024813
 828.349563, 216381.857368
 828.701677, 216381.685061
 829.054635, 216381.508313
 829.407189, 216381.327718
 829.762143, 216381.141779
 830.116670, 216380.951919
 830.468208, 216380.759544
 830.824009, 216380.560639
 831.180284, 216380.357213
 831.535037, 216380.150398
 831.891661, 216379.938185
 832.248324, 216379.721606
 832.605092, 216379.500590
 832.960269, 216379.276192
 833.318761, 216379.045253
 833.676508, 216378.810316
 834.035569, 216378.569993
 834.392862, 216378.326329
 834.753261, 216378.075948
 835.114144, 216377.820577
 835.474406, 216377.560975
 835.834996, 216377.296436
 836.196586, 216377.026416
 836.557140, 216376.752409
 836.918014, 216376.473373
 837.280459, 216376.188277
 837.643742, 216375.897620
 838.005706, 216375.603113
 838.368911, 216375.302647
 838.733942, 216374.995648
 839.098750, 216374.683780
 839.464945, 216374.365614
 839.829376, 216374.043869
 840.195898, 216373.715106
 840.562416, 216373.381134
 840.929494, 216373.041398
 841.297076, 216372.695901
 841.664141, 216372.345574
 842.031536, 216371.989584
 842.400603, 216371.626561
 842.770595, 216371.257152
 843.141760, 216370.881036
 843.511769, 216370.500544
 843.882689, 216370.113527
 844.254771, 216369.719648
 844.627622, 216369.319249
 845.001863, 216368.911586
 845.375418, 216368.498872
 845.749667, 216368.079556
 846.124187, 216367.654059
 846.499161, 216367.222126
 846.874047, 216366.784343
 847.249101, 216366.340381
 847.625681, 216365.888561
 848.002908, 216365.429856
 848.380154, 216364.964982
 848.756866, 216364.494606
 849.136393, 216364.014457
 849.516274, 216363.527542
 849.896483, 216363.033844
 850.274475, 216362.536688
 850.651819, 216362.034049
 851.033687, 216361.518911
 851.415841, 216360.996836
 851.797365, 216360.469055
 852.179981, 216359.933143
 852.564766, 216359.387473
 852.950007, 216358.834376
 853.334789, 216358.275132
 853.719457, 216357.709225
 854.104943, 216357.135231
 854.492253, 216356.551552
 854.879276, 216355.961294
 855.267379, 216355.362317
 855.656270, 216354.754992
 856.044594, 216354.141392
 856.435740, 216353.516070
 856.825734, 216352.885298
 857.216260, 216352.246338
 857.313734, 216352.085707
 857.607364, 216351.599049
 858.000336, 216350.941194
 858.393600, 216350.275316
 858.785537, 216349.604152
 859.179128, 216348.922556
 859.572171, 216348.234275
 859.967117, 216347.534943
 860.362796, 216346.826522
 860.760255, 216346.107026
 861.157309, 216345.380337
 861.558207, 216344.638539
 861.956036, 216343.894365
 862.355882, 216343.138302
 862.756088, 216342.373370
 863.157061, 216341.598725
 863.557516, 216340.816805
 863.960706, 216340.021155
 864.359707, 216339.225447
 864.764125, 216338.410452
 865.166178, 216337.591721
 865.570859, 216336.759040
 865.974751, 216335.919347
 866.382404, 216335.063050
 866.790407, 216334.197143
 867.198303, 216333.322553
 867.607160, 216332.436922
 868.016387, 216331.541451
 868.428370, 216330.630780
 868.841258, 216329.708837
 869.252705, 216328.780839
 869.664291, 216327.843232
 870.079102, 216326.888833
 870.490432, 216325.933040
 870.904933, 216324.960371
 871.319475, 216323.978021
 871.736259, 216322.980655
 872.152709, 216321.974332
 872.571378, 216320.952776
 872.988585, 216319.924909
 873.407026, 216318.884050
 873.828325, 216317.825979
 874.249166, 216316.758895
 874.669900, 216315.681888
 875.092793, 216314.589042
 875.514340, 216313.489349
 875.936788, 216312.376921
 876.359515, 216311.253308
 876.785346, 216310.110843
 877.212719, 216308.953494
 877.638508, 216307.789692
 878.065822, 216306.610896
 878.494814, 216305.416525
 878.926131, 216304.204576
 879.355284, 216302.987620
 879.786560, 216301.753458
 880.217856, 216300.507982
 880.650605, 216299.246950
 881.082838, 216297.976026
 881.518686, 216296.682897
 881.953170, 216295.382198
 882.388135, 216294.068400
 882.827019, 216292.730899
 883.262775, 216291.391092
 883.702141, 216290.028202
 884.142207, 216288.651035
 884.583542, 216287.257679
 885.024929, 216285.851883
 885.466250, 216284.433973
 885.907722, 216283.003211
 886.350292, 216281.556423
 886.794035, 216280.093225
 887.241563, 216278.604750
 887.687342, 216277.109267
 888.137453, 216275.586219
 888.584883, 216274.059219
 889.034499, 216272.511632
 889.483631, 216270.952529
 889.935720, 216269.369803
 890.388675, 216267.770562
 890.839060, 216266.166963
 891.289848, 216264.548475
 891.742976, 216262.907971
 892.194337, 216261.260249
 892.652820, 216259.572565
 893.108670, 216257.880574
 893.566714, 216256.166339
 894.025099, 216254.436616
 894.487541, 216252.677141
 894.951755, 216250.896276
 895.414974, 216249.104550
 895.874008, 216247.314503
 896.338777, 216245.487322
 896.803065, 216243.647148
 897.269913, 216241.781775
 897.733999, 216239.912429
 898.199581, 216238.021971
 898.670297, 216236.095253
 899.136172, 216234.173037
 899.608136, 216232.210118
 900.078317, 216230.238969
 900.550524, 216228.243555
 901.025698, 216226.219601
 901.499913, 216224.183672
 901.976972, 216222.119292
 902.455443, 216220.032391
 902.932880, 216217.933562
 903.412175, 216215.809993
 903.893436, 216213.660962
 904.375710, 216211.490504
 904.858117, 216209.302467
 905.341414, 216207.093315
 905.825655, 216204.862647
 906.307963, 216202.623710
 906.792044, 216200.359258
 907.275054, 216198.082507
 907.764509, 216195.757678
 908.252413, 216193.422430
 908.739848, 216191.071642
 909.230884, 216188.685456
 909.718306, 216186.298881
 910.208872, 216183.878795
 910.701236, 216181.431513
 911.194743, 216178.960064
 911.690610, 216176.458106
 912.183854, 216173.950734
 912.678655, 216171.416699
 913.173923, 216168.861427
 913.673358, 216166.265494
 914.173322, 216163.647479
 914.673550, 216161.008677
 915.179006, 216158.322514
 915.683997, 216155.618906
 916.188370, 216152.898675
 916.693425, 216150.154759
 917.197598, 216147.395590
 917.704768, 216144.599771
 918.213165, 216141.776739
 918.723747, 216138.920907
 919.234283, 216136.044565
 919.745399, 216133.144096
 920.258433, 216130.211695
 920.771740, 216127.256560
 921.286737, 216124.270357
 921.808078, 216121.225537
 922.324138, 216118.189867
 922.842956, 216115.116151
 923.360616, 216112.027434
 923.880403, 216108.903985
 924.399356, 216105.763454
 924.923949, 216102.566295
 925.445867, 216099.362930
 925.972403, 216096.108415
 926.497827, 216092.837863
 927.022257, 216089.550625
 927.553174, 216086.199373
 928.082439, 216082.835112
 928.615170, 216079.425117
 929.142353, 216076.027170
 929.669570, 216072.605580
 930.199181, 216069.144825
 930.727988, 216065.665620
 931.265367, 216062.105693
 931.802384, 216058.523609
 932.337279, 216054.931206
 932.870322, 216051.326880
 933.408978, 216047.659838
 933.952512, 216043.934284
 934.494651, 216040.192908
 935.036756, 216036.426352
 935.578429, 216032.637356
 936.122733, 216028.804260
 936.668893, 216024.932146
 937.210190, 216021.068799
 937.755543, 216017.150546
 938.301797, 216013.199648
 938.853365, 216009.183662
 939.401540, 216005.165782
 939.951147, 216001.110723
 940.506242, 215996.987974
 941.056927, 215992.870922
 941.611036, 215988.700985
 942.164136, 215984.511294
 942.721136, 215980.264367
 943.279062, 215975.982461
 943.836490, 215971.676411
 944.397389, 215967.315247
 944.955884, 215962.944521
 945.516172, 215958.531348
 946.076851, 215954.086552
 946.636561, 215949.620886
 947.200212, 215945.094885
 947.761325, 215940.560390
 948.328218, 215935.949861
 948.899542, 215931.273419
 949.467815, 215926.592123
 950.036504, 215921.877542
 950.607997, 215917.109572
 951.178154, 215912.322555
 951.748932, 215907.500063
 952.321689, 215902.630335
 952.894253, 215897.731629
 953.468456, 215892.788091
 954.036535, 215887.866844
 954.610039, 215882.867832
 955.188737, 215877.792141
 955.762027, 215872.732717
 956.343323, 215867.570882
 956.926953, 215862.356093
 957.506950, 215857.141703
 958.089281, 215851.874103
 958.671177, 215846.578116
 959.254097, 215841.240352
 959.840943, 215835.833745
 960.426181, 215830.409030
 961.015847, 215824.909930
 961.598091, 215819.447152
 962.185732, 215813.900540
 962.777821, 215808.278120
 963.366047, 215802.658718
 963.956071, 215796.988350
 964.549300, 215791.252997
 965.141692, 215785.491472
 965.735435, 215779.682366
 966.330756, 215773.823152
 966.928131, 215767.908758
 967.521810, 215761.996170
 968.117845, 215756.025184
 968.712985, 215750.028179
 969.309653, 215743.980589
 969.910094, 215737.859151
 970.509475, 215731.712812
 971.112830, 215725.489634
 971.714277, 215719.250024
 972.316663, 215712.964463
 972.919621, 215706.636594
 973.527303, 215700.222284
 974.134409, 215693.777028
 974.744648, 215687.261158
 975.356137, 215680.694313
 975.966504, 215674.101872
 976.581516, 215667.421175
 977.199943, 215660.664737
 977.819353, 215653.858666
 978.432003, 215647.088513
 979.043925, 215640.288257
 979.667866, 215633.315107
 980.285347, 215626.375004
 980.900476, 215619.422533
 981.517911, 215612.404999
 982.132529, 215605.380602
 982.748605, 215598.300562
 983.373846, 215591.075208
 983.993658, 215583.872800
 984.616662, 215576.593279
 985.234317, 215569.336598
 985.862233, 215561.918827
 986.490554, 215554.455289
 987.115172, 215546.995051
 987.736511, 215539.533652
 988.358319, 215532.026311
 988.987877, 215524.384239
 989.612720, 215516.758410
 990.244768, 215509.003014
 990.873834, 215501.242591
 991.506753, 215493.392668
 992.139798, 215485.499006
 992.767273, 215477.633126
 993.393892, 215469.736495
 994.029562, 215461.683404
 994.663437, 215453.610460
 995.302882, 215445.423439
 995.934763, 215437.290621
 996.576569, 215428.986625
 997.210255, 215420.744671
 997.850668, 215412.371759
 998.488917, 215403.983595
 999.122395, 215395.615101
 999.762229, 215387.119057
1000.399394, 215378.614862
1001.042265, 215369.990391
1001.679256, 215361.401025
1002.318896, 215352.732034
1002.959184, 215344.010146
1003.604742, 215335.171738
1004.248075, 215326.319061
1004.894921, 215317.372944
1005.538273, 215308.430259
1006.190313, 215299.321071
1006.832135, 215290.309612
1007.473391, 215281.261445
1008.119030, 215272.106283
1008.771666, 215262.805829
1009.424936, 215253.449869
1010.068713, 215244.184359
1010.719465, 215234.772482
1011.376823, 215225.218086
1012.029079, 215215.691136
1012.684650, 215206.068821
1013.337218, 215196.443805
1013.986888, 215186.815138
1014.645253, 215177.010301
1015.300441, 215167.205491
1015.958363, 215157.312222
1016.617797, 215147.348393
1017.279458, 215137.302715
1017.943456, 215127.172997
1018.603081, 215117.061782
1019.269732, 215106.793997
1019.927122, 215096.620694
1020.587314, 215086.355875
1021.247711, 215076.039524
1021.907759, 215065.680304
1022.573135, 215055.188494
1023.235997, 215044.687410
1023.898553, 215034.142360
1024.058882, 215031.583263
