Time, Altitude
-149.354332, 1500.000000
-149.254332, 1499.025349
-149.154332, 1498.050707
-149.054332, 1497.076065
-148.954332, 1496.101876
-148.854332, 1495.127726
-148.754332, 1494.153576
-148.654332, 1493.179426
-148.554332, 1492.205276
-148.454332, 1491.231127
-148.354332, 1490.256977
-148.254332, 1489.282827
-148.154332, 1488.308677
-148.054332, 1487.334527
-147.954332, 1486.361050
-147.854332, 1485.387631
-147.754332, 1484.414212
-147.654332, 1483.440792
-147.554332, 1482.467373
-147.454332, 1481.493954
-147.354332, 1480.520535
-147.254332, 1479.547115
-147.154332, 1478.573696
-147.054332, 1477.600277
-146.954332, 1476.627159
-146.854332, 1475.654068
-146.754332, 1474.680976
-146.654332, 1473.707884
-146.554332, 1472.734793
-146.454332, 1471.761701
-146.354332, 1470.788610
-146.254332, 1469.815518
-146.154332, 1468.842426
-146.054332, 1467.869335
-145.954332, 1466.896448
-145.854332, 1465.923579
-145.754332, 1464.950710
-145.654332, 1463.977840
-145.554332, 1463.004971
-145.454332, 1462.032102
-145.354332, 1461.059233
-145.254332, 1460.086364
-145.154332, 1459.113494
-145.054332, 1458.140625
-144.954332, 1457.167317
-144.854332, 1456.193971
-144.754332, 1455.220625
-144.654332, 1454.247279
-144.554332, 1453.273932
-144.454332, 1452.300586
-144.354332, 1451.327240
-144.254332, 1450.353894
-144.154332, 1449.380548
-144.054332, 1448.407202
-143.954332, 1447.433994
-143.854332, 1446.460798
-143.754332, 1445.487602
-143.654332, 1444.514406
-143.554332, 1443.541209
-143.454332, 1442.568013
-143.354332, 1441.594817
-143.254332, 1440.621621
-143.154332, 1439.648425
-143.054332, 1438.675229
-142.954332, 1437.702406
-142.854332, 1436.729616
-142.754332, 1435.756826
-142.654332, 1434.784036
-142.554332, 1433.811245
-142.454332, 1432.838455
-142.354332, 1431.865665
-142.254332, 1430.892874
-142.154332, 1429.920084
-142.054332, 1428.947294
-141.954332, 1427.974780
-141.854332, 1427.002290
-141.754332, 1426.029800
-141.654332, 1425.057310
-141.554332, 1424.084820
-141.454332, 1423.112330
-141.354332, 1422.139840
-141.254332, 1421.167350
-141.154332, 1420.194860
-141.054332, 1419.222370
-140.954332, 1418.249507
-140.854332, 1417.276613
-140.754332, 1416.303718
-140.654332, 1415.330823
-140.554332, 1414.357928
-140.454332, 1413.385033
-140.354332, 1412.412139
-140.254332, 1411.439244
-140.154332, 1410.466349
-140.054332, 1409.493454
-139.954332, 1408.520757
-139.854332, 1407.548076
-139.754332, 1406.575396
-139.654332, 1405.602715
-139.554332, 1404.630034
-139.454332, 1403.657354
-139.354332, 1402.684673
-139.254332, 1401.711992
-139.154332, 1400.739312
-139.054332, 1399.766631
-138.954332, 1398.794373
-138.854332, 1397.822150
-138.754332, 1396.849928
-138.654332, 1395.877706
-138.554332, 1394.905483
-138.454332, 1393.933261
-138.354332, 1392.961039
-138.254332, 1391.988817
-138.154332, 1391.016594
-138.054332, 1390.044372
-137.954332, 1389.072462
-137.854332, 1388.100580
-137.754332, 1387.128697
-137.654332, 1386.156814
-137.554332, 1385.184932
-137.454332, 1384.213049
-137.354332, 1383.241166
-137.254332, 1382.269284
-137.154332, 1381.297401
-137.054332, 1380.325518
-136.954332, 1379.353279
-136.854332, 1378.381010
-136.754332, 1377.408741
-136.654332, 1376.436471
-136.554332, 1375.464202
-136.454332, 1374.491933
-136.354332, 1373.519663
-136.254332, 1372.547394
-136.154332, 1371.575125
-136.054332, 1370.602856
-135.954332, 1369.630788
-135.854332, 1368.658737
-135.754332, 1367.686686
-135.654332, 1366.714635
-135.554332, 1365.742584
-135.454332, 1364.770533
-135.354332, 1363.798482
-135.254332, 1362.826431
-135.154332, 1361.854380
-135.054332, 1360.882329
-134.954332, 1359.910690
-134.854332, 1358.939085
-134.754332, 1357.967481
-134.654332, 1356.995877
-134.554332, 1356.024272
-134.454332, 1355.052668
-134.354332, 1354.081064
-134.254332, 1353.109459
-134.154332, 1352.137855
-134.054332, 1351.166251
-133.954332, 1350.194933
-133.854332, 1349.223640
-133.754332, 1348.252346
-133.654332, 1347.281053
-133.554332, 1346.309760
-133.454332, 1345.338467
-133.354332, 1344.367173
-133.254332, 1343.395880
-133.154332, 1342.424587
-133.054332, 1341.453294
-132.954332, 1340.481609
-132.854332, 1339.509890
-132.754332, 1338.538172
-132.654332, 1337.566454
-132.554332, 1336.594735
-132.454332, 1335.623017
-132.354332, 1334.651299
-132.254332, 1333.679580
-132.154332, 1332.707862
-132.054332, 1331.736144
-131.954332, 1330.764581
-131.854332, 1329.793032
-131.754332, 1328.821483
-131.654332, 1327.849933
-131.554332, 1326.878384
-131.454332, 1325.906835
-131.354332, 1324.935285
-131.254332, 1323.963736
-131.154332, 1322.992187
-131.054332, 1322.020638
-130.954332, 1321.049449
-130.854332, 1320.078291
-130.754332, 1319.107133
-130.654332, 1318.135975
-130.554332, 1317.164817
-130.454332, 1316.193659
-130.354332, 1315.222501
-130.254332, 1314.251343
-130.154332, 1313.280185
-130.054332, 1312.309027
-129.954332, 1311.338101
-129.854332, 1310.367196
-129.754332, 1309.396290
-129.654332, 1308.425385
-129.554332, 1307.454480
-129.454332, 1306.483574
-129.354332, 1305.512669
-129.254332, 1304.541763
-129.154332, 1303.570858
-129.054332, 1302.599952
-128.954332, 1301.628601
-128.854332, 1300.657212
-128.754332, 1299.685822
-128.654332, 1298.714433
-128.554332, 1297.743043
-128.454332, 1296.771654
-128.354332, 1295.800265
-128.254332, 1294.828875
-128.154332, 1293.857486
-128.054332, 1292.886096
-127.954332, 1291.914813
-127.854332, 1290.943539
-127.754332, 1289.972265
-127.654332, 1289.000991
-127.554332, 1288.029716
-127.454332, 1287.058442
-127.354332, 1286.087168
-127.254332, 1285.115894
-127.154332, 1284.144619
-127.054332, 1283.173345
-126.954332, 1282.202389
-126.854332, 1281.231459
-126.754332, 1280.260530
-126.654332, 1279.289600
-126.554332, 1278.318671
-126.454332, 1277.347741
-126.354332, 1276.376812
-126.254332, 1275.405882
-126.154332, 1274.434953
-126.054332, 1273.464023
-125.954332, 1272.493292
-125.854332, 1271.522578
-125.754332, 1270.551864
-125.654332, 1269.581150
-125.554332, 1268.610436
-125.454332, 1267.639722
-125.354332, 1266.669008
-125.254332, 1265.698294
-125.154332, 1264.727580
-125.054332, 1263.756866
-124.954332, 1262.785681
-124.854332, 1261.814456
-124.754332, 1260.843231
-124.654332, 1259.872006
-124.554332, 1258.900781
-124.454332, 1257.929556
-124.354332, 1256.958331
-124.254332, 1255.987106
-124.154332, 1255.015881
-124.054332, 1254.044656
-123.954332, 1253.073525
-123.854332, 1252.102401
-123.754332, 1251.131278
-123.654332, 1250.160155
-123.554332, 1249.189031
-123.454332, 1248.217908
-123.354332, 1247.246784
-123.254332, 1246.275661
-123.154332, 1245.304537
-123.054332, 1244.333414
-122.954332, 1243.362607
-122.854332, 1242.391828
-122.754332, 1241.421048
-122.654332, 1240.450269
-122.554332, 1239.479490
-122.454332, 1238.508710
-122.354332, 1237.537931
-122.254332, 1236.567151
-122.154332, 1235.596372
-122.054332, 1234.625592
-121.954332, 1233.655022
-121.854332, 1232.684469
-121.754332, 1231.713917
-121.654332, 1230.743364
-121.554332, 1229.772811
-121.454332, 1228.802258
-121.354332, 1227.831706
-121.254332, 1226.861153
-121.154332, 1225.890600
-121.054332, 1224.920048
-120.954332, 1223.949044
-120.854332, 1222.978001
-120.754332, 1222.006959
-120.654332, 1221.035916
-120.554332, 1220.064874
-120.454332, 1219.093832
-120.354332, 1218.122789
-120.254332, 1217.151747
-120.154332, 1216.180704
-120.054332, 1215.209662
-119.954332, 1214.238742
-119.854332, 1213.267832
-119.754332, 1212.296923
-119.654332, 1211.326013
-119.554332, 1210.355103
-119.454332, 1209.384194
-119.354332, 1208.413284
-119.254332, 1207.442374
-119.154332, 1206.471465
-119.054332, 1205.500555
-118.954332, 1204.529998
-118.854332, 1203.559471
-118.754332, 1202.588944
-118.654332, 1201.618417
-118.554332, 1200.647891
-118.454332, 1199.677364
-118.354332, 1198.706837
-118.254332, 1197.736310
-118.154332, 1196.765783
-118.054332, 1195.795256
-117.954332, 1194.824978
-117.854332, 1193.854720
-117.754332, 1192.884463
-117.654332, 1191.914206
-117.554332, 1190.943949
-117.454332, 1189.973691
-117.354332, 1189.003434
-117.254332, 1188.033177
-117.154332, 1187.062920
-117.054332, 1186.092662
-116.954332, 1185.121994
-116.854332, 1184.151291
-116.754332, 1183.180587
-116.654332, 1182.209884
-116.554332, 1181.239181
-116.454332, 1180.268477
-116.354332, 1179.297774
-116.254332, 1178.327070
-116.154332, 1177.356367
-116.054332, 1176.385664
-115.954332, 1175.415123
-115.854332, 1174.444596
-115.754332, 1173.474069
-115.654332, 1172.503542
-115.554332, 1171.533015
-115.454332, 1170.562488
-115.354332, 1169.591961
-115.254332, 1168.621434
-115.154332, 1167.650907
-115.054332, 1166.680380
-114.954332, 1165.710243
-114.854332, 1164.740139
-114.754332, 1163.770035
-114.654332, 1162.799932
-114.554332, 1161.829828
-114.454332, 1160.859724
-114.354332, 1159.889620
-114.254332, 1158.919517
-114.154332, 1157.949413
-114.054332, 1156.979309
-113.954332, 1156.009486
-113.854332, 1155.039686
-113.754332, 1154.069887
-113.654332, 1153.100088
-113.554332, 1152.130288
-113.454332, 1151.160489
-113.354332, 1150.190689
-113.254332, 1149.220890
-113.154332, 1148.251091
-113.054332, 1147.281291
-112.954332, 1146.311105
-112.854332, 1145.340885
-112.754332, 1144.370666
-112.654332, 1143.400447
-112.554332, 1142.430227
-112.454332, 1141.460008
-112.354332, 1140.489789
-112.254332, 1139.519569
-112.154332, 1138.549350
-112.054332, 1137.579130
-111.954332, 1136.609091
-111.854332, 1135.639066
-111.754332, 1134.669041
-111.654332, 1133.699017
-111.554332, 1132.728992
-111.454332, 1131.758968
-111.354332, 1130.788943
-111.254332, 1129.818919
-111.154332, 1128.848894
-111.054332, 1127.878869
-110.954332, 1126.909243
-110.854332, 1125.939652
-110.754332, 1124.970060
-110.654332, 1124.000468
-110.554332, 1123.030876
-110.454332, 1122.061284
-110.354332, 1121.091692
-110.254332, 1120.122100
-110.154332, 1119.152508
-110.054332, 1118.182916
-109.954332, 1117.213604
-109.854332, 1116.244316
-109.754332, 1115.275028
-109.654332, 1114.305741
-109.554332, 1113.336453
-109.454332, 1112.367165
-109.354332, 1111.397877
-109.254332, 1110.428589
-109.154332, 1109.459301
-109.054332, 1108.490013
-108.954332, 1107.520329
-108.854332, 1106.550610
-108.754332, 1105.580892
-108.654332, 1104.611174
-108.554332, 1103.641456
-108.454332, 1102.671737
-108.354332, 1101.702019
-108.254332, 1100.732301
-108.154332, 1099.762582
-108.054332, 1098.792864
-107.954332, 1097.823309
-107.854332, 1096.853768
-107.754332, 1095.884227
-107.654332, 1094.914685
-107.554332, 1093.945144
-107.454332, 1092.975603
-107.354332, 1092.006062
-107.254332, 1091.036521
-107.154332, 1090.066980
-107.054332, 1089.097438
-106.954332, 1088.128274
-106.854332, 1087.159141
-106.754332, 1086.190009
-106.654332, 1085.220876
-106.554332, 1084.251744
-106.454332, 1083.282611
-106.354332, 1082.313479
-106.254332, 1081.344346
-106.154332, 1080.375214
-106.054332, 1079.406081
-105.954332, 1078.437202
-105.854332, 1077.468344
-105.754332, 1076.499487
-105.654332, 1075.530629
-105.554332, 1074.561772
-105.454332, 1073.592914
-105.354332, 1072.624056
-105.254332, 1071.655199
-105.154332, 1070.686341
-105.054332, 1069.717484
-104.954332, 1068.748199
-104.854332, 1067.778877
-104.754332, 1066.809556
-104.654332, 1065.840234
-104.554332, 1064.870913
-104.454332, 1063.901592
-104.354332, 1062.932270
-104.254332, 1061.962949
-104.154332, 1060.993628
-104.054332, 1060.024306
-103.954332, 1059.055117
-103.854332, 1058.085940
-103.754332, 1057.116762
-103.654332, 1056.147585
-103.554332, 1055.178407
-103.454332, 1054.209229
-103.354332, 1053.240052
-103.254332, 1052.270874
-103.154332, 1051.301696
-103.054332, 1050.332519
-102.954332, 1049.363688
-102.854332, 1048.394887
-102.754332, 1047.426086
-102.654332, 1046.457285
-102.554332, 1045.488484
-102.454332, 1044.519683
-102.354332, 1043.550882
-102.254332, 1042.582081
-102.154332, 1041.613280
-102.054332, 1040.644479
-101.954332, 1039.675904
-101.854332, 1038.707349
-101.754332, 1037.738793
-101.654332, 1036.770238
-101.554332, 1035.801682
-101.454332, 1034.833127
-101.354332, 1033.864571
-101.254332, 1032.896016
-101.154332, 1031.927460
-101.054332, 1030.958905
-100.954332, 1029.989898
-100.854332, 1029.020853
-100.754332, 1028.051808
-100.654332, 1027.082763
-100.554332, 1026.113717
-100.454332, 1025.144672
-100.354332, 1024.175627
-100.254332, 1023.206582
-100.154332, 1022.237536
-100.054332, 1021.268491
 -99.954332, 1020.299561
 -99.854332, 1019.330640
 -99.754332, 1018.361719
 -99.654332, 1017.392798
 -99.554332, 1016.423877
 -99.454332, 1015.454957
 -99.354332, 1014.486036
 -99.254332, 1013.517115
 -99.154332, 1012.548194
 -99.054332, 1011.579273
 -98.954332, 1010.610688
 -98.854332, 1009.642132
 -98.754332, 1008.673575
 -98.654332, 1007.705019
 -98.554332, 1006.736462
 -98.454332, 1005.767906
 -98.354332, 1004.799350
 -98.254332, 1003.830793
 -98.154332, 1002.862237
 -98.054332, 1001.893680
 -97.954332, 1000.925345
 -97.854332,  999.957029
 -97.754332,  998.988712
 -97.654332,  998.020396
 -97.554332,  997.052080
 -97.454332,  996.083764
 -97.354332,  995.115447
 -97.254332,  994.147131
 -97.154332,  993.178815
 -97.054332,  992.210498
 -96.954332,  991.241731
 -96.854332,  990.272926
 -96.754332,  989.304121
 -96.654332,  988.335315
 -96.554332,  987.366510
 -96.454332,  986.397705
 -96.354332,  985.428899
 -96.254332,  984.460094
 -96.154332,  983.491288
 -96.054332,  982.522483
 -95.954332,  981.553800
 -95.854332,  980.585127
 -95.754332,  979.616455
 -95.654332,  978.647782
 -95.554332,  977.679110
 -95.454332,  976.710437
 -95.354332,  975.741765
 -95.254332,  974.773092
 -95.154332,  973.804419
 -95.054332,  972.835747
 -94.954332,  971.867424
 -94.854332,  970.899130
 -94.754332,  969.930837
 -94.654332,  968.962543
 -94.554332,  967.994249
 -94.454332,  967.025956
 -94.354332,  966.057662
 -94.254332,  965.089369
 -94.154332,  964.121075
 -94.054332,  963.152782
 -93.954332,  962.184727
 -93.854332,  961.216693
 -93.754332,  960.248659
 -93.654332,  959.280625
 -93.554332,  958.312591
 -93.454332,  957.344558
 -93.354332,  956.376524
 -93.254332,  955.408490
 -93.154332,  954.440456
 -93.054332,  953.472422
 -92.954332,  952.503957
 -92.854332,  951.535456
 -92.754332,  950.566955
 -92.654332,  949.598454
 -92.554332,  948.629952
 -92.454332,  947.661451
 -92.354332,  946.692950
 -92.254332,  945.724449
 -92.154332,  944.755948
 -92.054332,  943.787446
 -91.954332,  942.819090
 -91.854332,  941.850747
 -91.754332,  940.882403
 -91.654332,  939.914060
 -91.554332,  938.945716
 -91.454332,  937.977373
 -91.354332,  937.009029
 -91.254332,  936.040686
 -91.154332,  935.072342
 -91.054332,  934.103999
 -90.954332,  933.136028
 -90.854332,  932.168089
 -90.754332,  931.200150
 -90.654332,  930.232211
 -90.554332,  929.264272
 -90.454332,  928.296333
 -90.354332,  927.328395
 -90.254332,  926.360456
 -90.154332,  925.392517
 -90.054332,  924.424578
 -89.954332,  923.456900
 -89.854332,  922.489244
 -89.754332,  921.521588
 -89.654332,  920.553932
 -89.554332,  919.586277
 -89.454332,  918.618621
 -89.354332,  917.650965
 -89.254332,  916.683309
 -89.154332,  915.715653
 -89.054332,  914.747997
 -88.954332,  913.779927
 -88.854332,  912.811821
 -88.754332,  911.843715
 -88.654332,  910.875609
 -88.554332,  909.907503
 -88.454332,  908.939397
 -88.354332,  907.971291
 -88.254332,  907.003185
 -88.154332,  906.035079
 -88.054332,  905.066974
 -87.954332,  904.099022
 -87.854332,  903.131084
 -87.754332,  902.163146
 -87.654332,  901.195208
 -87.554332,  900.227269
 -87.454332,  899.259331
 -87.354332,  898.291393
 -87.254332,  897.323455
 -87.154332,  896.355517
 -87.054332,  895.387578
 -86.954332,  894.420014
 -86.854332,  893.452483
 -86.754332,  892.484951
 -86.654332,  891.517419
 -86.554332,  890.549887
 -86.454332,  889.582355
 -86.354332,  888.614823
 -86.254332,  887.647291
 -86.154332,  886.679759
 -86.054332,  885.712227
 -85.954332,  884.744949
 -85.854332,  883.777692
 -85.754332,  882.810436
 -85.654332,  881.843179
 -85.554332,  880.875922
 -85.454332,  879.908666
 -85.354332,  878.941409
 -85.254332,  877.974152
 -85.154332,  877.006896
 -85.054332,  876.039639
 -84.954332,  875.071952
 -84.854332,  874.104228
 -84.754332,  873.136503
 -84.654332,  872.168779
 -84.554332,  871.201055
 -84.454332,  870.233331
 -84.354332,  869.265607
 -84.254332,  868.297883
 -84.154332,  867.330158
 -84.054332,  866.362434
 -83.954332,  865.394843
 -83.854332,  864.427263
 -83.754332,  863.459683
 -83.654332,  862.492103
 -83.554332,  861.524522
 -83.454332,  860.556942
 -83.354332,  859.589362
 -83.254332,  858.621782
 -83.154332,  857.654202
 -83.054332,  856.686622
 -82.954332,  855.719390
 -82.854332,  854.752187
 -82.754332,  853.784985
 -82.654332,  852.817782
 -82.554332,  851.850579
 -82.454332,  850.883377
 -82.354332,  849.916174
 -82.254332,  848.948972
 -82.154332,  847.981769
 -82.054332,  847.014566
 -81.954332,  846.047588
 -81.854332,  845.080628
 -81.754332,  844.113668
 -81.654332,  843.146708
 -81.554332,  842.179748
 -81.454332,  841.212789
 -81.354332,  840.245829
 -81.254332,  839.278869
 -81.154332,  838.311909
 -81.054332,  837.344949
 -80.954332,  836.377526
 -80.854332,  835.410064
 -80.754332,  834.442601
 -80.654332,  833.475139
 -80.554332,  832.507677
 -80.454332,  831.540214
 -80.354332,  830.572752
 -80.254332,  829.605289
 -80.154332,  828.637827
 -80.054332,  827.670364
 -79.954332,  826.703004
 -79.854332,  825.735652
 -79.754332,  824.768300
 -79.654332,  823.800948
 -79.554332,  822.833596
 -79.454332,  821.866244
 -79.354332,  820.898892
 -79.254332,  819.931540
 -79.154332,  818.964188
 -79.054332,  817.996836
 -78.954332,  817.029804
 -78.854332,  816.062798
 -78.754332,  815.095793
 -78.654332,  814.128788
 -78.554332,  813.161783
 -78.454332,  812.194778
 -78.354332,  811.227773
 -78.254332,  810.260768
 -78.154332,  809.293762
 -78.054332,  808.326757
 -77.954332,  807.360818
 -77.854332,  806.394969
 -77.754332,  805.429120
 -77.654332,  804.463271
 -77.554332,  803.497422
 -77.454332,  802.531574
 -77.354332,  801.565725
 -77.254332,  800.599876
 -77.154332,  799.634027
 -77.054332,  798.668178
 -76.954332,  797.702340
 -76.854332,  796.736503
 -76.754332,  795.770665
 -76.654332,  794.804828
 -76.554332,  793.838990
 -76.454332,  792.873153
 -76.354332,  791.907316
 -76.254332,  790.941478
 -76.154332,  789.975641
 -76.054332,  789.009803
 -75.954332,  788.043871
 -75.854332,  787.077931
 -75.754332,  786.111990
 -75.654332,  785.146050
 -75.554332,  784.180109
 -75.454332,  783.214169
 -75.354332,  782.248229
 -75.254332,  781.282288
 -75.154332,  780.316348
 -75.054332,  779.350407
 -74.954332,  778.384817
 -74.854332,  777.419257
 -74.754332,  776.453697
 -74.654332,  775.488137
 -74.554332,  774.522577
 -74.454332,  773.557017
 -74.354332,  772.591456
 -74.254332,  771.625896
 -74.154332,  770.660336
 -74.054332,  769.694776
 -73.954332,  768.728818
 -73.854332,  767.762827
 -73.754332,  766.796835
 -73.654332,  765.830843
 -73.554332,  764.864852
 -73.454332,  763.898860
 -73.354332,  762.932868
 -73.254332,  761.966877
 -73.154332,  761.000885
 -73.054332,  760.034893
 -72.954332,  759.069015
 -72.854332,  758.103146
 -72.754332,  757.137277
 -72.654332,  756.171408
 -72.554332,  755.205539
 -72.454332,  754.239670
 -72.354332,  753.273801
 -72.254332,  752.307932
 -72.154332,  751.342064
 -72.054332,  750.376195
 -71.954332,  749.410074
 -71.854332,  748.443932
 -71.754332,  747.477790
 -71.654332,  746.511648
 -71.554332,  745.545506
 -71.454332,  744.579364
 -71.354332,  743.613222
 -71.254332,  742.647080
 -71.154332,  741.680938
 -71.054332,  740.714795
 -70.954332,  739.747350
 -70.854332,  738.779793
 -70.754332,  737.812237
 -70.654332,  736.844680
 -70.554332,  735.877124
 -70.454332,  734.909567
 -70.354332,  733.942011
 -70.254332,  732.974454
 -70.154332,  732.006898
 -70.054332,  731.039341
 -69.954332,  730.071491
 -69.854332,  729.103615
 -69.754332,  728.135740
 -69.654332,  727.167864
 -69.554332,  726.199989
 -69.454332,  725.232113
 -69.354332,  724.264238
 -69.254332,  723.296363
 -69.154332,  722.328487
 -69.054332,  721.360612
 -68.954332,  720.391450
 -68.854332,  719.422178
 -68.754332,  718.452906
 -68.654332,  717.483634
 -68.554332,  716.514362
 -68.454332,  715.545090
 -68.354332,  714.575818
 -68.254332,  713.606546
 -68.154332,  712.637274
 -68.054332,  711.668003
 -67.954332,  710.698765
 -67.854332,  709.729531
 -67.754332,  708.760297
 -67.654332,  707.791063
 -67.554332,  706.821829
 -67.454332,  705.852595
 -67.354332,  704.883361
 -67.254332,  703.914126
 -67.154332,  702.944892
 -67.054332,  701.975658
 -66.954332,  701.006822
 -66.854332,  700.038019
 -66.754332,  699.069216
 -66.654332,  698.100414
 -66.554332,  697.131611
 -66.454332,  696.162809
 -66.354332,  695.194006
 -66.254332,  694.225203
 -66.154332,  693.256401
 -66.054332,  692.287598
 -65.954332,  691.318396
 -65.854332,  690.349159
 -65.754332,  689.379923
 -65.654332,  688.410686
 -65.554332,  687.441450
 -65.454332,  686.472214
 -65.354332,  685.502977
 -65.254332,  684.533741
 -65.154332,  683.564504
 -65.054332,  682.595268
 -64.954332,  681.624767
 -64.854332,  680.654159
 -64.754332,  679.683551
 -64.654332,  678.712942
 -64.554332,  677.742334
 -64.454332,  676.771725
 -64.354332,  675.801117
 -64.254332,  674.830509
 -64.154332,  673.859900
 -64.054332,  672.889292
 -63.954332,  671.918781
 -63.854332,  670.948279
 -63.754332,  669.977776
 -63.654332,  669.007274
 -63.554332,  668.036772
 -63.454332,  667.066269
 -63.354332,  666.095767
 -63.254332,  665.125265
 -63.154332,  664.154762
 -63.054332,  663.184260
 -62.954332,  662.213417
 -62.854332,  661.242544
 -62.754332,  660.271672
 -62.654332,  659.300799
 -62.554332,  658.329927
 -62.454332,  657.359054
 -62.354332,  656.388182
 -62.254332,  655.417309
 -62.154332,  654.446437
 -62.054332,  653.475565
 -61.954332,  652.504342
 -61.854332,  651.533090
 -61.754332,  650.561837
 -61.654332,  649.590585
 -61.554332,  648.619333
 -61.454332,  647.648080
 -61.354332,  646.676828
 -61.254332,  645.705575
 -61.154332,  644.734323
 -61.054332,  643.763071
 -60.954332,  642.790676
 -60.854332,  641.818184
 -60.754332,  640.845692
 -60.654332,  639.873200
 -60.554332,  638.900708
 -60.454332,  637.928216
 -60.354332,  636.955724
 -60.254332,  635.983232
 -60.154332,  635.010740
 -60.054332,  634.038248
 -59.954332,  633.065313
 -59.854332,  632.092340
 -59.754332,  631.119368
 -59.654332,  630.146395
 -59.554332,  629.173423
 -59.454332,  628.200450
 -59.354332,  627.227477
 -59.254332,  626.254505
 -59.154332,  625.281532
 -59.054332,  624.308559
 -58.954332,  623.334451
 -58.854332,  622.360245
 -58.754332,  621.386040
 -58.654332,  620.411834
 -58.554332,  619.437628
 -58.454332,  618.463423
 -58.354332,  617.489217
 -58.254332,  616.515012
 -58.154332,  615.540806
 -58.054332,  614.566600
 -57.954332,  613.593099
 -57.854332,  612.619657
 -57.754332,  611.646216
 -57.654332,  610.672774
 -57.554332,  609.699333
 -57.454332,  608.725891
 -57.354332,  607.752449
 -57.254332,  606.779008
 -57.154332,  605.805566
 -57.054332,  604.832125
 -56.954332,  603.858644
 -56.854332,  602.885160
 -56.754332,  601.911677
 -56.654332,  600.938193
 -56.554332,  599.964709
 -56.454332,  598.991225
 -56.354332,  598.017742
 -56.254332,  597.044258
 -56.154332,  596.070774
 -56.054332,  595.097290
 -55.954332,  594.124518
 -55.854332,  593.151806
 -55.754332,  592.179094
 -55.654332,  591.206383
 -55.554332,  590.233671
 -55.454332,  589.260959
 -55.354332,  588.288247
 -55.254332,  587.315536
 -55.154332,  586.342824
 -55.054332,  585.370112
 -54.954332,  584.397332
 -54.854332,  583.424546
 -54.754332,  582.451760
 -54.654332,  581.478973
 -54.554332,  580.506187
 -54.454332,  579.533401
 -54.354332,  578.560615
 -54.254332,  577.587829
 -54.154332,  576.615042
 -54.054332,  575.642256
 -53.954332,  574.670119
 -53.854332,  573.698038
 -53.754332,  572.725957
 -53.654332,  571.753875
 -53.554332,  570.781794
 -53.454332,  569.809712
 -53.354332,  568.837631
 -53.254332,  567.865549
 -53.154332,  566.893468
 -53.054332,  565.921387
 -52.954332,  564.949304
 -52.854332,  563.977222
 -52.754332,  563.005140
 -52.654332,  562.033057
 -52.554332,  561.060975
 -52.454332,  560.088893
 -52.354332,  559.116810
 -52.254332,  558.144728
 -52.154332,  557.172646
 -52.054332,  556.200563
 -51.954332,  555.227955
 -51.854332,  554.255303
 -51.754332,  553.282650
 -51.654332,  552.309997
 -51.554332,  551.337344
 -51.454332,  550.364691
 -51.354332,  549.392038
 -51.254332,  548.419386
 -51.154332,  547.446733
 -51.054332,  546.474080
 -50.954332,  545.500204
 -50.854332,  544.526225
 -50.754332,  543.552245
 -50.654332,  542.578265
 -50.554332,  541.604285
 -50.454332,  540.630305
 -50.354332,  539.656326
 -50.254332,  538.682346
 -50.154332,  537.708366
 -50.054332,  536.734386
 -49.954332,  535.761035
 -49.854332,  534.787738
 -49.754332,  533.814440
 -49.654332,  532.841143
 -49.554332,  531.867845
 -49.454332,  530.894548
 -49.354332,  529.921251
 -49.254332,  528.947953
 -49.154332,  527.974656
 -49.054332,  527.001358
 -48.954332,  526.027952
 -48.854332,  525.054536
 -48.754332,  524.081121
 -48.654332,  523.107705
 -48.554332,  522.134289
 -48.454332,  521.160874
 -48.354332,  520.187458
 -48.254332,  519.214042
 -48.154332,  518.240626
 -48.054332,  517.267211
 -47.954332,  516.294452
 -47.854332,  515.321748
 -47.754332,  514.349045
 -47.654332,  513.376342
 -47.554332,  512.403638
 -47.454332,  511.430935
 -47.354332,  510.458232
 -47.254332,  509.485528
 -47.154332,  508.512825
 -47.054332,  507.540122
 -46.954332,  506.567307
 -46.854332,  505.594482
 -46.754332,  504.621657
 -46.654332,  503.648832
 -46.554332,  502.676007
 -46.454332,  501.703183
 -46.354332,  500.730358
 -46.254332,  499.757533
 -46.154332,  498.784708
 -46.054332,  497.811883
 -45.954332,  496.839684
 -45.854332,  495.867539
 -45.754332,  494.895393
 -45.654332,  493.923247
 -45.554332,  492.951102
 -45.454332,  491.978956
 -45.354332,  491.006810
 -45.254332,  490.034665
 -45.154332,  489.062519
 -45.054332,  488.090373
 -44.954332,  487.118218
 -44.854332,  486.146062
 -44.754332,  485.173906
 -44.654332,  484.201750
 -44.554332,  483.229594
 -44.454332,  482.257438
 -44.354332,  481.285281
 -44.254332,  480.313125
 -44.154332,  479.340969
 -44.054332,  478.368813
 -43.954332,  477.396138
 -43.854332,  476.423418
 -43.754332,  475.450699
 -43.654332,  474.477979
 -43.554332,  473.505259
 -43.454332,  472.532540
 -43.354332,  471.559820
 -43.254332,  470.587101
 -43.154332,  469.614381
 -43.054332,  468.641661
 -42.954332,  467.667738
 -42.854332,  466.693713
 -42.754332,  465.719687
 -42.654332,  464.745662
 -42.554332,  463.771636
 -42.454332,  462.797611
 -42.354332,  461.823585
 -42.254332,  460.849560
 -42.154332,  459.875534
 -42.054332,  458.901509
 -41.954332,  457.928153
 -41.854332,  456.954854
 -41.754332,  455.981556
 -41.654332,  455.008257
 -41.554332,  454.034958
 -41.454332,  453.061660
 -41.354332,  452.088361
 -41.254332,  451.115063
 -41.154332,  450.141764
 -41.054332,  449.168465
 -40.954332,  448.195107
 -40.854332,  447.221743
 -40.754332,  446.248379
 -40.654332,  445.275015
 -40.554332,  444.301651
 -40.454332,  443.328287
 -40.354332,  442.354924
 -40.254332,  441.381560
 -40.154332,  440.408196
 -40.054332,  439.434832
 -39.954332,  438.462185
 -39.854332,  437.489598
 -39.754332,  436.517011
 -39.654332,  435.544425
 -39.554332,  434.571838
 -39.454332,  433.599252
 -39.354332,  432.626665
 -39.254332,  431.654079
 -39.154332,  430.681492
 -39.054332,  429.708906
 -38.954332,  428.736268
 -38.854332,  427.763625
 -38.754332,  426.790983
 -38.654332,  425.818341
 -38.554332,  424.845699
 -38.454332,  423.873056
 -38.354332,  422.900414
 -38.254332,  421.927772
 -38.154332,  420.955130
 -38.054332,  419.982487
 -37.954332,  419.010535
 -37.854332,  418.038642
 -37.754332,  417.066748
 -37.654332,  416.094854
 -37.554332,  415.122961
 -37.454332,  414.151067
 -37.354332,  413.179174
 -37.254332,  412.207280
 -37.154332,  411.235387
 -37.054332,  410.263493
 -36.954332,  409.291488
 -36.854332,  408.319474
 -36.754332,  407.347460
 -36.654332,  406.375446
 -36.554332,  405.403431
 -36.454332,  404.431417
 -36.354332,  403.459403
 -36.254332,  402.487389
 -36.154332,  401.515374
 -36.054332,  400.543360
 -35.954332,  399.570892
 -35.854332,  398.598385
 -35.754332,  397.625878
 -35.654332,  396.653370
 -35.554332,  395.680863
 -35.454332,  394.708356
 -35.354332,  393.735849
 -35.254332,  392.763342
 -35.154332,  391.790835
 -35.054332,  390.818328
 -34.954332,  389.844678
 -34.854332,  388.870931
 -34.754332,  387.897184
 -34.654332,  386.923436
 -34.554332,  385.949689
 -34.454332,  384.975942
 -34.354332,  384.002195
 -34.254332,  383.028448
 -34.154332,  382.054700
 -34.054332,  381.080953
 -33.954332,  380.107939
 -33.854332,  379.134987
 -33.754332,  378.162035
 -33.654332,  377.189083
 -33.554332,  376.216132
 -33.454332,  375.243180
 -33.354332,  374.270228
 -33.254332,  373.297276
 -33.154332,  372.324324
 -33.054332,  371.351372
 -32.954332,  370.378412
 -32.854332,  369.405451
 -32.754332,  368.432489
 -32.654332,  367.459528
 -32.554332,  366.486567
 -32.454332,  365.513606
 -32.354332,  364.540645
 -32.254332,  363.567683
 -32.154332,  362.594722
 -32.054332,  361.621761
 -31.954332,  360.649559
 -31.854332,  359.677422
 -31.754332,  358.705286
 -31.654332,  357.733149
 -31.554332,  356.761012
 -31.454332,  355.788875
 -31.354332,  354.816738
 -31.254332,  353.844601
 -31.154332,  352.872465
 -31.054332,  351.900328
 -30.954332,  350.928167
 -30.854332,  349.956004
 -30.754332,  348.983841
 -30.654332,  348.011678
 -30.554332,  347.039514
 -30.454332,  346.067351
 -30.354332,  345.095188
 -30.254332,  344.123025
 -30.154332,  343.150862
 -30.054332,  342.178699
 -29.954332,  341.207242
 -29.854332,  340.235845
 -29.754332,  339.264448
 -29.654332,  338.293051
 -29.554332,  337.321655
 -29.454332,  336.350258
 -29.354332,  335.378861
 -29.254332,  334.407464
 -29.154332,  333.436067
 -29.054332,  332.464670
 -28.954332,  331.493161
 -28.854332,  330.521642
 -28.754332,  329.550122
 -28.654332,  328.578603
 -28.554332,  327.607084
 -28.454332,  326.635565
 -28.354332,  325.664046
 -28.254332,  324.692527
 -28.154332,  323.721008
 -28.054332,  322.749489
 -27.954332,  321.777499
 -27.854332,  320.805469
 -27.754332,  319.833439
 -27.654332,  318.861409
 -27.554332,  317.889379
 -27.454332,  316.917349
 -27.354332,  315.945320
 -27.254332,  314.973290
 -27.154332,  314.001260
 -27.054332,  313.029230
 -26.954332,  312.056026
 -26.854332,  311.082721
 -26.754332,  310.109417
 -26.654332,  309.136113
 -26.554332,  308.162808
 -26.454332,  307.189504
 -26.354332,  306.216200
 -26.254332,  305.242895
 -26.154332,  304.269591
 -26.054332,  303.296287
 -25.954332,  302.323681
 -25.854332,  301.351135
 -25.754332,  300.378590
 -25.654332,  299.406044
 -25.554332,  298.433498
 -25.454332,  297.460952
 -25.354332,  296.488406
 -25.254332,  295.515860
 -25.154332,  294.543314
 -25.054332,  293.570768
 -24.954332,  292.598169
 -24.854332,  291.625565
 -24.754332,  290.652961
 -24.654332,  289.680357
 -24.554332,  288.707753
 -24.454332,  287.735149
 -24.354332,  286.762545
 -24.254332,  285.789941
 -24.154332,  284.817338
 -24.054332,  283.844734
 -23.954332,  282.872843
 -23.854332,  281.901013
 -23.754332,  280.929184
 -23.654332,  279.957354
 -23.554332,  278.985524
 -23.454332,  278.013695
 -23.354332,  277.041865
 -23.254332,  276.070035
 -23.154332,  275.098206
 -23.054332,  274.126376
 -22.954332,  273.154471
 -22.854332,  272.182560
 -22.754332,  271.210648
 -22.654332,  270.238737
 -22.554332,  269.266825
 -22.454332,  268.294914
 -22.354332,  267.323002
 -22.254332,  266.351091
 -22.154332,  265.379179
 -22.054332,  264.407268
 -21.954332,  263.436016
 -21.854332,  262.464820
 -21.754332,  261.493624
 -21.654332,  260.522429
 -21.554332,  259.551233
 -21.454332,  258.580037
 -21.354332,  257.608841
 -21.254332,  256.637645
 -21.154332,  255.666450
 -21.054332,  254.695254
 -20.954332,  253.723899
 -20.854332,  252.752531
 -20.754332,  251.781163
 -20.654332,  250.809795
 -20.554332,  249.838428
 -20.454332,  248.867060
 -20.354332,  247.895692
 -20.254332,  246.924324
 -20.154332,  245.952956
 -20.054332,  244.981588
 -19.954332,  244.009707
 -19.854332,  243.037783
 -19.754332,  242.065859
 -19.654332,  241.093935
 -19.554332,  240.122011
 -19.454332,  239.150087
 -19.354332,  238.178163
 -19.254332,  237.206239
 -19.154332,  236.234315
 -19.054332,  235.262390
 -18.954332,  234.289251
 -18.854332,  233.316009
 -18.754332,  232.342766
 -18.654332,  231.369524
 -18.554332,  230.396281
 -18.454332,  229.423039
 -18.354332,  228.449796
 -18.254332,  227.476554
 -18.154332,  226.503311
 -18.054332,  225.530068
 -17.954332,  224.557497
 -17.854332,  223.584983
 -17.754332,  222.612469
 -17.654332,  221.639955
 -17.554332,  220.667441
 -17.454332,  219.694926
 -17.354332,  218.722412
 -17.254332,  217.749898
 -17.154332,  216.777384
 -17.054332,  215.804870
 -16.954332,  214.832278
 -16.854332,  213.859680
 -16.754332,  212.887081
 -16.654332,  211.914483
 -16.554332,  210.941884
 -16.454332,  209.969285
 -16.354332,  208.996687
 -16.254332,  208.024088
 -16.154332,  207.051490
 -16.054332,  206.078891
 -15.954332,  205.106989
 -15.854332,  204.135146
 -15.754332,  203.163303
 -15.654332,  202.191460
 -15.554332,  201.219617
 -15.454332,  200.247774
 -15.354332,  199.275931
 -15.254332,  198.304088
 -15.154332,  197.332245
 -15.054332,  196.360402
 -14.954332,  195.388468
 -14.854332,  194.416526
 -14.754332,  193.444584
 -14.654332,  192.472642
 -14.554332,  191.500700
 -14.454332,  190.528757
 -14.354332,  189.556815
 -14.254332,  188.584873
 -14.154332,  187.612931
 -14.054332,  186.640989
 -13.954332,  185.669695
 -13.854332,  184.698457
 -13.754332,  183.727218
 -13.654332,  182.755979
 -13.554332,  181.784740
 -13.454332,  180.813502
 -13.354332,  179.842263
 -13.254332,  178.871024
 -13.154332,  177.899785
 -13.054332,  176.928547
 -12.954332,  175.957137
 -12.854332,  174.985712
 -12.754332,  174.014288
 -12.654332,  173.042864
 -12.554332,  172.071439
 -12.454332,  171.100015
 -12.354332,  170.128590
 -12.254332,  169.157166
 -12.154332,  168.185741
 -12.054332,  167.214317
 -11.954332,  166.242366
 -11.854332,  165.270371
 -11.754332,  164.298375
 -11.654332,  163.326379
 -11.554332,  162.354384
 -11.454332,  161.382388
 -11.354332,  160.410392
 -11.254332,  159.438397
 -11.154332,  158.466401
 -11.054332,  157.494406
 -10.954332,  156.521179
 -10.854332,  155.547847
 -10.754332,  154.574516
 -10.654332,  153.601184
 -10.554332,  152.627853
 -10.454332,  151.654521
 -10.354332,  150.681189
 -10.254332,  149.707858
 -10.154332,  148.734526
 -10.054332,  147.761195
  -9.954332,  146.788527
  -9.854332,  145.815916
  -9.754332,  144.843306
  -9.654332,  143.870695
  -9.554332,  142.898084
  -9.454332,  141.925473
  -9.354332,  140.952862
  -9.254332,  139.980252
  -9.154332,  139.007641
  -9.054332,  138.035030
  -8.954332,  137.062333
  -8.854332,  136.089629
  -8.754332,  135.116925
  -8.654332,  134.144220
  -8.554332,  133.171516
  -8.454332,  132.198812
  -8.354332,  131.226107
  -8.254332,  130.253403
  -8.154332,  129.280699
  -8.054332,  128.307995
  -7.954332,  127.335983
  -7.854332,  126.364031
  -7.754332,  125.392079
  -7.654332,  124.420127
  -7.554332,  123.448175
  -7.454332,  122.476223
  -7.354332,  121.504271
  -7.254332,  120.532319
  -7.154332,  119.560367
  -7.054332,  118.588415
  -6.954332,  117.616368
  -6.854332,  116.644312
  -6.754332,  115.672257
  -6.654332,  114.700201
  -6.554332,  113.728146
  -6.454332,  112.756091
  -6.354332,  111.784035
  -6.254332,  110.811980
  -6.154332,  109.839925
  -6.054332,  108.867869
  -5.954332,  107.896464
  -5.854332,  106.925113
  -5.754332,  105.953763
  -5.654332,  104.982413
  -5.554332,  104.011063
  -5.454332,  103.039713
  -5.354332,  102.068363
  -5.254332,  101.097013
  -5.154332,  100.125662
  -5.054332,   99.154312
  -4.954332,   98.182792
  -4.854332,   97.211257
  -4.754332,   96.239722
  -4.654332,   95.268187
  -4.554332,   94.296651
  -4.454332,   93.325116
  -4.354332,   92.353581
  -4.254332,   91.382046
  -4.154332,   90.410511
  -4.054332,   89.438976
  -3.954332,   88.466916
  -3.854332,   87.494812
  -3.754332,   86.522707
  -3.654332,   85.550603
  -3.554332,   84.578498
  -3.454332,   83.606393
  -3.354332,   82.634289
  -3.254332,   81.662184
  -3.154332,   80.690080
  -3.054332,   79.717975
  -2.954332,   78.744640
  -2.854332,   77.771200
  -2.754332,   76.797759
  -2.654332,   75.824319
  -2.554332,   74.850879
  -2.454332,   73.877439
  -2.354332,   72.903998
  -2.254332,   71.930558
  -2.154332,   70.957118
  -2.054332,   69.983678
  -1.954332,   69.010912
  -1.854332,   68.038203
  -1.754332,   67.065494
  -1.654332,   66.092785
  -1.554332,   65.120076
  -1.454332,   64.147368
  -1.354332,   63.174659
  -1.254332,   62.201950
  -1.154332,   61.229241
  -1.054332,   60.256532
  -0.954332,   59.283745
  -0.854332,   58.310951
  -0.754332,   57.338157
  -0.654332,   56.365363
  -0.554332,   55.392568
  -0.454332,   54.419774
  -0.354332,   53.446980
  -0.254332,   52.474186
  -0.154332,   51.501392
  -0.054332,   50.528598
   0.000000,   50.000000
   0.100000,   49.028014
   0.200000,   48.056028
   0.300000,   47.084042
   0.400000,   46.112057
   0.500000,   45.140071
   0.600000,   44.168085
   0.700000,   43.196099
   0.800000,   42.224113
   0.900000,   41.252127
   1.000000,   40.283541
   1.100000,   39.318870
   1.200000,   38.354199
   1.300000,   37.389528
   1.400000,   36.424857
   1.500000,   35.460186
   1.600000,   34.495515
   1.700000,   33.530844
   1.800000,   32.566173
   1.900000,   31.601502
   2.000000,   30.643656
   2.100000,   29.693672
   2.200000,   28.743687
   2.300000,   27.793702
   2.400000,   26.843717
   2.500000,   25.893733
   2.600000,   24.943748
   2.700000,   23.993763
   2.800000,   23.043778
   2.900000,   22.093794
   3.000000,   21.147880
   3.100000,   20.206654
   3.121956,   20.000000
   3.221956,   19.065318
   3.321956,   18.130637
   3.421956,   17.195955
   3.521956,   16.261273
   3.621956,   15.326592
   3.721956,   14.391910
   3.821956,   13.457228
   3.921956,   12.522546
   4.021956,   11.727336
   4.121956,   10.996463
   4.221956,   10.265589
   4.321956,    9.534715
   4.421956,    8.803841
   4.521956,    8.072967
   4.621956,    7.342093
   4.721956,    6.611219
   4.821956,    5.880345
   4.921956,    5.149471
   5.021956,    4.686043
   5.121956,    4.345983
   5.221956,    4.005923
   5.321956,    3.665863
   5.421956,    3.325803
   5.521956,    2.985744
   5.621956,    2.645684
   5.721956,    2.305624
   5.763204,    2.165354
   5.863204,    2.044304
   5.963204,    1.934972
   6.063204,    1.934972
   6.163204,    1.934972
   6.263204,    1.934972
   6.363204,    1.934972
   6.463204,    1.934972
   6.563204,    1.934972
   6.663204,    1.934972
   6.763204,    1.934972
   6.863204,    1.934972
   6.963204,    1.934972
   7.063204,    1.934972
   7.163204,    1.934972
   7.263204,    1.934972
   7.363204,    1.934972
   7.463204,    1.934972
   7.563204,    1.934972
   7.663204,    1.934972
   7.763204,    1.934972
   7.863204,    1.934972
   7.963204,    1.934972
   8.063204,    1.934972
   8.163204,    1.934972
   8.263204,    1.934972
   8.363204,    1.934972
   8.463204,    1.934972
   8.563204,    1.934972
   8.663204,    1.934972
   8.763204,    1.934972
   8.863204,    1.934972
   8.963204,    1.934972
   9.063204,    1.934972
   9.163204,    1.934972
   9.263204,    1.934972
   9.363204,    1.934972
   9.463204,    1.934972
   9.563204,    1.934972
   9.663204,    1.934972
   9.763204,    1.934972
   9.863204,    1.934972
   9.963204,    1.934972
  10.063204,    1.934972
  10.163204,    1.934972
  10.263204,    1.934972
  10.363204,    1.934972
  10.463204,    1.934972
  10.563204,    1.934972
  10.663204,    1.934972
  10.763204,    1.934972
  10.863204,    1.934972
  10.963204,    1.934972
  11.063204,    1.934972
  11.163204,    1.934972
  11.263204,    1.934972
  11.363204,    1.934972
  11.463204,    1.934972
  11.563204,    1.934972
  11.663204,    1.934972
  11.763204,    1.934972
  11.863204,    1.934972
  11.963204,    1.934972
  12.063204,    1.934972
  12.163204,    1.934972
  12.263204,    1.934972
  12.363204,    1.934972
  12.463204,    1.934972
  12.563204,    1.934972
  12.663204,    1.934972
  12.763204,    1.934972
  12.863204,    1.934972
  12.963204,    1.934972
  13.063204,    1.934972
  13.163204,    1.934972
  13.263204,    1.934972
  13.363204,    1.934972
  13.463204,    1.934972
  13.563204,    1.934972
  13.663204,    1.934972
  13.763204,    1.934972
  13.863204,    1.934972
  13.963204,    1.934972
  14.063204,    1.934972
  14.163204,    1.934972
  14.263204,    1.934972
  14.363204,    1.934972
  14.463204,    1.934972
  14.563204,    1.934972
  14.663204,    1.934972
  14.763204,    1.934972
  14.863204,    1.934972
  14.963204,    1.934972
  15.063204,    1.934972
  15.163204,    1.934972
  15.263204,    1.934972
  15.363204,    1.934972
  15.463204,    1.934972
  15.563204,    1.934972
  15.663204,    1.934972
  15.763204,    1.934972
  15.863204,    1.934972
  15.963204,    1.934972
  16.063204,    1.934972
  16.163204,    1.934972
  16.263204,    1.934972
  16.363204,    1.934972
  16.463204,    1.934972
  16.563204,    1.934972
  16.663204,    1.934972
  16.763204,    1.934972
  16.863204,    1.934972
  16.963204,    1.934972
  17.063204,    1.934972
  17.163204,    1.934972
  17.263204,    1.934972
  17.363204,    1.934972
  17.463204,    1.934972
  17.563204,    1.934972
  17.663204,    1.934972
  17.763204,    1.934972
  17.863204,    1.934972
  17.963204,    1.934972
  18.063204,    1.934972
  18.163204,    1.934972
  18.263204,    1.934972
  18.363204,    1.934972
  18.463204,    1.934972
  18.563204,    1.934972
  18.663204,    1.934972
  18.763204,    1.934972
  18.863204,    1.934972
  18.963204,    1.934972
  19.063204,    1.934972
  19.135158,    1.934972
