Ground Distance, Horizontal Forces
   0.000000,    0.000000
   0.016710,    0.055586
   0.183425,    0.606204
   0.368636,    1.217853
   0.553847,    1.829501
   0.739059,    2.441150
   0.924270,    3.052799
   1.109481,    3.664448
   1.294692,    4.276096
   1.479903,    4.887745
   1.665114,    5.499394
   1.850325,    6.111043
   2.302802,    7.590824
   2.788649,    9.179000
   3.274497,   10.767176
   3.760344,   12.355352
   4.246191,   13.943528
   4.732039,   15.531703
   5.217886,   17.119879
   5.703734,   18.708055
   6.189581,   20.296231
   6.675428,   21.884407
   7.425528,   24.310701
   8.208622,   26.841643
   8.991715,   29.372585
   9.774809,   31.903526
  10.557903,   34.434468
  11.340997,   36.965410
  12.124090,   39.496351
  12.907184,   42.027293
  13.690278,   44.558234
  14.473372,   47.089176
  15.517622,   50.427530
  16.594479,   53.866698
  17.671337,   57.305865
  18.748195,   60.745033
  19.825052,   64.184200
  20.901910,   67.623368
  21.978768,   71.062535
  23.055626,   74.501703
  24.132483,   77.940871
  25.209341,   81.380038
  26.544182,   85.595333
  27.911234,   89.907534
  29.278286,   94.219736
  30.645338,   98.531937
  32.012390,  102.844139
  33.379442,  107.156340
  34.746494,  111.468541
  36.113546,  115.780743
  37.480599,  120.092944
  38.847651,  124.405146
  40.469440,  129.460859
  42.123036,  134.609406
  43.776632,  139.757953
  45.430228,  144.906500
  47.083824,  150.055047
  48.737419,  155.203595
  50.391015,  160.352142
  52.044611,  165.500689
  53.698207,  170.649236
  55.351803,  175.797783
  57.256362,  181.635670
  59.192256,  187.559627
  61.128151,  193.483584
  63.064045,  199.407542
  64.999939,  205.331499
  66.935834,  211.255456
  68.871728,  217.179413
  70.807622,  223.103370
  72.743516,  229.027328
  74.679411,  234.951285
  76.861703,  241.517585
  79.074761,  248.164088
  81.287818,  254.810591
  83.500876,  261.457093
  85.713933,  268.103596
  87.926991,  274.750099
  90.140048,  281.396602
  92.353106,  288.043104
  94.566163,  294.689607
  96.779221,  301.336110
  99.234050,  308.582964
 101.719067,  315.904778
 104.204085,  323.226591
 106.689102,  330.548405
 109.174119,  337.870218
 111.659136,  345.192032
 114.144153,  352.513846
 116.629171,  359.835659
 119.114188,  367.157473
 121.599205,  374.479286
 124.321358,  382.360284
 127.073121,  390.311101
 129.824883,  398.261918
 132.576645,  406.212735
 135.328408,  414.163552
 138.080170,  422.114369
 140.831932,  430.065185
 143.583695,  438.016002
 146.335457,  445.966819
 149.087219,  453.917636
 152.071478,  462.387377
 155.084766,  470.921910
 158.098055,  479.456443
 161.111343,  487.990976
 164.124631,  496.525510
 167.137919,  505.060043
 170.151207,  513.594576
 173.164496,  522.129109
 176.177784,  530.663642
 179.191072,  539.198176
 182.432219,  548.212354
 185.701815,  557.286420
 188.971412,  566.360487
 192.241008,  575.434553
 195.510605,  584.508620
 198.780201,  593.582686
 202.049798,  602.656753
 205.319395,  611.730819
 208.588991,  620.804886
 211.858588,  629.878952
 215.351186,  639.367115
 218.871628,  648.906982
 222.392070,  658.446849
 225.912512,  667.986717
 229.432954,  677.526584
 232.953396,  687.066451
 236.473838,  696.606318
 239.994280,  706.146185
 243.514722,  715.686052
 247.035164,  725.225919
 250.772826,  735.107150
 254.537610,  745.031003
 258.302394,  754.954856
 262.067178,  764.878709
 265.831961,  774.802562
 269.596745,  784.726415
 273.361529,  794.650268
 277.126313,  804.574121
 280.891097,  814.497974
 284.655881,  824.421827
 288.631919,  834.643381
 292.634333,  844.902106
 296.636748,  855.160831
 300.639163,  865.419557
 304.641578,  875.678282
 308.643992,  885.937007
 312.646407,  896.195732
 316.648822,  906.454457
 320.651237,  916.713183
 324.653651,  926.971908
 328.861444,  937.487195
 333.094881,  948.034516
 337.328317,  958.581837
 341.561754,  969.129158
 345.795190,  979.676479
 350.028627,  990.223800
 354.262063, 1000.771121
 358.495499, 1011.318442
 362.728936, 1021.865763
 366.962372, 1032.413084
 371.395406, 1043.178186
 375.853361, 1053.970480
 380.311315, 1064.762773
 384.769270, 1075.555067
 389.227225, 1086.347361
 393.685180, 1097.139655
 398.143135, 1107.931949
 402.601090, 1118.724243
 407.059045, 1129.516536
 411.517000, 1140.308830
 416.168868, 1151.282436
 420.844948, 1162.278680
 425.521028, 1173.274925
 430.197108, 1184.271169
 434.873188, 1195.267414
 439.549268, 1206.263658
 444.225348, 1217.259902
 448.901428, 1228.256147
 453.577508, 1239.252391
 458.253588, 1250.248635
 463.117997, 1261.391982
 468.005921, 1272.553696
 472.893845, 1283.715409
 477.781769, 1294.877123
 482.669693, 1306.038836
 487.557617, 1317.200550
 492.445541, 1328.362263
 497.333465, 1339.523977
 502.221389, 1350.685690
 507.109313, 1361.847404
 512.180087, 1373.124636
 517.273692, 1384.416291
 522.367297, 1395.707946
 527.460902, 1406.999602
 532.554506, 1418.291257
 537.648111, 1429.582912
 542.741716, 1440.874567
 547.835321, 1452.166223
 552.928925, 1463.457878
 558.022530, 1474.749533
 563.293639, 1486.129763
 568.586911, 1497.521052
 573.880184, 1508.912340
 579.173456, 1520.303629
 584.466728, 1531.694918
 589.760000, 1543.086207
 595.053272, 1554.477496
 600.346545, 1565.868785
 605.639817, 1577.260074
 610.933089, 1588.651362
 616.398659, 1600.104215
 621.885743, 1611.564753
 627.372827, 1623.025292
 632.859910, 1634.485831
 638.346994, 1645.946370
 643.834078, 1657.406909
 649.321161, 1668.867448
 654.808245, 1680.327986
 660.295328, 1691.788525
 665.782412, 1703.249064
 671.431279, 1714.744812
 677.100346, 1726.244957
 682.769414, 1737.745101
 688.438481, 1749.245245
 694.107548, 1760.745390
 699.776615, 1772.245534
 705.445682, 1783.745679
 711.114750, 1795.245823
 716.783817, 1806.745967
 719.337716, 1811.926751
 725.131192, 2174.100895
 730.987301, 2190.202036
 736.843409, 2206.303177
 742.699518, 2222.404318
 748.555627, 2238.505459
 754.411735, 2254.606599
 760.267844, 2270.707740
 766.123952, 2286.808881
 771.980061, 2302.910022
 777.836170, 2319.011163
 783.750336, 2350.321884
 789.777456, 2411.223328
 795.804575, 2472.124772
 801.831695, 2533.026216
 807.858815, 2593.927660
 813.885934, 2654.829104
 819.913054, 2715.730548
 825.940173, 2776.631992
 831.967293, 2837.533436
 837.994413, 2898.434880
 844.075505, 2961.066436
 850.261604, 3027.063980
 856.447703, 3093.061524
 862.633801, 3159.059068
 868.819900, 3225.056612
 875.005999, 3291.054156
 881.192097, 3357.051700
 887.378196, 3423.049244
 893.564295, 3489.046788
 899.750393, 3555.044332
 903.836329, 3598.635891
 910.146858, 3837.085476
 916.457386, 4075.535061
 922.767915, 4313.984646
 929.078444, 4552.434231
 935.388973, 4790.883815
 941.699502, 5029.333400
 948.010031, 5267.782985
 954.320560, 5506.232570
 960.631089, 5744.682155
 966.941618, 5983.131740
 973.292781, 5988.033579
 979.643945, 5992.935418
 985.995108, 5997.837257
 992.346272, 6002.739096
 998.697435, 6007.640935
1005.055072, 6007.024212
1011.412710, 6006.407489
1017.770347, 6005.790765
1024.127984, 6005.174042
1030.485621, 6004.557318
1036.836308, 5998.810399
1043.186996, 5993.063480
1049.537683, 5987.316561
1055.888370, 5981.569642
