Ground Distance, Horizontal Forces
   0.000000, 16631.983640
   0.016710, 16615.649683
   0.183425, 16599.386445
   0.368636, 16583.133945
   0.553847, 16566.881446
   0.739059, 16550.628946
   0.924270, 16534.376446
   1.109481, 16518.123947
   1.294692, 16501.871447
   1.479903, 16485.618947
   1.665114, 16469.366447
   1.850325, 16453.113948
   2.302802, 16437.021163
   2.788649, 16420.948320
   3.274497, 16404.875477
   3.760344, 16388.802634
   4.246191, 16372.729791
   4.732039, 16356.656948
   5.217886, 16340.584105
   5.703734, 16324.511262
   6.189581, 16308.438419
   6.675428, 16292.365576
   7.425528, 16276.457011
   8.208622, 16260.568957
   8.991715, 16244.680904
   9.774809, 16228.792851
  10.557903, 16212.904798
  11.340997, 16197.016744
  12.124090, 16181.128691
  12.907184, 16165.240638
  13.690278, 16149.352584
  14.473372, 16133.464531
  15.517622, 16117.745049
  16.594479, 16102.046614
  17.671337, 16086.348180
  18.748195, 16070.649745
  19.825052, 16054.951310
  20.901910, 16039.252876
  21.978768, 16023.554441
  23.055626, 16007.856006
  24.132483, 15992.157572
  25.209341, 15976.459137
  26.544182, 15960.933294
  27.911234, 15945.429001
  29.278286, 15929.924708
  30.645338, 15914.420414
  32.012390, 15898.916121
  33.379442, 15883.411828
  34.746494, 15867.907534
  36.113546, 15852.403241
  37.480599, 15836.898948
  38.847651, 15821.394655
  40.469440, 15803.942602
  42.123036, 15786.247354
  43.776632, 15768.552106
  45.430228, 15750.856858
  47.083824, 15733.161610
  48.737419, 15715.466361
  50.391015, 15697.771113
  52.044611, 15680.075865
  53.698207, 15662.380617
  55.351803, 15644.685369
  57.256362, 15623.029067
  59.192256, 15600.878191
  61.128151, 15578.727315
  63.064045, 15556.576439
  64.999939, 15534.425564
  66.935834, 15512.274688
  68.871728, 15490.123812
  70.807622, 15467.972936
  72.743516, 15445.822060
  74.679411, 15423.671184
  76.861703, 15401.886033
  79.074761, 15380.146547
  81.287818, 15358.407061
  83.500876, 15336.667575
  85.713933, 15314.928089
  87.926991, 15293.188603
  90.140048, 15271.449116
  92.353106, 15249.709630
  94.566163, 15227.970144
  96.779221, 15206.230658
  99.234050, 15184.857910
 101.719067, 15163.530953
 104.204085, 15142.203996
 106.689102, 15120.877038
 109.174119, 15099.550081
 111.659136, 15078.223124
 114.144153, 15056.896167
 116.629171, 15035.569209
 119.114188, 15014.242252
 121.599205, 14992.915295
 124.321358, 14971.955626
 127.073121, 14951.041816
 129.824883, 14930.128006
 132.576645, 14909.214196
 135.328408, 14888.300386
 138.080170, 14867.386576
 140.831932, 14846.472766
 143.583695, 14825.558956
 146.335457, 14804.645146
 149.087219, 14783.731336
 152.071478, 14763.184917
 155.084766, 14742.684370
 158.098055, 14722.183824
 161.111343, 14701.683277
 164.124631, 14681.182731
 167.137919, 14660.682184
 170.151207, 14640.181638
 173.164496, 14619.681091
 176.177784, 14599.180544
 179.191072, 14578.679998
 182.432219, 14558.546516
 185.701815, 14538.458866
 188.971412, 14518.371216
 192.241008, 14498.283566
 195.510605, 14478.195916
 198.780201, 14458.108266
 202.049798, 14438.020616
 205.319395, 14417.932966
 208.588991, 14397.845316
 211.858588, 14377.757666
 215.351186, 14350.975704
 218.871628, 14323.357894
 222.392070, 14295.740084
 225.912512, 14268.122274
 229.432954, 14240.504464
 232.953396, 14212.886654
 236.473838, 14185.268844
 239.994280, 14157.651034
 243.514722, 14130.033224
 247.035164, 14102.415414
 250.772826, 14075.268365
 254.537610, 14048.180094
 258.302394, 14021.091823
 262.067178, 13994.003553
 265.831961, 13966.915282
 269.596745, 13939.827011
 273.361529, 13912.738741
 277.126313, 13885.650470
 280.891097, 13858.562199
 284.655881, 13831.473929
 288.631919, 13805.051313
 292.634333, 13778.711811
 296.636748, 13752.372309
 300.639163, 13726.032806
 304.641578, 13699.693304
 308.643992, 13673.353802
 312.646407, 13647.014299
 316.648822, 13620.674797
 320.651237, 13594.335295
 324.653651, 13567.995793
 328.861444, 13542.311546
 333.094881, 13516.709115
 337.328317, 13491.106683
 341.561754, 13465.504252
 345.795190, 13439.901820
 350.028627, 13414.299389
 354.262063, 13388.696957
 358.495499, 13363.094526
 362.728936, 13337.492094
 366.962372, 13311.889663
 371.395406, 13286.931708
 375.853361, 13262.054223
 380.311315, 13237.176737
 384.769270, 13212.299252
 389.227225, 13187.421766
 393.685180, 13162.544281
 398.143135, 13137.666795
 402.601090, 13112.789310
 407.059045, 13087.911824
 411.517000, 13063.034339
 416.168868, 13038.790215
 420.844948, 13014.625173
 425.521028, 12990.460130
 430.197108, 12966.295088
 434.873188, 12942.130045
 439.549268, 12917.965003
 444.225348, 12893.799961
 448.901428, 12869.634918
 453.577508, 12845.469876
 458.253588, 12821.304833
 463.117997, 12797.761744
 468.005921, 12774.296311
 472.893845, 12750.830879
 477.781769, 12727.365446
 482.669693, 12703.900013
 487.557617, 12680.434581
 492.445541, 12656.969148
 497.333465, 12633.503715
 502.221389, 12610.038283
 507.109313, 12586.572850
 512.180087, 12563.873326
 517.273692, 12541.269433
 522.367297, 12518.665540
 527.460902, 12496.061647
 532.554506, 12473.457755
 537.648111, 12450.853862
 542.741716, 12428.249969
 547.835321, 12405.646076
 552.928925, 12383.042183
 558.022530, 12360.438290
 563.293639, 12338.611909
 568.586911, 12316.882608
 573.880184, 12295.153307
 579.173456, 12273.424006
 584.466728, 12251.694705
 589.760000, 12229.965404
 595.053272, 12208.236103
 600.346545, 12186.506802
 605.639817, 12164.777501
 610.933089, 12143.048200
 616.398659, 12121.888022
 621.885743, 12100.798906
 627.372827, 12079.709789
 632.859910, 12058.620672
 638.346994, 12037.531555
 643.834078, 12016.442439
 649.321161, 11995.353322
 654.808245, 11974.264205
 660.295328, 11953.175088
 665.782412, 11932.085972
 671.431279, 11911.536258
 677.100346, 11891.053893
 682.769414, 11870.571529
 688.438481, 11850.089164
 694.107548, 11829.606800
 699.776615, 11809.124436
 705.445682, 11788.642071
 711.114750, 11768.159707
 716.783817, 11747.677342
 719.337716, 11738.450093
 725.131192, 11693.497042
 730.987301, 11673.720593
 736.843409, 11653.944145
 742.699518, 11634.167696
 748.555627, 11614.391248
 754.411735, 11594.614799
 760.267844, 11574.838351
 766.123952, 11555.061902
 771.980061, 11535.285454
 777.836170, 11515.509005
 783.750336, 11494.034525
 789.777456, 11469.256471
 795.804575, 11444.478416
 801.831695, 11419.700361
 807.858815, 11394.922306
 813.885934, 11370.144252
 819.913054, 11345.366197
 825.940173, 11320.588142
 831.967293, 11295.810088
 837.994413, 11271.032033
 844.075505, 11246.143872
 850.261604, 11221.041495
 856.447703, 11195.939118
 862.633801, 11170.836741
 868.819900, 11145.734365
 875.005999, 11120.631988
 881.192097, 11095.529611
 887.378196, 11070.427234
 893.564295, 11045.324857
 899.750393, 11020.222481
 903.836329, 11003.642292
 910.146858, 10985.742934
 916.457386, 10967.843577
 922.767915, 10949.944219
 929.078444, 10932.044861
 935.388973, 10914.145503
 941.699502, 10896.246146
 948.010031, 10878.346788
 954.320560, 10860.447430
 960.631089, 10842.548073
 966.941618, 10824.648715
 973.292781, 10821.623319
 979.643945, 10818.597923
 985.995108, 10815.572527
 992.346272, 10812.547131
 998.697435, 10809.521735
1005.055072, 10809.551929
1011.412710, 10809.582123
1017.770347, 10809.612317
1024.127984, 10809.642511
1030.485621, 10809.672705
1036.836308, 10812.542321
1043.186996, 10815.411937
1049.537683, 10818.281553
1055.888370, 10821.151170
