Speed, Forces
 137.335288, 4747.232479
 139.021600, 4306.552372
 140.707911, 4118.215659
 142.394223, 3954.353214
 144.080534, 3852.973658
 145.766846, 3750.400577
 147.453157, 3668.050707
 149.139469, 3593.004270
 150.825780, 3517.104463
 152.512092, 3449.168842
 154.198403, 3385.747140
 155.884715, 3321.628045
 157.571027, 3259.120772
 159.257338, 3207.746127
 160.943650, 3155.824601
 162.629961, 3103.356194
 164.316273, 3053.592936
 166.002584, 3012.506539
 167.688896, 2971.000642
 169.375207, 2929.075244
 171.061519, 2886.730346
 172.747830, 2853.159608
 174.434142, 2821.291717
 176.120453, 2789.114254
 177.806765, 2756.627216
 179.493076, 2723.830605
 181.179388, 2698.740689
 182.865699, 2676.889218
 184.552011, 2654.835309
 186.238322, 2632.578960
 187.924634, 2610.120174
 189.610945, 2587.458948
 191.297257, 2572.473440
 192.983569, 2560.616146
 194.669880, 2548.654786
 196.356192, 2536.589361
 198.042503, 2524.419872
 199.728815, 2512.146317
 201.415126, 2499.768697
 203.101438, 2492.584780
 204.787749, 2489.332734
 206.474061, 2486.053798
 208.160372, 2482.747973
 209.846684, 2479.415259
 211.532995, 2476.055655
 213.219307, 2472.669162
 214.905618, 2469.255779
 216.591930, 2465.815506
 218.278241, 2469.698279
 219.964553, 2474.730787
 221.650864, 2479.802024
 223.337176, 2484.911990
 225.023488, 2490.060686
 226.709799, 2495.248110
 228.396111, 2500.474264
 230.082422, 2505.739146
 231.768734, 2511.042758
 233.455045, 2516.385099
 235.141357, 2521.766169
 236.827668, 2535.387855
 238.513980, 2549.744049
 240.200291, 2564.202102
 241.886603, 2578.762015
 243.572914, 2593.423787
 245.259226, 2608.187418
 246.945537, 2623.052909
 248.631849, 2638.020259
 250.318160, 2653.089469
 252.004472, 2668.260538
 253.690783, 2683.533466
 255.377095, 2698.908254
 257.063407, 2714.384902
 258.749718, 2729.963408
 260.436030, 2750.167987
 262.122341, 2773.570336
 263.808653, 2797.123725
 265.494964, 2820.828155
 267.181276, 2844.683624
 268.867587, 2868.690134
 270.553899, 2892.847684
 272.240210, 2917.156274
 273.926522, 2941.615904
 275.612833, 2966.226574
 277.299145, 2990.988285
 278.985456, 3015.901035
 280.671768, 3040.964826
 282.358079, 3066.179657
 284.044391, 3091.545528
 285.730702, 3117.062439
 287.417014, 3142.730391
 289.103325, 3168.549382
 290.789637, 3194.519414
 292.475949, 3220.640486
 294.162260, 3250.856068
 295.848572, 3283.268268
 297.534883, 3315.865742
 299.221195, 3348.648492
 300.907506, 3381.616516
 302.593818, 3414.769815
 304.280129, 3448.108388
