Speed, Forces
 145.188995, 5305.711239
 146.795976, 4845.763497
 148.402957, 4644.401739
 150.009938, 4452.937679
 151.616919, 4351.092720
 153.223900, 4248.288695
 154.830882, 4148.738774
 156.437863, 4073.684018
 158.044844, 3997.854295
 159.651825, 3921.249604
 161.258806, 3853.946839
 162.865787, 3790.077235
 164.472769, 3725.574312
 166.079750, 3660.438069
 167.686731, 3607.022638
 169.293712, 3554.950855
 170.900693, 3502.382435
 172.507674, 3449.317378
 174.114656, 3402.519948
 175.721637, 3361.052957
 177.328618, 3319.205006
 178.935599, 3276.976097
 180.542580, 3234.366228
 182.149561, 3198.286868
 183.756542, 3166.280325
 185.363524, 3133.992649
 186.970505, 3101.423842
 188.577486, 3068.573904
 190.184467, 3035.442833
 191.791448, 3012.802941
 193.398429, 2990.769956
 195.005411, 2968.553131
 196.612392, 2946.152466
 198.219373, 2923.567962
 199.826354, 2900.799618
 201.433335, 2881.041987
 203.040316, 2869.148749
 204.647297, 2857.161007
 206.254279, 2845.078760
 207.861260, 2832.902010
 209.468241, 2820.630756
 211.075222, 2808.264997
 212.682203, 2795.804735
 214.289184, 2786.685848
 215.896166, 2783.417388
 217.503147, 2780.124510
 219.110128, 2776.807213
 220.717109, 2773.465496
 222.324090, 2770.099361
 223.931071, 2766.708807
 225.538053, 2763.293833
 227.145034, 2759.854441
 228.752015, 2756.390629
 230.358996, 2758.979387
 231.965977, 2764.038683
 233.572958, 2769.133149
 235.179939, 2774.262786
 236.786921, 2779.427594
 238.393902, 2784.627573
 240.000883, 2789.862722
 241.607864, 2795.133043
 243.214845, 2800.438534
 244.821826, 2805.779197
 246.428808, 2811.155030
 248.035789, 2816.566034
 249.642770, 2827.137212
 251.249751, 2841.553417
 252.856732, 2856.062124
 254.463713, 2870.663332
 256.070695, 2885.357041
 257.677676, 2900.143251
 259.284657, 2915.021962
 260.891638, 2929.993175
 262.498619, 2945.056888
 264.105600, 2960.213103
 265.712581, 2975.461819
 267.319563, 2990.803036
 268.926544, 3006.236754
 270.533525, 3021.762974
 272.140506, 3037.381694
 273.747487, 3053.092916
 275.354468, 3074.072372
 276.961450, 3097.643761
 278.568431, 3121.352314
 280.175412, 3145.198030
 281.782393, 3169.180910
 283.389374, 3193.300953
 284.996355, 3217.558159
 286.603336, 3241.952529
 288.210318, 3266.484062
 289.817299, 3291.152759
 291.424280, 3315.958619
 293.031261, 3340.901643
 294.638242, 3365.981830
 296.245223, 3391.199181
 297.852205, 3416.553695
 299.459186, 3442.045372
 301.066167, 3467.674213
 302.673148, 3493.440218
 304.280129, 3519.343386
