Speed, Forces
 133.234538, 4467.965930
 134.962271, 4043.322617
 136.690004, 3855.931530
 138.417737, 3705.750298
 140.145471, 3604.749068
 141.873204, 3502.592793
 143.600937, 3428.585352
 145.328670, 3353.682103
 147.056404, 3278.885699
 148.784137, 3216.209041
 150.511870, 3152.800310
 152.239603, 3088.659504
 153.967337, 3034.902671
 155.695070, 2983.456607
 157.422803, 2931.436467
 159.150536, 2880.052536
 160.878270, 2839.268271
 162.606003, 2798.043644
 164.333736, 2756.378654
 166.061469, 2714.273301
 167.789203, 2681.673775
 169.516936, 2649.951869
 171.244669, 2617.904995
 172.972402, 2585.533151
 174.700136, 2553.321219
 176.427869, 2531.727380
 178.155602, 2509.921035
 179.883335, 2487.902185
 181.611069, 2465.670828
 183.338802, 2443.226965
 185.066535, 2424.659823
 186.794268, 2412.903915
 188.522002, 2401.038766
 190.249735, 2389.064378
 191.977468, 2376.980749
 193.705201, 2364.787880
 195.432935, 2352.485771
 197.160668, 2345.722332
 198.888401, 2342.487123
 200.616134, 2339.223687
 202.343868, 2335.932025
 204.071601, 2332.612135
 205.799334, 2329.264019
 207.527067, 2325.887677
 209.254801, 2322.483107
 210.982534, 2322.172934
 212.710267, 2327.157871
 214.438000, 2332.183463
 216.165734, 2337.249710
 217.893467, 2342.356612
 219.621200, 2347.504169
 221.348933, 2352.692382
 223.076667, 2357.921249
 224.804400, 2363.190772
 226.532133, 2368.500950
 228.259866, 2373.964019
 229.987600, 2388.143894
 231.715333, 2402.430693
 233.443066, 2416.824418
 235.170799, 2431.325067
 236.898533, 2445.932642
 238.626266, 2460.647141
 240.353999, 2475.468566
 242.081732, 2490.396915
 243.809466, 2505.432189
 245.537199, 2520.574389
 247.264932, 2535.823513
 248.992665, 2551.179562
 250.720399, 2566.642536
 252.448132, 2585.546985
 254.175865, 2608.793041
 255.903598, 2632.197649
 257.631332, 2655.760808
 259.359065, 2679.482518
 261.086798, 2703.362780
 262.814531, 2727.401593
 264.542265, 2751.598958
 266.269998, 2775.954875
 267.997731, 2800.469342
 269.725464, 2825.142361
 271.453198, 2849.973932
 273.180931, 2874.964054
 274.908664, 2900.112728
 276.636397, 2925.419952
 278.364131, 2950.885729
 280.091864, 2976.510057
 281.819597, 3002.292936
 283.547330, 3028.234367
 285.275063, 3057.689671
 287.002797, 3089.899939
 288.730530, 3122.304697
 290.458263, 3154.903943
 292.185996, 3187.697677
 293.913730, 3220.685900
 295.641463, 3253.868612
 297.369196, 3287.245812
 299.096929, 3320.817501
 300.824663, 3354.583678
 302.552396, 3388.544344
 304.280129, 3422.699499
