Speed, Forces
 148.961013, 5584.977789
 150.529893, 5124.391966
 152.098773, 4908.266880
 153.667653, 4716.736176
 155.236533, 4600.945050
 156.805413, 4498.207569
 158.374293, 4394.437005
 159.943173, 4314.978575
 161.512053, 4239.305371
 163.080933, 4162.893512
 164.649813, 4089.121264
 166.218693, 4025.468598
 167.787573, 3961.212289
 169.356453, 3896.352335
 170.925333, 3833.746428
 172.494213, 3781.937847
 174.063093, 3729.655901
 175.631973, 3676.900589
 177.200853, 3623.671913
 178.769733, 3578.143370
 180.338613, 3536.586570
 181.907493, 3494.666663
 183.476372, 3452.383646
 185.045252, 3409.737522
 186.614132, 3372.071091
 188.183012, 3340.064138
 189.751892, 3307.789227
 191.320772, 3275.246357
 192.889652, 3242.435528
 194.458532, 3209.356741
 196.027412, 3181.823481
 197.596292, 3159.841913
 199.165172, 3137.685121
 200.734052, 3115.353102
 202.302932, 3092.845859
 203.871812, 3070.163390
 205.440692, 3047.305696
 207.009572, 3030.089678
 208.578452, 3018.159365
 210.147332, 3006.138976
 211.716212, 2994.028512
 213.285092, 2981.827971
 214.853972, 2969.537355
 216.422852, 2957.156663
 217.991732, 2944.685895
 219.560612, 2933.977868
 221.129491, 2930.708983
 222.698371, 2927.416823
 224.267251, 2924.101388
 225.836131, 2920.762678
 227.405011, 2917.400693
 228.973891, 2914.015434
 230.542771, 2910.606900
 232.111651, 2907.175091
 233.680531, 2903.720007
 235.249411, 2900.684139
 236.818291, 2905.727567
 238.387171, 2910.804519
 239.956051, 2915.914993
 241.524931, 2921.058991
 243.093811, 2926.236511
 244.662691, 2931.447554
 246.231571, 2936.692120
 247.800451, 2941.970209
 249.369331, 2947.281821
 250.938211, 2952.626955
 252.507091, 2958.005613
 254.075971, 2963.417793
 255.644851, 2971.510712
 257.213730, 2985.921343
 258.782610, 3000.420140
 260.351490, 3015.007103
 261.920370, 3029.682234
 263.489250, 3044.445531
 265.058130, 3059.296995
 266.627010, 3074.236626
 268.195890, 3089.264424
 269.764770, 3104.380389
 271.333650, 3119.584520
 272.902530, 3134.876818
 274.471410, 3150.257283
 276.040290, 3165.725915
 277.609170, 3181.282713
 279.178050, 3196.927679
 280.746930, 3212.660811
 282.315810, 3232.990606
 283.884690, 3256.581631
 285.453570, 3280.303391
 287.022450, 3304.155888
 288.591330, 3328.139121
 290.160210, 3352.253091
 291.729090, 3376.497797
 293.297970, 3400.873239
 294.866849, 3425.379418
 296.435729, 3450.016333
 298.004609, 3474.783984
 299.573489, 3499.682371
 301.142369, 3524.711495
 302.711249, 3549.871355
 304.280129, 3575.161952
