Speed, Forces
 141.316711, 5026.471859
 142.962806, 4570.045457
 144.608901, 4381.046251
 146.254996, 4203.378258
 147.901091, 4101.762985
 149.547187, 3999.010435
 151.193282, 3908.111047
 152.839377, 3833.016728
 154.485472, 3757.109256
 156.131567, 3682.839440
 157.777662, 3619.477208
 159.423757, 3555.450452
 161.069853, 3490.759170
 162.715948, 3432.807696
 164.362043, 3381.035901
 166.008138, 3328.742999
 167.654233, 3275.928990
 169.300328, 3227.707864
 170.946423, 3186.395904
 172.592518, 3144.684214
 174.238614, 3102.572794
 175.884709, 3060.061645
 177.530804, 3025.339567
 179.176899, 2993.378170
 180.822994, 2961.121789
 182.469089, 2928.570424
 184.115184, 2895.724076
 185.761280, 2866.368846
 187.407375, 2844.503932
 189.053470, 2822.446120
 190.699565, 2800.195409
 192.345660, 2777.751801
 193.991755, 2755.115295
 195.637850, 2732.445515
 197.283945, 2720.610736
 198.930041, 2708.676797
 200.576136, 2696.643697
 202.222231, 2684.511437
 203.868326, 2672.280016
 205.514421, 2659.949435
 207.160516, 2647.519693
 208.806611, 2639.563558
 210.452707, 2636.300579
 212.098802, 2633.011977
 213.744897, 2629.697754
 215.390992, 2626.357907
 217.037087, 2622.992439
 218.683182, 2619.601349
 220.329277, 2616.184636
 221.975372, 2612.742301
 223.621468, 2611.963806
 225.267563, 2616.995634
 226.913658, 2622.064366
 228.559753, 2627.170002
 230.205848, 2632.312542
 231.851943, 2637.491986
 233.498038, 2642.708333
 235.144134, 2647.961585
 236.790229, 2653.251740
 238.436324, 2658.578799
 240.082419, 2663.942762
 241.728514, 2669.343629
 243.374609, 2681.742019
 245.020704, 2696.140678
 246.666800, 2710.636396
 248.312895, 2725.229173
 249.958990, 2739.919009
 251.605085, 2754.705904
 253.251180, 2769.589858
 254.897275, 2784.570871
 256.543370, 2799.648942
 258.189465, 2814.824073
 259.835561, 2830.096262
 261.481656, 2845.465511
 263.127751, 2860.931818
 264.773846, 2876.495184
 266.419941, 2892.155610
 268.066036, 2913.073471
 269.712131, 2936.583055
 271.358227, 2960.236560
 273.004322, 2984.033987
 274.650417, 3007.975336
 276.296512, 3032.060607
 277.942607, 3056.289799
 279.588702, 3080.662914
 281.234797, 3105.179950
 282.880892, 3129.840908
 284.526988, 3154.645788
 286.173083, 3179.594590
 287.819178, 3204.687313
 289.465273, 3229.923959
 291.111368, 3255.304526
 292.757463, 3280.829015
 294.403558, 3306.497426
 296.049654, 3332.309759
 297.695749, 3358.266013
 299.341844, 3384.366190
 300.987939, 3410.610288
 302.634034, 3440.969158
 304.280129, 3473.514806
