Time, Altitude
   0.000100,    0.000000
   0.000584,    0.000000
   0.002073,    0.000000
   0.007621,    0.000000
   0.022321,    0.000000
   0.049722,    0.000000
   0.081356,    0.000000
   0.113166,    0.000000
   0.145277,    0.000000
   0.177393,    0.000000
   0.209532,    0.000000
   0.241854,    0.000000
   0.274280,    0.000000
   0.306882,    0.000000
   0.339730,    0.000000
   0.372575,    0.000000
   0.405964,    0.000000
   0.439430,    0.000000
   0.472825,    0.000000
   0.506325,    0.000000
   0.540098,    0.000000
   0.574229,    0.000000
   0.609346,    0.000000
   0.644354,    0.000000
   0.679669,    0.000000
   0.715179,    0.000000
   0.750675,    0.000000
   0.785860,    0.000000
   0.821893,    0.000000
   0.857909,    0.000000
   0.894515,    0.000000
   0.931043,    0.000000
   0.968537,    0.000000
   1.005886,    0.000000
   1.044333,    0.000000
   1.082764,    0.000000
   1.121413,    0.000000
   1.161278,    0.000000
   1.200983,    0.000000
   1.241003,    0.000000
   1.281467,    0.000000
   1.322069,    0.000000
   1.362716,    0.000000
   1.404287,    0.000000
   1.445182,    0.000000
   1.487010,    0.000000
   1.528752,    0.000000
   1.571489,    0.000000
   1.614202,    0.000000
   1.657967,    0.000000
   1.701698,    0.000000
   1.745542,    0.000000
   1.789414,    0.000000
   1.834346,    0.000000
   1.879129,    0.000000
   1.924414,    0.000000
   1.970399,    0.000000
   2.017542,    0.000000
   2.064104,    0.000000
   2.111435,    0.000000
   2.158594,    0.000000
   2.206390,    0.000000
   2.254473,    0.000000
   2.302484,    0.000000
   2.351116,    0.000000
   2.399608,    0.000000
   2.448748,    0.000000
   2.498052,    0.000000
   2.547871,    0.000000
   2.598380,    0.000000
   2.649071,    0.000000
   2.700299,    0.000000
   2.750985,    0.000000
   2.802877,    0.000000
   2.854696,    0.000000
   2.907415,    0.000000
   2.959664,    0.000000
   3.012867,    0.000000
   3.066210,    0.000000
   3.119630,    0.000000
   3.173988,    0.000000
   3.227889,    0.000000
   3.282497,    0.000000
   3.336984,    0.000000
   3.392637,    0.000000
   3.447887,    0.000000
   3.503542,    0.000000
   3.559556,    0.000000
   3.616151,    0.000000
   3.672641,    0.000000
   3.729920,    0.000000
   3.787722,    0.000000
   3.845655,    0.000000
   3.903844,    0.000000
   3.962158,    0.000000
   4.020726,    0.000000
   4.079826,    0.000000
   4.138894,    0.000000
   4.198709,    0.000000
   4.259339,    0.000000
   4.261732,    0.000000
   4.263376,    0.000000
   4.264846,    0.000000
   4.266029,    0.000000
   4.267395,    0.000000
   4.268425,    0.000000
   4.268643,    0.000000
   4.268936,    0.000000
   4.268999,    0.000000
   4.269101,    0.000000
   4.269134,    0.000000
   4.269141,    0.000000
   4.269155,    0.000000
   4.269297,    0.000000
   4.270417,    0.000000
   4.275457,    0.000000
   4.292645,    0.000000
   4.335010,    0.000000
   4.388526,    0.000000
   4.442973,    0.000000
   4.497748,    0.000000
   4.552408,    0.000000
   4.607470,    0.000000
   4.663114,    0.000000
   4.718737,    0.000000
   4.774412,    0.000000
   4.830740,    0.000000
   4.887156,    0.000000
   4.943781,    0.000000
   5.000516,    0.000000
   5.057691,    0.000000
   5.115276,    0.000000
   5.172681,    0.000000
   5.230246,    0.000000
   5.287799,    0.000000
   5.346022,    0.000000
   5.404634,    0.000000
   5.463307,    0.000000
   5.522280,    0.000000
   5.581576,    0.000000
   5.641038,    0.000000
   5.701063,    0.000000
   5.760788,    0.000000
   5.820606,    0.000000
   5.881098,    0.000000
   5.941476,    0.000000
   6.002515,    0.000000
   6.063594,    0.000000
   6.124919,    0.000000
   6.186398,    0.000000
   6.247619,    0.000000
   6.309897,    0.000000
   6.372032,    0.000000
   6.434853,    0.000000
   6.497487,    0.000000
   6.560135,    0.000000
   6.623474,    0.000000
   6.686793,    0.000000
   6.750442,    0.000000
   6.814215,    0.000000
   6.877942,    0.000000
   6.942629,    0.000000
   7.007074,    0.000000
   7.071978,    0.000000
   7.136997,    0.000000
   7.202150,    0.000000
   7.267139,    0.000000
   7.332824,    0.000000
   7.398377,    0.000000
   7.464226,    0.000000
   7.530701,    0.000000
   7.597320,    0.000000
   7.664215,    0.000000
   7.731196,    0.000000
   7.798631,    0.000000
   7.865891,    0.000000
   7.933280,    0.000000
   8.000869,    0.000000
   8.068602,    0.000000
   8.137049,    0.000000
   8.205340,    0.000000
   8.274102,    0.000000
   8.343123,    0.000000
   8.412167,    0.000000
   8.481110,    0.000000
   8.550446,    0.000000
   8.620046,    0.000000
   8.690094,    0.000000
   8.760025,    0.000000
   8.760583,    0.000000
   8.760711,    0.000000
   8.760765,    0.000000
   8.760871,    0.000000
   8.760883,    0.000000
   8.760890,    0.000000
   8.760901,    0.000000
   8.761005,    0.000000
   8.762046,    0.000000
   8.768146,    0.000000
   8.788762,    0.000000
   8.838617,    0.000000
   8.901477,    0.000000
   8.964032,    0.000000
   9.027050,    0.000000
   9.089980,    0.000000
   9.153001,    0.000000
   9.216338,    0.000000
   9.280075,    0.000000
   9.343747,    0.000000
   9.407314,    0.000000
   9.471508,    0.000000
   9.535590,    0.000000
   9.599870,    0.000000
   9.664424,    0.000000
   9.729177,    0.000000
   9.793985,    0.000000
   9.858985,    0.000000
   9.924385,    0.000000
   9.989800,    0.000000
  10.055364,    0.000000
  10.121031,    0.000000
  10.186767,    0.000000
  10.253013,    0.000000
  10.319102,    0.000000
  10.385218,    0.000000
  10.451713,    0.000000
  10.518584,    0.000000
  10.585689,    0.000000
  10.652664,    0.000000
  10.719871,    0.000000
  10.786986,    0.000000
  10.854623,    0.000000
  10.922088,    0.000000
  10.989977,    0.000000
  11.057713,    0.000000
  11.125725,    0.000000
  11.193926,    0.000000
  11.262169,    0.000000
  11.330929,    0.000000
  11.399607,    0.000000
  11.468377,    0.000000
  11.537439,    0.000000
  11.606572,    0.000000
  11.675659,    0.000000
  11.745265,    0.000000
  11.814940,    0.000000
  11.884953,    0.000000
  11.954992,    0.000000
  12.025201,    0.000000
  12.095311,    0.000000
  12.165734,    0.000000
  12.236348,    0.000000
  12.307019,    0.000000
  12.377985,    0.000000
  12.449122,    0.000000
  12.520551,    0.000000
  12.591971,    0.000000
  12.663224,    0.000000
  12.734765,    0.000000
  12.806686,    0.000000
  12.878724,    0.000000
  12.951162,    0.000000
  13.023347,    0.000000
  13.095648,    0.000000
  13.168206,    0.000000
  13.240875,    0.000000
  13.313840,    0.000000
  13.386788,    0.000000
  13.460238,    0.000000
  13.533769,    0.000000
  13.548545,    0.000000
  13.558164,    0.000000
  13.565430,    0.000000
  13.571280,    0.000000
  13.576999,    0.000000
  13.582791,    0.000000
  13.587035,    0.000000
  13.587790,    0.000000
  13.588741,    0.000000
  13.589851,    0.000000
  13.589913,    0.000000
  13.589951,    0.000000
  13.589978,    0.000000
  13.590001,    0.000000
  13.590008,    0.000000
  13.590015,    0.000000
  13.590088,    0.000000
  13.590718,    0.000000
  13.594722,    0.000000
  13.609897,    0.000000
  13.661568,    0.000000
  13.725456,    0.000000
  13.789945,    0.000000
  13.854426,    0.000000
  13.919196,    0.000000
  13.983766,    0.000000
  14.048667,    0.000000
  14.113674,    0.000000
  14.178717,    0.000000
  14.243987,    0.000000
  14.309339,    0.000000
  14.374654,    0.000000
  14.440255,    0.000000
  14.505934,    0.000000
  14.571876,    0.000000
  14.637860,    0.000000
  14.703855,    0.000000
  14.769972,    0.000000
  14.836330,    0.000000
  14.902604,    0.000000
  14.969066,    0.000000
  15.035784,    0.000000
  15.102643,    0.000000
  15.169427,    0.000000
  15.236500,    0.000000
  15.303596,    0.000000
  15.370850,    0.000000
  15.438251,    0.000000
  15.505609,    0.000000
  15.573112,    0.000000
  15.640913,    0.000000
  15.708836,    0.000000
  15.776790,    0.000000
  15.844768,    0.000000
  15.912918,    0.000000
  15.981328,    0.000000
  16.049689,    0.000000
  16.118299,    0.000000
  16.187145,    0.000000
  16.256094,    0.000000
  16.324967,    0.000000
  16.394038,    0.000000
  16.463189,    0.000000
  16.532509,    0.000000
  16.602093,    0.000000
  16.671547,    0.000000
  16.741036,    0.000000
  16.810682,    0.000000
  16.880394,    0.000000
  16.950334,    0.000000
  17.020257,    0.000000
  17.090429,    0.000000
  17.160952,    0.000000
  17.231269,    0.000000
  17.301920,    0.000000
  17.372595,    0.000000
  17.443469,    0.000000
  17.514489,    0.000000
  17.585532,    0.000000
  17.656536,    0.000000
  17.727801,    0.000000
  17.799501,    0.000000
  17.870856,    0.000000
  17.942631,    0.000000
  18.014268,    0.000000
  18.086135,    0.000000
  18.158237,    0.000000
  18.230292,    0.000000
  18.302423,    0.000000
  18.374675,    0.000000
  18.447159,    0.000000
  18.519768,    0.000000
  18.592329,    0.000000
  18.665294,    0.000000
  18.738072,    0.000000
  18.811104,    0.000000
  18.884234,    0.000000
  18.898885,    0.000000
  18.949814,    0.000000
  18.952736,    0.000000
  18.953239,    0.000000
  18.953452,    0.000000
  18.953508,    0.000000
  18.953541,    0.000000
  18.953579,    0.000000
  18.953956,    0.000000
  18.956648,    0.000000
  18.974442,    0.000000
  19.052213,    0.000000
  19.125225,    0.000000
  19.198472,    0.000000
  19.271808,    0.000000
  19.345310,    0.000000
  19.418896,    0.000000
  19.492550,    0.000000
  19.566208,    0.000000
  19.640256,    0.000000
  19.714222,    0.000000
  19.788416,    0.000000
  19.862617,    0.000000
  19.936878,    0.000000
  20.011333,    0.000000
  20.086035,    0.000000
  20.160678,    0.000000
  20.235439,    0.000000
  20.310249,    0.000000
  20.385193,    0.000000
  20.460414,    0.000000
  20.535681,    0.000000
  20.611020,    0.000000
  20.686603,    0.000000
  20.762273,    0.000000
  20.838004,    0.000000
  20.913812,    0.000000
  20.989552,    0.000000
  21.065520,    0.000000
  21.141666,    0.000000
  21.217863,    0.000000
  21.294062,    0.000000
  21.370428,    0.000000
  21.447001,    0.000000
  21.523602,    0.000000
  21.600422,    0.000000
  21.677465,    0.000000
  21.754504,    0.000000
  21.831640,    0.000000
  21.908849,    0.000000
  21.986223,    0.000000
  22.063752,    0.000000
  22.141408,    0.000000
  22.219220,    0.000000
  22.296996,    0.000000
  22.374981,    0.000000
  22.452979,    0.000000
  22.531031,    0.000000
  22.609294,    0.000000
  22.687637,    0.000000
  22.766179,    0.000000
  22.844803,    0.000000
  22.923621,    0.000000
  23.002508,    0.000000
  23.043817,    0.000000
  23.081417,    0.000000
  23.160468,    0.000000
  23.239533,    0.000000
  23.318947,    0.000000
  23.398465,    0.000000
  23.478213,    0.000000
  23.557896,    0.000000
  23.637608,    0.000000
  23.717738,    0.000000
  23.798066,    0.000000
  23.878346,    0.000000
  23.958845,    0.000000
  24.039417,    0.000000
  24.119967,    0.000000
  24.200732,    0.000000
  24.281554,    0.000000
  24.362343,    0.000000
  24.443226,    0.000000
  24.524295,    0.000000
  24.605270,    0.000000
  24.686181,    0.000000
  24.767184,    0.000000
  24.848154,    0.000000
  24.929227,    0.000000
  25.010132,    0.000000
  25.091006,    0.000000
  25.094248,    0.000000
  25.098612,    0.000000
  25.102907,    0.000000
  25.104037,    0.000000
  25.105470,    0.000000
  25.105811,    0.000000
  25.106320,    0.000000
  25.106356,    0.000000
  25.106370,    0.000000
  25.106385,    0.000000
  25.106535,    0.000000
  25.108035,    0.000000
  25.116815,    0.000000
  25.151641,    0.000000
  25.235294,    0.000000
  25.319622,    0.000000
  25.325225,    0.000009
  25.330817,    0.000037
  25.336429,    0.000085
  25.342040,    0.000151
  25.347658,    0.000238
  25.353275,    0.000345
  25.358887,    0.000473
  25.364516,    0.000622
  25.370148,    0.000792
  25.375783,    0.000985
  25.381398,    0.001198
  25.387014,    0.001435
  25.392660,    0.001695
  25.398300,    0.001979
  25.403950,    0.002287
  25.409594,    0.002618
  25.415226,    0.002974
  25.420890,    0.003356
  25.426562,    0.003764
  25.432232,    0.004198
  25.437852,    0.004653
  25.443492,    0.005137
  25.449164,    0.005650
  25.454857,    0.006192
  25.460496,    0.006756
  25.466160,    0.007351
  25.471835,    0.007975
  25.477505,    0.008628
  25.483206,    0.009313
  25.488889,    0.010025
  25.494598,    0.010771
  25.500318,    0.011549
  25.506039,    0.012359
  25.511774,    0.013201
  25.517521,    0.014078
  25.523267,    0.014987
  25.528998,    0.015926
  25.534747,    0.016901
  25.540508,    0.017912
  25.546274,    0.018959
  25.552026,    0.020037
  25.557806,    0.021155
  25.563553,    0.022302
  25.569312,    0.023487
  25.575086,    0.024712
  25.580889,    0.025979
  25.586681,    0.027281
  25.592480,    0.028623
  25.598266,    0.029999
  25.604073,    0.031419
  25.609837,    0.032867
  25.615624,    0.034360
  25.621439,    0.035900
  25.627271,    0.037485
  25.633096,    0.039108
  25.638939,    0.040778
  25.644755,    0.042482
  25.650622,    0.044243
  25.656481,    0.046044
  25.662363,    0.047896
  25.668245,    0.049792
  25.674133,    0.051735
  25.680025,    0.053723
  25.685907,    0.055754
  25.691831,    0.057844
  25.697701,    0.059961
  25.703601,    0.062134
  25.709514,    0.064358
  25.715420,    0.066625
  25.721365,    0.068954
  25.727302,    0.071327
  25.733187,    0.073726
  25.739144,    0.076200
  25.745107,    0.078725
  25.751044,    0.081286
  25.757011,    0.083908
  25.762978,    0.086578
  25.768945,    0.089296
  25.774885,    0.092050
  25.780880,    0.094878
  25.786861,    0.097748
  25.792864,    0.100678
  25.798835,    0.103641
  25.804858,    0.106680
  25.810888,    0.109772
  25.816906,    0.112909
  25.822929,    0.116098
  25.828968,    0.119347
  25.834989,    0.122636
  25.841013,    0.125978
  25.847064,    0.129385
  25.853127,    0.132851
  25.859167,    0.136356
  25.865227,    0.139923
  25.871316,    0.143561
  25.877401,    0.147248
  25.883508,    0.151002
  25.889585,    0.154789
  25.895695,    0.158651
  25.901805,    0.162566
  25.907923,    0.166540
  25.914048,    0.170573
  25.920163,    0.174654
  25.926284,    0.178792
  25.932431,    0.183003
  25.938592,    0.187279
  25.944772,    0.191623
  25.950932,    0.196009
  25.957106,    0.200461
  25.963299,    0.204982
  25.969503,    0.209569
  25.975729,    0.214229
  25.981943,    0.218937
  25.988168,    0.223711
  25.994396,    0.228545
  26.000630,    0.233442
  26.006863,    0.238395
  26.013097,    0.243408
  26.019355,    0.248500
  26.025623,    0.253658
  26.031890,    0.258875
  26.038148,    0.264144
  26.044451,    0.269511
  26.050760,    0.274943
  26.057072,    0.280439
  26.063347,    0.285963
  26.069610,    0.291537
  26.075948,    0.297238
  26.082289,    0.303004
  26.088618,    0.308822
  26.094965,    0.314718
  26.101346,    0.320709
  26.107735,    0.326770
  26.114114,    0.332886
  26.120491,    0.339063
  26.126880,    0.345316
  26.133298,    0.351662
  26.139711,    0.358068
  26.146141,    0.364555
  26.152582,    0.371120
  26.159013,    0.377739
  26.165490,    0.384473
  26.171947,    0.391252
  26.178412,    0.398105
  26.180025,    0.399826
  26.184885,    0.405035
  26.191388,    0.412065
  26.197895,    0.419166
  26.204379,    0.426311
  26.210889,    0.433552
  26.217389,    0.440851
  26.223919,    0.448253
  26.230461,    0.455737
  26.237031,    0.463324
  26.243594,    0.470973
  26.250218,    0.478765
  26.256791,    0.486568
  26.263397,    0.494481
  26.270007,    0.502472
  26.276629,    0.510549
  26.283241,    0.518687
  26.289898,    0.526952
  26.296484,    0.535203
  26.303158,    0.543638
  26.309793,    0.552097
  26.316470,    0.560683
  26.323132,    0.569327
  26.329856,    0.578125
  26.336585,    0.587005
  26.343310,    0.595958
  26.350051,    0.605008
  26.356796,    0.614142
  26.363586,    0.623413
  26.370389,    0.632783
  26.377168,    0.642197
  26.383948,    0.651691
  26.390780,    0.661338
  26.397554,    0.670982
  26.404379,    0.680779
  26.411203,    0.690655
  26.418064,    0.700665
  26.424917,    0.710747
  26.431807,    0.720963
  26.438671,    0.731223
  26.445554,    0.741596
  26.452483,    0.752121
  26.459403,    0.762717
  26.466321,    0.773393
  26.473273,    0.784206
  26.480202,    0.795069
  26.487145,    0.806038
  26.494091,    0.817098
  26.501087,    0.828325
  26.508107,    0.839678
  26.515100,    0.851074
  26.522117,    0.862597
  26.529161,    0.874252
  26.536241,    0.886059
  26.543285,    0.897894
  26.550363,    0.909875
  26.557440,    0.921946
  26.564539,    0.934146
  26.571629,    0.946422
  26.578778,    0.958890
  26.585902,    0.971410
  26.593034,    0.984035
  26.600228,    0.996866
  26.607371,    1.009697
  26.614571,    1.022728
  26.621782,    1.035872
  26.629012,    1.049149
  26.636242,    1.062522
  26.643470,    1.075988
  26.650699,    1.089553
  26.657945,    1.103247
  26.665209,    1.117073
  26.672534,    1.131115
  26.679829,    1.145200
  26.687193,    1.159521
  26.694513,    1.173855
  26.701868,    1.188358
  26.709213,    1.202945
  26.716606,    1.217729
  26.724011,    1.232643
  26.731374,    1.247573
  26.738741,    1.262617
  26.746146,    1.277841
  26.753521,    1.293107
  26.761011,    1.308719
  26.768457,    1.324344
  26.775938,    1.340150
  26.783423,    1.356073
  26.790973,    1.372244
  26.798551,    1.388584
  26.806111,    1.404998
  26.813602,    1.421371
  26.821185,    1.438056
  26.828760,    1.454834
  26.836375,    1.471814
  26.843943,    1.488803
  26.851535,    1.505958
  26.859210,    1.523413
  26.866804,    1.540800
  26.874496,    1.558528
  26.882158,    1.576302
  26.889852,    1.594267
  26.897593,    1.612460
  26.905318,    1.630732
  26.913087,    1.649231
  26.920878,    1.667902
  26.928651,    1.686651
  26.936454,    1.705591
  26.944286,    1.724729
  26.952135,    1.744027
  26.959984,    1.763452
  26.967846,    1.783034
  26.975723,    1.802777
  26.983567,    1.822562
  26.991438,    1.842543
  26.999291,    1.862601
  27.007248,    1.883052
  27.015178,    1.903564
  27.023099,    1.924181
  27.031078,    1.945077
  27.038996,    1.965944
  27.046965,    1.987073
  27.054961,    2.008408
  27.062975,    2.029921
  27.071026,    2.051667
  27.079033,    2.073428
  27.087064,    2.095388
  27.095102,    2.117499
  27.103206,    2.139929
  27.111317,    2.162516
  27.119431,    2.185249
  27.127629,    2.208355
  27.135818,    2.231578
  27.143996,    2.254909
  27.152183,    2.278409
  27.160355,    2.302005
  27.168575,    2.325880
  27.176813,    2.349953
  27.185085,    2.374269
  27.193355,    2.398725
  27.201634,    2.423351
  27.209942,    2.448212
  27.218253,    2.473230
  27.226590,    2.498474
  27.235029,    2.524177
  27.243381,    2.549767
  27.251777,    2.575640
  27.260152,    2.601602
  27.268561,    2.627820
  27.276955,    2.654143
  27.285439,    2.680904
  27.293878,    2.707678
  27.302391,    2.734843
  27.310884,    2.762102
  27.319361,    2.789463
  27.327940,    2.817318
  27.336492,    2.845242
  27.345099,    2.873506
  27.353614,    2.901631
  27.362129,    2.929913
  27.370682,    2.958480
  27.379220,    2.987161
  27.387895,    3.016466
  27.396563,    3.045914
  27.405196,    3.075406
  27.413797,    3.104956
  27.422488,    3.134980
  27.431256,    3.165442
  27.440001,    3.195992
  27.448743,    3.226706
  27.457478,    3.257562
  27.466253,    3.288735
  27.475057,    3.320184
  27.483782,    3.351520
  27.492570,    3.383259
  27.501372,    3.415220
  27.510258,    3.447666
  27.519089,    3.480084
  27.527941,    3.512759
  27.536880,    3.545936
  27.545747,    3.579025
  27.554668,    3.612494
  27.563571,    3.646079
  27.572536,    3.680079
  27.581514,    3.714315
  27.590483,    3.748699
  27.599507,    3.783479
  27.608491,    3.818291
  27.617502,    3.853396
  27.626519,    3.888708
  27.635518,    3.924141
  27.644580,    3.960008
  27.653600,    3.995897
  27.662711,    4.032342
  27.671892,    4.069261
  27.681023,    4.106173
  27.690159,    4.143301
  27.699339,    4.180803
  27.708497,    4.218409
  27.717663,    4.256246
  27.726860,    4.294407
  27.736052,    4.332749
  27.745269,    4.371394
  27.754387,    4.409819
  27.763591,    4.448804
  27.772876,    4.488339
  27.782074,    4.527700
  27.791399,    4.567810
  27.800760,    4.608283
  27.810062,    4.648705
  27.819400,    4.689491
  27.828729,    4.730448
  27.838074,    4.771679
  27.847481,    4.813393
  27.856860,    4.855198
  27.866309,    4.897527
  27.875638,    4.939527
  27.885053,    4.982122
  27.894537,    5.025250
  27.903958,    5.068305
  27.913407,    5.111701
  27.922906,    5.155544
  27.932390,    5.199537
  27.941895,    5.243844
  27.951424,    5.288481
  27.960984,    5.333489
  27.970484,    5.378432
  27.980021,    5.423769
  27.989542,    5.469252
  27.999086,    5.515069
  28.008690,    5.561394
  28.018275,    5.607857
  28.027923,    5.654848
  28.037539,    5.701913
  28.047168,    5.749272
  28.056806,    5.796899
  28.066518,    5.845124
  28.076220,    5.893529
  28.085971,    5.942412
  28.095740,    5.991625
  28.105490,    6.040977
  28.115314,    6.090936
  28.125190,    6.141408
  28.135081,    6.192196
  28.144863,    6.242664
  28.154633,    6.293303
  28.164593,    6.345175
  28.174448,    6.396747
  28.184265,    6.448358
  28.194118,    6.500399
  28.203925,    6.552437
  28.213753,    6.604835
  28.223727,    6.658254
  28.233613,    6.711449
  28.243549,    6.765160
  28.253399,    6.818649
  28.263410,    6.873271
  28.273428,    6.928175
  28.283385,    6.983000
  28.293289,    7.037780
  28.303199,    7.092844
  28.313231,    7.148841
  28.323188,    7.204666
  28.333258,    7.261384
  28.343279,    7.318084
  28.353361,    7.375383
  28.363443,    7.432947
  28.373436,    7.490253
  28.383415,    7.547730
  28.393536,    7.606291
  28.403627,    7.664941
  28.413807,    7.724364
  28.423864,    7.783339
  28.434079,    7.843500
  28.444164,    7.903157
  28.454354,    7.963706
  28.464509,    8.024311
  28.474587,    8.084719
  28.484765,    8.145992
  28.494900,    8.207270
  28.505124,    8.269360
  28.515254,    8.331142
  28.525426,    8.393442
  28.535606,    8.456068
  28.545869,    8.519475
  28.556096,    8.582929
  28.566378,    8.646998
  28.576603,    8.710987
  28.586965,    8.776112
  28.597164,    8.840484
  28.607353,    8.905063
  28.617611,    8.970352
  28.627979,    9.036622
  28.638356,    9.103231
  28.648581,    9.169142
  28.658917,    9.236040
  28.669356,    9.303894
  28.679713,    9.371499
  28.690122,    9.439725
  28.700483,    9.507915
  28.710796,    9.576077
  28.721247,    9.645431
  28.731646,    9.714730
  28.742088,    9.784599
  28.752553,    9.854912
  28.763052,    9.925746
  28.773588,    9.997118
  28.784053,   10.068304
  28.794629,   10.140537
  28.805058,   10.212051
  28.815529,   10.284155
  28.826004,   10.356565
  28.836472,   10.429223
  28.847023,   10.502756
  28.857534,   10.576301
  28.868039,   10.650099
  28.870581,   10.668000
