Ground distance, Load Factor
   0.000000,    0.000000
   0.000002,    0.000000
   0.000044,    0.000000
   0.000511,    0.000000
   0.002564,    0.000001
   0.008820,    0.000002
   0.024257,    0.000006
   0.047446,    0.000012
   0.078337,    0.000020
   0.117028,    0.000031
   0.163513,    0.000043
   0.217974,    0.000057
   0.280304,    0.000073
   0.350338,    0.000092
   0.428427,    0.000112
   0.514999,    0.000134
   0.610619,    0.000159
   0.714109,    0.000186
   0.826235,    0.000216
   0.948334,    0.000247
   1.077203,    0.000281
   1.218595,    0.000318
   1.367585,    0.000357
   1.526118,    0.000398
   1.695332,    0.000442
   1.872477,    0.000488
   2.060661,    0.000537
   2.258038,    0.000588
   2.468563,    0.000643
   2.690184,    0.000701
   2.924539,    0.000761
   3.165388,    0.000824
   3.418501,    0.000890
   3.686976,    0.000959
   3.963501,    0.001031
   4.257880,    0.001107
   4.562639,    0.001186
   4.878714,    0.001268
   5.207155,    0.001353
   5.552586,    0.001443
   5.906441,    0.001534
   6.275954,    0.001630
   6.659839,    0.001729
   7.061480,    0.001833
   7.472530,    0.001940
   7.898835,    0.002050
   8.342580,    0.002164
   8.805684,    0.002284
   9.277850,    0.002406
   9.766738,    0.002532
  10.275192,    0.002663
  10.798010,    0.002798
  11.334453,    0.002936
  11.888120,    0.003079
  12.462053,    0.003227
  13.047038,    0.003378
  13.659095,    0.003535
  14.293507,    0.003698
  14.941658,    0.003865
  15.610882,    0.004037
  16.297049,    0.004213
  17.004910,    0.004395
  17.728054,    0.004581
  18.474511,    0.004772
  19.230680,    0.004966
  20.015877,    0.005168
  20.829825,    0.005377
  21.655329,    0.005588
  22.496453,    0.005803
  23.354912,    0.006023
  24.247787,    0.006252
  25.162056,    0.006486
  26.103163,    0.006726
  27.066409,    0.006972
  28.050798,    0.007224
  29.056622,    0.007481
  30.084805,    0.007743
  31.152242,    0.008015
  32.227198,    0.008290
  33.316255,    0.008567
  34.449277,    0.008856
  35.604656,    0.009150
  36.786403,    0.009451
  37.986906,    0.009756
  39.220483,    0.010070
  40.472815,    0.010388
  41.761548,    0.010715
  43.075114,    0.011049
  44.410689,    0.011388
  45.777456,    0.011734
  47.162949,    0.012086
  48.594311,    0.012448
  50.039602,    0.012814
  51.516321,    0.013188
  53.022048,    0.013569
  54.571155,    0.013961
  56.128514,    0.014354
  57.729139,    0.014759
  59.367418,    0.015172
  61.018195,    0.015589
  62.696408,    0.016012
  64.421682,    0.016447
  66.170138,    0.016887
  67.963192,    0.017338
  69.777303,    0.017795
  71.627266,    0.018260
  73.501847,    0.018731
  75.405490,    0.019209
  77.338441,    0.019695
  79.317637,    0.020191
  81.322469,    0.020694
  83.368657,    0.021207
  85.444021,    0.021727
  85.859314,    0.021831
  86.925349,    0.022097
  87.365508,    0.022208
  87.412004,    0.022219
  87.453963,    0.022230
  87.461513,    0.022232
  87.471151,    0.022234
  87.474147,    0.022235
  87.475338,    0.022235
  87.477552,    0.022236
  87.479576,    0.022236
  87.495581,    0.022240
  87.602101,    0.022267
  87.999910,    0.022366
  89.218185,    0.022671
  91.165673,    0.023158
  93.166650,    0.023658
  95.196486,    0.024165
  97.269298,    0.024682
  99.354878,    0.025202
 101.475746,    0.025730
 103.645503,    0.026270
 105.828081,    0.026813
 108.053992,    0.027367
 110.293889,    0.027923
 112.571652,    0.028489
 114.880480,    0.029062
 117.232427,    0.029645
 119.612188,    0.030234
 122.026676,    0.030832
 124.448993,    0.031431
 126.914524,    0.032040
 129.416094,    0.032658
 131.946832,    0.033283
 134.515653,    0.033916
 137.121898,    0.034559
 139.759147,    0.035208
 142.428014,    0.035865
 145.129501,    0.036529
 147.858302,    0.037199
 150.638333,    0.037882
 153.442205,    0.038570
 156.287791,    0.039267
 159.163785,    0.039971
 162.064504,    0.040681
 165.019815,    0.041404
 167.982597,    0.042128
 170.977177,    0.042859
 174.044874,    0.043607
 177.119179,    0.044356
 180.217953,    0.045111
 183.348607,    0.045873
 186.551477,    0.046652
 189.788710,    0.047438
 193.049969,    0.048230
 196.340251,    0.049028
 199.671548,    0.049835
 203.044654,    0.050652
 206.447501,    0.051475
 209.909608,    0.052312
 213.400425,    0.053155
 216.922266,    0.054005
 220.487855,    0.054865
 224.081236,    0.055731
 227.726418,    0.056608
 231.410410,    0.057494
 235.112528,    0.058384
 238.865097,    0.059284
 242.659254,    0.060195
 246.497527,    0.061114
 250.368314,    0.062041
 254.286296,    0.062979
 258.234621,    0.063922
 262.237042,    0.064878
 266.270590,    0.065840
 270.347273,    0.066812
 274.474507,    0.067795
 278.624369,    0.068783
 282.824663,    0.069781
 287.053172,    0.070785
 291.334510,    0.071801
 295.645630,    0.072823
 299.990661,    0.073852
 304.386994,    0.074893
 308.847602,    0.075947
 313.341248,    0.077008
 317.868134,    0.078077
 322.424505,    0.079151
 327.028518,    0.080235
 331.693211,    0.081332
 336.388364,    0.082436
 341.135257,    0.083551
 345.915181,    0.084672
 350.736283,    0.085802
 355.612292,    0.086944
 360.549683,    0.088099
 361.543377,    0.088331
 362.744575,    0.088612
 363.628817,    0.088819
 363.767901,    0.088851
 363.914587,    0.088885
 364.039672,    0.088915
 364.067063,    0.088921
 364.100354,    0.088929
 364.140072,    0.088938
 364.149449,    0.088940
 364.150064,    0.088940
 364.150635,    0.088941
 364.156341,    0.088942
 364.206007,    0.088954
 364.494632,    0.089021
 365.968457,    0.089365
 370.278430,    0.090371
 374.889944,    0.091447
 379.526049,    0.092526
 384.183137,    0.093610
 388.892439,    0.094704
 393.639134,    0.095806
 398.445966,    0.096921
 403.273740,    0.098039
 408.125418,    0.099161
 413.026382,    0.100294
 417.947169,    0.101430
 422.912515,    0.102574
 427.921555,    0.103728
 432.969733,    0.104889
 438.062298,    0.106059
 443.189426,    0.107236
 448.366629,    0.108423
 453.564468,    0.109613
 458.801944,    0.110811
 464.094414,    0.112020
 469.432915,    0.113238
 474.797059,    0.114460
 480.204572,    0.115691
 485.640328,    0.116927
 491.113917,    0.118170
 496.639561,    0.119424
 502.187564,    0.120681
 507.794200,    0.121949
 513.435586,    0.123224
 519.130253,    0.124510
 524.846802,    0.125799
 530.615948,    0.127098
 536.440667,    0.128408
 542.278772,    0.129719
 548.180553,    0.131044
 554.100183,    0.132370
 560.072453,    0.133707
 566.062846,    0.135046
 572.112739,    0.136397
 578.202571,    0.137755
 584.325152,    0.139118
 590.507740,    0.140493
 596.733431,    0.141877
 602.971835,    0.143261
 609.275639,    0.144658
 615.625456,    0.146063
 622.023011,    0.147477
 628.442078,    0.148894
 634.912593,    0.150321
 641.416749,    0.151753
 647.996623,    0.153200
 654.609327,    0.154652
 661.247125,    0.156108
 667.919382,    0.157570
 674.640630,    0.159040
 681.390592,    0.160515
 688.202858,    0.162001
 695.063170,    0.163496
 701.962254,    0.164998
 708.917562,    0.166510
 715.930994,    0.168032
 722.930149,    0.169549
 729.987684,    0.171077
 737.104980,    0.172616
 744.224597,    0.174153
 751.424082,    0.175706
 758.672438,    0.177266
 765.958935,    0.178833
 773.291780,    0.180408
 780.663301,    0.181989
 788.108787,    0.183584
 795.565666,    0.185179
 803.090163,    0.186786
 810.630086,    0.188394
 818.218349,    0.190011
 825.883158,    0.191641
 833.535562,    0.193267
 841.264439,    0.194906
 849.039465,    0.196553
 856.869004,    0.198210
 864.747004,    0.199874
 865.063510,    0.199941
 865.364061,    0.200004
 865.687515,    0.200072
 865.746758,    0.200085
 865.814180,    0.200099
 865.835652,    0.200104
 865.867659,    0.200110
 865.883838,    0.200114
 865.890376,    0.200115
 865.892693,    0.200116
 865.893790,    0.200116
 865.895655,    0.200116
 865.897352,    0.200117
 865.914326,    0.200120
 866.067075,    0.200153
 866.886142,    0.200325
 870.201397,    0.201025
 877.336528,    0.202528
 884.459333,    0.204027
 891.639075,    0.205535
 898.877643,    0.207053
 906.142691,    0.208574
 913.423469,    0.210096
 920.739666,    0.211623
 928.117043,    0.213161
 935.512869,    0.214700
 942.937093,    0.216242
 950.411094,    0.217793
 957.912885,    0.219346
 965.474156,    0.220910
 973.075492,    0.222479
 980.701189,    0.224050
 988.362314,    0.225627
 996.063577,    0.227209
1003.816658,    0.228800
1011.622002,    0.230398
1019.444344,    0.231997
1027.286909,    0.233598
1035.178007,    0.235206
1043.091361,    0.236817
1051.065483,    0.238436
1059.075167,    0.240061
1067.105670,    0.241687
1075.175506,    0.243318
1083.300142,    0.244958
1091.466297,    0.246603
1099.651272,    0.248249
1107.897790,    0.249905
1116.183877,    0.251567
1124.506964,    0.253233
1132.865994,    0.254903
1141.264346,    0.256578
1149.694940,    0.258257
1158.174724,    0.259943
1166.677905,    0.261631
1175.238238,    0.263327
1183.817578,    0.265024
1192.434768,    0.266726
1201.118747,    0.268438
1209.849082,    0.270157
1218.599956,    0.271876
1227.372730,    0.273597
1236.191935,    0.275324
1245.044695,    0.277054
1253.941271,    0.278790
1262.896974,    0.280535
1271.890940,    0.282284
1280.909661,    0.284035
1289.977868,    0.285793
1299.081826,    0.287554
1308.226785,    0.289320
1317.416727,    0.291092
1326.641445,    0.292868
1335.926930,    0.294652
1345.216164,    0.296433
1354.551238,    0.298221
1363.931107,    0.300013
1373.367734,    0.301814
1382.853448,    0.303620
1392.389477,    0.305433
1401.958290,    0.307249
1411.540830,    0.309065
1421.185482,    0.310889
1430.857719,    0.312714
1440.572337,    0.314545
1450.317632,    0.316378
1460.108997,    0.318217
1469.951646,    0.320061
1479.826530,    0.321909
1489.733767,    0.323759
1499.703567,    0.325618
1509.697128,    0.327477
1519.732555,    0.329341
1529.805869,    0.331209
1539.930991,    0.333083
1550.088244,    0.334959
1560.298583,    0.336842
1570.551394,    0.338729
1580.840653,    0.340619
1591.165298,    0.342513
1601.532661,    0.344410
1611.948659,    0.346313
1622.420997,    0.348223
1632.918822,    0.350134
1643.451219,    0.352048
1654.005140,    0.353962
1656.132120,    0.354347
1663.686782,    0.355715
1663.771907,    0.355730
1663.907758,    0.355755
1663.929776,    0.355759
1663.943368,    0.355761
1663.948758,    0.355762
1663.954133,    0.355763
1664.007889,    0.355773
1664.500991,    0.355862
1666.952872,    0.356305
1676.324776,    0.357998
1686.968430,    0.359917
1697.677377,    0.361845
1708.390672,    0.363769
1719.185933,    0.365705
1729.997045,    0.367639
1740.865466,    0.369581
1751.769283,    0.371525
1762.723613,    0.373474
1773.710757,    0.375425
1784.748878,    0.377382
1795.815148,    0.379340
1806.950144,    0.381306
1818.123530,    0.383275
1829.325139,    0.385246
1840.578293,    0.387221
1851.873122,    0.389201
1863.191392,    0.391180
1874.557136,    0.393164
1885.961398,    0.395151
1897.418331,    0.397143
1908.917724,    0.399138
1920.468507,    0.401139
1932.028217,    0.403137
1943.644834,    0.405141
1955.298282,    0.407148
1967.004316,    0.409159
1978.734549,    0.411171
1990.517004,    0.413188
2002.345588,    0.415209
2014.217452,    0.417233
2026.133580,    0.419260
2038.078412,    0.421289
2050.076943,    0.423322
2062.123308,    0.425360
2074.215746,    0.427401
2086.344919,    0.429445
2098.529006,    0.431493
2110.739746,    0.433542
2122.998203,    0.435595
2135.299729,    0.437651
2147.624905,    0.439706
2160.032149,    0.441772
2172.458191,    0.443836
2184.918324,    0.445901
2197.422289,    0.447970
2209.968642,    0.450041
2222.554575,    0.452115
2235.208393,    0.454195
2247.901631,    0.456278
2260.627407,    0.458362
2273.396143,    0.460449
2286.195572,    0.462536
2299.069325,    0.464631
2311.950341,    0.466723
2324.895126,    0.468821
2337.876597,    0.470921
2350.917891,    0.473026
2363.973999,    0.475129
2377.091368,    0.477237
2390.252383,    0.479348
2403.468128,    0.481463
2416.740941,    0.483583
2430.033586,    0.485702
2443.366917,    0.487823
2456.769265,    0.489950
2470.178977,    0.492074
2483.649146,    0.494203
2497.184210,    0.496338
2510.738687,    0.498471
2524.338550,    0.500607
2537.986697,    0.502746
2551.659155,    0.504884
2565.381612,    0.507026
2579.152918,    0.509170
2592.967479,    0.511317
2606.831245,    0.513466
2620.741852,    0.515618
2634.679257,    0.517770
2648.672948,    0.519926
2662.694743,    0.522082
2676.774134,    0.524241
2690.912711,    0.526405
2702.166898,    0.528124
2705.089826,    0.528570
2719.306337,    0.533022
2733.570876,    0.546328
2747.868469,    0.559638
2762.199855,    0.572940
2776.601810,    0.586241
2791.012943,    0.599557
2805.478758,    0.612850
2820.002265,    0.626153
2834.529802,    0.639460
2849.108249,    0.652738
2863.741057,    0.666022
2878.432018,    0.679314
2881.371913,    0.690441
2884.186092,    0.693059
2886.537742,    0.695500
2886.612207,    0.697187
2886.615421,    0.697241
2886.618635,    0.697244
2886.650775,    0.697252
2886.922384,    0.697325
2888.615627,    0.697833
2895.188981,    0.700259
2910.191758,    0.707735
2925.499737,    0.721276
2940.851936,    0.734998
2956.234880,    0.748711
2971.665680,    0.762408
2987.117600,    0.776095
3002.601205,    0.789756
3018.105853,    0.803395
3033.671055,    0.817013
3049.258903,    0.830627
3064.891051,    0.844218
3080.560894,    0.857796
3096.279514,    0.871360
3112.033184,    0.884914
3127.818669,    0.898447
3143.620667,    0.911954
3159.437033,    0.925423
3175.313835,    0.938865
3191.199971,    0.952294
3207.129184,    0.965688
3223.091289,    0.979064
3239.079384,    0.992414
3255.122021,    1.005740
3271.176537,    1.019049
3272.394024,    1.028875
3273.610244,    1.029868
3274.823722,    1.030859
3276.042561,    1.031850
3277.260945,    1.032843
3278.478914,    1.033835
3279.703216,    1.034828
3280.926757,    1.035824
3282.146066,    1.036818
3283.373102,    1.037811
3284.595429,    1.038807
3285.822907,    1.039800
3287.045961,    1.040795
3288.272683,    1.041788
3289.503569,    1.042784
3290.736147,    1.043782
3291.966765,    1.044779
3293.202767,    1.045777
3294.434912,    1.046776
3295.671683,    1.047773
3296.911032,    1.048773
3298.152030,    1.049775
3299.394473,    1.050777
3300.628455,    1.051778
3301.853323,    1.052771
3303.098825,    1.053763
3304.339976,    1.054765
3305.583923,    1.055765
3306.831713,    1.056767
3308.077263,    1.057770
3309.328831,    1.058773
3310.580273,    1.059778
3311.829889,    1.060782
3313.086334,    1.061787
3314.334767,    1.062792
3315.592675,    1.063795
3316.853289,    1.064803
3318.109693,    1.065812
3319.364475,    1.066817
3320.616427,    1.067819
3321.867646,    1.068820
3323.134627,    1.069823
3324.401262,    1.070834
3325.670152,    1.071845
3326.937842,    1.072856
3328.202803,    1.073866
3329.477638,    1.074875
3330.752814,    1.075890
3332.030628,    1.076904
3333.309274,    1.077920
3334.580258,    1.078934
3335.856476,    1.079944
3337.138833,    1.080958
3338.425116,    1.081976
3339.710688,    1.082995
3340.996971,    1.084013
3342.279565,    1.085030
3343.567596,    1.086045
3344.856295,    1.087063
3346.153436,    1.088083
3347.445523,    1.089105
3348.739391,    1.090125
3350.036220,    1.091145
3351.332974,    1.092167
3352.637839,    1.093189
3353.942347,    1.094216
3355.239978,    1.095239
3356.541199,    1.096260
3357.854239,    1.097284
3359.162848,    1.098313
3360.471155,    1.099338
3361.791855,    1.100366
3363.100870,    1.101397
3364.424835,    1.102425
3365.753084,    1.103460
3367.064214,    1.104494
3368.384174,    1.105520
3369.705988,    1.106550
3371.030318,    1.107580
3372.343527,    1.108609
3373.672740,    1.108899
3375.006501,    1.109188
3376.350992,    1.109480
3377.691860,    1.109770
3379.030600,    1.110060
3380.358197,    1.110347
3381.706028,    1.110638
3383.046476,    1.110926
3384.394975,    1.111217
3385.734816,    1.111504
3387.087380,    1.111795
3388.440217,    1.112085
3389.796807,    1.112375
3391.148343,    1.112664
3392.501520,    1.112953
3393.860617,    1.113243
3395.224177,    1.113533
3396.579065,    1.113821
3397.944167,    1.114111
3399.318474,    1.114402
3400.694524,    1.114693
3402.059378,    1.114982
3403.428029,    1.115271
3404.800823,    1.115560
3406.180692,    1.115851
3407.560060,    1.116141
3408.931129,    1.116429
3410.313083,    1.116718
3411.699618,    1.117008
3413.074852,    1.117296
3414.460013,    1.117585
3415.852301,    1.117875
3417.240533,    1.118164
3418.640939,    1.118455
3420.031748,    1.118744
3421.434975,    1.119035
3422.835953,    1.119324
3424.237147,    1.119614
3425.643701,    1.119904
3427.049122,    1.120194
3428.457652,    1.120483
3429.866070,    1.120773
3431.274556,    1.121061
3432.689944,    1.121351
3434.113693,    1.121642
3435.526737,    1.121931
3436.954958,    1.122222
3438.380895,    1.122512
3439.811482,    1.122803
3441.241634,    1.123093
3442.675770,    1.123383
3444.108490,    1.123673
3445.555062,    1.123965
3446.993889,    1.124255
3448.424701,    1.124543
3449.868755,    1.124833
3451.320467,    1.125125
3452.776661,    1.125416
3454.217668,    1.125705
3455.676927,    1.125996
3457.129789,    1.126286
3458.594024,    1.126577
3460.059655,    1.126868
3461.525697,    1.127159
3462.994111,    1.127450
3464.468340,    1.127741
3465.944331,    1.128033
3467.418770,    1.128323
3468.882676,    1.128611
3470.357465,    1.128901
3471.841016,    1.129192
3473.329811,    1.129483
3474.801415,    1.129771
3474.820365,    1.129775
3476.312108,    1.130062
3477.806789,    1.130099
3479.291557,    1.130132
3480.795278,    1.130170
3482.303106,    1.130205
3483.803811,    1.130237
3485.305195,    1.130270
3486.816928,    1.130305
3488.336565,    1.130338
3489.860377,    1.130371
3491.377884,    1.130401
3492.903027,    1.130433
3494.433904,    1.130464
3495.963230,    1.130493
3497.489465,    1.130521
3499.021255,    1.130550
3500.555105,    1.130579
3502.097033,    1.130607
3503.648165,    1.130636
3505.193941,    1.130661
3506.740461,    1.130687
3508.287013,    1.130712
3509.845173,    1.130739
3511.394294,    1.130761
3512.949280,    1.130785
3514.494879,    1.130806
3516.053322,    1.130831
3517.613094,    1.130853
3519.177515,    1.130875
3520.735145,    1.130894
3522.308013,    1.130916
3523.882238,    1.130936
3525.463119,    1.130956
3527.051362,    1.130976
3528.639572,    1.130993
3530.231332,    1.131011
3531.822689,    1.131028
3533.422950,    1.131045
3535.023249,    1.131060
3536.627259,    1.131076
3538.227981,    1.131089
3539.836678,    1.131104
3541.443630,    1.131117
3543.060760,    1.131131
3544.675826,    1.131142
3546.298653,    1.131154
3547.904765,    1.131162
3549.538294,    1.131176
3551.174030,    1.131186
3552.810070,    1.131195
3554.450403,    1.131203
3556.078121,    1.131208
3557.712657,    1.131216
3559.356492,    1.131224
3560.995839,    1.131228
3562.650823,    1.131236
3564.295232,    1.131238
3565.942846,    1.131242
3567.604741,    1.131247
3569.271690,    1.131250
3570.945132,    1.131252
3572.615702,    1.131253
3574.290425,    1.131253
3575.973263,    1.131254
3577.633387,    1.131249
3579.317309,    1.131251
3581.006234,    1.131249
3582.683739,    1.131244
3584.378798,    1.131243
3586.071252,    1.131238
3587.756941,    1.131231
3589.465375,    1.131229
3591.185343,    1.131224
3592.897026,    1.131215
3594.606713,    1.131207
3596.323919,    1.131199
3598.044224,    1.131190
3599.763760,    1.131179
3601.480487,    1.131168
3603.208638,    1.131158
3604.949146,    1.131147
3606.688829,    1.131134
3608.433963,    1.131121
3610.172406,    1.131105
3611.922086,    1.131091
3613.681090,    1.131077
3615.434934,    1.131059
3617.200270,    1.131043
3618.966583,    1.131024
3620.720655,    1.131003
3622.486823,    1.130985
3624.265351,    1.130966
3626.043040,    1.130945
3627.804493,    1.130920
3629.565778,    1.130897
3631.345191,    1.130876
3633.148169,    1.130855
3634.930537,    1.130826
3636.740224,    1.130805
3638.538289,    1.130775
3640.332605,    1.130747
3642.147072,    1.130722
3643.955274,    1.130691
3645.765844,    1.130661
3647.588912,    1.130632
3649.397053,    1.130598
3651.218548,    1.130568
3653.034159,    1.130533
3654.843177,    1.130498
3656.670599,    1.130466
3658.499522,    1.130431
3660.329843,    1.130394
3662.178609,    1.130360
3664.028423,    1.130321
3665.864904,    1.130280
3667.710297,    1.130241
3669.565793,    1.130202
3671.416768,    1.130159
3673.278443,    1.130119
3675.138606,    1.130075
3677.014881,    1.130033
3678.889742,    1.129988
3680.769808,    1.129942
3682.639228,    1.129893
3684.519927,    1.129848
3686.406444,    1.129800
3688.283981,    1.129749
3690.175362,    1.129701
3692.065075,    1.129649
3693.977703,    1.129600
3695.894576,    1.129548
3697.807704,    1.129493
3699.713349,    1.129436
3701.624608,    1.129382
3703.525387,    1.129323
3705.438010,    1.129268
3707.349210,    1.129209
3709.272053,    1.129152
3711.211802,    1.129094
3713.160847,    1.129034
3715.108584,    1.128971
3717.063034,    1.128908
3719.023960,    1.128845
3720.981476,    1.128779
3722.940346,    1.128713
3724.903375,    1.128646
3726.866565,    1.128578
3728.828821,    1.128509
3730.803605,    1.128441
3732.780400,    1.128370
3734.751340,    1.128297
3736.730657,    1.128226
3738.723230,    1.128154
3740.709625,    1.128078
3742.709869,    1.128004
3744.706121,    1.127926
3746.701836,    1.127848
3748.704440,    1.127771
3750.710728,    1.127691
3752.733229,    1.127613
3754.755938,    1.127531
3756.783539,    1.127448
3758.822694,    1.127365
3760.851407,    1.127278
3762.870622,    1.127191
3764.906618,    1.127107
3766.932255,    1.127018
3768.983418,    1.126932
3771.019289,    1.126840
3773.076665,    1.126752
3775.119494,    1.126658
3777.178174,    1.126567
3779.242339,    1.126474
3781.299610,    1.126377
3783.371220,    1.126283
3785.449497,    1.126186
3787.508101,    1.126085
3789.588201,    1.125989
3791.664862,    1.125888
3793.736062,    1.125786
3795.836395,    1.125688
3797.912514,    1.125581
3799.990251,    1.125477
3802.104716,    1.125377
3804.198709,    1.125266
3806.308162,    1.125161
3808.433603,    1.125054
3810.544739,    1.124941
3812.645928,    1.124829
3814.779990,    1.124721
3816.916978,    1.124607
3819.070877,    1.124494
3821.192361,    1.124373
3823.322205,    1.124258
3825.454369,    1.124141
3827.607053,    1.124025
3829.745652,    1.123902
3831.904106,    1.123784
3834.060474,    1.123661
3836.231849,    1.123539
3838.379222,    1.123411
3840.543487,    1.123288
3842.730454,    1.123164
3844.903375,    1.123033
3847.086236,    1.122905
3849.249856,    1.122772
3851.453308,    1.122646
3853.625023,    1.122509
3855.841412,    1.122381
3858.024796,    1.122241
3860.239289,    1.122109
3862.469323,    1.121972
3864.670249,    1.121829
3866.874983,    1.121690
3869.097901,    1.121551
3871.312069,    1.121408
3873.534754,    1.121266
3875.743990,    1.121120
3877.970294,    1.120977
3880.203355,    1.120831
3882.442266,    1.120684
3884.720876,    1.120539
3886.977884,    1.120384
3889.242453,    1.120232
3891.506693,    1.120078
3893.757863,    1.119922
3895.997482,    1.119766
3898.275761,    1.119615
3900.534200,    1.119454
3902.799905,    1.119296
3905.047675,    1.119135
3907.327630,    1.118979
3909.614697,    1.118817
3911.909013,    1.118653
3914.185868,    1.118486
3916.475191,    1.118322
3918.770457,    1.118155
3921.089610,    1.117989
3923.394430,    1.117816
3925.742608,    1.117649
3928.045623,    1.117469
3930.369945,    1.117298
3932.674666,    1.117120
3934.989021,    1.116946
3937.311052,    1.116770
3939.638602,    1.116592
3941.986214,    1.116414
3944.299728,    1.116229
3946.652596,    1.116052
3948.993309,    1.115866
3951.364238,    1.115684
3953.719170,    1.115494
3956.068023,    1.115306
3958.435013,    1.115119
3960.805368,    1.114929
3963.183601,    1.114737
3965.576662,    1.114545
3967.957218,    1.114348
3970.321000,    1.114150
3972.727295,    1.113959
3975.097069,    1.113755
3977.460434,    1.113557
3979.828189,    1.113359
3982.228379,    1.113162
3984.601754,    1.112956
3987.002357,    1.112757
3989.427306,    1.112553
3991.865721,    1.112346
3994.299794,    1.112135
3996.748505,    1.111925
3999.190821,    1.111710
4001.605046,    1.111494
4004.034421,    1.111283
4006.476660,    1.111069
4008.925801,    1.110852
4011.393313,    1.110635
4013.835902,    1.110411
4016.287579,    1.110192
4018.718860,    1.109968
4021.185310,    1.109750
4023.639325,    1.109524
4026.116202,    1.109301
4028.603496,    1.109073
4031.088457,    1.108843
4033.581821,    1.108612
4036.071421,    1.108379
4038.555653,    1.108145
4041.070472,    1.107914
4043.599676,    1.107677
4046.085437,    1.107433
4048.557218,    1.107195
4051.082023,    1.106962
4053.590464,    1.106718
4056.088945,    1.106475
4058.607960,    1.106234
4061.151262,    1.105990
4063.673636,    1.105740
4066.196502,    1.105492
4068.763235,    1.105247
4071.299932,    1.104990
4073.844247,    1.104738
4076.370107,    1.104483
4078.916171,    1.104231
4081.464074,    1.103975
4084.019675,    1.103718
4086.590271,    1.103460
4087.537884,    1.103076
