Time, Vertical Forces
   0.000000,    0.000002
   0.100000,    2.573578
   0.200000,   28.085101
   0.300000,   56.424578
   0.400000,   84.764054
   0.500000,  113.103531
   0.600000,  141.443008
   0.700000,  169.782485
   0.800000,  198.121962
   0.900000,  226.461439
   1.000000,  254.800916
   1.100000,  283.140393
   1.200000,  351.768400
   1.300000,  425.426810
   1.400000,  499.085219
   1.500000,  572.743628
   1.600000,  646.402037
   1.700000,  720.060446
   1.800000,  793.718855
   1.900000,  867.377264
   2.000000,  941.035674
   2.100000, 1014.694083
   2.200000, 1127.336986
   2.300000, 1244.847469
   2.400000, 1362.357952
   2.500000, 1479.868436
   2.600000, 1597.378919
   2.700000, 1714.889402
   2.800000, 1832.399886
   2.900000, 1949.910369
   3.000000, 2067.420852
   3.100000, 2184.931335
   3.200000, 2340.087268
   3.300000, 2499.943589
   3.400000, 2659.799909
   3.500000, 2819.656230
   3.600000, 2979.512550
   3.700000, 3139.368871
   3.800000, 3299.225191
   3.900000, 3459.081511
   4.000000, 3618.937832
   4.100000, 3778.794152
   4.200000, 3974.926722
   4.300000, 4175.588721
   4.400000, 4376.250721
   4.500000, 4576.912720
   4.600000, 4777.574719
   4.700000, 4978.236719
   4.800000, 5178.898718
   4.900000, 5379.560718
   5.000000, 5580.222717
   5.100000, 5780.884717
   5.200000, 6016.428408
   5.300000, 6256.327406
   5.400000, 6496.226404
   5.500000, 6736.125402
   5.600000, 6976.024400
   5.700000, 7215.923398
   5.800000, 7455.822396
   5.900000, 7695.721394
   6.000000, 7935.620392
   6.100000, 8175.519390
   6.200000, 8448.475520
   6.300000, 8725.559142
   6.400000, 9002.642765
   6.500000, 9279.726388
   6.600000, 9556.810011
   6.700000, 9833.893634
   6.800000, 10110.977257
   6.900000, 10388.060879
   7.000000, 10665.144502
   7.100000, 10942.228125
   7.200000, 11249.912164
   7.300000, 11561.416952
   7.400000, 11872.921740
   7.500000, 12184.426528
   7.600000, 12495.931316
   7.700000, 12807.436104
   7.800000, 13118.940891
   7.900000, 13430.445679
   8.000000, 13741.950467
   8.100000, 14053.455255
   8.200000, 14393.684339
   8.300000, 14737.499921
   8.400000, 15081.315503
   8.500000, 15425.131085
   8.600000, 15768.946666
   8.700000, 16112.762248
   8.800000, 16456.577830
   8.900000, 16800.393412
   9.000000, 17144.208994
   9.100000, 17488.024576
   9.200000, 17858.732327
   9.300000, 18232.797819
   9.400000, 18606.863311
   9.500000, 18980.928803
   9.600000, 19354.994295
   9.700000, 19729.059786
   9.800000, 20103.125278
   9.900000, 20477.190770
  10.000000, 20851.256262
  10.100000, 21225.321754
  10.200000, 21624.479850
  10.300000, 22026.770993
  10.400000, 22429.062136
  10.500000, 22831.353279
  10.600000, 23233.644423
  10.700000, 23635.935566
  10.800000, 24038.226709
  10.900000, 24440.517852
  11.000000, 24842.808995
  11.100000, 25245.100139
  11.200000, 25670.720521
  11.300000, 26099.253778
  11.400000, 26527.787035
  11.500000, 26956.320293
  11.600000, 27384.853550
  11.700000, 27813.386807
  11.800000, 28241.920064
  11.900000, 28670.453321
  12.000000, 29098.986578
  12.100000, 29527.519835
  12.200000, 29977.658457
  12.300000, 30430.494712
  12.400000, 30883.330967
  12.500000, 31336.167221
  12.600000, 31789.003476
  12.700000, 32241.839730
  12.800000, 32694.675985
  12.900000, 33147.512240
  13.000000, 33600.348494
  13.100000, 34053.184749
  13.200000, 34524.908439
  13.300000, 34998.990403
  13.400000, 35473.072367
  13.500000, 35947.154331
  13.600000, 36421.236295
  13.700000, 36895.318260
  13.800000, 37369.400224
  13.900000, 37843.482188
  14.000000, 38317.564152
  14.100000, 38791.646116
  14.200000, 39281.185639
  14.300000, 39772.655184
  14.400000, 40264.124729
  14.500000, 40755.594273
  14.600000, 41247.063818
  14.700000, 41738.533363
  14.800000, 42230.002908
  14.900000, 42721.472452
  15.000000, 43212.941997
  15.100000, 43704.411542
  15.200000, 44209.401611
  15.300000, 44716.079845
  15.400000, 45222.758078
  15.500000, 45729.436312
  15.600000, 46236.114545
  15.700000, 46742.792779
  15.800000, 47249.471013
  15.900000, 47756.149246
  16.000000, 48262.827480
  16.100000, 48769.505713
  16.200000, 49287.890733
  16.300000, 49807.737455
  16.400000, 50327.584177
  16.500000, 50847.430898
  16.600000, 51367.277620
  16.700000, 51887.124342
  16.800000, 52406.971064
  16.900000, 52926.817785
  17.000000, 53446.664507
  17.100000, 53966.511229
  17.200000, 54496.348510
  17.300000, 55027.433205
  17.400000, 55558.517901
  17.500000, 56089.602597
  17.600000, 56620.687293
  17.700000, 57151.771989
  17.800000, 57682.856684
  17.900000, 58213.941380
  18.000000, 58745.026076
  18.100000, 59276.110772
  18.200000, 59815.565840
  18.300000, 60356.066028
  18.400000, 60896.566216
  18.500000, 61437.066404
  18.600000, 61977.566592
  18.700000, 62518.066780
  18.800000, 63058.566968
  18.900000, 63599.067156
  19.000000, 64139.567344
  19.100000, 64680.067532
  19.200000, 65227.412168
  19.300000, 65775.611398
  19.400000, 66323.810628
  19.500000, 66872.009858
  19.600000, 67420.209087
  19.700000, 67968.408317
  19.800000, 68516.607547
  19.900000, 69064.806777
  20.000000, 69613.006006
  20.100000, 70161.205236
  20.200000, 70714.815202
  20.300000, 71269.100748
  20.400000, 71823.386294
  20.500000, 72377.671841
  20.600000, 72931.957387
  20.700000, 73486.242934
  20.800000, 74040.528480
  20.900000, 74594.814026
  21.000000, 75149.099573
  21.100000, 75703.385119
  21.200000, 76261.772392
  21.300000, 76820.671804
  21.400000, 77379.571216
  21.500000, 77938.470628
  21.600000, 78497.370041
  21.700000, 79056.269453
  21.800000, 79615.168865
  21.900000, 80174.068277
  22.000000, 80732.967689
  22.100000, 81291.867101
  22.200000, 81853.748066
  22.300000, 82416.001306
  22.400000, 82978.254547
  22.500000, 83540.507787
  22.600000, 84102.761027
  22.700000, 84665.014267
  22.800000, 85227.267507
  22.900000, 85789.520747
  23.000000, 86351.773988
  23.100000, 86914.027228
  23.200000, 87478.112438
  23.300000, 88042.426388
  23.400000, 88606.740337
  23.500000, 89171.054286
  23.600000, 89735.368236
  23.700000, 90299.682185
  23.800000, 90863.996134
  23.900000, 91428.310084
  24.000000, 91992.624033
  24.100000, 92556.937982
  24.200000, 93121.927119
  24.300000, 93687.000559
  24.400000, 94252.073999
  24.500000, 94817.147438
  24.541539, 95051.871207
  24.641539, 98973.478575
  24.741539, 102895.085944
  24.841539, 106816.693312
  24.941539, 110738.300680
  25.041539, 114659.908049
  25.141539, 118347.893262
  25.241539, 121501.982017
  25.341539, 124656.070773
  25.441539, 127810.159529
  25.541539, 130964.248284
  25.641539, 134118.337040
  25.741539, 137272.425795
  25.841539, 140426.514551
  25.941539, 143580.603307
  26.041539, 146734.692062
  26.141539, 150435.906538
  26.241539, 155387.466829
  26.341539, 160339.027119
  26.441539, 165290.587410
  26.541539, 170242.147700
  26.641539, 175193.707991
  26.741539, 180145.268281
  26.841539, 185096.828572
  26.941539, 190048.388862
  27.041539, 194999.949153
  27.141539, 199847.880114
  27.241539, 204458.987080
  27.341539, 209070.094047
  27.441539, 213681.201014
  27.541539, 218292.307981
  27.641539, 222903.414948
  27.741539, 227514.521915
  27.841539, 232125.628882
  27.941539, 236736.735849
  28.041539, 241347.842816
  28.111100, 244555.391967
  28.211100, 248336.335024
  28.311100, 252117.278081
  28.411100, 255898.221138
  28.511100, 259679.164195
  28.611100, 263460.107252
  28.711100, 267241.050309
  28.811100, 271021.993366
  28.911100, 274802.936423
  29.011100, 278583.879480
  29.111100, 282364.822537
  29.211100, 282640.931675
  29.311100, 282917.040813
  29.411100, 283193.149951
  29.511100, 283469.259090
  29.611100, 283745.368228
  29.711100, 283813.628430
  29.811100, 283881.888631
  29.911100, 283950.148833
  30.011100, 284018.409035
  30.111100, 284086.669237
  30.211100, 283889.913785
  30.311100, 283693.158333
  30.411100, 283496.402880
  30.511100, 283299.647428
  30.611100, 283102.891976
  30.711100, 282906.136524
  30.811100, 282709.381072
  30.911100, 282512.625620
