Time, Vertical Forces
   0.000000,    0.000002
   0.100000,    2.529234
   0.200000,   27.601131
   0.300000,   55.452249
   0.400000,   83.303366
   0.500000,  111.154484
   0.600000,  139.005601
   0.700000,  166.856718
   0.800000,  194.707836
   0.900000,  222.558953
   1.000000,  250.410071
   1.100000,  278.261188
   1.200000,  345.706025
   1.300000,  418.094510
   1.400000,  490.482995
   1.500000,  562.871480
   1.600000,  635.259965
   1.700000,  707.648449
   1.800000,  780.036934
   1.900000,  852.425419
   2.000000,  924.813904
   2.100000,  997.202389
   2.200000, 1107.901618
   2.300000, 1223.384304
   2.400000, 1338.866991
   2.500000, 1454.349677
   2.600000, 1569.832363
   2.700000, 1685.315049
   2.800000, 1800.797735
   2.900000, 1916.280421
   3.000000, 2031.763107
   3.100000, 2147.245793
   3.200000, 2299.721062
   3.300000, 2456.815202
   3.400000, 2613.909343
   3.500000, 2771.003483
   3.600000, 2928.097624
   3.700000, 3085.191765
   3.800000, 3242.285905
   3.900000, 3399.380046
   4.000000, 3556.474186
   4.100000, 3713.568327
   4.200000, 3906.306546
   4.300000, 4103.495264
   4.400000, 4300.683982
   4.500000, 4497.872700
   4.600000, 4695.061417
   4.700000, 4892.250135
   4.800000, 5089.438853
   4.900000, 5286.627570
   5.000000, 5483.816288
   5.100000, 5681.005006
   5.200000, 5912.463751
   5.300000, 6148.201431
   5.400000, 6383.939110
   5.500000, 6619.676790
   5.600000, 6855.414470
   5.700000, 7091.152150
   5.800000, 7326.889830
   5.900000, 7562.627509
   6.000000, 7798.365189
   6.100000, 8034.102869
   6.200000, 8302.313709
   6.300000, 8574.579128
   6.400000, 8846.844547
   6.500000, 9119.109966
   6.600000, 9391.375385
   6.700000, 9663.640804
   6.800000, 9935.906223
   6.900000, 10208.171642
   7.000000, 10480.437061
   7.100000, 10752.702480
   7.200000, 11055.022229
   7.300000, 11361.094542
   7.400000, 11667.166856
   7.500000, 11973.239170
   7.600000, 12279.311484
   7.700000, 12585.383797
   7.800000, 12891.456111
   7.900000, 13197.528425
   8.000000, 13503.600738
   8.100000, 13809.673052
   8.200000, 14143.951249
   8.300000, 14481.751214
   8.400000, 14819.551180
   8.500000, 15157.351146
   8.600000, 15495.151111
   8.700000, 15832.951077
   8.800000, 16170.751043
   8.900000, 16508.551009
   9.000000, 16846.350974
   9.100000, 17184.150940
   9.200000, 17548.351390
   9.300000, 17915.848188
   9.400000, 18283.344985
   9.500000, 18650.841783
   9.600000, 19018.338581
   9.700000, 19385.835379
   9.800000, 19753.332177
   9.900000, 20120.828975
  10.000000, 20488.325773
  10.100000, 20855.822571
  10.200000, 21247.946327
  10.300000, 21643.144990
  10.400000, 22038.343653
  10.500000, 22433.542317
  10.600000, 22828.740980
  10.700000, 23223.939643
  10.800000, 23619.138306
  10.900000, 24014.336970
  11.000000, 24409.535633
  11.100000, 24804.734296
  11.200000, 25222.821919
  11.300000, 25643.767443
  11.400000, 26064.712968
  11.500000, 26485.658492
  11.600000, 26906.604016
  11.700000, 27327.549541
  11.800000, 27748.495065
  11.900000, 28169.440590
  12.000000, 28590.386114
  12.100000, 29011.331638
  12.200000, 29453.466952
  12.300000, 29898.248010
  12.400000, 30343.029067
  12.500000, 30787.810125
  12.600000, 31232.591183
  12.700000, 31677.372240
  12.800000, 32122.153298
  12.900000, 32566.934356
  13.000000, 33011.715413
  13.100000, 33456.496471
  13.200000, 33919.797354
  13.300000, 34385.410610
  13.400000, 34851.023867
  13.500000, 35316.637124
  13.600000, 35782.250381
  13.700000, 36247.863637
  13.800000, 36713.476894
  13.900000, 37179.090151
  14.000000, 37644.703407
  14.100000, 38110.316664
  14.200000, 38591.071400
  14.300000, 39073.716693
  14.400000, 39556.361985
  14.500000, 40039.007277
  14.600000, 40521.652569
  14.700000, 41004.297862
  14.800000, 41486.943154
  14.900000, 41969.588446
  15.000000, 42452.233738
  15.100000, 42934.879030
  15.200000, 43430.757966
  15.300000, 43928.289246
  15.400000, 44425.820526
  15.500000, 44923.351806
  15.600000, 45420.883086
  15.700000, 45918.414366
  15.800000, 46415.945646
  15.900000, 46913.476926
  16.000000, 47411.008206
  16.100000, 47908.539485
  16.200000, 48417.518542
  16.300000, 48927.926960
  16.400000, 49438.335379
  16.500000, 49948.743797
  16.600000, 50459.152216
  16.700000, 50969.560634
  16.800000, 51479.969053
  16.900000, 51990.377471
  17.000000, 52500.785890
  17.100000, 53011.194308
  17.200000, 53531.360844
  17.300000, 54052.745772
  17.400000, 54574.130701
  17.500000, 55095.515629
  17.600000, 55616.900558
  17.700000, 56138.285486
  17.800000, 56659.670414
  17.900000, 57181.055343
  18.000000, 57702.440271
  18.100000, 58223.825199
  18.200000, 58753.373368
  18.300000, 59283.940793
  18.400000, 59814.508219
  18.500000, 60345.075644
  18.600000, 60875.643070
  18.700000, 61406.210495
  18.800000, 61936.777921
  18.900000, 62467.345346
  19.000000, 62997.912772
  19.100000, 63528.480197
  19.200000, 64065.709030
  19.300000, 64603.769602
  19.400000, 65141.830174
  19.500000, 65679.890747
  19.600000, 66217.951319
  19.700000, 66756.011891
  19.800000, 67294.072463
  19.900000, 67832.133036
  20.000000, 68370.193608
  20.100000, 68908.254180
  20.200000, 69451.565363
  20.300000, 69995.532133
  20.400000, 70539.498904
  20.500000, 71083.465674
  20.600000, 71627.432445
  20.700000, 72171.399215
  20.800000, 72715.365986
  20.900000, 73259.332756
  21.000000, 73803.299527
  21.100000, 74347.266298
  21.200000, 74895.195654
  21.300000, 75443.619776
  21.400000, 75992.043898
  21.500000, 76540.468020
  21.600000, 77088.892142
  21.700000, 77637.316264
  21.800000, 78185.740386
  21.900000, 78734.164508
  22.000000, 79282.588631
  22.100000, 79831.012753
  22.200000, 80382.295804
  22.300000, 80933.935819
  22.400000, 81485.575835
  22.500000, 82037.215850
  22.600000, 82588.855865
  22.700000, 83140.495881
  22.800000, 83692.135896
  22.900000, 84243.775911
  23.000000, 84795.415927
  23.100000, 85347.055942
  23.200000, 85900.426107
  23.300000, 86454.012297
  23.400000, 87007.598487
  23.500000, 87561.184677
  23.600000, 88114.770867
  23.700000, 88668.357058
  23.800000, 89221.943248
  23.900000, 89775.529438
  24.000000, 90329.115628
  24.100000, 90882.701818
  24.200000, 91436.941936
  24.300000, 91991.263703
  24.400000, 92545.585470
  24.500000, 93099.907236
  24.600000, 93654.229003
  24.700000, 94208.550770
  24.800000, 94762.872537
  24.852132, 95051.852101
  24.952132, 104964.567697
  25.052132, 114877.283293
  25.152132, 121337.872087
  25.252132, 122837.352662
  25.352132, 124336.833236
  25.452132, 125836.313811
  25.552132, 127335.794386
  25.652132, 128835.274960
  25.752132, 130334.755535
  25.852132, 131834.236109
  25.952132, 133333.716684
  26.052132, 134833.197258
  26.152132, 137325.466079
  26.252132, 141244.487221
  26.352132, 145163.508363
  26.452132, 149082.529504
  26.552132, 153001.550646
  26.652132, 156920.571788
  26.752132, 160839.592930
  26.852132, 164758.614072
  26.952132, 168677.635214
  27.052132, 172596.656356
  27.152132, 176465.275664
  27.252132, 180261.461668
  27.352132, 184057.647672
  27.452132, 187853.833676
  27.552132, 191650.019679
  27.652132, 195446.205683
  27.752132, 199242.391687
  27.852132, 203038.577691
  27.952132, 206834.763695
  28.052132, 210630.949699
  28.152132, 214364.567686
  28.252132, 218008.268146
  28.352132, 221651.968606
  28.452132, 225295.669066
  28.552132, 228939.369526
  28.652132, 232583.069986
  28.752132, 236226.770446
  28.852132, 239870.470906
  28.952132, 243514.171366
  29.052132, 247157.871826
  29.111100, 249306.485559
  29.211100, 252332.881723
  29.311100, 255359.277886
  29.411100, 258385.674049
  29.511100, 261412.070213
  29.611100, 264438.466376
  29.711100, 267464.862539
  29.811100, 270491.258703
  29.911100, 273517.654866
  30.011100, 276544.051029
  30.111100, 279570.447193
  30.211100, 279815.792334
  30.311100, 280061.137475
  30.411100, 280306.482616
  30.511100, 280551.827757
  30.611100, 280797.172898
  30.711100, 280854.086475
  30.811100, 280911.000052
  30.911100, 280967.913629
  31.011100, 281024.827205
  31.111100, 281081.740782
  31.211100, 280887.370216
  31.311100, 280692.999650
  31.411100, 280498.629084
  31.511100, 280304.258517
  31.611100, 280109.887951
  31.711100, 279915.517385
  31.811100, 279721.146819
  31.911100, 279526.776252
