Time, Vertical Forces
   0.000000,    0.000002
   0.100000,    2.573578
   0.200000,   28.085348
   0.300000,   56.425102
   0.400000,   84.764856
   0.500000,  113.104611
   0.600000,  141.444365
   0.700000,  169.784119
   0.800000,  198.123874
   0.900000,  226.463628
   1.000000,  254.803382
   1.100000,  283.143137
   1.200000,  351.774094
   1.300000,  425.435786
   1.400000,  499.097478
   1.500000,  572.759170
   1.600000,  646.420862
   1.700000,  720.082554
   1.800000,  793.744246
   1.900000,  867.405938
   2.000000,  941.067630
   2.100000, 1014.729322
   2.200000, 1127.384115
   2.300000, 1244.907563
   2.400000, 1362.431012
   2.500000, 1479.954460
   2.600000, 1597.477908
   2.700000, 1715.001356
   2.800000, 1832.524804
   2.900000, 1950.048252
   3.000000, 2067.571701
   3.100000, 2185.095149
   3.200000, 2340.281891
   3.300000, 2500.171250
   3.400000, 2660.060608
   3.500000, 2819.949967
   3.600000, 2979.839325
   3.700000, 3139.728684
   3.800000, 3299.618042
   3.900000, 3459.507400
   4.000000, 3619.396759
   4.100000, 3779.286117
   4.200000, 3975.481790
   4.300000, 4176.210646
   4.400000, 4376.939503
   4.500000, 4577.668359
   4.600000, 4778.397215
   4.700000, 4979.126072
   4.800000, 5179.854928
   4.900000, 5380.583785
   5.000000, 5581.312641
   5.100000, 5782.041498
   5.200000, 6017.696988
   5.300000, 6257.713397
   5.400000, 6497.729807
   5.500000, 6737.746216
   5.600000, 6977.762625
   5.700000, 7217.779034
   5.800000, 7457.795443
   5.900000, 7697.811852
   6.000000, 7937.828261
   6.100000, 8177.844670
   6.200000, 8450.978973
   6.300000, 8728.248356
   6.400000, 9005.517738
   6.500000, 9282.787121
   6.600000, 9560.056504
   6.700000, 9837.325887
   6.800000, 10114.595269
   6.900000, 10391.864652
   7.000000, 10669.134035
   7.100000, 10946.403418
   7.200000, 11254.352765
   7.300000, 11566.132795
   7.400000, 11877.912824
   7.500000, 12189.692853
   7.600000, 12501.472883
   7.700000, 12813.252912
   7.800000, 13125.032941
   7.900000, 13436.812971
   8.000000, 13748.593000
   8.100000, 14060.373029
   8.200000, 14400.976583
   8.300000, 14745.179024
   8.400000, 15089.381465
   8.500000, 15433.583906
   8.600000, 15777.786347
   8.700000, 16121.988788
   8.800000, 16466.191229
   8.900000, 16810.393670
   9.000000, 17154.596111
   9.100000, 17498.798552
   9.200000, 17870.012883
   9.300000, 18244.599903
   9.400000, 18619.186922
   9.500000, 18993.773942
   9.600000, 19368.360961
   9.700000, 19742.947981
   9.800000, 20117.535000
   9.900000, 20492.122020
  10.000000, 20866.709039
  10.100000, 21241.296059
  10.200000, 21641.116445
  10.300000, 22044.087455
  10.400000, 22447.058465
  10.500000, 22850.029475
  10.600000, 23253.000484
  10.700000, 23655.971494
  10.800000, 24058.942504
  10.900000, 24461.913514
  11.000000, 24864.884524
  11.100000, 25267.855533
  11.200000, 25694.317825
  11.300000, 26123.713224
  11.400000, 26553.108623
  11.500000, 26982.504022
  11.600000, 27411.899421
  11.700000, 27841.294820
  11.800000, 28270.690219
  11.900000, 28700.085618
  12.000000, 29129.481017
  12.100000, 29558.876415
  12.200000, 30010.060449
  12.300000, 30463.964998
  12.400000, 30917.869547
  12.500000, 31371.774097
  12.600000, 31825.678646
  12.700000, 32279.583195
  12.800000, 32733.487744
  12.900000, 33187.392293
  13.000000, 33641.296842
  13.100000, 34095.201392
  13.200000, 34568.171975
  13.300000, 35043.523131
  13.400000, 35518.874287
  13.500000, 35994.225444
  13.600000, 36469.576600
  13.700000, 36944.927756
  13.800000, 37420.278913
  13.900000, 37895.630069
  14.000000, 38370.981225
  14.100000, 38846.332382
  14.200000, 39337.351812
  14.300000, 39830.327574
  14.400000, 40323.303335
  14.500000, 40816.279096
  14.600000, 41309.254858
  14.700000, 41802.230619
  14.800000, 42295.206381
  14.900000, 42788.182142
  15.000000, 43281.157904
  15.100000, 43774.133665
  15.200000, 44280.858491
  15.300000, 44789.300018
  15.400000, 45297.741544
  15.500000, 45806.183070
  15.600000, 46314.624596
  15.700000, 46823.066122
  15.800000, 47331.507649
  15.900000, 47839.949175
  16.000000, 48348.390701
  16.100000, 48856.832227
  16.200000, 49377.223560
  16.300000, 49899.106938
  16.400000, 50420.990317
  16.500000, 50942.873695
  16.600000, 51464.757074
  16.700000, 51986.640452
  16.800000, 52508.523830
  16.900000, 53030.407209
  17.000000, 53552.290587
  17.100000, 54074.173966
  17.200000, 54606.303834
  17.300000, 55139.713072
  17.400000, 55673.122311
  17.500000, 56206.531549
  17.600000, 56739.940788
  17.700000, 57273.350026
  17.800000, 57806.759265
  17.900000, 58340.168503
  18.000000, 58873.577742
  18.100000, 59406.986980
  18.200000, 59949.033782
  18.300000, 60492.159064
  18.400000, 61035.284347
  18.500000, 61578.409629
  18.600000, 62121.534911
  18.700000, 62664.660194
  18.800000, 63207.785476
  18.900000, 63750.910759
  19.000000, 64294.036041
  19.100000, 64837.161323
  19.200000, 65387.407803
  19.300000, 65938.543430
  19.400000, 66489.679057
  19.500000, 67040.814685
  19.600000, 67591.950312
  19.700000, 68143.085940
  19.800000, 68694.221567
  19.900000, 69245.357194
  20.000000, 69796.492822
  20.100000, 70347.628449
  20.200000, 70904.459392
  20.300000, 71462.001449
  20.400000, 72019.543506
  20.500000, 72577.085562
  20.600000, 73134.627619
  20.700000, 73692.169676
  20.800000, 74249.711733
  20.900000, 74807.253789
  21.000000, 75364.795846
  21.100000, 75922.337903
  21.200000, 76484.273195
  21.300000, 77046.757024
  21.400000, 77609.240853
  21.500000, 78171.724682
  21.600000, 78734.208512
  21.700000, 79296.692341
  21.800000, 79859.176170
  21.900000, 80421.659999
  22.000000, 80984.143828
  22.100000, 81546.627657
  22.200000, 82112.396641
  22.300000, 82678.575807
  22.400000, 83244.754973
  22.500000, 83810.934139
  22.600000, 84377.113305
  22.700000, 84943.292471
  22.800000, 85509.471637
  22.900000, 86075.650803
  23.000000, 86641.829969
  23.100000, 87208.009135
  23.200000, 87776.319962
  23.300000, 88344.896948
  23.400000, 88913.473933
  23.500000, 89482.050918
  23.600000, 90050.627904
  23.700000, 90619.204889
  23.800000, 91187.781875
  23.900000, 91756.358860
  24.000000, 92324.935845
  24.100000, 92893.512831
  24.200000, 93463.137929
  24.300000, 94032.893895
  24.400000, 94602.649860
  24.500000, 95172.405825
  24.600000, 95742.161791
  24.700000, 96311.917756
  24.800000, 96881.673722
  24.900000, 97451.429687
  25.000000, 98021.185652
  25.100000, 98590.941618
  25.200000, 99160.879529
  25.215579, 99249.673028
  25.315579, 100369.667996
  25.415579, 101489.662965
  25.515579, 102609.657933
  25.615579, 103729.652901
  25.715579, 104849.647870
  25.815579, 105969.642838
  25.915579, 107089.637807
  26.015579, 108209.632775
  26.115579, 109501.672946
  26.215579, 114462.920415
  26.315579, 119424.167885
  26.415579, 124385.415354
  26.515579, 129346.662824
  26.615579, 134307.910293
  26.715579, 139269.157762
  26.815579, 144230.405232
  26.915579, 149191.652701
  27.015579, 154152.900171
  27.115579, 159123.525627
  27.215579, 164294.155370
  27.315579, 169464.785114
  27.415579, 174635.414857
  27.515579, 179806.044600
  27.615579, 184976.674344
  27.715579, 190147.304087
  27.815579, 195317.933830
  27.915579, 200488.563574
  28.015579, 205659.193317
  28.115579, 210812.683971
  28.215579, 215600.649350
  28.315579, 220388.614728
  28.415579, 225176.580107
  28.515579, 229964.545485
  28.615579, 234752.510864
  28.715579, 239540.476242
  28.815579, 244328.441621
  28.915579, 249116.406999
  29.015579, 253904.372378
  29.111100, 258477.890393
  29.211100, 262292.110396
  29.311100, 266106.330398
  29.411100, 269920.550401
  29.511100, 273734.770404
  29.611100, 277548.990406
  29.711100, 281363.210409
  29.811100, 285177.430412
  29.911100, 288991.650415
  30.011100, 292805.870417
  30.111100, 296620.090420
  30.211100, 296722.885480
  30.311100, 296825.680540
  30.411100, 296928.475599
  30.511100, 297031.270659
  30.611100, 297134.065719
  30.711100, 296990.226849
  30.811100, 296846.387980
  30.911100, 296702.549111
  31.011100, 296558.710241
  31.111100, 296414.871372
  31.211100, 296026.248125
  31.311100, 295637.624877
  31.411100, 295249.001630
  31.511100, 294860.378382
  31.611100, 294471.755135
