Ground Distance, Horizontal Forces
   0.000000, 5516.240617
   0.016710, 5516.156432
   0.183425, 5515.395256
   0.368636, 5514.550617
   0.553847, 5513.705979
   0.739059, 5512.861340
   0.924270, 5512.016702
   1.109481, 5511.172063
   1.294692, 5510.327424
   1.479903, 5509.482786
   1.665114, 5508.638147
   1.850325, 5507.793508
   2.302802, 5505.761653
   2.788649, 5503.581562
   3.274497, 5501.401472
   3.760344, 5499.221381
   4.246191, 5497.041291
   4.732039, 5494.861200
   5.217886, 5492.681110
   5.703734, 5490.501019
   6.189581, 5488.320929
   6.675428, 5486.140838
   7.425528, 5482.814578
   8.208622, 5479.345207
   8.991715, 5475.875837
   9.774809, 5472.406466
  10.557903, 5468.937096
  11.340997, 5465.467725
  12.124090, 5461.998355
  12.907184, 5458.528985
  13.690278, 5455.059614
  14.473372, 5451.590244
  15.517622, 5447.016697
  16.594479, 5442.305283
  17.671337, 5437.593869
  18.748195, 5432.882455
  19.825052, 5428.171041
  20.901910, 5423.459628
  21.978768, 5418.748214
  23.055626, 5414.036800
  24.132483, 5409.325386
  25.209341, 5404.613972
  26.544182, 5398.841168
  27.911234, 5392.935839
  29.278286, 5387.030510
  30.645338, 5381.125181
  32.012390, 5375.219852
  33.379442, 5369.314524
  34.746494, 5363.409195
  36.113546, 5357.503866
  37.480599, 5351.598537
  38.847651, 5345.693208
  40.469440, 5338.771093
  42.123036, 5331.722023
  43.776632, 5324.672953
  45.430228, 5317.623883
  47.083824, 5310.574812
  48.737419, 5303.525742
  50.391015, 5296.476672
  52.044611, 5289.427602
  53.698207, 5282.378532
  55.351803, 5275.329461
  57.256362, 5267.337677
  59.192256, 5259.228186
  61.128151, 5251.118695
  63.064045, 5243.009203
  64.999939, 5234.899712
  66.935834, 5226.790221
  68.871728, 5218.680730
  70.807622, 5210.571239
  72.743516, 5202.461748
  74.679411, 5194.352256
  76.861703, 5185.364321
  79.074761, 5176.266703
  81.287818, 5167.169086
  83.500876, 5158.071468
  85.713933, 5148.973851
  87.926991, 5139.876233
  90.140048, 5130.778616
  92.353106, 5121.680998
  94.566163, 5112.583381
  96.779221, 5103.485763
  99.234050, 5093.567130
 101.719067, 5083.545986
 104.204085, 5073.524842
 106.689102, 5063.503697
 109.174119, 5053.482553
 111.659136, 5043.461408
 114.144153, 5033.440264
 116.629171, 5023.419120
 119.114188, 5013.397975
 121.599205, 5003.376831
 124.321358, 4992.590973
 127.073121, 4981.709633
 129.824883, 4970.828293
 132.576645, 4959.946953
 135.328408, 4949.065614
 138.080170, 4938.184274
 140.831932, 4927.302934
 143.583695, 4916.421594
 146.335457, 4905.540254
 149.087219, 4894.658914
 152.071478, 4883.067922
 155.084766, 4871.388322
 158.098055, 4859.708722
 161.111343, 4848.029122
 164.124631, 4836.349522
 167.137919, 4824.669923
 170.151207, 4812.990323
 173.164496, 4801.310723
 176.177784, 4789.631123
 179.191072, 4777.951523
 182.432219, 4765.615989
 185.701815, 4753.198555
 188.971412, 4740.781120
 192.241008, 4728.363686
 195.510605, 4715.946252
 198.780201, 4703.528818
 202.049798, 4691.111384
 205.319395, 4678.693949
 208.588991, 4666.276515
 211.858588, 4653.859081
 215.351186, 4640.875343
 218.871628, 4627.820896
 222.392070, 4614.766450
 225.912512, 4601.712003
 229.432954, 4588.657557
 232.953396, 4575.603110
 236.473838, 4562.548664
 239.994280, 4549.494217
 243.514722, 4536.439771
 247.035164, 4523.385324
 250.772826, 4509.864031
 254.537610, 4496.284448
 258.302394, 4482.704866
 262.067178, 4469.125283
 265.831961, 4455.545700
 269.596745, 4441.966117
 273.361529, 4428.386534
 277.126313, 4414.806952
 280.891097, 4401.227369
 284.655881, 4387.647786
 288.631919, 4373.661073
 292.634333, 4359.623527
 296.636748, 4345.585980
 300.639163, 4331.548434
 304.641578, 4317.510887
 308.643992, 4303.473340
 312.646407, 4289.435794
 316.648822, 4275.398247
 320.651237, 4261.360701
 324.653651, 4247.323154
 328.861444, 4232.934744
 333.094881, 4218.502526
 337.328317, 4204.070307
 341.561754, 4189.638088
 345.795190, 4175.205870
 350.028627, 4160.773651
 354.262063, 4146.341433
 358.495499, 4131.909214
 362.728936, 4117.476995
 366.962372, 4103.044777
 371.395406, 4088.314735
 375.853361, 4073.547507
 380.311315, 4058.780279
 384.769270, 4044.013051
 389.227225, 4029.245823
 393.685180, 4014.478595
 398.143135, 3999.711367
 402.601090, 3984.944139
 407.059045, 3970.176911
 411.517000, 3955.409683
 416.168868, 3940.394510
 420.844948, 3925.348378
 425.521028, 3910.302246
 430.197108, 3895.256114
 434.873188, 3880.209983
 439.549268, 3865.163851
 444.225348, 3850.117719
 448.901428, 3835.071587
 453.577508, 3820.025455
 458.253588, 3804.979323
 463.117997, 3789.732034
 468.005921, 3774.459629
 472.893845, 3759.187223
 477.781769, 3743.914818
 482.669693, 3728.642412
 487.557617, 3713.370007
 492.445541, 3698.097601
 497.333465, 3682.825196
 502.221389, 3667.552790
 507.109313, 3652.280385
 512.180087, 3636.850014
 517.273692, 3621.399921
 522.367297, 3605.949827
 527.460902, 3590.499733
 532.554506, 3575.049639
 537.648111, 3559.599546
 542.741716, 3544.149452
 547.835321, 3528.699358
 552.928925, 3513.249264
 558.022530, 3497.799171
 563.293639, 3482.227935
 568.586911, 3466.641575
 573.880184, 3451.055214
 579.173456, 3435.468853
 584.466728, 3419.882492
 589.760000, 3404.296132
 595.053272, 3388.709771
 600.346545, 3373.123410
 605.639817, 3357.537049
 610.933089, 3341.950689
 616.398659, 3326.280125
 621.885743, 3310.599047
 627.372827, 3294.917970
 632.859910, 3279.236892
 638.346994, 3263.555815
 643.834078, 3247.874737
 649.321161, 3232.193660
 654.808245, 3216.512582
 660.295328, 3200.831505
 665.782412, 3185.150427
 671.431279, 3169.421192
 677.100346, 3153.685944
 682.769414, 3137.950696
 688.438481, 3122.215448
 694.107548, 3106.480200
 699.776615, 3090.744952
 705.445682, 3075.009704
 711.114750, 3059.274456
 716.783817, 3043.539208
 719.337716, 3036.450522
 725.131192, 1966.019398
 730.987301, 1937.289308
 736.843409, 1908.559217
 742.699518, 1879.829127
 748.555627, 1851.099037
 754.411735, 1822.368947
 760.267844, 1793.638856
 766.123952, 1764.908766
 771.980061, 1736.178676
 777.836170, 1707.448586
 783.750336, 1645.087955
 789.777456, 1517.298035
 795.804575, 1389.508115
 801.831695, 1261.718196
 807.858815, 1133.928276
 813.885934, 1006.138356
 819.913054,  878.348436
 825.940173,  750.558517
 831.967293,  622.768597
 837.994413,  494.978677
 844.075505,  369.988644
 850.261604,  250.445880
 856.447703,  130.903115
 862.633801,   11.360351
 868.819900, -108.182413
 875.005999, -227.725178
 881.192097, -347.267942
 887.378196, -466.810707
 893.564295, -586.353471
 899.750393, -705.896236
 903.836329, -784.854559
 910.146858, -706.369103
 916.457386, -627.883647
 922.767915, -549.398191
 929.078444, -470.912735
 935.388973, -392.427280
 941.699502, -313.941824
 948.010031, -235.456368
 954.320560, -156.970912
 960.631089,  -78.485456
 966.941618,    0.000000
 973.292781,    0.000000
 979.643945,    0.000000
 985.995108,    0.000000
 992.346272,    0.000000
 998.697435,    0.000000
1005.055072,    0.000000
1011.412710,    0.000000
1017.770347,    0.000000
1024.127984,    0.000000
1030.485621,    0.000000
1036.836308,    0.000000
1043.186996,    0.000000
1049.537683,    0.000000
1055.888370,    0.000000
