Ground distance, Load Factor
   0.000000,    0.000000
   0.000001,    0.000000
   0.000006,    0.000000
   0.000051,    0.000000
   0.000254,    0.000000
   0.000937,    0.000001
   0.003594,    0.000003
   0.008770,    0.000008
   0.016215,    0.000016
   0.025986,    0.000025
   0.038053,    0.000037
   0.052396,    0.000050
   0.069115,    0.000066
   0.088096,    0.000085
   0.109545,    0.000105
   0.133445,    0.000128
   0.159844,    0.000153
   0.188742,    0.000181
   0.220179,    0.000211
   0.254154,    0.000244
   0.290762,    0.000279
   0.329834,    0.000316
   0.371933,    0.000356
   0.416730,    0.000399
   0.464133,    0.000445
   0.514632,    0.000493
   0.568012,    0.000544
   0.623767,    0.000597
   0.683393,    0.000654
   0.746091,    0.000714
   0.811495,    0.000777
   0.879944,    0.000842
   0.952973,    0.000912
   1.028661,    0.000984
   1.108195,    0.001060
   1.190503,    0.001138
   1.276329,    0.001220
   1.366302,    0.001305
   1.460383,    0.001395
   1.557910,    0.001488
   1.658864,    0.001584
   1.765569,    0.001685
   1.876077,    0.001791
   1.991080,    0.001900
   2.108697,    0.002012
   2.232114,    0.002129
   2.358495,    0.002249
   2.491456,    0.002375
   2.627207,    0.002504
   2.766419,    0.002636
   2.910997,    0.002773
   3.061458,    0.002916
   3.214194,    0.003060
   3.373591,    0.003211
   3.537116,    0.003366
   3.707854,    0.003528
   3.881891,    0.003692
   4.060893,    0.003862
   4.246787,    0.004037
   4.436942,    0.004217
   4.635771,    0.004405
   4.839095,    0.004597
   5.046944,    0.004793
   5.262260,    0.004996
   5.479624,    0.005201
   5.704145,    0.005413
   5.932675,    0.005628
   6.172206,    0.005854
   6.417668,    0.006085
   6.664659,    0.006317
   6.919177,    0.006557
   7.182286,    0.006804
   7.451337,    0.007057
   7.728786,    0.007318
   8.011867,    0.007583
   8.300203,    0.007854
   8.595273,    0.008131
   8.898197,    0.008415
   9.208447,    0.008706
   9.524740,    0.009002
   9.847117,    0.009304
  10.178260,    0.009614
  10.517285,    0.009931
  10.863781,    0.010255
  11.215388,    0.010584
  11.577699,    0.010922
  11.947059,    0.011267
  12.323083,    0.011618
  12.706533,    0.011975
  13.101735,    0.012344
  13.498441,    0.012714
  13.905442,    0.013093
  14.322436,    0.013481
  14.746977,    0.013876
  15.179755,    0.014278
  15.615931,    0.014684
  16.065427,    0.015101
  16.521679,    0.015525
  16.989674,    0.015959
  17.467086,    0.016402
  17.948124,    0.016848
  18.442233,    0.017305
  18.943653,    0.017770
  19.455403,    0.018243
  19.971291,    0.018721
  20.503197,    0.019212
  21.039939,    0.019708
  21.591975,    0.020218
  22.154661,    0.020737
  22.722075,    0.021260
  23.294581,    0.021788
  23.879363,    0.022327
  24.470105,    0.022871
  25.080064,    0.023432
  25.104614,    0.023455
  25.110192,    0.023460
  25.111427,    0.023461
  25.113175,    0.023463
  25.113784,    0.023463
  25.114962,    0.023464
  25.115436,    0.023465
  25.115489,    0.023465
  25.115536,    0.023465
  25.116007,    0.023465
  25.120721,    0.023469
  25.146034,    0.023493
  25.240975,    0.023580
  25.544938,    0.023860
  26.122884,    0.024391
  26.701027,    0.024922
  27.285207,    0.025458
  27.878682,    0.026002
  28.479559,    0.026553
  29.087489,    0.027110
  29.709576,    0.027679
  30.339197,    0.028255
  30.977515,    0.028838
  31.624560,    0.029429
  32.281037,    0.030028
  32.946776,    0.030636
  33.624452,    0.031253
  34.313136,    0.031880
  35.009054,    0.032514
  35.708189,    0.033149
  36.418015,    0.033794
  37.136818,    0.034447
  37.867779,    0.035110
  38.610465,    0.035784
  39.366949,    0.036469
  40.124054,    0.037154
  40.893463,    0.037850
  41.674081,    0.038556
  42.464088,    0.039269
  43.263317,    0.039991
  44.070501,    0.040718
  44.886655,    0.041454
  45.715278,    0.042200
  46.555057,    0.042955
  47.404370,    0.043719
  48.265463,    0.044492
  49.125549,    0.045264
  50.002292,    0.046051
  50.891462,    0.046847
  51.789845,    0.047652
  52.700389,    0.048466
  53.620266,    0.049289
  54.548014,    0.050117
  55.488294,    0.050956
  56.438610,    0.051804
  57.408434,    0.052668
  58.385766,    0.053538
  59.370371,    0.054413
  60.365913,    0.055298
  61.379289,    0.056198
  62.389213,    0.057094
  63.423505,    0.058011
  64.463035,    0.058931
  65.513995,    0.059861
  66.577116,    0.060801
  67.651149,    0.061750
  68.734516,    0.062706
  69.826554,    0.063669
  70.926902,    0.064639
  72.041160,    0.065620
  73.167900,    0.066611
  74.306773,    0.067611
  75.467376,    0.068630
  76.633843,    0.069653
  77.809141,    0.070683
  78.997253,    0.071724
  80.197519,    0.072774
  81.410899,    0.073834
  82.633034,    0.074901
  83.870672,    0.075981
  85.116192,    0.077066
  86.373469,    0.078161
  87.642578,    0.079265
  88.921294,    0.080377
  90.211860,    0.081497
  91.522913,    0.082635
  92.844013,    0.083779
  94.177813,    0.084934
  95.524629,    0.086099
  96.890774,    0.087280
  98.258511,    0.088461
  99.637602,    0.089650
 101.033815,    0.090853
 102.439374,    0.092063
 103.861289,    0.093286
 104.147219,    0.093532
 104.341094,    0.093699
 104.495880,    0.093832
 104.518932,    0.093851
 104.524426,    0.093856
 104.526123,    0.093858
 104.526910,    0.093858
 104.527083,    0.093859
 104.527264,    0.093859
 104.529071,    0.093860
 104.545335,    0.093874
 104.639691,    0.093955
 104.976903,    0.094245
 106.129664,    0.095235
 107.448863,    0.096366
 108.782020,    0.097508
 110.126774,    0.098659
 111.485587,    0.099820
 112.857579,    0.100991
 114.232498,    0.102164
 115.627087,    0.103352
 117.025299,    0.104542
 118.429538,    0.105735
 119.849673,    0.106941
 121.280854,    0.108155
 122.724636,    0.109378
 124.175236,    0.110605
 125.645137,    0.111847
 127.123819,    0.113095
 128.606536,    0.114346
 130.101253,    0.115604
 131.612673,    0.116876
 133.134895,    0.118155
 134.662743,    0.119437
 136.203744,    0.120729
 137.761978,    0.122034
 139.327242,    0.123343
 140.902608,    0.124659
 142.494729,    0.125987
 144.099947,    0.127325
 145.710691,    0.128665
 147.333012,    0.130014
 148.962100,    0.131367
 150.611414,    0.132735
 152.268878,    0.134108
 153.933457,    0.135485
 155.615091,    0.136874
 157.310570,    0.138274
 159.024199,    0.139686
 160.742691,    0.141101
 162.471318,    0.142523
 164.211370,    0.143952
 165.965139,    0.145390
 167.730713,    0.146837
 169.504136,    0.148288
 171.289475,    0.149747
 173.092475,    0.151218
 174.905755,    0.152696
 176.736613,    0.154187
 178.577433,    0.155684
 180.426186,    0.157185
 182.292552,    0.158699
 184.168049,    0.160218
 186.052534,    0.161743
 187.953189,    0.163278
 189.864605,    0.164820
 191.788346,    0.166371
 193.723244,    0.167928
 195.670670,    0.169493
 197.631588,    0.171067
 199.600492,    0.172646
 201.578585,    0.174230
 203.575679,    0.175827
 205.591905,    0.177437
 207.624545,    0.179058
 209.671944,    0.180688
 211.722398,    0.182319
 213.780715,    0.183954
 215.852799,    0.185598
 217.930789,    0.187244
 220.026908,    0.188902
 222.141208,    0.190573
 224.269987,    0.192253
 226.407867,    0.193937
 228.556658,    0.195628
 230.718107,    0.197327
 232.896905,    0.199036
 235.094814,    0.200759
 237.303170,    0.202487
 239.512888,    0.204214
 241.745851,    0.205957
 243.989033,    0.207705
 246.242947,    0.209459
 246.696259,    0.209812
 248.417686,    0.211150
 248.435820,    0.211164
 248.441007,    0.211168
 248.449399,    0.211174
 248.452117,    0.211177
 248.457552,    0.211181
 248.458257,    0.211181
 248.458628,    0.211182
 248.458984,    0.211182
 248.459308,    0.211182
 248.462550,    0.211185
 248.494704,    0.211210
 248.719489,    0.211384
 249.725066,    0.212165
 251.719700,    0.213711
 253.779585,    0.215306
 255.845816,    0.216903
 257.926492,    0.218509
 260.018203,    0.220121
 262.117889,    0.221737
 264.225392,    0.223356
 266.347479,    0.224983
 268.479330,    0.226616
 270.619404,    0.228252
 272.778841,    0.229900
 274.941400,    0.231549
 277.112158,    0.233200
 279.296599,    0.234860
 281.490633,    0.236524
 283.701626,    0.238199
 285.922600,    0.239878
 288.150724,    0.241560
 290.393710,    0.243251
 292.643781,    0.244944
 294.906961,    0.246644
 297.183446,    0.248352
 299.465437,    0.250061
 301.764926,    0.251780
 304.067928,    0.253499
 306.389604,    0.255229
 308.720301,    0.256963
 311.065369,    0.258705
 313.420332,    0.260451
 315.784519,    0.262201
 318.159011,    0.263956
 320.545962,    0.265718
 322.943466,    0.267484
 325.352425,    0.269256
 327.766033,    0.271028
 330.197939,    0.272810
 332.633831,    0.274593
 335.088965,    0.276387
 337.555321,    0.278185
 340.031860,    0.279989
 342.519440,    0.281797
 345.023622,    0.283614
 347.538764,    0.285436
 350.058976,    0.287259
 352.593858,    0.289089
 355.142610,    0.290926
 357.699338,    0.292765
 360.270044,    0.294612
 362.850448,    0.296462
 365.446561,    0.298321
 368.049100,    0.300181
 370.663009,    0.302045
 373.293354,    0.303918
 375.929053,    0.305792
 378.574729,    0.307670
 381.235283,    0.309555
 383.903976,    0.311442
 386.590827,    0.313339
 389.287783,    0.315240
 391.994667,    0.317144
 394.706064,    0.319048
 397.440764,    0.320965
 400.181286,    0.322883
 402.936323,    0.324808
 405.704811,    0.326738
 408.488933,    0.328676
 411.284026,    0.330619
 414.084220,    0.332561
 416.889096,    0.334503
 419.708533,    0.336452
 422.545376,    0.338409
 425.398278,    0.340374
 428.257758,    0.342340
 431.132352,    0.344312
 434.019837,    0.346290
 436.919663,    0.348273
 439.821595,    0.350253
 442.743417,    0.352244
 445.676320,    0.354238
 448.620964,    0.356237
 451.574264,    0.358238
 454.535505,    0.360241
 457.511524,    0.362250
 460.507034,    0.364269
 463.511220,    0.366289
 466.526193,    0.368313
 469.548137,    0.370339
 472.589684,    0.372373
 475.638948,    0.374409
 476.251346,    0.374817
 476.720335,    0.375130
 477.065547,    0.375360
 477.120290,    0.375396
 477.136970,    0.375408
 477.165558,    0.375427
 477.175153,    0.375433
 477.176811,    0.375434
 477.178528,    0.375435
 477.195695,    0.375447
 477.346967,    0.375548
 478.209917,    0.376122
 480.851419,    0.377880
 483.929371,    0.379925
 487.011271,    0.381968
 490.096576,    0.384010
 493.199907,    0.386060
 496.318901,    0.388116
 499.445243,    0.390174
 502.589472,    0.392239
 505.741627,    0.394306
 508.909317,    0.396378
 512.088997,    0.398455
 515.278295,    0.400534
 518.478661,    0.402616
 521.689262,    0.404701
 524.917627,    0.406793
 528.156191,    0.408888
 531.404500,    0.410985
 534.665889,    0.413087
 537.942055,    0.415194
 541.228510,    0.417303
 544.523422,    0.419414
 547.837509,    0.421533
 551.167379,    0.423658
 554.502284,    0.425783
 557.850130,    0.427911
 561.210674,    0.430043
 564.587181,    0.432181
 567.973018,    0.434320
 571.371712,    0.436464
 574.776435,    0.438607
 578.195979,    0.440755
 581.627918,    0.442907
 585.077831,    0.445066
 588.539660,    0.447228
 592.010643,    0.449391
 595.491964,    0.451557
 598.985547,    0.453725
 602.491253,    0.455897
 606.006502,    0.458071
 609.534511,    0.460248
 613.078588,    0.462430
 616.637030,    0.464617
 620.210215,    0.466809
 623.792146,    0.469001
 627.388022,    0.471198
 630.987118,    0.473392
 634.607694,    0.475595
 638.239199,    0.477800
 641.885623,    0.480009
 645.541759,    0.482220
 649.206249,    0.484431
 652.891571,    0.486651
 656.587050,    0.488872
 660.292644,    0.491094
 664.016097,    0.493323
 667.742726,    0.495548
 671.481226,    0.497777
 675.242879,    0.500014
 679.003419,    0.502246
 682.786868,    0.504487
 686.585612,    0.506733
 690.392208,    0.508978
 694.213453,    0.511228
 698.039404,    0.513475
 701.880478,    0.515727
 705.740575,    0.517985
 709.601892,    0.520239
 713.488985,    0.522503
 717.379775,    0.524765
 721.284794,    0.527030
 723.174928,    0.528124
 725.212289,    0.529303
 729.149558,    0.536953
 733.087521,    0.549616
 737.042221,    0.562264
 741.008085,    0.574936
 744.992700,    0.587621
 748.983789,    0.600330
 752.991009,    0.613037
 757.010780,    0.625764
 761.042227,    0.638502
 765.083601,    0.651246
 769.142019,    0.663996
 773.212553,    0.676766
 777.292638,    0.689542
 781.381331,    0.702315
 785.482819,    0.715087
 789.591904,    0.727862
 793.707916,    0.740629
 797.843449,    0.753393
 801.990962,    0.766179
 806.141231,    0.778962
 810.303845,    0.791726
 814.479445,    0.804495
 818.666912,    0.817267
 822.865317,    0.830040
 827.070061,    0.842808
 827.238674,    0.852368
 827.246700,    0.852749
 827.252017,    0.852771
 827.255947,    0.852786
 827.258260,    0.852796
 827.259242,    0.852802
 827.260216,    0.852805
 827.269963,    0.852815
 827.367426,    0.852913
 827.956406,    0.853595
 830.575043,    0.856974
 834.897452,    0.866226
 839.275145,    0.879306
 843.659444,    0.892476
 848.060213,    0.905635
 852.472241,    0.918798
 856.888696,    0.931950
 861.321198,    0.945084
 865.757644,    0.958214
 870.199087,    0.971316
 874.655158,    0.984399
 879.114212,    0.997474
 883.589951,    1.010526
 888.073867,    1.023578
 888.427707,    1.033010
 888.782141,    1.034026
 889.136923,    1.035043
 889.491206,    1.036060
 889.846349,    1.037077
 890.201897,    1.038095
 890.554873,    1.039111
 890.910129,    1.040123
 891.265611,    1.041140
 891.619823,    1.042156
 891.977112,    1.043171
 892.329444,    1.044188
 892.686839,    1.045198
 893.044582,    1.046219
 893.403094,    1.047241
 893.761724,    1.048263
 894.117184,    1.049283
 894.473824,    1.050297
 894.833578,    1.051315
 895.192512,    1.052338
 895.552234,    1.053360
 895.912595,    1.054384
 896.272848,    1.055408
 896.634052,    1.056432
 896.993903,    1.057457
 897.356115,    1.058480
 897.717019,    1.059506
 898.078435,    1.060530
 898.438850,    1.061553
 898.802166,    1.062576
 899.164024,    1.063604
 899.526519,    1.064628
 899.891576,    1.065655
 900.255267,    1.066686
 900.618874,    1.067713
 900.982924,    1.068740
 901.347740,    1.069768
 901.713311,    1.070797
 902.077837,    1.071827
 902.444214,    1.072855
 902.811420,    1.073887
 903.174576,    1.074917
 903.543911,    1.075944
 903.913543,    1.076982
 904.282970,    1.078020
 904.653344,    1.079058
 905.024120,    1.080098
 905.394524,    1.081138
 905.765262,    1.082176
 906.135364,    1.083214
 906.506769,    1.084251
 906.879481,    1.085291
 907.251440,    1.086333
 907.625111,    1.087374
 907.996907,    1.088416
 908.371556,    1.089456
 908.746634,    1.090501
 909.121642,    1.091547
 909.497222,    1.092592
 909.871806,    1.093637
 910.246643,    1.094680
 910.624630,    1.095725
 910.999272,    1.096772
 911.377305,    1.097816
 911.756325,    1.098866
 912.136224,    1.099918
 912.516362,    1.100971
 912.893904,    1.102022
 913.275030,    1.103070
 913.654205,    1.104123
 914.033172,    1.105172
 914.416222,    1.106222
 914.798573,    1.107279
 915.184103,    1.108337
 915.567938,    1.109399
 915.953538,    1.110458
 916.336457,    1.111518
 916.723902,    1.112575
 917.110359,    1.113640
 917.494901,    1.114700
 917.881533,    1.115758
 918.270998,    1.116822
 918.659624,    1.117889
 919.051314,    1.118957
 919.440364,    1.120027
 919.833531,    1.121095
 920.225975,    1.122170
 920.618335,    1.123242
 921.012752,    1.124316
 921.406136,    1.125391
 921.800399,    1.126464
 922.193525,    1.127538
 922.588037,    1.128609
 922.982420,    1.129683
 923.381475,    1.130006
 923.778656,    1.130327
 924.177406,    1.130649
 924.575422,    1.130970
 924.975795,    1.131292
 925.374602,    1.131613
 925.774533,    1.131934
 926.176363,    1.132256
 926.579144,    1.132578
 926.983324,    1.132902
 927.386454,    1.133223
 927.788583,    1.133544
 928.191887,    1.133865
 928.595450,    1.134186
 928.999001,    1.134506
 929.406835,    1.134829
 929.815136,    1.135152
 930.223612,    1.135475
 930.632141,    1.135798
 931.040670,    1.136119
 931.450245,    1.136442
 931.860590,    1.136764
 932.271483,    1.137086
 932.684773,    1.137410
 933.097207,    1.137732
 933.512041,    1.138056
 933.924664,    1.138378
 934.338568,    1.138700
 934.753310,    1.139022
 935.169618,    1.139345
 935.583686,    1.139666
 935.999377,    1.139988
 936.416144,    1.140310
 936.834283,    1.140632
 937.251356,    1.140953
 937.671294,    1.141276
 938.091619,    1.141599
 938.510792,    1.141920
 938.932361,    1.142242
 939.355886,    1.142566
 939.777131,    1.142887
 940.198938,    1.143208
 940.626280,    1.143533
 941.053290,    1.143857
 941.482681,    1.144182
 941.911990,    1.144507
 942.342080,    1.144832
 942.772317,    1.145156
 943.200525,    1.145478
 943.633433,    1.145804
 944.067084,    1.146129
 944.500022,    1.146453
 944.935950,    1.146779
 945.372737,    1.147105
 945.806127,    1.147428
 946.242078,    1.147752
 946.680209,    1.148077
 947.116636,    1.148400
 947.554883,    1.148725
 947.993907,    1.149049
 948.435051,    1.149374
 948.876543,    1.149699
 949.317345,    1.150023
 949.761195,    1.150348
 950.202277,    1.150671
 950.646102,    1.150995
 951.090247,    1.151319
 951.535089,    1.151643
 951.983135,    1.151968
 952.432596,    1.152294
 952.881094,    1.152619
 953.329621,    1.152943
 953.686757,    1.153201
 953.779441,    1.153268
 954.229069,    1.153591
 954.681064,    1.153916
 955.134190,    1.154241
 955.586263,    1.154565
 956.040319,    1.154889
 956.496407,    1.155215
 956.954028,    1.155540
 957.411783,    1.155866
 957.868624,    1.156190
 958.327298,    1.156514
 958.789548,    1.156841
 959.249478,    1.157165
 959.713375,    1.157491
 960.178795,    1.157818
 960.641116,    1.158142
 961.106951,    1.158468
 961.573676,    1.158794
 962.043175,    1.159121
 962.511843,    1.159447
 962.983070,    1.159773
 963.455779,    1.160101
 963.931294,    1.160429
 964.406131,    1.160757
 964.879252,    1.161082
 965.356106,    1.161410
 965.832316,    1.161736
 966.308348,    1.162061
 966.786619,    1.162388
 967.267595,    1.162715
 967.745946,    1.163040
 968.232605,    1.163370
 968.713563,    1.163695
 969.198879,    1.164023
 969.684018,    1.164349
 970.172349,    1.164678
 970.658142,    1.165003
 971.146022,    1.165330
 971.634951,    1.165656
 972.123064,    1.165981
 972.612477,    1.166307
 973.103168,    1.166632
 973.595715,    1.166958
 974.087584,    1.167282
 974.582448,    1.167608
 975.077029,    1.167933
 975.574655,    1.168260
 976.070816,    1.168584
 976.567788,    1.168908
 977.066151,    1.169233
 977.570050,    1.169560
 978.071462,    1.169885
 978.576321,    1.170211
 979.083620,    1.170538
 979.590440,    1.170864
 980.097302,    1.171189
 980.607767,    1.171516
 981.116621,    1.171841
 981.626624,    1.172166
 982.138630,    1.172491
 982.652928,    1.172817
 983.165971,    1.173142
 983.684627,    1.173469
 984.199899,    1.173793
 984.719470,    1.174119
 985.237264,    1.174443
 985.757568,    1.174768
 986.276946,    1.175091
 986.800995,    1.175417
 987.322940,    1.175740
 987.844736,    1.176062
 988.371539,    1.176387
 988.894049,    1.176708
 989.422079,    1.177032
 989.949881,    1.177354
 990.477291,    1.177676
 991.004000,    1.177996
 991.533703,    1.178317
 992.062016,    1.178637
 992.597359,    1.178960
 993.128712,    1.179279
 993.661560,    1.179599
 994.195679,    1.179918
 994.733163,    1.180239
 995.273775,    1.180561
 995.812252,    1.180880
 996.350989,    1.181199
 996.888147,    1.181515
 997.433025,    1.181836
 997.975057,    1.182154
 998.517238,    1.182471
 999.068037,    1.182792
 999.612490,    1.183108
1000.157834,    1.183424
1000.709086,    1.183743
1001.259750,    1.184060
1001.814690,    1.184379
1002.367454,    1.184695
1002.918572,    1.185010
1003.472512,    1.185325
1004.022085,    1.185637
1004.577029,    1.185951
1005.135866,    1.186266
1005.701325,    1.186584
1006.262943,    1.186899
1006.827892,    1.187215
1007.390590,    1.187528
1007.953454,    1.187840
1008.519992,    1.188154
1009.084614,    1.188465
1009.654522,    1.188779
1010.216249,    1.189087
1010.782052,    1.189396
1011.346028,    1.189703
1011.921168,    1.190015
1012.495500,    1.190325
1013.068191,    1.190634
1013.640371,    1.190942
1014.216679,    1.191250
1014.796198,    1.191559
1015.375700,    1.191868
1015.954813,    1.192174
1016.533807,    1.192480
1017.115540,    1.192786
1017.703092,    1.193094
1018.284496,    1.193398
1018.870064,    1.193703
1019.448627,    1.194003
1020.042827,    1.194311
1020.626428,    1.194611
1021.215407,    1.194914
1021.808628,    1.195217
1022.394072,    1.195515
1022.984017,    1.195815
1023.578012,    1.196115
1024.171170,    1.196414
1024.768105,    1.196714
1025.357569,    1.197009
1025.951888,    1.197305
1026.545096,    1.197600
1027.137802,    1.197893
1027.737886,    1.198188
1028.339196,    1.198483
1028.944378,    1.198779
1029.548808,    1.199074
1030.152550,    1.199366
1030.759652,    1.199660
1031.356428,    1.199947
1031.968159,    1.200240
1032.574940,    1.200529
1033.186602,    1.200820
1033.794188,    1.201108
1034.403532,    1.201395
1035.013464,    1.201681
1035.623649,    1.201967
1036.236332,    1.202252
1036.858720,    1.202541
1037.467878,    1.202822
1038.075324,    1.203101
1038.695264,    1.203385
1039.314400,    1.203667
1039.936889,    1.203950
1040.558548,    1.204230
1041.176493,    1.204508
1041.799582,    1.204787
1042.419872,    1.205064
1043.043677,    1.205341
1043.668437,    1.205617
1044.291108,    1.205891
1044.917826,    1.206165
1045.545708,    1.206439
1046.168044,    1.206709
1046.799341,    1.206982
1047.421559,    1.207249
1048.058075,    1.207521
1048.695292,    1.207793
1049.326978,    1.208060
1049.960683,    1.208328
1050.588742,    1.208591
1051.220444,    1.208855
1051.853545,    1.209118
1052.489190,    1.209381
1053.118265,    1.209640
1053.756590,    1.209901
1054.393106,    1.210161
1055.024297,    1.210417
1055.663995,    1.210675
1056.305204,    1.210932
1056.948529,    1.211189
1057.583438,    1.211441
1058.225878,    1.211695
1058.866560,    1.211947
1059.505036,    1.212197
1060.149941,    1.212448
1060.792393,    1.212696
1061.429143,    1.212941
1062.074903,    1.213188
1062.718199,    1.213433
1063.370348,    1.213680
1064.022579,    1.213926
1064.673238,    1.214170
1065.324947,    1.214412
1065.969021,    1.214651
1066.621680,    1.214891
1067.274960,    1.215130
1067.922012,    1.215366
1068.572086,    1.215601
1069.220679,    1.215834
1069.877350,    1.216069
1070.536469,    1.216304
1071.190971,    1.216535
1071.841950,    1.216764
1072.503817,    1.216995
1073.160848,    1.217223
1073.825014,    1.217452
1074.487188,    1.217679
1075.146213,    1.217904
1075.802621,    1.218126
1076.467050,    1.218349
1077.130879,    1.218571
1077.791858,    1.218791
1078.449150,    1.219008
1079.117181,    1.219227
1079.777576,    1.219442
1080.442601,    1.219657
1081.105233,    1.219870
1081.771444,    1.220083
1082.438004,    1.220294
1083.102915,    1.220504
1083.764911,    1.220711
1084.427113,    1.220917
1085.090907,    1.221121
1085.758559,    1.221326
1086.423760,    1.221528
1087.092926,    1.221731
1087.763038,    1.221932
1088.434593,    1.222132
1089.105311,    1.222330
1089.775995,    1.222527
1090.453977,    1.222724
1091.129901,    1.222920
1091.801855,    1.223112
1092.471112,    1.223303
1093.143017,    1.223493
1093.823253,    1.223684
1094.498574,    1.223871
1095.180531,    1.224060
1095.858806,    1.224245
1096.536888,    1.224429
1097.214745,    1.224612
1097.887957,    1.224792
1098.563990,    1.224971
1099.242797,    1.225150
1099.918982,    1.225326
1100.597884,    1.225501
1101.279158,    1.225676
1101.957527,    1.225848
1102.638912,    1.226020
1103.317180,    1.226189
1103.999411,    1.226358
1104.680024,    1.226525
1105.360650,    1.226690
1106.044991,    1.226855
1106.625829,    1.226994
