Range, Altitude
   0.000000,    0.000000
   0.000010,    0.000000
   0.000108,    0.000000
   0.000216,    0.000000
   0.000325,    0.000000
   0.000434,    0.000000
   0.000543,    0.000000
   0.000651,    0.000000
   0.000760,    0.000000
   0.000869,    0.000000
   0.000978,    0.000000
   0.001086,    0.000000
   0.001352,    0.000000
   0.001637,    0.000000
   0.001922,    0.000000
   0.002207,    0.000000
   0.002493,    0.000000
   0.002778,    0.000000
   0.003063,    0.000000
   0.003348,    0.000000
   0.003633,    0.000000
   0.003918,    0.000000
   0.004358,    0.000000
   0.004818,    0.000000
   0.005277,    0.000000
   0.005736,    0.000000
   0.006196,    0.000000
   0.006655,    0.000000
   0.007114,    0.000000
   0.007574,    0.000000
   0.008033,    0.000000
   0.008492,    0.000000
   0.009105,    0.000000
   0.009736,    0.000000
   0.010367,    0.000000
   0.010999,    0.000000
   0.011630,    0.000000
   0.012261,    0.000000
   0.012893,    0.000000
   0.013524,    0.000000
   0.014155,    0.000000
   0.014787,    0.000000
   0.015569,    0.000000
   0.016370,    0.000000
   0.017171,    0.000000
   0.017972,    0.000000
   0.018773,    0.000000
   0.019574,    0.000000
   0.020375,    0.000000
   0.021176,    0.000000
   0.021977,    0.000000
   0.022778,    0.000000
   0.023728,    0.000000
   0.024696,    0.000000
   0.025664,    0.000000
   0.026632,    0.000000
   0.027601,    0.000000
   0.028569,    0.000000
   0.029537,    0.000000
   0.030506,    0.000000
   0.031474,    0.000000
   0.032442,    0.000000
   0.033556,    0.000000
   0.034689,    0.000000
   0.035821,    0.000000
   0.036954,    0.000000
   0.038086,    0.000000
   0.039219,    0.000000
   0.040351,    0.000000
   0.041484,    0.000000
   0.042616,    0.000000
   0.043749,    0.000000
   0.045024,    0.000000
   0.046318,    0.000000
   0.047611,    0.000000
   0.048904,    0.000000
   0.050198,    0.000000
   0.051491,    0.000000
   0.052785,    0.000000
   0.054078,    0.000000
   0.055372,    0.000000
   0.056665,    0.000000
   0.058098,    0.000000
   0.059549,    0.000000
   0.061000,    0.000000
   0.062452,    0.000000
   0.063903,    0.000000
   0.065354,    0.000000
   0.066805,    0.000000
   0.068256,    0.000000
   0.069707,    0.000000
   0.071158,    0.000000
   0.072746,    0.000000
   0.074351,    0.000000
   0.075956,    0.000000
   0.077562,    0.000000
   0.079167,    0.000000
   0.080772,    0.000000
   0.082378,    0.000000
   0.083983,    0.000000
   0.085588,    0.000000
   0.087194,    0.000000
   0.088933,    0.000000
   0.090690,    0.000000
   0.092446,    0.000000
   0.094202,    0.000000
   0.095958,    0.000000
   0.097715,    0.000000
   0.099471,    0.000000
   0.101227,    0.000000
   0.102984,    0.000000
   0.104740,    0.000000
   0.106627,    0.000000
   0.108531,    0.000000
   0.110435,    0.000000
   0.112339,    0.000000
   0.114243,    0.000000
   0.116146,    0.000000
   0.118050,    0.000000
   0.119954,    0.000000
   0.121858,    0.000000
   0.123762,    0.000000
   0.125793,    0.000000
   0.127840,    0.000000
   0.129887,    0.000000
   0.131935,    0.000000
   0.133982,    0.000000
   0.136029,    0.000000
   0.138076,    0.000000
   0.140123,    0.000000
   0.142171,    0.000000
   0.144218,    0.000000
   0.146389,    0.000000
   0.148575,    0.000000
   0.150761,    0.000000
   0.152948,    0.000000
   0.155134,    0.000000
   0.157320,    0.000000
   0.159507,    0.000000
   0.161693,    0.000000
   0.163879,    0.000000
   0.166066,    0.000000
   0.168372,    0.000000
   0.170693,    0.000000
   0.173015,    0.000000
   0.175336,    0.000000
   0.177657,    0.000000
   0.179978,    0.000000
   0.182300,    0.000000
   0.184621,    0.000000
   0.186942,    0.000000
   0.189263,    0.000000
   0.191701,    0.000000
   0.194153,    0.000000
   0.196605,    0.000000
   0.199057,    0.000000
   0.201509,    0.000000
   0.203962,    0.000000
   0.206414,    0.000000
   0.208866,    0.000000
   0.211318,    0.000000
   0.213770,    0.000000
   0.216335,    0.000000
   0.218914,    0.000000
   0.221492,    0.000000
   0.224071,    0.000000
   0.226650,    0.000000
   0.229229,    0.000000
   0.231808,    0.000000
   0.234387,    0.000000
   0.236966,    0.000000
   0.239545,    0.000000
   0.242233,    0.000000
   0.244934,    0.000000
   0.247636,    0.000000
   0.250338,    0.000000
   0.253039,    0.000000
   0.255741,    0.000000
   0.258443,    0.000000
   0.261145,    0.000000
   0.263846,    0.000000
   0.266548,    0.000000
   0.269337,    0.000000
   0.272137,    0.000000
   0.274937,    0.000000
   0.277737,    0.000000
   0.280537,    0.000000
   0.283337,    0.000000
   0.284976,    0.000000
   0.287834,    0.000000
   0.290693,    0.000000
   0.293551,    0.000000
   0.296446,    0.000000
   0.299381,    0.000000
   0.302316,    0.000000
   0.305251,    0.000000
   0.308186,    0.000000
   0.311121,    0.000000
   0.314056,    0.000000
   0.316991,    0.000000
   0.319926,    0.000000
   0.322861,    0.000000
   0.325848,    0.000000
   0.328891,    0.000000
   0.331935,    0.000000
   0.334979,    0.000000
   0.338022,    0.000000
   0.341066,    0.000000
   0.344109,    0.000000
   0.347153,    0.000000
   0.350196,    0.000000
   0.353240,    0.000000
   0.356331,    0.000000
   0.359476,    0.000000
   0.362621,    0.000000
   0.365766,    0.000000
   0.368911,    0.000000
   0.372055,    0.000000
   0.375200,    0.000000
   0.378345,    0.000000
   0.381490,    0.000000
   0.384635,    0.000000
   0.386288,    0.000000
   0.389516,    0.500213
   0.392744,    1.000426
   0.395972,    1.500639
   0.399200,    2.000852
   0.402428,    2.501065
   0.405656,    3.001278
   0.408884,    3.501491
   0.412112,    4.001704
   0.415339,    4.501917
   0.418567,    5.002130
   0.421830,    6.308679
   0.425092,    7.615227
   0.428355,    8.921775
   0.431617,   10.228323
   0.434880,   11.534871
   0.438154,   13.410579
   0.441428,   15.286286
   0.444703,   17.161993
   0.447977,   19.037700
   0.451251,   20.913407
   0.454529,   23.404974
   0.457807,   25.896540
   0.461085,   28.388106
   0.464363,   30.879672
   0.467641,   33.371239
   0.467641,   35.000000
   3.889596, 1920.000000
   7.482099, 3805.000000
  11.298661, 5690.000000
  15.511321, 7575.000000
  20.292402, 9460.000000
  25.746256, 11345.000000
  32.025491, 13230.000000
  39.385245, 15115.000000
  48.414542, 17000.000000
  48.414542, 17000.000000
  51.978920, 17000.000000
  55.543299, 17000.000000
  59.107677, 17000.000000
  62.672056, 17000.000000
  66.236434, 17000.000000
  69.800812, 17000.000000
  73.365191, 17000.000000
  76.929569, 17000.000000
  80.493948, 17000.000000
  84.058326, 17000.000000
  87.622705, 17000.000000
  91.187083, 17000.000000
  94.751461, 17000.000000
  98.315840, 17000.000000
 101.880218, 17000.000000
 105.444597, 17000.000000
 109.008975, 17000.000000
 112.573354, 17000.000000
 116.137732, 17000.000000
 119.702110, 17000.000000
 123.266489, 17000.000000
 126.830867, 17000.000000
 130.395246, 17000.000000
 133.959624, 17000.000000
 137.524003, 17000.000000
 141.088381, 17000.000000
 144.652760, 17000.000000
 148.217138, 17000.000000
 151.781516, 17000.000000
 151.781516, 17000.000000
 157.236722, 15277.777778
 162.553041, 13555.555556
 167.717151, 11833.333333
 172.718849, 10111.111111
 177.555306, 8388.888889
 182.215613, 6666.666667
 186.690762, 4944.444444
 191.035311, 3222.222222
 195.240346, 1500.000000
 195.240346, 1500.000000
 196.923374, 2444.444444
 198.647130, 3388.888889
 200.412097, 4333.333333
 202.227737, 5277.777778
 204.128715, 6222.222222
 206.146583, 7166.666667
 208.294103, 8111.111111
 210.582316, 9055.555556
 213.021056, 10000.000000
 213.021056, 10000.000000
 218.130553, 10000.000000
 223.240050, 10000.000000
 228.349547, 10000.000000
 233.459044, 10000.000000
 238.568541, 10000.000000
 243.678038, 10000.000000
 248.787535, 10000.000000
 253.897032, 10000.000000
 259.006528, 10000.000000
 259.006528, 10000.000000
 261.739769, 9055.555556
 264.390607, 8111.111111
 267.013195, 7166.666667
 269.608706, 6222.222222
 272.178191, 5277.777778
 274.721284, 4333.333333
 277.237914, 3388.888889
 279.726781, 2444.444444
 282.184931, 1500.000000
 282.184931, 1500.000000
 282.184931, 1500.000000
 282.184931, 1500.000000
 282.184931, 1500.000000
 282.184931, 1500.000000
 282.184931, 1500.000000
 282.184931, 1500.000000
 282.184931, 1500.000000
 282.184931, 1500.000000
 282.184931, 1500.000000
 282.184931, 1500.000000
 282.187913, 1499.051587
 282.190896, 1498.103184
 282.193879, 1497.154781
 282.196861, 1496.206792
 282.199844, 1495.258884
 282.202826, 1494.310976
 282.205809, 1493.363068
 282.208792, 1492.415160
 282.211774, 1491.467252
 282.214757, 1490.519343
 282.217740, 1489.571435
 282.220722, 1488.623527
 282.223705, 1487.675619
 282.226688, 1486.728314
 282.229670, 1485.781126
 282.232653, 1484.833938
 282.235636, 1483.886750
 282.238619, 1482.939563
 282.241602, 1481.992375
 282.244584, 1481.045187
 282.247567, 1480.097999
 282.250550, 1479.150812
 282.253533, 1478.203624
 282.256516, 1477.256688
 282.259499, 1476.309800
 282.262482, 1475.362913
 282.265464, 1474.416025
 282.268447, 1473.469138
 282.271430, 1472.522251
 282.274413, 1471.575363
 282.277396, 1470.628476
 282.280379, 1469.681589
 282.283362, 1468.734701
 282.286345, 1467.788731
 282.289328, 1466.842939
 282.292311, 1465.897147
 282.295294, 1464.951354
 282.298277, 1464.005562
 282.301260, 1463.059770
 282.304243, 1462.113978
 282.307226, 1461.168186
 282.310209, 1460.222394
 282.313192, 1459.276602
 282.316175, 1458.330796
 282.319159, 1457.384988
 282.322142, 1456.439179
 282.325125, 1455.493371
 282.328108, 1454.547562
 282.331091, 1453.601754
 282.334074, 1452.655945
 282.337057, 1451.710137
 282.340041, 1450.764329
 282.343024, 1449.818520
 282.346007, 1448.872613
 282.348990, 1447.926687
 282.351974, 1446.980761
 282.354957, 1446.034835
 282.357940, 1445.088909
 282.360923, 1444.142983
 282.363907, 1443.197056
 282.366890, 1442.251130
 282.369873, 1441.305204
 282.372856, 1440.359278
 282.375840, 1439.413657
 282.378823, 1438.468095
 282.381807, 1437.522534
 282.384790, 1436.576972
 282.387773, 1435.631411
 282.390757, 1434.685849
 282.393740, 1433.740288
 282.396723, 1432.794726
 282.399707, 1431.849164
 282.402690, 1430.903603
 282.405674, 1429.957695
 282.408657, 1429.011719
 282.411641, 1428.065743
 282.414624, 1427.119768
 282.417608, 1426.173792
 282.420591, 1425.227817
 282.423575, 1424.281841
 282.426558, 1423.335865
 282.429542, 1422.389890
 282.432525, 1421.443914
 282.435509, 1420.498057
 282.438492, 1419.552222
 282.441476, 1418.606388
 282.444460, 1417.660553
 282.447443, 1416.714719
 282.450427, 1415.768884
 282.453411, 1414.823050
 282.456394, 1413.877215
 282.459378, 1412.931381
 282.462362, 1411.985546
 282.465345, 1411.039984
 282.468329, 1410.094475
 282.471313, 1409.148967
 282.474296, 1408.203458
 282.477280, 1407.257949
 282.480264, 1406.312441
 282.483248, 1405.366932
 282.486231, 1404.421423
 282.489215, 1403.475915
 282.492199, 1402.530406
 282.495183, 1401.585796
 282.498167, 1400.641360
 282.501151, 1399.696925
 282.504134, 1398.752490
 282.507118, 1397.808054
 282.510102, 1396.863619
 282.513086, 1395.919184
 282.516070, 1394.974749
 282.519054, 1394.030313
 282.522037, 1393.085878
 282.525021, 1392.142046
 282.528005, 1391.198330
 282.530989, 1390.254615
 282.533973, 1389.310900
 282.536957, 1388.367185
 282.539941, 1387.423469
 282.542925, 1386.479754
 282.545909, 1385.536039
 282.548893, 1384.592324
 282.551876, 1383.648608
 282.554860, 1382.705409
 282.557844, 1381.762310
 282.560828, 1380.819211
 282.563812, 1379.876112
 282.566796, 1378.933013
 282.569780, 1377.989914
 282.572764, 1377.046814
 282.575748, 1376.103715
 282.578732, 1375.160616
 282.581716, 1374.217517
 282.584700, 1373.274172
 282.587684, 1372.330779
 282.590668, 1371.387385
 282.593652, 1370.443992
 282.596636, 1369.500599
 282.599620, 1368.557206
 282.602604, 1367.613812
 282.605588, 1366.670419
 282.608572, 1365.727026
 282.611556, 1364.783632
 282.614540, 1363.840348
 282.617524, 1362.897085
 282.620509, 1361.953821
 282.623493, 1361.010558
 282.626477, 1360.067295
 282.629461, 1359.124031
 282.632445, 1358.180768
 282.635429, 1357.237505
 282.638413, 1356.294241
 282.641397, 1355.350978
 282.644381, 1354.408123
 282.647366, 1353.465347
 282.650350, 1352.522571
 282.653334, 1351.579796
 282.656318, 1350.637020
 282.659302, 1349.694244
 282.662286, 1348.751469
 282.665270, 1347.808693
 282.668255, 1346.865918
 282.671239, 1345.923142
 282.674223, 1344.980014
 282.677207, 1344.036817
 282.680191, 1343.093620
 282.683176, 1342.150424
 282.686160, 1341.207227
 282.689144, 1340.264030
 282.692128, 1339.320833
 282.695113, 1338.377637
 282.698097, 1337.434440
 282.701081, 1336.491243
 282.704065, 1335.548058
 282.707050, 1334.604875
 282.710034, 1333.661692
 282.713018, 1332.718509
 282.716003, 1331.775326
 282.718987, 1330.832143
 282.721971, 1329.888959
 282.724955, 1328.945776
 282.727940, 1328.002593
 282.730924, 1327.059410
 282.733908, 1326.116551
 282.736893, 1325.173755
 282.739877, 1324.230959
 282.742862, 1323.288163
 282.745846, 1322.345367
 282.748830, 1321.402570
 282.751815, 1320.459774
 282.754799, 1319.516978
 282.757783, 1318.574182
 282.760768, 1317.631386
 282.763752, 1316.688174
 282.766737, 1315.744882
 282.769721, 1314.801589
 282.772706, 1313.858297
 282.775690, 1312.915004
 282.778674, 1311.971712
 282.781659, 1311.028419
 282.784643, 1310.085127
 282.787628, 1309.141834
 282.790612, 1308.198541
 282.793597, 1307.255218
 282.796581, 1306.311888
 282.799566, 1305.368559
 282.802550, 1304.425229
 282.805535, 1303.481900
 282.808519, 1302.538570
 282.811504, 1301.595240
 282.814489, 1300.651911
 282.817473, 1299.708581
 282.820458, 1298.765252
 282.823442, 1297.822227
 282.826427, 1296.879262
 282.829411, 1295.936298
 282.832396, 1294.993333
 282.835381, 1294.050368
 282.838365, 1293.107403
 282.841350, 1292.164438
 282.844335, 1291.221473
 282.847319, 1290.278508
 282.850304, 1289.335543
 282.853288, 1288.392167
 282.856273, 1287.448711
 282.859258, 1286.505255
 282.862243, 1285.561799
 282.865227, 1284.618343
 282.868212, 1283.674887
 282.871197, 1282.731431
 282.874182, 1281.787975
 282.877166, 1280.844518
 282.880151, 1279.901062
 282.883136, 1278.957602
 282.886121, 1278.014141
 282.889105, 1277.070681
 282.892090, 1276.127220
 282.895075, 1275.183759
 282.898060, 1274.240298
 282.901045, 1273.296837
 282.904030, 1272.353376
 282.907014, 1271.409915
 282.909999, 1270.466455
 282.912984, 1269.523348
 282.915969, 1268.580310
 282.918954, 1267.637271
 282.921939, 1266.694233
 282.924924, 1265.751195
 282.927909, 1264.808157
 282.930893, 1263.865119
 282.933878, 1262.922081
 282.936863, 1261.979043
 282.939848, 1261.036005
 282.942833, 1260.092616
 282.945818, 1259.149159
 282.948803, 1258.205702
 282.951788, 1257.262245
 282.954773, 1256.318788
 282.957758, 1255.375331
 282.960743, 1254.431874
 282.963728, 1253.488416
 282.966713, 1252.544959
 282.969698, 1251.601502
 282.972683, 1250.658115
 282.975669, 1249.714741
 282.978654, 1248.771368
 282.981639, 1247.827994
 282.984624, 1246.884620
 282.987609, 1245.941247
 282.990594, 1244.997873
 282.993579, 1244.054500
 282.996564, 1243.111126
 282.999550, 1242.167752
 283.002535, 1241.224813
 283.005520, 1240.281958
 283.008505, 1239.339104
 283.011490, 1238.396249
 283.014476, 1237.453394
 283.017461, 1236.510539
 283.020446, 1235.567685
 283.023431, 1234.624830
 283.026416, 1233.681975
 283.029402, 1232.739121
 283.032387, 1231.795996
 283.035372, 1230.852819
 283.038358, 1229.909641
 283.041343, 1228.966464
 283.044328, 1228.023287
 283.047314, 1227.080109
 283.050299, 1226.136932
 283.053284, 1225.193755
 283.056270, 1224.250577
 283.059255, 1223.307400
 283.062240, 1222.364370
 283.065226, 1221.421368
 283.068211, 1220.478366
 283.071197, 1219.535365
 283.074182, 1218.592363
 283.077167, 1217.649361
 283.080153, 1216.706359
 283.083138, 1215.763358
 283.086124, 1214.820356
 283.089109, 1213.877354
 283.092095, 1212.934134
 283.095080, 1211.990871
 283.098066, 1211.047609
 283.101051, 1210.104346
 283.104037, 1209.161083
 283.107022, 1208.217821
 283.110008, 1207.274558
 283.112993, 1206.331295
 283.115979, 1205.388033
 283.118964, 1204.444770
 283.121950, 1203.500320
 283.124936, 1202.555638
 283.127921, 1201.610956
 283.130907, 1200.666274
 283.133893, 1199.721592
 283.136879, 1198.776911
 283.139864, 1197.832229
 283.142850, 1196.887547
 283.145836, 1195.942865
 283.148821, 1194.998183
 283.151807, 1194.053909
 283.154793, 1193.109715
 283.157779, 1192.165520
 283.160765, 1191.221325
 283.163751, 1190.277131
 283.166736, 1189.332936
 283.169722, 1188.388742
 283.172708, 1187.444547
 283.175694, 1186.500352
 283.178680, 1185.556158
 283.181666, 1184.612541
 283.184652, 1183.669036
 283.187638, 1182.725532
 283.190624, 1181.782027
 283.193610, 1180.838522
 283.196596, 1179.895018
 283.199582, 1178.951513
 283.202568, 1178.008009
 283.205554, 1177.064504
 283.208540, 1176.121000
 283.211526, 1175.177925
 283.214512, 1174.234934
 283.217498, 1173.291943
 283.220484, 1172.348951
 283.223470, 1171.405960
 283.226456, 1170.462969
 283.229442, 1169.519978
 283.232428, 1168.576987
 283.235414, 1167.633996
 283.238401, 1166.691005
 283.241387, 1165.747776
 283.244373, 1164.804501
 283.247359, 1163.861226
 283.250345, 1162.917951
 283.253332, 1161.974676
 283.256318, 1161.031402
 283.259304, 1160.088127
 283.262290, 1159.144852
 283.265276, 1158.201577
 283.268263, 1157.258302
 283.271249, 1156.315243
 283.274235, 1155.372225
 283.277222, 1154.429208
 283.280208, 1153.486191
 283.283194, 1152.543173
 283.286181, 1151.600156
 283.289167, 1150.657139
 283.292153, 1149.714121
 283.295140, 1148.771104
 283.298126, 1147.828087
 283.301113, 1146.885420
 283.304099, 1145.942821
 283.307086, 1145.000223
 283.310072, 1144.057624
 283.313058, 1143.115025
 283.316045, 1142.172427
 283.319031, 1141.229828
 283.322018, 1140.287230
 283.325004, 1139.344631
 283.327991, 1138.402032
 283.330977, 1137.460391
 283.333964, 1136.518936
 283.336950, 1135.577481
 283.339937, 1134.636026
 283.342923, 1133.694572
 283.345910, 1132.753117
 283.348896, 1131.811662
 283.351883, 1130.870207
 283.354870, 1129.928752
 283.357856, 1128.987297
 283.360843, 1128.046474
 283.363829, 1127.105774
 283.366816, 1126.165073
 283.369803, 1125.224373
 283.372789, 1124.283673
 283.375776, 1123.342973
 283.378762, 1122.402273
 283.381749, 1121.461572
 283.384735, 1120.520872
 283.387722, 1119.580172
 283.390709, 1118.639989
 283.393695, 1117.699906
 283.396682, 1116.759823
 283.399669, 1115.819740
 283.402655, 1114.879657
 283.405642, 1113.939575
 283.408629, 1112.999492
 283.411615, 1112.059409
 283.414602, 1111.119326
 283.417588, 1110.179243
 283.420575, 1109.238882
 283.423562, 1108.298467
 283.426549, 1107.358051
 283.429535, 1106.417636
 283.432522, 1105.477220
 283.435509, 1104.536805
 283.438495, 1103.596390
 283.441482, 1102.655974
 283.444469, 1101.715559
 283.447456, 1100.775143
 283.450442, 1099.834785
 283.453429, 1098.894438
 283.456416, 1097.954091
 283.459403, 1097.013743
 283.462389, 1096.073396
 283.465376, 1095.133049
 283.468363, 1094.192702
 283.471350, 1093.252355
 283.474336, 1092.312008
 283.477323, 1091.371660
 283.480310, 1090.431653
 283.483297, 1089.491711
 283.486284, 1088.551769
 283.489270, 1087.611827
 283.492257, 1086.671885
 283.495244, 1085.731943
 283.498231, 1084.792002
 283.501218, 1083.852060
 283.504205, 1082.912118
 283.507191, 1081.972176
 283.510178, 1081.031795
 283.513165, 1080.091329
 283.516152, 1079.150863
 283.519139, 1078.210397
 283.522126, 1077.269931
 283.525113, 1076.329465
 283.528100, 1075.388999
 283.531087, 1074.448533
 283.534073, 1073.508067
 283.537060, 1072.567600
 283.540047, 1071.627054
 283.543034, 1070.686491
 283.546021, 1069.745928
 283.549008, 1068.805366
 283.551995, 1067.864803
 283.554982, 1066.924240
 283.557969, 1065.983678
 283.560956, 1065.043115
 283.563943, 1064.102552
 283.566930, 1063.161989
 283.569917, 1062.222437
 283.572904, 1061.283082
 283.575891, 1060.343727
 283.578878, 1059.404372
 283.581865, 1058.465017
 283.584852, 1057.525662
 283.587839, 1056.586308
 283.590826, 1055.646953
 283.593813, 1054.707598
 283.596800, 1053.768243
 283.599787, 1052.829499
 283.602774, 1051.890875
 283.605761, 1050.952252
 283.608748, 1050.013628
 283.611736, 1049.075004
 283.614723, 1048.136380
 283.617710, 1047.197756
 283.620697, 1046.259132
 283.623684, 1045.320508
 283.626671, 1044.381884
 283.629658, 1043.443689
 283.632645, 1042.505578
 283.635632, 1041.567466
 283.638619, 1040.629354
 283.641606, 1039.691243
 283.644593, 1038.753131
 283.647580, 1037.815020
 283.650567, 1036.876908
 283.653554, 1035.938797
 283.656541, 1035.000685
 283.659528, 1034.062146
 283.662515, 1033.123523
 283.665502, 1032.184900
 283.668490, 1031.246278
 283.671477, 1030.307655
 283.674464, 1029.369032
 283.677451, 1028.430410
 283.680438, 1027.491787
 283.683425, 1026.553164
 283.686412, 1025.614542
 283.689399, 1024.675780
 283.692386, 1023.736991
 283.695373, 1022.798203
 283.698361, 1021.859414
 283.701348, 1020.920625
 283.704335, 1019.981836
 283.707322, 1019.043048
 283.710309, 1018.104259
 283.713296, 1017.165470
 283.716283, 1016.226681
 283.719271, 1015.287850
 283.722258, 1014.349011
 283.725245, 1013.410171
 283.728232, 1012.471332
 283.731219, 1011.532492
 283.734206, 1010.593652
 283.737194, 1009.654813
 283.740181, 1008.715973
 283.743168, 1007.777134
 283.746155, 1006.838294
 283.749142, 1005.898945
 283.752130, 1004.959496
 283.755117, 1004.020048
 283.758104, 1003.080599
 283.761091, 1002.141150
 283.764079, 1001.201701
 283.767066, 1000.262253
 283.770053,  999.322804
 283.773040,  998.383355
 283.776028,  997.443906
 283.779015,  996.504921
 283.782002,  995.566026
 283.784989,  994.627131
 283.787977,  993.688235
 283.790964,  992.749340
 283.793951,  991.810445
 283.796939,  990.871550
 283.799926,  989.932655
 283.802913,  988.993760
 283.805901,  988.054865
 283.808888,  987.115639
 283.811875,  986.176349
 283.814863,  985.237059
 283.817850,  984.297768
 283.820837,  983.358478
 283.823825,  982.419188
 283.826812,  981.479898
 283.829799,  980.540608
 283.832787,  979.601317
 283.835774,  978.662027
 283.838762,  977.722750
 283.841749,  976.783476
 283.844737,  975.844202
 283.847724,  974.904928
 283.850711,  973.965654
 283.853699,  973.026380
 283.856686,  972.087106
 283.859674,  971.147832
 283.862661,  970.208558
 283.865649,  969.269284
 283.868636,  968.330316
 283.871624,  967.391408
 283.874611,  966.452501
 283.877599,  965.513593
 283.880586,  964.574685
 283.883574,  963.635777
 283.886561,  962.696869
 283.889549,  961.757961
 283.892536,  960.819053
 283.895524,  959.880145
 283.898511,  958.940774
 283.901499,  958.001312
 283.904486,  957.061850
 283.907474,  956.122389
 283.910462,  955.182927
 283.913449,  954.243465
 283.916437,  953.304003
 283.919424,  952.364542
 283.922412,  951.425080
 283.925399,  950.485618
 283.928387,  949.546065
 283.931375,  948.606493
 283.934362,  947.666922
 283.937350,  946.727351
 283.940338,  945.787779
 283.943325,  944.848208
 283.946313,  943.908636
 283.949301,  942.969065
 283.952289,  942.029493
 283.955276,  941.089922
 283.958264,  940.151367
 283.961252,  939.213010
 283.964239,  938.274653
 283.967227,  937.336296
 283.970215,  936.397940
 283.973203,  935.459583
 283.976190,  934.521226
 283.979178,  933.582869
 283.982166,  932.644512
 283.985153,  931.706155
 283.988141,  930.768426
 283.991129,  929.830819
 283.994117,  928.893212
 283.997105,  927.955606
 284.000092,  927.017999
 284.003080,  926.080392
 284.006068,  925.142785
 284.009056,  924.205178
 284.012043,  923.267571
 284.015031,  922.329964
 284.018019,  921.392812
 284.021007,  920.455747
 284.023994,  919.518683
 284.026982,  918.581619
 284.029970,  917.644555
 284.032958,  916.707491
 284.035946,  915.770426
 284.038933,  914.833362
 284.041921,  913.896298
 284.044909,  912.959234
 284.047897,  912.021772
 284.050884,  911.084233
 284.053872,  910.146694
 284.056860,  909.209155
 284.059848,  908.271616
 284.062836,  907.334076
 284.065824,  906.396537
 284.068811,  905.458998
 284.071799,  904.521459
 284.074787,  903.583920
 284.077775,  902.646279
 284.080763,  901.708619
 284.083751,  900.770958
 284.086738,  899.833298
 284.089726,  898.895637
 284.092714,  897.957977
 284.095702,  897.020316
 284.098690,  896.082656
 284.101678,  895.144995
 284.104666,  894.207335
 284.107654,  893.269673
 284.110642,  892.332011
 284.113629,  891.394349
 284.116617,  890.456687
 284.119605,  889.519025
 284.122593,  888.581363
 284.125581,  887.643701
 284.128569,  886.706039
 284.131557,  885.768377
 284.134545,  884.830715
 284.137533,  883.892583
 284.140521,  882.954359
 284.143509,  882.016136
 284.146497,  881.077912
 284.149485,  880.139688
 284.152473,  879.201465
 284.155461,  878.263241
 284.158449,  877.325017
 284.161437,  876.386794
 284.164425,  875.448570
 284.167413,  874.510851
 284.170401,  873.573231
 284.173389,  872.635611
 284.176377,  871.697991
 284.179365,  870.760371
 284.182353,  869.822751
 284.185341,  868.885130
 284.188329,  867.947510
 284.191317,  867.009890
 284.194305,  866.072270
 284.197293,  865.134352
 284.200281,  864.196376
 284.203269,  863.258401
 284.206258,  862.320425
 284.209246,  861.382449
 284.212234,  860.444473
 284.215222,  859.506498
 284.218210,  858.568522
 284.221198,  857.630546
 284.224186,  856.692571
 284.227174,  855.754634
 284.230163,  854.816705
 284.233151,  853.878776
 284.236139,  852.940847
 284.239127,  852.002918
 284.242115,  851.064990
 284.245103,  850.127061
 284.248092,  849.189132
 284.251080,  848.251203
 284.254068,  847.313274
 284.257056,  846.375668
 284.260044,  845.438125
 284.263033,  844.500582
 284.266021,  843.563038
 284.269009,  842.625495
 284.271997,  841.687952
 284.274986,  840.750409
 284.277974,  839.812866
 284.280962,  838.875323
 284.283950,  837.937780
 284.286939,  836.999774
 284.289927,  836.061678
 284.292915,  835.123582
 284.295904,  834.185486
 284.298892,  833.247390
 284.301880,  832.309294
 284.304869,  831.371198
 284.307857,  830.433102
 284.310845,  829.495006
 284.313833,  828.556910
 284.316822,  827.618711
 284.319810,  826.680492
 284.322799,  825.742272
 284.325787,  824.804053
 284.328775,  823.865833
 284.331764,  822.927614
 284.334752,  821.989394
 284.337741,  821.051175
 284.340729,  820.112956
 284.343717,  819.174736
 284.346706,  818.237513
 284.349694,  817.300484
 284.352683,  816.363456
 284.355671,  815.426427
 284.358660,  814.489398
 284.361648,  813.552369
 284.364637,  812.615341
 284.367625,  811.678312
 284.370614,  810.741283
 284.373602,  809.804254
 284.376591,  808.867821
 284.379579,  807.931504
 284.382567,  806.995187
 284.385556,  806.058870
 284.388544,  805.122553
 284.391533,  804.186235
 284.394521,  803.249918
 284.397510,  802.313601
 284.400498,  801.377284
 284.403487,  800.440967
 284.406475,  799.505061
 284.409464,  798.569235
 284.412452,  797.633409
 284.415441,  796.697583
 284.418429,  795.761757
 284.421418,  794.825931
 284.424406,  793.890105
 284.427395,  792.954279
 284.430383,  792.018453
 284.433372,  791.082627
 284.436360,  790.146348
 284.439349,  789.209982
 284.442337,  788.273615
 284.445326,  787.337249
 284.448314,  786.400882
 284.451303,  785.464515
 284.454291,  784.528149
 284.457280,  783.591782
 284.460269,  782.655415
 284.463257,  781.719049
 284.466246,  780.782520
 284.469234,  779.845960
 284.472223,  778.909400
 284.475211,  777.972840
 284.478200,  777.036279
 284.481189,  776.099719
 284.484177,  775.163159
 284.487166,  774.226599
 284.490154,  773.290039
 284.493143,  772.353479
 284.496132,  771.416854
 284.499120,  770.480218
 284.502109,  769.543581
 284.505097,  768.606944
 284.508086,  767.670308
 284.511075,  766.733671
 284.514063,  765.797034
 284.517052,  764.860398
 284.520041,  763.923761
 284.523029,  762.987124
 284.526018,  762.049951
 284.529007,  761.112674
 284.531995,  760.175397
 284.534984,  759.238120
 284.537973,  758.300842
 284.540961,  757.363565
 284.543950,  756.426288
 284.546939,  755.489011
 284.549928,  754.551733
 284.552916,  753.614456
 284.555905,  752.677625
 284.558894,  751.740880
 284.561883,  750.804136
 284.564871,  749.867392
 284.567860,  748.930647
 284.570849,  747.993903
 284.573838,  747.057158
 284.576826,  746.120414
 284.579815,  745.183670
 284.582804,  744.246925
 284.585793,  743.309827
 284.588782,  742.372660
 284.591770,  741.435493
 284.594759,  740.498325
 284.597748,  739.561158
 284.600737,  738.623991
 284.603726,  737.686824
 284.606715,  736.749657
 284.609704,  735.812490
 284.612692,  734.875322
 284.615681,  733.938149
 284.618670,  733.000974
 284.621659,  732.063799
 284.624648,  731.126624
 284.627637,  730.189449
 284.630626,  729.252273
 284.633615,  728.315098
 284.636604,  727.377923
 284.639593,  726.440748
 284.642582,  725.503573
 284.645571,  724.566688
 284.648560,  723.629859
 284.651549,  722.693030
 284.654538,  721.756201
 284.657527,  720.819372
 284.660516,  719.882543
 284.663504,  718.945714
 284.666493,  718.008885
 284.669482,  717.072056
 284.672471,  716.135227
 284.675461,  715.197913
 284.678450,  714.260503
 284.681439,  713.323093
 284.684428,  712.385684
 284.687417,  711.448274
 284.690406,  710.510864
 284.693395,  709.573455
 284.696384,  708.636045
 284.699373,  707.698635
 284.702362,  706.761226
 284.705351,  705.823705
 284.708341,  704.886162
 284.711330,  703.948619
 284.714319,  703.011076
 284.717308,  702.073534
 284.720297,  701.135991
 284.723286,  700.198448
 284.726276,  699.260905
 284.729265,  698.323363
 284.732254,  697.385820
 284.735243,  696.449284
 284.738232,  695.512944
 284.741222,  694.576604
 284.744211,  693.640264
 284.747200,  692.703923
 284.750189,  691.767583
 284.753179,  690.831243
 284.756168,  689.894903
 284.759157,  688.958563
 284.762146,  688.022223
 284.765136,  687.086500
 284.768125,  686.150897
 284.771114,  685.215293
 284.774103,  684.279690
 284.777093,  683.344087
 284.780082,  682.408484
 284.783071,  681.472880
 284.786060,  680.537277
 284.789050,  679.601674
 284.792039,  678.666071
 284.795028,  677.730910
 284.798018,  676.795835
 284.801007,  675.860761
 284.803996,  674.925686
 284.806985,  673.990611
 284.809975,  673.055537
 284.812964,  672.120462
 284.815953,  671.185387
 284.818943,  670.250313
 284.821932,  669.315238
 284.824921,  668.379747
 284.827911,  667.444175
 284.830900,  666.508603
 284.833889,  665.573031
 284.836879,  664.637460
 284.839868,  663.701888
 284.842857,  662.766316
 284.845847,  661.830744
 284.848836,  660.895172
 284.851825,  659.959600
 284.854815,  659.023909
 284.857804,  658.088196
 284.860793,  657.152482
 284.863783,  656.216769
 284.866772,  655.281055
 284.869762,  654.345341
 284.872751,  653.409628
 284.875740,  652.473914
 284.878730,  651.538200
 284.881719,  650.602487
 284.884709,  649.666756
 284.887698,  648.731021
 284.890687,  647.795287
 284.893677,  646.859552
 284.896666,  645.923818
 284.899656,  644.988083
 284.902645,  644.052349
 284.905635,  643.116614
 284.908624,  642.180880
 284.911614,  641.245145
 284.914603,  640.308919
 284.917593,  639.372597
 284.920582,  638.436275
 284.923572,  637.499953
 284.926561,  636.563631
 284.929551,  635.627309
 284.932540,  634.690987
 284.935530,  633.754665
 284.938519,  632.818343
 284.941509,  631.882021
 284.944498,  630.946190
 284.947488,  630.010455
 284.950478,  629.074720
 284.953467,  628.138985
 284.956457,  627.203250
 284.959446,  626.267515
 284.962436,  625.331780
 284.965425,  624.396045
 284.968415,  623.460310
 284.971405,  622.524575
 284.974394,  621.588523
 284.977384,  620.652408
 284.980374,  619.716294
 284.983363,  618.780180
 284.986353,  617.844065
 284.989343,  616.907951
 284.992332,  615.971836
 284.995322,  615.035722
 284.998312,  614.099608
 285.001301,  613.163493
 285.004291,  612.227402
 285.007281,  611.291316
 285.010270,  610.355229
 285.013260,  609.419143
 285.016250,  608.483056
 285.019240,  607.546970
 285.022229,  606.610883
 285.025219,  605.674797
 285.028209,  604.738710
 285.031199,  603.802624
 285.034188,  602.866849
 285.037178,  601.931134
 285.040168,  600.995420
 285.043158,  600.059706
 285.046148,  599.123991
 285.049137,  598.188277
 285.052127,  597.252563
 285.055117,  596.316848
 285.058107,  595.381134
 285.061096,  594.445420
 285.064086,  593.509228
 285.067076,  592.572943
 285.070066,  591.636658
 285.073056,  590.700372
 285.076046,  589.764087
 285.079036,  588.827802
 285.082026,  587.891517
 285.085016,  586.955232
 285.088005,  586.018947
 285.090995,  585.082662
 285.093985,  584.146265
 285.096975,  583.209846
 285.099965,  582.273427
 285.102955,  581.337008
 285.105945,  580.400589
 285.108935,  579.464170
 285.111925,  578.527752
 285.114915,  577.591333
 285.117905,  576.654914
 285.120895,  575.718495
 285.123885,  574.783076
 285.126875,  573.847853
 285.129865,  572.912630
 285.132855,  571.977407
 285.135845,  571.042183
 285.138835,  570.106960
 285.141825,  569.171737
 285.144815,  568.236513
 285.147805,  567.301290
 285.150795,  566.366067
 285.153785,  565.431443
 285.156776,  564.496937
 285.159766,  563.562431
 285.162756,  562.627924
 285.165746,  561.693418
 285.168736,  560.758912
 285.171726,  559.824406
 285.174716,  558.889899
 285.177706,  557.955393
 285.180696,  557.020887
 285.183686,  556.086798
 285.186676,  555.152791
 285.189666,  554.218784
 285.192656,  553.284777
 285.195647,  552.350770
 285.198637,  551.416762
 285.201627,  550.482755
 285.204617,  549.548748
 285.207607,  548.614741
 285.210597,  547.680734
 285.213587,  546.746277
 285.216577,  545.811732
 285.219567,  544.877187
 285.222558,  543.942643
 285.225548,  543.008098
 285.228538,  542.073553
 285.231528,  541.139009
 285.234518,  540.204464
 285.237508,  539.269919
 285.240498,  538.335375
 285.243489,  537.400676
 285.246479,  536.465947
 285.249469,  535.531218
 285.252459,  534.596488
 285.255449,  533.661759
 285.258440,  532.727030
 285.261430,  531.792301
 285.264420,  530.857572
 285.267410,  529.922843
 285.270400,  528.988114
 285.273391,  528.053331
 285.276381,  527.118538
 285.279371,  526.183745
 285.282361,  525.248951
 285.285352,  524.314158
 285.288342,  523.379365
 285.291332,  522.444571
 285.294322,  521.509778
 285.297312,  520.574985
 285.300303,  519.640191
 285.303293,  518.704869
 285.306283,  517.769444
 285.309274,  516.834019
 285.312264,  515.898594
 285.315254,  514.963169
 285.318245,  514.027744
 285.321235,  513.092319
 285.324225,  512.156894
 285.327216,  511.221469
 285.330206,  510.286044
 285.333196,  509.351080
 285.336187,  508.416207
 285.339177,  507.481334
 285.342168,  506.546460
 285.345158,  505.611587
 285.348148,  504.676713
 285.351139,  503.741840
 285.354129,  502.806966
 285.357120,  501.872093
 285.360110,  500.937220
 285.363100,  500.002001
 285.366091,  499.066715
 285.369081,  498.131429
 285.372072,  497.196143
 285.375062,  496.260857
 285.378053,  495.325570
 285.381043,  494.390284
 285.384034,  493.454998
 285.387024,  492.519712
 285.390015,  491.584426
 285.393005,  490.649143
 285.395996,  489.713861
 285.398986,  488.778579
 285.401977,  487.843297
 285.404968,  486.908015
 285.407958,  485.972733
 285.410949,  485.037451
 285.413939,  484.102169
 285.416930,  483.166887
 285.419920,  482.231605
 285.422911,  481.296623
 285.425902,  480.361700
 285.428892,  479.426777
 285.431883,  478.491853
 285.434873,  477.556930
 285.437864,  476.622006
 285.440855,  475.687083
 285.443845,  474.752160
 285.446836,  473.817236
 285.449827,  472.882313
 285.452817,  471.946905
 285.455808,  471.011403
 285.458799,  470.075901
 285.461789,  469.140399
 285.464780,  468.204897
 285.467771,  467.269394
 285.470762,  466.333892
 285.473752,  465.398390
 285.476743,  464.462888
 285.479734,  463.527386
 285.482725,  462.591774
 285.485715,  461.656141
 285.488706,  460.720508
 285.491697,  459.784875
 285.494688,  458.849243
 285.497679,  457.913610
 285.500670,  456.977977
 285.503660,  456.042344
 285.506651,  455.106711
 285.509642,  454.171078
 285.512633,  453.236460
 285.515624,  452.302040
 285.518615,  451.367620
 285.521606,  450.433200
 285.524596,  449.498780
 285.527587,  448.564359
 285.530578,  447.629939
 285.533569,  446.695519
 285.536560,  445.761099
 285.539551,  444.826679
 285.542542,  443.892878
 285.545533,  442.959198
 285.548524,  442.025517
 285.551515,  441.091837
 285.554505,  440.158157
 285.557496,  439.224476
 285.560487,  438.290796
 285.563478,  437.357116
 285.566469,  436.423435
 285.569460,  435.489755
 285.572451,  434.556516
 285.575442,  433.623362
 285.578433,  432.690209
 285.581424,  431.757055
 285.584415,  430.823902
 285.587406,  429.890749
 285.590397,  428.957595
 285.593388,  428.024442
 285.596379,  427.091288
 285.599370,  426.158135
 285.602361,  425.224555
 285.605352,  424.290891
 285.608343,  423.357228
 285.611334,  422.423564
 285.614325,  421.489901
 285.617316,  420.556238
 285.620307,  419.622574
 285.623298,  418.688911
 285.626289,  417.755247
 285.629280,  416.821584
 285.632271,  415.887792
 285.635262,  414.953975
 285.638253,  414.020159
 285.641244,  413.086342
 285.644235,  412.152525
 285.647226,  411.218708
 285.650217,  410.284891
 285.653208,  409.351075
 285.656199,  408.417258
 285.659190,  407.483441
 285.662181,  406.549597
 285.665173,  405.615747
 285.668164,  404.681898
 285.671155,  403.748048
 285.674146,  402.814198
 285.677137,  401.880349
 285.680128,  400.946499
 285.683119,  400.012649
 285.686110,  399.078800
 285.689101,  398.144950
 285.692093,  397.210594
 285.695084,  396.276140
 285.698075,  395.341686
 285.701066,  394.407231
 285.704057,  393.472777
 285.707049,  392.538322
 285.710040,  391.603868
 285.713031,  390.669414
 285.716022,  389.734959
 285.719014,  388.800505
 285.722005,  387.866535
 285.724996,  386.932661
 285.727987,  385.998786
 285.730979,  385.064911
 285.733970,  384.131037
 285.736961,  383.197162
 285.739952,  382.263287
 285.742944,  381.329412
 285.745935,  380.395538
 285.748926,  379.461663
 285.751918,  378.527459
 285.754909,  377.593190
 285.757900,  376.658921
 285.760892,  375.724653
 285.763883,  374.790384
 285.766874,  373.856115
 285.769866,  372.921847
 285.772857,  371.987578
 285.775848,  371.053309
 285.778840,  370.119041
 285.781831,  369.184787
 285.784823,  368.250537
 285.787814,  367.316286
 285.790805,  366.382036
 285.793797,  365.447785
 285.796788,  364.513535
 285.799780,  363.579284
 285.802771,  362.645034
 285.805763,  361.710783
 285.808754,  360.776533
 285.811745,  359.842589
 285.814737,  358.908706
 285.817728,  357.974823
 285.820720,  357.040940
 285.823711,  356.107056
 285.826703,  355.173173
 285.829694,  354.239290
 285.832686,  353.305407
 285.835677,  352.371523
 285.838669,  351.437640
 285.841661,  350.503270
 285.844652,  349.568806
 285.847644,  348.634341
 285.850635,  347.699877
 285.853627,  346.765412
 285.856619,  345.830948
 285.859610,  344.896483
 285.862602,  343.962019
 285.865593,  343.027554
 285.868585,  342.093090
 285.871577,  341.158510
 285.874568,  340.223907
 285.877560,  339.289304
 285.880552,  338.354701
 285.883543,  337.420098
 285.886535,  336.485496
 285.889527,  335.550893
 285.892518,  334.616290
 285.895510,  333.681687
 285.898502,  332.747085
 285.901494,  331.813490
 285.904485,  330.880092
 285.907477,  329.946694
 285.910469,  329.013296
 285.913461,  328.079898
 285.916452,  327.146500
 285.919444,  326.213102
 285.922436,  325.279704
 285.925428,  324.346306
 285.928419,  323.412908
 285.931411,  322.480117
 285.934403,  321.547443
 285.937395,  320.614770
 285.940387,  319.682097
 285.943378,  318.749423
 285.946370,  317.816750
 285.949362,  316.884077
 285.952354,  315.951403
 285.955346,  315.018730
 285.958337,  314.086057
 285.961329,  313.153808
 285.964321,  312.221642
 285.967313,  311.289475
 285.970305,  310.357309
 285.973297,  309.425143
 285.976288,  308.492977
 285.979280,  307.560811
 285.982272,  306.628645
 285.985264,  305.696479
 285.988256,  304.764312
 285.991248,  303.831698
 285.994240,  302.898995
 285.997231,  301.966293
 286.000223,  301.033590
 286.003215,  300.100888
 286.006207,  299.168185
 286.009199,  298.235483
 286.012191,  297.302780
 286.015183,  296.370078
 286.018175,  295.437376
 286.021166,  294.504523
 286.024158,  293.571642
 286.027150,  292.638761
 286.030142,  291.705879
 286.033134,  290.772998
 286.036126,  289.840116
 286.039118,  288.907235
 286.042110,  287.974354
 286.045102,  287.041472
 286.048094,  286.108591
 286.051086,  285.175662
 286.054078,  284.242723
 286.057070,  283.309785
 286.060062,  282.376846
 286.063054,  281.443908
 286.066046,  280.510969
 286.069038,  279.578031
 286.072030,  278.645092
 286.075022,  277.712154
 286.078014,  276.779216
 286.081006,  275.845751
 286.083998,  274.912183
 286.086990,  273.978615
 286.089982,  273.045048
 286.092974,  272.111480
 286.095967,  271.177912
 286.098959,  270.244345
 286.101951,  269.310777
 286.104943,  268.377210
 286.107935,  267.443642
 286.110927,  266.510546
 286.113919,  265.577542
 286.116911,  264.644538
 286.119904,  263.711534
 286.122896,  262.778530
 286.125888,  261.845526
 286.128880,  260.912522
 286.131872,  259.979518
 286.134864,  259.046515
 286.137857,  258.113511
 286.140849,  257.180164
 286.143841,  256.246750
 286.146833,  255.313337
 286.149825,  254.379923
 286.152818,  253.446510
 286.155810,  252.513096
 286.158802,  251.579683
 286.161794,  250.646269
 286.164787,  249.712856
 286.167779,  248.779442
 286.170771,  247.846036
 286.173764,  246.912632
 286.176756,  245.979228
 286.179748,  245.045823
 286.182741,  244.112419
 286.185733,  243.179015
 286.188725,  242.245610
 286.191718,  241.312206
 286.194710,  240.378802
 286.197702,  239.445398
 286.200695,  238.512299
 286.203687,  237.579260
 286.206679,  236.646221
 286.209672,  235.713181
 286.212664,  234.780142
 286.215657,  233.847103
 286.218649,  232.914064
 286.221642,  231.981025
 286.224634,  231.047986
 286.227626,  230.114947
 286.230619,  229.181420
 286.233611,  228.247799
 286.236604,  227.314178
 286.239596,  226.380557
 286.242589,  225.446936
 286.245581,  224.513315
 286.248574,  223.579693
 286.251566,  222.646072
 286.254559,  221.712451
 286.257551,  220.778830
 286.260544,  219.845098
 286.263537,  218.911345
 286.266529,  217.977591
 286.269522,  217.043838
 286.272514,  216.110085
 286.275507,  215.176331
 286.278500,  214.242578
 286.281492,  213.308825
 286.284485,  212.375071
 286.287478,  211.441318
 286.290470,  210.508586
 286.293463,  209.576053
 286.296456,  208.643521
 286.299448,  207.710988
 286.302441,  206.778455
 286.305434,  205.845923
 286.308426,  204.913390
 286.311419,  203.980857
 286.314412,  203.048325
 286.317404,  202.115792
 286.320397,  201.183880
 286.323390,  200.252090
 286.326383,  199.320299
 286.329375,  198.388508
 286.332368,  197.456718
 286.335361,  196.524927
 286.338353,  195.593136
 286.341346,  194.661346
 286.344339,  193.729555
 286.347332,  192.797765
 286.350324,  191.866414
 286.353317,  190.935150
 286.356310,  190.003885
 286.359303,  189.072620
 286.362295,  188.141356
 286.365288,  187.210091
 286.368281,  186.278827
 286.371274,  185.347562
 286.374266,  184.416298
 286.377259,  183.485033
 286.380252,  182.553333
 286.383245,  181.621548
 286.386238,  180.689762
 286.389230,  179.757977
 286.392223,  178.826192
 286.395216,  177.894407
 286.398209,  176.962622
 286.401202,  176.030836
 286.404195,  175.099051
 286.407187,  174.167266
 286.410180,  173.235345
 286.413173,  172.303399
 286.416166,  171.371452
 286.419159,  170.439505
 286.422152,  169.507558
 286.425145,  168.575611
 286.428137,  167.643664
 286.431130,  166.711717
 286.434123,  165.779770
 286.437116,  164.847823
 286.440109,  163.915842
 286.443102,  162.983855
 286.446095,  162.051868
 286.449088,  161.119880
 286.452081,  160.187893
 286.455074,  159.255905
 286.458067,  158.323918
 286.461060,  157.391931
 286.464053,  156.459943
 286.467045,  155.527956
 286.470038,  154.595452
 286.473031,  153.662848
 286.476025,  152.730243
 286.479018,  151.797638
 286.482011,  150.865034
 286.485004,  149.932429
 286.487997,  148.999825
 286.490990,  148.067220
 286.493983,  147.134616
 286.496976,  146.202011
 286.499969,  145.269890
 286.502962,  144.337863
 286.505955,  143.405837
 286.508948,  142.473810
 286.511941,  141.541783
 286.514934,  140.609756
 286.517927,  139.677729
 286.520921,  138.745703
 286.523914,  137.813676
 286.526907,  136.881649
 286.529900,  135.949285
 286.532893,  135.016855
 286.535886,  134.084424
 286.538880,  133.151994
 286.541873,  132.219564
 286.544866,  131.287134
 286.547859,  130.354704
 286.550852,  129.422274
 286.553845,  128.489844
 286.556839,  127.557414
 286.559832,  126.624995
 286.562825,  125.692578
 286.565818,  124.760161
 286.568812,  123.827745
 286.571805,  122.895328
 286.574798,  121.962911
 286.577792,  121.030494
 286.580785,  120.098078
 286.583778,  119.165661
 286.586771,  118.233244
 286.589765,  117.301134
 286.592758,  116.369084
 286.595751,  115.437034
 286.598745,  114.504984
 286.601738,  113.572934
 286.604731,  112.640884
 286.607725,  111.708834
 286.610718,  110.776784
 286.613712,  109.844733
 286.616705,  108.912683
 286.619698,  107.980141
 286.622692,  107.047502
 286.625685,  106.114864
 286.628679,  105.182225
 286.631672,  104.249587
 286.634666,  103.316948
 286.637659,  102.384309
 286.640652,  101.451671
 286.643646,  100.519032
 286.646639,   99.586394
 286.649633,   98.653638
 286.652626,   97.720859
 286.655620,   96.788080
 286.658614,   95.855301
 286.661607,   94.922522
 286.664601,   93.989743
 286.667594,   93.056964
 286.670588,   92.124185
 286.673581,   91.191406
 286.676575,   90.258628
 286.679569,   89.326866
 286.682562,   88.395302
 286.685556,   87.463739
 286.688549,   86.532175
 286.691543,   85.600611
 286.694537,   84.669048
 286.697530,   83.737484
 286.700524,   82.805921
 286.703518,   81.874357
 286.706511,   80.942793
 286.709505,   80.011843
 286.712499,   79.081012
 286.715492,   78.150180
 286.718486,   77.219349
 286.721480,   76.288518
 286.724473,   75.357687
 286.727467,   74.426856
 286.730461,   73.496025
 286.733454,   72.565194
 286.736448,   71.634363
 286.739442,   70.703962
 286.742435,   69.773645
 286.745429,   68.843328
 286.748423,   67.913011
 286.751417,   66.982694
 286.754410,   66.052377
 286.757404,   65.122061
 286.760398,   64.191744
 286.763391,   63.261427
 286.766385,   62.331110
 286.769379,   61.400343
 286.772373,   60.469489
 286.775366,   59.538635
 286.778360,   58.607781
 286.781354,   57.676927
 286.784348,   56.746073
 286.787341,   55.815219
 286.790335,   54.884365
 286.793329,   53.953511
 286.796323,   53.022656
 286.799317,   52.091574
 286.802310,   51.160447
 286.805304,   50.229320
 286.806042,   50.000000
 286.809035,   49.069012
 286.812029,   48.138025
 286.815023,   47.207037
 286.818017,   46.276050
 286.821011,   45.345062
 286.824005,   44.414075
 286.826996,   43.483689
 286.829966,   42.559941
 286.832935,   41.636194
 286.835905,   40.712446
 286.838874,   39.788698
 286.841844,   38.864950
 286.844813,   37.941202
 286.847783,   37.017455
 286.850752,   36.093707
 286.853721,   35.169959
 286.856687,   34.247499
 286.859607,   33.339230
 286.862527,   32.430962
 286.865448,   31.522693
 286.868368,   30.614425
 286.871288,   29.706156
 286.874208,   28.797888
 286.877128,   27.889619
 286.880049,   26.981351
 286.882969,   26.073082
 286.885886,   25.165938
 286.888767,   24.271190
 286.891647,   23.376443
 286.894528,   22.481696
 286.897409,   21.586948
 286.900289,   20.692201
 286.902518,   20.000000
 286.905373,   19.115197
 286.908229,   18.230395
 286.911084,   17.345592
 286.913940,   16.460790
 286.916750,   15.705490
 286.919554,   14.968728
 286.922359,   14.231966
 286.925163,   13.495204
 286.927967,   12.758442
 286.930771,   12.021680
 286.933575,   11.284918
 286.936379,   10.548156
 286.939184,    9.811394
 286.941988,    9.074632
 286.944698,    8.589107
 286.947395,    8.139546
 286.950091,    7.689985
 286.952788,    7.240423
 286.955485,    6.790862
 286.958182,    6.341301
 286.960878,    5.891739
 286.963575,    5.442178
 286.966272,    4.992617
 286.968969,    4.543056
 286.971538,    4.311336
 286.974088,    4.110798
 286.976639,    3.910261
 286.979190,    3.709724
 286.981740,    3.509187
 286.984291,    3.308650
 286.986842,    3.108113
 286.989393,    2.907576
 286.991943,    2.707039
 286.994494,    2.506502
 286.996956,    2.368230
 286.999404,    2.238871
 287.000796,    2.165354
 287.003165,    2.050053
 287.005534,    1.934752
 287.007904,    1.819451
 287.010273,    1.704150
 287.012642,    1.588848
 287.015011,    1.473547
 287.017380,    1.358246
 287.019699,    1.294035
 287.021955,    1.294035
 287.024210,    1.294035
 287.026466,    1.294035
 287.028721,    1.294035
 287.030977,    1.294035
 287.033233,    1.294035
 287.035488,    1.294035
 287.037744,    1.294035
 287.039999,    1.294035
 287.042196,    1.294035
 287.044318,    1.294035
 287.046440,    1.294035
 287.048562,    1.294035
 287.050684,    1.294035
 287.052806,    1.294035
 287.054928,    1.294035
 287.057051,    1.294035
 287.059055,    1.294035
 287.061009,    1.294035
 287.062964,    1.294035
 287.064918,    1.294035
 287.066873,    1.294035
 287.068828,    1.294035
 287.070782,    1.294035
 287.072613,    1.294035
 287.074376,    1.294035
 287.076138,    1.294035
 287.077901,    1.294035
 287.079663,    1.294035
 287.081425,    1.294035
 287.083188,    1.294035
 287.084950,    1.294035
 287.086713,    1.294035
 287.088475,    1.294035
 287.090094,    1.294035
 287.091634,    1.294035
 287.093173,    1.294035
 287.094713,    1.294035
 287.096252,    1.294035
 287.097792,    1.294035
 287.099331,    1.294035
 287.100871,    1.294035
 287.102410,    1.294035
 287.103950,    1.294035
 287.105348,    1.294035
 287.106668,    1.294035
 287.107988,    1.294035
 287.109307,    1.294035
 287.110627,    1.294035
 287.111947,    1.294035
 287.113266,    1.294035
 287.114586,    1.294035
 287.115906,    1.294035
 287.117225,    1.294035
 287.118404,    1.294035
 287.119504,    1.294035
 287.120605,    1.294035
 287.121705,    1.294035
 287.122805,    1.294035
 287.123906,    1.294035
 287.125006,    1.294035
 287.126106,    1.294035
 287.127207,    1.294035
 287.128307,    1.294035
 287.129267,    1.294035
 287.130148,    1.294035
 287.131029,    1.294035
 287.131910,    1.294035
 287.132791,    1.294035
 287.133672,    1.294035
 287.134553,    1.294035
 287.135435,    1.294035
 287.136316,    1.294035
 287.137197,    1.294035
 287.137938,    1.294035
 287.138601,    1.294035
 287.139264,    1.294035
 287.139928,    1.294035
 287.140591,    1.294035
 287.141254,    1.294035
 287.141917,    1.294035
 287.142580,    1.294035
 287.143244,    1.294035
 287.143907,    1.294035
 287.144432,    1.294035
 287.144880,    1.294035
 287.145327,    1.294035
 287.145775,    1.294035
 287.146223,    1.294035
 287.146671,    1.294035
 287.147118,    1.294035
 287.147566,    1.294035
 287.148014,    1.294035
 287.148462,    1.294035
 287.148774,    1.294035
 287.149010,    1.294035
 287.149246,    1.294035
 287.149482,    1.294035
 287.149718,    1.294035
 287.149954,    1.294035
 287.150190,    1.294035
 287.150426,    1.294035
 287.150662,    1.294035
 287.150898,    1.294035
 287.151024,    1.294035
 287.151090,    1.294035
 287.151155,    1.294035
 287.151220,    1.294035
 287.151286,    1.294035
 287.151351,    1.294035
 287.151402,    1.294035
