Time, Vertical Forces
   0.000100,    0.000001
   0.000584,    0.000026
   0.002073,    0.000323
   0.007621,    0.004369
   0.022321,    0.037466
   0.049722,    0.185868
   0.081356,    0.497452
   0.113166,    0.962219
   0.145277,    1.585274
   0.177393,    2.362938
   0.209532,    3.295683
   0.241854,    4.389521
   0.274280,    5.643745
   0.306882,    7.062961
   0.339730,    8.653196
   0.372575,   10.403992
   0.405964,   12.348361
   0.439430,   14.463595
   0.472825,   16.740185
   0.506325,   19.190193
   0.540098,   21.828625
   0.574229,   24.666633
   0.609346,   27.766586
   0.644354,   31.038418
   0.679669,   34.522235
   0.715179,   38.210848
   0.750675,   42.083745
   0.785860,   46.105808
   0.821893,   50.413379
   0.857909,   54.909664
   0.894515,   59.674697
   0.931043,   64.625314
   0.968537,   69.910224
   1.005886,   75.378992
   1.044333,   81.221540
   1.082764,   87.277289
   1.121413,   93.584656
   1.161278,  100.318277
   1.200983,  107.254831
   1.241003,  114.478059
   1.281467,  122.017805
   1.322069,  129.821737
   1.362716,  137.873520
   1.404287,  146.355524
   1.445182,  154.943019
   1.487010,  163.975978
   1.528752,  173.241664
   1.571489,  182.988164
   1.614202,  192.991374
   1.657967,  203.512531
   1.701698,  214.299793
   1.745542,  225.389986
   1.789414,  236.762140
   1.834346,  248.694052
   1.879129,  260.872854
   1.924414,  273.478427
   1.970399,  286.577522
   2.017542,  300.318132
   2.064104,  314.198724
   2.111435,  328.623168
   2.158594,  343.310464
   2.206390,  358.516591
   2.254473,  374.139306
   2.302484,  390.063133
   2.351116,  406.523324
   2.399608,  423.266706
   2.448748,  440.570451
   2.498052,  458.271392
   2.547871,  476.502422
   2.598380,  495.339552
   2.649071,  514.601860
   2.700299,  534.431552
   2.750985,  554.410169
   2.802877,  575.233643
   2.854696,  596.399673
   2.907415,  618.313966
   2.959664,  640.411793
   3.012867,  663.299535
   3.066210,  686.638597
   3.119630,  710.402933
   3.173988,  734.986206
   3.227889,  759.762221
   3.282497,  785.268097
   3.336984,  811.123150
   3.392637,  837.948816
   3.447887,  864.996753
   3.503542,  892.661572
   3.559556,  920.928980
   3.616151,  949.920620
   3.672641,  979.289627
   3.729920, 1009.508165
   3.787722, 1040.450024
   3.845655, 1071.912034
   3.903844, 1103.966380
   3.962158, 1136.543384
   4.020726, 1169.719730
   4.079826, 1203.660988
   4.138894, 1238.048654
   4.198709, 1273.342884
   4.259339, 1309.602300
   4.261732, 1311.043184
   4.263376, 1312.033627
   4.264846, 1312.919681
   4.266029, 1313.632837
   4.267395, 1314.456223
   4.268425, 1315.077943
   4.268643, 1315.209565
   4.268936, 1315.385778
   4.268999, 1315.424049
   4.269101, 1315.485717
   4.269134, 1315.505754
   4.269141, 1315.509802
   4.269155, 1315.518344
   4.269297, 1315.603769
   4.270417, 1316.279978
   4.275457, 1319.323141
   4.292645, 1329.727144
   4.335010, 1355.534466
   4.388526, 1388.469343
   4.442973, 1422.358185
   4.497748, 1456.839098
   4.552408, 1491.634128
   4.607470, 1527.074895
   4.663114, 1563.286237
   4.718737, 1599.881785
   4.774412, 1636.907567
   4.830740, 1674.771157
   4.887156, 1713.099559
   4.943781, 1751.976303
   5.000516, 1791.337106
   5.057691, 1831.415271
   5.115276, 1872.197767
   5.172681, 1913.269252
   5.230246, 1954.870743
   5.287799, 1996.878567
   5.346022, 2039.796321
   5.404634, 2083.428594
   5.463307, 2127.535018
   5.522280, 2172.296151
   5.581576, 2217.737610
   5.641038, 2263.741659
   5.701063, 2310.623300
   5.760788, 2357.710528
   5.820606, 2405.308360
   5.881098, 2453.887847
   5.941476, 2502.819979
   6.002515, 2552.738761
   6.063594, 2603.142851
   6.124919, 2654.203815
   6.186398, 2705.847952
   6.247619, 2757.727260
   6.309897, 2810.963847
   6.372032, 2864.541451
   6.434853, 2919.178062
   6.497487, 2974.119682
   6.560135, 3029.539605
   6.623474, 3086.043618
   6.686793, 3143.002067
   6.750442, 3200.734038
   6.814215, 3259.054046
   6.877942, 3317.809000
   6.942629, 3377.932573
   7.007074, 3438.315709
   7.071978, 3499.617125
   7.136997, 3561.514421
   7.202150, 3624.029105
   7.267139, 3686.872990
   7.332824, 3750.882257
   7.398377, 3815.255656
   7.464226, 3880.411829
   7.530701, 3946.687894
   7.597320, 4013.610181
   7.664215, 4081.314650
   7.731196, 4149.611938
   7.798631, 4218.880807
   7.865891, 4288.476187
   7.933280, 4358.712560
   8.000869, 4429.664875
   8.068602, 4501.277167
   8.137049, 4574.160681
   8.205340, 4647.391990
   8.274102, 4721.646859
   8.343123, 4796.702102
   8.412167, 4872.303605
   8.481110, 4948.312522
   8.550446, 5025.273840
   8.620046, 5103.052841
   8.690094, 5181.859154
   8.760025, 5261.060692
   8.760583, 5261.695261
   8.760711, 5261.840619
   8.760765, 5261.901185
   8.760871, 5262.022316
   8.760883, 5262.036260
   8.760890, 5262.044073
   8.760901, 5262.055903
   8.761005, 5262.174206
   8.762046, 5263.357295
   8.768146, 5270.291642
   8.788762, 5293.757912
   8.838617, 5350.684271
   8.901477, 5422.823561
   8.964032, 5495.013073
   9.027050, 5568.140432
   9.089980, 5641.567080
   9.153001, 5715.500613
   9.216338, 5790.207834
   9.280075, 5865.793649
   9.343747, 5941.706334
   9.407314, 6017.897071
   9.471508, 6095.245500
   9.535590, 6172.863272
   9.599870, 6251.128509
   9.664424, 6330.132808
   9.729177, 6409.789828
   9.793985, 6489.922338
   9.858985, 6570.700463
   9.924385, 6652.386160
   9.989800, 6734.501591
  10.055364, 6817.214091
  10.121031, 6900.467538
  10.186767, 6984.216630
  10.253013, 7069.028962
  10.319102, 7154.051876
  10.385218, 7239.517922
  10.451713, 7325.886274
  10.518584, 7413.155497
  10.585689, 7501.146398
  10.652664, 7589.380483
  10.719871, 7678.334153
  10.786986, 7767.575799
  10.854623, 7857.927013
  10.922088, 7948.460910
  10.989977, 8039.978120
  11.057713, 8131.700430
  11.125725, 8224.208793
  11.193926, 8317.387553
  11.262169, 8411.036640
  11.330929, 8505.810378
  11.399607, 8600.884326
  11.468377, 8696.499686
  11.537439, 8792.934770
  11.606572, 8889.882232
  11.675659, 8987.176367
  11.745265, 9085.616944
  11.814940, 9184.568059
  11.884953, 9284.416271
  11.954992, 9384.717218
  12.025201, 9485.674159
  12.095311, 9586.902625
  12.165734, 9688.996524
  12.236348, 9791.779948
  12.307019, 9895.060685
  12.377985, 9999.185064
  12.449122, 10103.973880
  12.520551, 10209.609125
  12.591971, 10315.643341
  12.663224, 10421.841514
  12.734765, 10528.878880
  12.806686, 10636.896101
  12.878724, 10745.503573
  12.951162, 10855.125969
  13.023347, 10964.778443
  13.095648, 11075.016939
  13.168206, 11186.055558
  13.240875, 11297.675543
  13.313840, 11410.159674
  13.386788, 11523.026418
  13.460238, 11637.080574
  13.533769, 11751.671357
  13.548545, 11774.747636
  13.558164, 11789.780257
  13.565430, 11801.138511
  13.571280, 11810.286957
  13.576999, 11819.233192
  13.582791, 11828.295791
  13.587035, 11834.937903
  13.587790, 11836.119037
  13.588741, 11837.607641
  13.589851, 11839.345240
  13.589913, 11839.442916
  13.589951, 11839.501585
  13.589978, 11839.544705
  13.590001, 11839.579603
  13.590008, 11839.590865
  13.590015, 11839.602350
  13.590088, 11839.717209
  13.590718, 11840.703398
  13.594722, 11846.971706
  13.609897, 11870.740061
  13.661568, 11951.786708
  13.725456, 12052.242296
  13.789945, 12153.919675
  13.854426, 12255.857637
  13.919196, 12358.528095
  13.983766, 12461.154164
  14.048667, 12564.578271
  14.113674, 12668.444800
  14.178717, 12772.637675
  14.243987, 12877.465994
  14.309339, 12982.694266
  14.374654, 13088.132337
  14.440255, 13194.298607
  14.505934, 13300.859557
  14.571876, 13408.113670
  14.637860, 13515.700612
  14.703855, 13623.572490
  14.769972, 13731.906109
  14.836330, 13840.897957
  14.902604, 13950.012228
  14.969066, 14059.698133
  15.035784, 14170.067683
  15.102643, 14280.929132
  15.169427, 14391.925710
  15.236500, 14503.659140
  15.303596, 14615.689090
  15.370850, 14728.239236
  15.438251, 14841.289474
  15.505609, 14954.521072
  15.573112, 15068.250407
  15.640913, 15182.733682
  15.708836, 15297.673852
  15.776790, 15412.919545
  15.844768, 15528.453058
  15.912918, 15644.527039
  15.981328, 15761.291327
  16.049689, 15878.219527
  16.118299, 15995.817777
  16.187145, 16114.067292
  16.256094, 16232.739186
  16.324967, 16351.520559
  16.394038, 16470.887069
  16.463189, 16590.631807
  16.532509, 16710.909365
  16.602093, 16831.882678
  16.671547, 16952.868212
  16.741036, 17074.150653
  16.810682, 17195.941486
  16.880394, 17318.080660
  16.950334, 17440.853310
  17.020257, 17563.826023
  17.090429, 17687.466373
  17.160952, 17811.956330
  17.231269, 17936.309748
  17.301920, 18061.482270
  17.372595, 18186.923404
  17.443469, 18312.944714
  17.514489, 18439.449196
  17.585532, 18566.216466
  17.656536, 18693.136335
  17.727801, 18820.743344
  17.799501, 18949.349745
  17.870856, 19077.555421
  17.942631, 19206.732339
  18.014268, 19335.876730
  18.086135, 19465.649277
  18.158237, 19596.060343
  18.230292, 19726.599417
  18.302423, 19857.486058
  18.374675, 19988.801514
  18.447159, 20120.746700
  18.519768, 20253.126293
  18.592329, 20385.625276
  18.665294, 20519.066174
  18.738072, 20652.367028
  18.811104, 20786.336056
  18.884234, 20920.686122
  18.898885, 20947.625057
  18.949814, 21041.334270
  18.952736, 21046.713023
  18.953239, 21047.639319
  18.953452, 21048.032453
  18.953508, 21048.134793
  18.953541, 21048.195826
  18.953579, 21048.265274
  18.953956, 21048.959757
  18.956648, 21053.915137
  18.974442, 21086.683910
  19.052213, 21230.032038
  19.125225, 21364.808256
  19.198472, 21500.207955
  19.271808, 21635.960039
  19.345310, 21772.209316
  19.418896, 21908.799314
  19.492550, 22045.699950
  19.566208, 22182.793216
  19.640256, 22320.792768
  19.714222, 22458.821881
  19.788416, 22597.456788
  19.862617, 22736.281981
  19.936878, 22875.395750
  20.011333, 23015.049020
  20.086035, 23155.339507
  20.160678, 23295.691578
  20.235439, 23436.437238
  20.310249, 23577.442763
  20.385193, 23718.871899
  20.460414, 23860.988791
  20.535681, 24003.357916
  20.611020, 24146.027724
  20.686603, 24289.323322
  20.762273, 24432.944190
  20.838004, 24576.840576
  20.913812, 24721.043443
  20.989552, 24865.272039
  21.065520, 25010.088423
  21.141666, 25155.399067
  21.217863, 25300.959341
  21.294062, 25446.675104
  21.370428, 25592.857696
  21.447001, 25739.583406
  21.523602, 25886.510449
  21.600422, 26034.000902
  21.677465, 26182.065034
  21.754504, 26330.261405
  21.831640, 26478.786658
  21.908849, 26627.589692
  21.986223, 26776.849804
  22.063752, 26926.542851
  22.141408, 27076.617772
  22.219220, 27227.125569
  22.296996, 27377.695636
  22.374981, 27528.799241
  22.452979, 27680.055179
  22.531031, 27831.545215
  22.609294, 27983.567926
  22.687637, 28135.869031
  22.766179, 28288.678713
  22.844803, 28441.768397
  22.923621, 28595.355795
  23.002508, 28749.193582
  23.043817, 28829.796692
  23.081417, 28903.191068
  23.160468, 29338.987269
  23.239533, 30087.141956
  23.318947, 30836.921571
  23.398465, 31590.306165
  23.478213, 32345.680416
  23.557896, 33103.318702
  23.637608, 33861.212652
  23.717738, 34620.880004
  23.798066, 35384.642580
  23.878346, 36150.274982
  23.958845, 36916.591815
  24.039417, 37685.135594
  24.119967, 38454.554593
  24.200732, 39224.709256
  24.281554, 39996.880925
  24.362343, 40769.670077
  24.443226, 41542.688759
  24.524295, 42317.038595
  24.605270, 43092.592386
  24.686181, 43867.440381
  24.767184, 44642.136452
  24.848154, 45417.369887
  24.929227, 46192.631547
  25.010132, 46968.050969
  25.091006, 47742.125149
  25.094248, 48291.393506
  25.098612, 48325.446618
  25.102907, 48366.722873
  25.104037, 48398.382034
  25.105470, 48409.995992
  25.105811, 48420.454156
  25.106320, 48424.178463
  25.106356, 48427.643461
  25.106370, 48427.921108
  25.106385, 48428.061017
  25.106535, 48428.594512
  25.108035, 48433.929570
  25.116815, 48469.267436
  25.151641, 48628.270782
  25.235294, 49102.338646
  25.319622, 49904.395795
  25.325225, 50476.228315
  25.330817, 50529.182440
  25.336429, 50582.112016
  25.342040, 50635.162993
  25.347658, 50688.212062
  25.353275, 50741.299128
  25.358887, 50794.352418
  25.364516, 50847.407112
  25.370148, 50900.577144
  25.375783, 50953.757908
  25.381398, 51006.884575
  25.387014, 51059.878721
  25.392660, 51112.957228
  25.398300, 51166.194004
  25.403950, 51219.415224
  25.409594, 51272.667518
  25.415226, 51325.829244
  25.420890, 51378.999973
  25.426562, 51432.383199
  25.432232, 51485.803403
  25.437852, 51539.050116
  25.443492, 51592.018946
  25.449164, 51645.193873
  25.454857, 51698.623072
  25.460496, 51752.011192
  25.466160, 51805.116813
  25.471835, 51858.403150
  25.477505, 51911.727861
  25.483206, 51965.094898
  25.488889, 52018.593376
  25.494598, 52072.037942
  25.500318, 52125.671103
  25.506039, 52179.357989
  25.511774, 52233.078285
  25.517521, 52286.910440
  25.523267, 52340.799513
  25.528998, 52394.619320
  25.534747, 52448.376848
  25.540508, 52502.274051
  25.546274, 52556.248070
  25.552026, 52610.188450
  25.557806, 52664.105114
  25.563553, 52718.092021
  25.569312, 52771.886301
  25.575086, 52825.777949
  25.580889, 52879.834561
  25.586681, 52934.028424
  25.592480, 52988.149836
  25.598266, 53042.265167
  25.604073, 53096.335410
  25.609837, 53150.395966
  25.615624, 53204.228110
  25.621439, 53258.274212
  25.627271, 53312.532766
  25.633096, 53366.857252
  25.638939, 53421.164981
  25.644755, 53475.487962
  25.650622, 53529.773703
  25.656481, 53584.336113
  25.662363, 53638.900236
  25.668245, 53693.584715
  25.674133, 53748.263845
  25.680025, 53802.976169
  25.685907, 53820.089149
  25.691831, 53837.308127
  25.697701, 53854.357921
  25.703601, 53871.480781
  25.709514, 53888.627681
  25.715420, 53905.737869
  25.721365, 53922.947208
  25.727302, 53940.118543
  25.733187, 53957.127991
  25.739144, 53974.326268
  25.745107, 53991.529930
  25.751044, 54008.642613
  25.757011, 54025.827915
  25.762978, 54042.997370
  25.768945, 54060.154206
  25.774885, 54077.216840
  25.780880, 54094.420885
  25.786861, 54111.571216
  25.792864, 54128.766473
  25.798835, 54145.859100
  25.804858, 54163.082165
  25.810888, 54180.309964
  25.816906, 54197.489823
  25.822929, 54214.666956
  25.828968, 54231.873248
  25.834989, 54249.011805
  25.841013, 54266.147050
  25.847064, 54283.338272
  25.853127, 54300.550515
  25.859167, 54317.681469
  25.865227, 54334.852412
  25.871316, 54352.090627
  25.877401, 54369.299240
  25.883508, 54386.554101
  25.889585, 54403.706681
  25.895695, 54420.938433
  25.901805, 54438.150615
  25.907923, 54455.369679
  25.914048, 54472.592847
  25.920163, 54489.772256
  25.926284, 54506.947589
  25.932431, 54524.181327
  25.938592, 54541.438395
  25.944772, 54558.730137
  25.950932, 54575.948018
  25.957106, 54593.188223
  25.963299, 54610.462234
  25.969503, 54627.751598
  25.975729, 54645.084858
  25.981943, 54662.365895
  25.988168, 54679.658425
  25.994396, 54696.942788
  26.000630, 54714.227400
  26.006863, 54731.487191
  26.013097, 54748.733888
  26.019355, 54766.029813
  26.025623, 54783.334314
  26.031890, 54800.618595
  26.038148, 54817.857224
  26.044451, 54835.203297
  26.050760, 54852.544016
  26.057072, 54869.878135
  26.063347, 54887.089690
  26.069610, 54904.250399
  26.075948, 54921.595082
  26.082289, 54938.930848
  26.088618, 54956.216095
  26.094965, 54973.528736
  26.101346, 54990.917283
  26.107735, 55008.304013
  26.114114, 55025.647608
  26.120491, 55042.963624
  26.126880, 55060.293967
  26.133298, 55077.683507
  26.139711, 55095.037390
  26.146141, 55112.416796
  26.152582, 55129.808388
  26.159013, 55147.151617
  26.165490, 55164.597517
  26.171947, 55181.968699
  26.178412, 55199.340181
  26.180025, 55203.672411
  26.184885, 55216.713895
  26.191388, 55234.146897
  26.197895, 55251.569019
  26.204379, 55268.908654
  26.210889, 55286.297549
  26.217389, 55303.638325
  26.223919, 55321.038948
  26.230461, 55338.447602
  26.237031, 55355.910100
  26.243594, 55373.330291
  26.250218, 55390.894205
  26.256791, 55408.298923
  26.263397, 55425.766930
  26.270007, 55443.225678
  26.276629, 55460.692734
  26.283241, 55478.112064
  26.289898, 55495.624924
  26.296484, 55512.930709
  26.303158, 55530.445863
  26.309793, 55547.833032
  26.316470, 55565.308123
  26.323132, 55582.723311
  26.329856, 55600.274523
  26.336585, 55617.814455
  26.343310, 55635.323390
  26.350051, 55652.847092
  26.356796, 55670.360025
  26.363586, 55687.963939
  26.370389, 55705.579389
  26.377168, 55723.106328
  26.383948, 55740.612097
  26.390780, 55758.227577
  26.397554, 55775.668061
  26.404379, 55793.215508
  26.411203, 55810.737073
  26.418064, 55828.325556
  26.424917, 55845.872019
  26.431807, 55863.483818
  26.438671, 55881.005905
  26.445554, 55898.551612
  26.452483, 55916.188495
  26.459403, 55933.777489
  26.466321, 55951.333309
  26.473273, 55968.950269
  26.480202, 55986.482161
  26.487145, 56004.022491
  26.494091, 56021.545337
  26.501087, 56039.167303
  26.508107, 56056.823322
  26.515100, 56074.384146
  26.522117, 56091.978025
  26.529161, 56109.610847
  26.536241, 56127.308792
  26.543285, 56144.887559
  26.550363, 56162.522740
  26.557440, 56180.128072
  26.564539, 56197.761892
  26.571629, 56215.343786
  26.578778, 56233.041403
  26.585902, 56250.652347
  26.593034, 56268.251439
  26.600228, 56285.977243
  26.607371, 56303.545067
  26.614571, 56321.226423
  26.621782, 56338.903686
  26.629012, 56356.599510
  26.636242, 56374.264860
  26.643470, 56391.895044
  26.650699, 56409.498585
  26.657945, 56427.113149
  26.665209, 56444.741425
  26.672534, 56462.486540
  26.679829, 56480.128836
  26.687193, 56497.908634
  26.694513, 56515.548679
  26.701868, 56533.240867
  26.709213, 56550.879871
  26.716606, 56568.600591
  26.724011, 56586.320541
  26.731374, 56603.905483
  26.738741, 56621.471665
  26.746146, 56639.094234
  26.753521, 56656.613345
  26.761011, 56674.373382
  26.768457, 56691.995915
  26.775938, 56709.667486
  26.783423, 56727.316380
  26.790973, 56745.085002
  26.798551, 56762.884899
  26.806111, 56780.609830
  26.813602, 56798.138262
  26.821185, 56815.848813
  26.828760, 56833.503924
  26.836375, 56851.218958
  26.843943, 56868.791944
  26.851535, 56886.384204
  26.859210, 56904.132379
  26.866804, 56921.660324
  26.874496, 56939.379005
  26.882158, 56956.992341
  26.889852, 56974.642986
  26.897593, 56992.365414
  26.905318, 57010.012931
  26.913087, 57027.726792
  26.920878, 57045.453218
  26.928651, 57063.101522
  26.936454, 57080.778472
  26.944286, 57098.487478
  26.952135, 57116.193115
  26.959984, 57133.862879
  26.967846, 57151.524283
  26.975723, 57169.179042
  26.983567, 57186.722371
  26.991438, 57204.289037
  26.999291, 57221.775660
  27.007248, 57239.453661
  27.015178, 57257.033566
  27.023099, 57274.554563
  27.031078, 57292.162511
  27.038996, 57309.598627
  27.046965, 57327.104706
  27.054961, 57344.631986
  27.062975, 57362.156762
  27.071026, 57379.721710
  27.079033, 57397.150335
  27.087064, 57414.590464
  27.095102, 57432.003275
  27.103206, 57449.518260
  27.111317, 57467.007179
  27.119431, 57484.460546
  27.127629, 57502.050818
  27.135818, 57519.579186
  27.143996, 57537.040460
  27.152183, 57554.479503
  27.160355, 57571.842417
  27.168575, 57589.262350
  27.176813, 57606.677922
  27.185085, 57624.121459
  27.193355, 57641.516376
  27.201634, 57658.883877
  27.209942, 57676.269023
  27.218253, 57693.615771
  27.226590, 57710.971657
  27.235029, 57728.492334
  27.243381, 57745.786932
  27.251777, 57763.125188
  27.260152, 57780.375924
  27.268561, 57797.648470
  27.276955, 57814.844193
  27.285439, 57832.176869
  27.293878, 57849.371308
  27.302391, 57866.667402
  27.310884, 57883.876455
  27.319361, 57901.002532
  27.327940, 57918.289143
  27.336492, 57935.470474
  27.345099, 57952.712387
  27.353614, 57969.723368
  27.362129, 57986.684369
  27.370682, 58003.670822
  27.379220, 58020.579944
  27.387895, 58037.710325
  27.396563, 58054.775892
  27.405196, 58071.721062
  27.413797, 58088.554937
  27.422488, 58105.512627
  27.431256, 58122.569409
  27.440001, 58139.527839
  27.448743, 58156.430667
  27.457478, 58173.265469
  27.466253, 58190.127121
  27.475057, 58206.990843
  27.483782, 58223.649586
  27.492570, 58240.377950
  27.501372, 58257.078295
  27.510258, 58273.884579
  27.519089, 58290.531143
  27.527941, 58307.164749
  27.536880, 58323.907083
  27.545747, 58340.459313
  27.554668, 58357.057093
  27.563571, 58373.567155
  27.572536, 58390.135583
  27.581514, 58406.673078
  27.590483, 58423.137296
  27.599507, 58439.645010
  27.608491, 58456.023023
  27.617502, 58472.394531
  27.626519, 58488.718125
  27.635518, 58504.954269
  27.644580, 58521.244858
  27.653600, 58537.402397
  27.662711, 58553.665848
  27.671892, 58569.994763
  27.681023, 58586.175052
  27.690159, 58602.305845
  27.699339, 58618.454247
  27.708497, 58634.503039
  27.717663, 58650.507329
  27.726860, 58666.504757
  27.736052, 58682.434318
  27.745269, 58698.346674
  27.754387, 58714.027405
  27.763591, 58729.795351
  27.772876, 58745.642371
  27.782074, 58761.278112
  27.791399, 58777.067987
  27.800760, 58792.856127
  27.810062, 58808.481291
  27.819400, 58824.104404
  27.828729, 58839.650813
  27.838074, 58855.159332
  27.847481, 58870.706318
  27.856860, 58886.144678
  27.866309, 58901.633173
  27.875638, 58916.860976
  27.885053, 58932.163615
  27.894537, 58947.514723
  27.903958, 58962.698612
  27.913407, 58977.861751
  27.922906, 58993.039388
  27.932390, 59008.127641
  27.941895, 59023.182142
  27.951424, 59038.208051
  27.960984, 59053.216712
  27.970484, 59068.063945
  27.980021, 59082.901243
  27.989542, 59097.647364
  27.999086, 59112.362258
  28.008690, 59127.100252
  28.018275, 59141.742238
  28.027923, 59156.410605
  28.037539, 59170.961967
  28.047168, 59185.465339
  28.056806, 59199.911539
  28.066518, 59214.399082
  28.076220, 59228.800846
  28.085971, 59243.204288
  28.095740, 59257.564130
  28.105490, 59271.824633
  28.115314, 59286.119812
  28.125190, 59300.419629
  28.135081, 59314.666969
  28.144863, 59328.684744
  28.154633, 59342.612279
  28.164593, 59356.737616
  28.174448, 59370.641329
  28.184265, 59384.417513
  28.194118, 59398.170424
  28.203925, 59411.786022
  28.213753, 59425.359193
  28.223727, 59439.057789
  28.233613, 59452.561276
  28.243549, 59466.057905
  28.253399, 59479.362977
  28.263410, 59492.811793
  28.273428, 59506.191251
  28.283385, 59519.414428
  28.293289, 59532.491579
  28.303199, 59545.502043
  28.313231, 59558.596627
  28.323188, 59571.515419
  28.333258, 59584.504409
  28.343279, 59597.353378
  28.353361, 59610.201742
  28.363443, 59622.973061
  28.373436, 59635.553386
  28.383415, 59648.038426
  28.393536, 59660.623971
  28.403627, 59673.093890
  28.413807, 59685.592288
  28.423864, 59697.862826
  28.434079, 59710.244610
  28.444164, 59722.389154
  28.454354, 59734.581198
  28.464509, 59746.650589
  28.474587, 59758.549303
  28.484765, 59770.486015
  28.494900, 59782.291624
  28.505124, 59794.120654
  28.515254, 59805.759937
  28.525426, 59817.365901
  28.535606, 59828.901572
  28.545869, 59840.449037
  28.556096, 59851.873598
  28.566378, 59863.276897
  28.576603, 59874.535349
  28.586965, 59885.861093
  28.597164, 59896.926000
  28.607353, 59907.898531
  28.617611, 59918.862603
  28.627979, 59929.860331
  28.638356, 59940.782999
  28.648581, 59951.462953
  28.658917, 59962.173875
  28.669356, 59972.906983
  28.679713, 59983.470780
  28.690122, 59994.001925
  28.700483, 60004.398819
  28.710796, 60014.664257
  28.721247, 60024.980277
  28.731646, 60035.159698
  28.742088, 60045.294448
  28.752553, 60055.364799
  28.763052, 60065.380926
  28.773588, 60075.343526
  28.784053, 60085.152305
  28.794629, 60094.976212
  28.805058, 60104.575660
  28.815529, 60114.128056
  28.826004, 60123.595217
  28.836472, 60132.969173
  28.847023, 60142.329552
  28.857534, 60151.565431
  28.868039, 60160.708107
  28.870581, 60162.907146
