Time, Vertical Forces
   0.000100,    0.000000
   0.000584,    0.000000
   0.002073,    0.000000
   0.007621,    0.000000
   0.022321,    0.000000
   0.049722,    0.000000
   0.081356,    0.000000
   0.113166,    0.000000
   0.145277,    0.000000
   0.177393,    0.000000
   0.209532,    0.000000
   0.241854,    0.000000
   0.274280,    0.000000
   0.306882,    0.000000
   0.339730,    0.000000
   0.372575,    0.000000
   0.405964,    0.000000
   0.439430,    0.000000
   0.472825,    0.000000
   0.506325,    0.000000
   0.540098,    0.000000
   0.574229,    0.000000
   0.609346,    0.000000
   0.644354,    0.000000
   0.679669,    0.000000
   0.715179,    0.000000
   0.750675,    0.000000
   0.785860,    0.000000
   0.821893,    0.000000
   0.857909,    0.000000
   0.894515,    0.000000
   0.931043,    0.000000
   0.968537,    0.000000
   1.005886,    0.000000
   1.044333,    0.000000
   1.082764,    0.000000
   1.121413,    0.000000
   1.161278,    0.000000
   1.200983,    0.000000
   1.241003,    0.000000
   1.281467,    0.000000
   1.322069,    0.000000
   1.362716,    0.000000
   1.404287,    0.000000
   1.445182,    0.000000
   1.487010,    0.000000
   1.528752,    0.000000
   1.571489,    0.000000
   1.614202,    0.000000
   1.657967,    0.000000
   1.701698,    0.000000
   1.745542,    0.000000
   1.789414,    0.000000
   1.834346,    0.000000
   1.879129,    0.000000
   1.924414,    0.000000
   1.970399,    0.000000
   2.017542,    0.000000
   2.064104,    0.000000
   2.111435,    0.000000
   2.158594,    0.000000
   2.206390,    0.000000
   2.254473,    0.000000
   2.302484,    0.000000
   2.351116,    0.000000
   2.399608,    0.000000
   2.448748,    0.000000
   2.498052,    0.000000
   2.547871,    0.000000
   2.598380,    0.000000
   2.649071,    0.000000
   2.700299,    0.000000
   2.750985,    0.000000
   2.802877,    0.000000
   2.854696,    0.000000
   2.907415,    0.000000
   2.959664,    0.000000
   3.012867,    0.000000
   3.066210,    0.000000
   3.119630,    0.000000
   3.173988,    0.000000
   3.227889,    0.000000
   3.282497,    0.000000
   3.336984,    0.000000
   3.392637,    0.000000
   3.447887,    0.000000
   3.503542,    0.000000
   3.559556,    0.000000
   3.616151,    0.000000
   3.672641,    0.000000
   3.729920,    0.000000
   3.787722,    0.000000
   3.845655,    0.000000
   3.903844,    0.000000
   3.962158,    0.000000
   4.020726,    0.000000
   4.079826,    0.000000
   4.138894,    0.000000
   4.198709,    0.000000
   4.259339,    0.000000
   4.261732,    0.000000
   4.263376,    0.000000
   4.264846,    0.000000
   4.266029,    0.000000
   4.267395,    0.000000
   4.268425,    0.000000
   4.268643,    0.000000
   4.268936,    0.000000
   4.268999,    0.000000
   4.269101,    0.000000
   4.269134,    0.000000
   4.269141,    0.000000
   4.269155,    0.000000
   4.269297,    0.000000
   4.270417,    0.000000
   4.275457,    0.000000
   4.292645,    0.000000
   4.335010,    0.000000
   4.388526,    0.000000
   4.442973,    0.000000
   4.497748,    0.000000
   4.552408,    0.000000
   4.607470,    0.000000
   4.663114,    0.000000
   4.718737,    0.000000
   4.774412,    0.000000
   4.830740,    0.000000
   4.887156,    0.000000
   4.943781,    0.000000
   5.000516,    0.000000
   5.057691,    0.000000
   5.115276,    0.000000
   5.172681,    0.000000
   5.230246,    0.000000
   5.287799,    0.000000
   5.346022,    0.000000
   5.404634,    0.000000
   5.463307,    0.000000
   5.522280,    0.000000
   5.581576,    0.000000
   5.641038,    0.000000
   5.701063,    0.000000
   5.760788,    0.000000
   5.820606,    0.000000
   5.881098,    0.000000
   5.941476,    0.000000
   6.002515,    0.000000
   6.063594,    0.000000
   6.124919,    0.000000
   6.186398,    0.000000
   6.247619,    0.000000
   6.309897,    0.000000
   6.372032,    0.000000
   6.434853,    0.000000
   6.497487,    0.000000
   6.560135,    0.000000
   6.623474,    0.000000
   6.686793,    0.000000
   6.750442,    0.000000
   6.814215,    0.000000
   6.877942,    0.000000
   6.942629,    0.000000
   7.007074,    0.000000
   7.071978,    0.000000
   7.136997,    0.000000
   7.202150,    0.000000
   7.267139,    0.000000
   7.332824,    0.000000
   7.398377,    0.000000
   7.464226,    0.000000
   7.530701,    0.000000
   7.597320,    0.000000
   7.664215,    0.000000
   7.731196,    0.000000
   7.798631,    0.000000
   7.865891,    0.000000
   7.933280,    0.000000
   8.000869,    0.000000
   8.068602,    0.000000
   8.137049,    0.000000
   8.205340,    0.000000
   8.274102,    0.000000
   8.343123,    0.000000
   8.412167,    0.000000
   8.481110,    0.000000
   8.550446,    0.000000
   8.620046,    0.000000
   8.690094,    0.000000
   8.760025,    0.000000
   8.760583,    0.000000
   8.760711,    0.000000
   8.760765,    0.000000
   8.760871,    0.000000
   8.760883,    0.000000
   8.760890,    0.000000
   8.760901,    0.000000
   8.761005,    0.000000
   8.762046,    0.000000
   8.768146,    0.000000
   8.788762,    0.000000
   8.838617,    0.000000
   8.901477,    0.000000
   8.964032,    0.000000
   9.027050,    0.000000
   9.089980,    0.000000
   9.153001,    0.000000
   9.216338,    0.000000
   9.280075,    0.000000
   9.343747,    0.000000
   9.407314,    0.000000
   9.471508,    0.000000
   9.535590,    0.000000
   9.599870,    0.000000
   9.664424,    0.000000
   9.729177,    0.000000
   9.793985,    0.000000
   9.858985,    0.000000
   9.924385,    0.000000
   9.989800,    0.000000
  10.055364,    0.000000
  10.121031,    0.000000
  10.186767,    0.000000
  10.253013,    0.000000
  10.319102,    0.000000
  10.385218,    0.000000
  10.451713,    0.000000
  10.518584,    0.000000
  10.585689,    0.000000
  10.652664,    0.000000
  10.719871,    0.000000
  10.786986,    0.000000
  10.854623,    0.000000
  10.922088,    0.000000
  10.989977,    0.000000
  11.057713,    0.000000
  11.125725,    0.000000
  11.193926,    0.000000
  11.262169,    0.000000
  11.330929,    0.000000
  11.399607,    0.000000
  11.468377,    0.000000
  11.537439,    0.000000
  11.606572,    0.000000
  11.675659,    0.000000
  11.745265,    0.000000
  11.814940,    0.000000
  11.884953,    0.000000
  11.954992,    0.000000
  12.025201,    0.000000
  12.095311,    0.000000
  12.165734,    0.000000
  12.236348,    0.000000
  12.307019,    0.000000
  12.377985,    0.000000
  12.449122,    0.000000
  12.520551,    0.000000
  12.591971,    0.000000
  12.663224,    0.000000
  12.734765,    0.000000
  12.806686,    0.000000
  12.878724,    0.000000
  12.951162,    0.000000
  13.023347,    0.000000
  13.095648,    0.000000
  13.168206,    0.000000
  13.240875,    0.000000
  13.313840,    0.000000
  13.386788,    0.000000
  13.460238,    0.000000
  13.533769,    0.000000
  13.548545,    0.000000
  13.558164,    0.000000
  13.565430,    0.000000
  13.571280,    0.000000
  13.576999,    0.000000
  13.582791,    0.000000
  13.587035,    0.000000
  13.587790,    0.000000
  13.588741,    0.000000
  13.589851,    0.000000
  13.589913,    0.000000
  13.589951,    0.000000
  13.589978,    0.000000
  13.590001,    0.000000
  13.590008,    0.000000
  13.590015,    0.000000
  13.590088,    0.000000
  13.590718,    0.000000
  13.594722,    0.000000
  13.609897,    0.000000
  13.661568,    0.000000
  13.725456,    0.000000
  13.789945,    0.000000
  13.854426,    0.000000
  13.919196,    0.000000
  13.983766,    0.000000
  14.048667,    0.000000
  14.113674,    0.000000
  14.178717,    0.000000
  14.243987,    0.000000
  14.309339,    0.000000
  14.374654,    0.000000
  14.440255,    0.000000
  14.505934,    0.000000
  14.571876,    0.000000
  14.637860,    0.000000
  14.703855,    0.000000
  14.769972,    0.000000
  14.836330,    0.000000
  14.902604,    0.000000
  14.969066,    0.000000
  15.035784,    0.000000
  15.102643,    0.000000
  15.169427,    0.000000
  15.236500,    0.000000
  15.303596,    0.000000
  15.370850,    0.000000
  15.438251,    0.000000
  15.505609,    0.000000
  15.573112,    0.000000
  15.640913,    0.000000
  15.708836,    0.000000
  15.776790,    0.000000
  15.844768,    0.000000
  15.912918,    0.000000
  15.981328,    0.000000
  16.049689,    0.000000
  16.118299,    0.000000
  16.187145,    0.000000
  16.256094,    0.000000
  16.324967,    0.000000
  16.394038,    0.000000
  16.463189,    0.000000
  16.532509,    0.000000
  16.602093,    0.000000
  16.671547,    0.000000
  16.741036,    0.000000
  16.810682,    0.000000
  16.880394,    0.000000
  16.950334,    0.000000
  17.020257,    0.000000
  17.090429,    0.000000
  17.160952,    0.000000
  17.231269,    0.000000
  17.301920,    0.000000
  17.372595,    0.000000
  17.443469,    0.000000
  17.514489,    0.000000
  17.585532,    0.000000
  17.656536,    0.000000
  17.727801,    0.000000
  17.799501,    0.000000
  17.870856,    0.000000
  17.942631,    0.000000
  18.014268,    0.000000
  18.086135,    0.000000
  18.158237,    0.000000
  18.230292,    0.000000
  18.302423,    0.000000
  18.374675,    0.000000
  18.447159,    0.000000
  18.519768,    0.000000
  18.592329,    0.000000
  18.665294,    0.000000
  18.738072,    0.000000
  18.811104,    0.000000
  18.884234,    0.000000
  18.898885,    0.000000
  18.949814,    0.000000
  18.952736,    0.000000
  18.953239,    0.000000
  18.953452,    0.000000
  18.953508,    0.000000
  18.953541,    0.000000
  18.953579,    0.000000
  18.953956,    0.000000
  18.956648,    0.000000
  18.974442,    0.000000
  19.052213,    0.000000
  19.125225,    0.000000
  19.198472,    0.000000
  19.271808,    0.000000
  19.345310,    0.000000
  19.418896,    0.000000
  19.492550,    0.000000
  19.566208,    0.000000
  19.640256,    0.000000
  19.714222,    0.000000
  19.788416,    0.000000
  19.862617,    0.000000
  19.936878,    0.000000
  20.011333,    0.000000
  20.086035,    0.000000
  20.160678,    0.000000
  20.235439,    0.000000
  20.310249,    0.000000
  20.385193,    0.000000
  20.460414,    0.000000
  20.535681,    0.000000
  20.611020,    0.000000
  20.686603,    0.000000
  20.762273,    0.000000
  20.838004,    0.000000
  20.913812,    0.000000
  20.989552,    0.000000
  21.065520,    0.000000
  21.141666,    0.000000
  21.217863,    0.000000
  21.294062,    0.000000
  21.370428,    0.000000
  21.447001,    0.000000
  21.523602,    0.000000
  21.600422,    0.000000
  21.677465,    0.000000
  21.754504,    0.000000
  21.831640,    0.000000
  21.908849,    0.000000
  21.986223,    0.000000
  22.063752,    0.000000
  22.141408,    0.000000
  22.219220,    0.000000
  22.296996,    0.000000
  22.374981,    0.000000
  22.452979,    0.000000
  22.531031,    0.000000
  22.609294,    0.000000
  22.687637,    0.000000
  22.766179,    0.000000
  22.844803,    0.000000
  22.923621,    0.000000
  23.002508,    0.000000
  23.043817,    0.000000
  23.081417,    0.000000
  23.160468,   21.814339
  23.239533,   67.375334
  23.318947,  112.382689
  23.398465,  157.030877
  23.478213,  201.181630
  23.557896,  244.908697
  23.637608,  288.052747
  23.717738,  330.667810
  23.798066,  372.968361
  23.878346,  414.836734
  23.958845,  456.145289
  24.039417,  497.038679
  24.119967,  537.445930
  24.200732,  577.319907
  24.281554,  616.787049
  24.362343,  655.771730
  24.443226,  694.233919
  24.524295,  732.239212
  24.605270,  769.838904
  24.686181,  806.903936
  24.767184,  843.452594
  24.848154,  879.564998
  24.929227,  915.186736
  25.010132,  950.389028
  25.091006,  985.052819
  25.094248, 1020.618994
  25.098612, 1021.955488
  25.102907, 1023.781443
  25.104037, 1025.632451
  25.105470, 1026.098814
  25.105811, 1026.716877
  25.106320, 1026.856117
  25.106356, 1027.076991
  25.106370, 1027.092244
  25.106385, 1027.098354
  25.106535, 1027.102421
  25.108035, 1027.143095
  25.116815, 1027.651824
  25.151641, 1030.897629
  25.235294, 1044.626919
  25.319622, 1079.297103
  25.325225, 1115.184847
  25.330817, 1117.453039
  25.336429, 1119.713935
  25.342040, 1121.981833
  25.347658, 1124.246702
  25.353275, 1126.512874
  25.358887, 1128.776910
  25.364516, 1131.035968
  25.370148, 1133.300722
  25.375783, 1135.564456
  25.381398, 1137.827493
  25.387014, 1140.080370
  25.392660, 1142.331572
  25.398300, 1144.592825
  25.403950, 1146.849841
  25.409594, 1149.109188
  25.415226, 1151.363748
  25.420890, 1153.611385
  25.426562, 1155.869740
  25.432232, 1158.129813
  25.437852, 1160.387863
  25.443492, 1162.623014
  25.449164, 1164.863629
  25.454857, 1167.115380
  25.460496, 1169.374356
  25.466160, 1171.608948
  25.471835, 1173.851905
  25.477505, 1176.097367
  25.483206, 1178.338146
  25.488889, 1180.590077
  25.494598, 1182.832019
  25.500318, 1185.082914
  25.506039, 1187.336037
  25.511774, 1189.587354
  25.517521, 1191.842407
  25.523267, 1194.100370
  25.528998, 1196.356149
  25.534747, 1198.603242
  25.540508, 1200.855681
  25.546274, 1203.111326
  25.552026, 1205.366776
  25.557806, 1207.614021
  25.563553, 1209.871463
  25.569312, 1212.113515
  25.575086, 1214.357855
  25.580889, 1216.605751
  25.586681, 1218.864010
  25.592480, 1221.115163
  25.598266, 1223.367924
  25.604073, 1225.612703
  25.609837, 1227.864905
  25.615624, 1230.097105
  25.621439, 1232.336278
  25.627271, 1234.584753
  25.633096, 1236.838132
  25.638939, 1239.086253
  25.644755, 1241.339741
  25.650622, 1243.580111
  25.656481, 1245.838621
  25.662363, 1248.092002
  25.668245, 1250.352426
  25.674133, 1252.610459
  25.680025, 1254.869156
  25.685907, 1254.759758
  25.691831, 1254.649700
  25.697701, 1254.540739
  25.703601, 1254.431327
  25.709514, 1254.321778
  25.715420, 1254.212480
  25.721365, 1254.102565
  25.727302, 1253.992909
  25.733187, 1253.884303
  25.739144, 1253.774507
  25.745107, 1253.664694
  25.751044, 1253.555478
  25.757011, 1253.445815
  25.762978, 1253.336269
  25.768945, 1253.226819
  25.774885, 1253.117987
  25.780880, 1253.008269
  25.786861, 1252.898910
  25.792864, 1252.789281
  25.798835, 1252.680322
  25.804858, 1252.570548
  25.810888, 1252.460760
  25.816906, 1252.351294
  25.822929, 1252.241862
  25.828968, 1252.132260
  25.834989, 1252.023105
  25.841013, 1251.913988
  25.847064, 1251.804530
  25.853127, 1251.694955
  25.859167, 1251.585913
  25.865227, 1251.476633
  25.871316, 1251.366940
  25.877401, 1251.257453
  25.883508, 1251.147687
  25.889585, 1251.038588
  25.895695, 1250.929001
  25.901805, 1250.819555
  25.907923, 1250.710081
  25.914048, 1250.600598
  25.920163, 1250.491408
  25.926284, 1250.382260
  25.932431, 1250.272758
  25.938592, 1250.163123
  25.944772, 1250.053283
  25.950932, 1249.943929
  25.957106, 1249.834450
  25.963299, 1249.724771
  25.969503, 1249.615011
  25.975729, 1249.504989
  25.981943, 1249.395314
  25.988168, 1249.285582
  25.994396, 1249.175918
  26.000630, 1249.066269
  26.006863, 1248.956792
  26.013097, 1248.847415
  26.019355, 1248.737742
  26.025623, 1248.628030
  26.031890, 1248.518462
  26.038148, 1248.409199
  26.044451, 1248.299272
  26.050760, 1248.189394
  26.057072, 1248.079574
  26.063347, 1247.970546
  26.069610, 1247.861856
  26.075948, 1247.752017
  26.082289, 1247.642250
  26.088618, 1247.532819
  26.094965, 1247.423230
  26.101346, 1247.313176
  26.107735, 1247.203150
  26.114114, 1247.093412
  26.120491, 1246.983865
  26.126880, 1246.874243
  26.133298, 1246.764263
  26.139711, 1246.654524
  26.146141, 1246.544639
  26.152582, 1246.434693
  26.159013, 1246.325068
  26.165490, 1246.214810
  26.171947, 1246.105041
  26.178412, 1245.995285
  26.180025, 1245.967915
  26.184885, 1245.885530
  26.191388, 1245.775417
  26.197895, 1245.665388
  26.204379, 1245.555896
  26.210889, 1245.446109
  26.217389, 1245.336641
  26.223919, 1245.226810
  26.230461, 1245.116945
  26.237031, 1245.006756
  26.243594, 1244.896849
  26.250218, 1244.786051
  26.256791, 1244.676273
  26.263397, 1244.566112
  26.270007, 1244.456024
  26.276629, 1244.345900
  26.283241, 1244.236093
  26.289898, 1244.125711
  26.296484, 1244.016650
  26.303158, 1243.906285
  26.309793, 1243.796742
  26.316470, 1243.686660
  26.323132, 1243.576972
  26.329856, 1243.466442
  26.336585, 1243.355999
  26.343310, 1243.245766
  26.350051, 1243.135456
  26.356796, 1243.025230
  26.363586, 1242.914446
  26.370389, 1242.803605
  26.377168, 1242.693337
  26.383948, 1242.583218
  26.390780, 1242.472424
  26.397554, 1242.362745
  26.404379, 1242.252410
  26.411203, 1242.142253
  26.418064, 1242.031690
  26.424917, 1241.921407
  26.431807, 1241.810729
  26.438671, 1241.700630
  26.445554, 1241.590397
  26.452483, 1241.479608
  26.459403, 1241.369134
  26.466321, 1241.258885
  26.473273, 1241.148266
  26.480202, 1241.038197
  26.487145, 1240.928090
  26.494091, 1240.818108
  26.501087, 1240.707519
  26.508107, 1240.596732
  26.515100, 1240.486557
  26.522117, 1240.376190
  26.529161, 1240.265594
  26.536241, 1240.154605
  26.543285, 1240.044378
  26.550363, 1239.933813
  26.557440, 1239.823449
  26.564539, 1239.712923
  26.571629, 1239.602737
  26.578778, 1239.491840
  26.585902, 1239.381502
  26.593034, 1239.271254
  26.600228, 1239.160226
  26.607371, 1239.050203
  26.614571, 1238.939484
  26.621782, 1238.828805
  26.629012, 1238.718026
  26.636242, 1238.607452
  26.643470, 1238.497113
  26.650699, 1238.386955
  26.657945, 1238.276743
  26.665209, 1238.166461
  26.672534, 1238.055462
  26.679829, 1237.945121
  26.687193, 1237.833935
  26.694513, 1237.723638
  26.701868, 1237.613030
  26.709213, 1237.502768
  26.716606, 1237.392011
  26.724011, 1237.281273
  26.731374, 1237.171393
  26.738741, 1237.061646
  26.746146, 1236.951560
  26.753521, 1236.842135
  26.761011, 1236.731219
  26.768457, 1236.621177
  26.775938, 1236.510843
  26.783423, 1236.400665
  26.790973, 1236.289754
  26.798551, 1236.178663
  26.806111, 1236.068054
  26.813602, 1235.958685
  26.821185, 1235.848194
  26.828760, 1235.738063
  26.836375, 1235.627573
  26.843943, 1235.517983
  26.851535, 1235.408287
  26.859210, 1235.297633
  26.866804, 1235.188365
  26.874496, 1235.077923
  26.882158, 1234.968152
  26.889852, 1234.858162
  26.897593, 1234.747738
  26.905318, 1234.637796
  26.913087, 1234.527454
  26.920878, 1234.417048
  26.928651, 1234.307142
  26.936454, 1234.197072
  26.944286, 1234.086816
  26.952135, 1233.976594
  26.959984, 1233.866610
  26.967846, 1233.756692
  26.975723, 1233.646829
  26.983567, 1233.537672
  26.991438, 1233.428384
  26.999291, 1233.319607
  27.007248, 1233.209653
  27.015178, 1233.100322
  27.023099, 1232.991372
  27.031078, 1232.881893
  27.038996, 1232.773497
  27.046965, 1232.664678
  27.054961, 1232.555741
  27.062975, 1232.446832
  27.071026, 1232.337687
  27.079033, 1232.229402
  27.087064, 1232.121058
  27.095102, 1232.012897
  27.103206, 1231.904113
  27.111317, 1231.795505
  27.119431, 1231.687130
  27.127629, 1231.577917
  27.135818, 1231.469102
  27.143996, 1231.360716
  27.152183, 1231.252480
  27.160355, 1231.144730
  27.168575, 1231.036637
  27.176813, 1230.928585
  27.185085, 1230.820371
  27.193355, 1230.712471
  27.201634, 1230.604753
  27.209942, 1230.496937
  27.218253, 1230.389372
  27.226590, 1230.281763
  27.235029, 1230.173144
  27.243381, 1230.065938
  27.251777, 1229.958473
  27.260152, 1229.851563
  27.268561, 1229.744529
  27.276955, 1229.637983
  27.285439, 1229.530599
  27.293878, 1229.424084
  27.302391, 1229.316950
  27.310884, 1229.210367
  27.319361, 1229.104309
  27.327940, 1228.997268
  27.336492, 1228.890890
  27.345099, 1228.784148
  27.353614, 1228.678847
  27.362129, 1228.573865
  27.370682, 1228.468737
  27.379220, 1228.364098
  27.387895, 1228.258101
  27.396563, 1228.152515
  27.405196, 1228.047685
  27.413797, 1227.943553
  27.422488, 1227.838666
  27.431256, 1227.733176
  27.440001, 1227.628304
  27.448743, 1227.523787
  27.457478, 1227.419700
  27.466253, 1227.315457
  27.475057, 1227.211211
  27.483782, 1227.108242
  27.492570, 1227.004852
  27.501372, 1226.901644
  27.510258, 1226.797792
  27.519089, 1226.694935
  27.527941, 1226.592168
  27.536880, 1226.488738
  27.545747, 1226.386492
  27.554668, 1226.283973
  27.563571, 1226.182005
  27.572536, 1226.079685
  27.581514, 1225.977565
  27.590483, 1225.875906
  27.599507, 1225.773987
  27.608491, 1225.672877
  27.617502, 1225.571815
  27.626519, 1225.471057
  27.635518, 1225.370847
  27.644580, 1225.270309
  27.653600, 1225.170600
  27.662711, 1225.070244
  27.671892, 1224.969493
  27.681023, 1224.869666
  27.690159, 1224.770151
  27.699339, 1224.670535
  27.708497, 1224.571541
  27.717663, 1224.472829
  27.726860, 1224.374165
  27.736052, 1224.275927
  27.745269, 1224.177802
  27.754387, 1224.081111
  27.763591, 1223.983889
  27.772876, 1223.886186
  27.782074, 1223.789791
  27.791399, 1223.692452
  27.800760, 1223.595130
  27.810062, 1223.498818
  27.819400, 1223.402525
  27.828729, 1223.306710
  27.838074, 1223.211133
  27.847481, 1223.115325
  27.856860, 1223.020192
  27.866309, 1222.924755
  27.875638, 1222.830928
  27.885053, 1222.736646
  27.894537, 1222.642069
  27.903958, 1222.548527
  27.913407, 1222.455117
  27.922906, 1222.361622
  27.932390, 1222.268682
  27.941895, 1222.175953
  27.951424, 1222.083405
  27.960984, 1221.990966
  27.970484, 1221.899525
  27.980021, 1221.808149
  27.989542, 1221.717337
  27.999086, 1221.626720
  28.008690, 1221.535964
  28.018275, 1221.445802
  28.027923, 1221.355480
  28.037539, 1221.265881
  28.047168, 1221.176580
  28.056806, 1221.087633
  28.066518, 1220.998434
  28.076220, 1220.909764
  28.085971, 1220.821086
  28.095740, 1220.732677
  28.105490, 1220.644882
  28.115314, 1220.556874
  28.125190, 1220.468839
  28.135081, 1220.381128
  28.144863, 1220.294830
  28.154633, 1220.209089
  28.164593, 1220.122130
  28.174448, 1220.036536
  28.184265, 1219.951727
  28.194118, 1219.867062
  28.203925, 1219.783241
  28.213753, 1219.699681
  28.223727, 1219.615348
  28.233613, 1219.532215
  28.243549, 1219.449123
  28.253399, 1219.367210
  28.263410, 1219.284410
  28.273428, 1219.202036
  28.283385, 1219.120622
  28.293289, 1219.040105
  28.303199, 1218.959997
  28.313231, 1218.879368
  28.323188, 1218.799820
  28.333258, 1218.719836
  28.343279, 1218.640712
  28.353361, 1218.561588
  28.363443, 1218.482936
  28.373436, 1218.405456
  28.383415, 1218.328560
  28.393536, 1218.251040
  28.403627, 1218.174229
  28.413807, 1218.097238
  28.423864, 1218.021647
  28.434079, 1217.945365
  28.444164, 1217.870540
  28.454354, 1217.795418
  28.464509, 1217.721045
  28.474587, 1217.647719
  28.484765, 1217.574154
  28.494900, 1217.501390
  28.505124, 1217.428476
  28.515254, 1217.356725
  28.525426, 1217.285173
  28.535606, 1217.214048
  28.545869, 1217.142843
  28.556096, 1217.072388
  28.566378, 1217.002057
  28.576603, 1216.932612
  28.586965, 1216.862744
  28.597164, 1216.794477
  28.607353, 1216.726772
  28.617611, 1216.659110
  28.627979, 1216.591232
  28.638356, 1216.523808
  28.648581, 1216.457873
  28.658917, 1216.391737
  28.669356, 1216.325454
  28.679713, 1216.260207
  28.690122, 1216.195151
  28.700483, 1216.130914
  28.710796, 1216.067478
  28.721247, 1216.003719
  28.731646, 1215.940792
  28.742088, 1215.878130
  28.752553, 1215.815854
  28.763052, 1215.753901
  28.773588, 1215.692267
  28.784053, 1215.631571
  28.794629, 1215.570769
  28.805058, 1215.511342
  28.815529, 1215.452194
  28.826004, 1215.393559
  28.836472, 1215.335487
  28.847023, 1215.277485
  28.857534, 1215.220240
  28.868039, 1215.163557
  28.870581, 1215.149921
