Time, Vertical Forces
   0.000100,    0.000000
   0.000584,    0.000000
   0.003177,    0.000000
   0.009039,    0.000000
   0.023552,    0.000000
   0.052294,    0.000000
   0.083890,    0.000000
   0.115760,    0.000000
   0.147771,    0.000000
   0.180052,    0.000000
   0.212175,    0.000000
   0.244498,    0.000000
   0.276990,    0.000000
   0.309364,    0.000000
   0.341917,    0.000000
   0.374807,    0.000000
   0.407992,    0.000000
   0.441665,    0.000000
   0.475417,    0.000000
   0.509087,    0.000000
   0.543342,    0.000000
   0.577899,    0.000000
   0.612073,    0.000000
   0.646841,    0.000000
   0.681643,    0.000000
   0.716626,    0.000000
   0.751954,    0.000000
   0.787406,    0.000000
   0.823488,    0.000000
   0.860224,    0.000000
   0.896676,    0.000000
   0.933608,    0.000000
   0.971040,    0.000000
   1.008626,    0.000000
   1.046733,    0.000000
   1.085133,    0.000000
   1.124001,    0.000000
   1.163037,    0.000000
   1.202145,    0.000000
   1.242284,    0.000000
   1.282110,    0.000000
   1.322478,    0.000000
   1.363224,    0.000000
   1.404180,    0.000000
   1.445889,    0.000000
   1.487997,    0.000000
   1.530865,    0.000000
   1.573110,    0.000000
   1.616249,    0.000000
   1.659894,    0.000000
   1.703847,    0.000000
   1.747465,    0.000000
   1.791168,    0.000000
   1.835937,    0.000000
   1.881007,    0.000000
   1.926208,    0.000000
   1.971874,    0.000000
   2.018013,    0.000000
   2.065091,    0.000000
   2.111867,    0.000000
   2.158648,    0.000000
   2.206305,    0.000000
   2.253835,    0.000000
   2.302352,    0.000000
   2.351018,    0.000000
   2.399843,    0.000000
   2.449136,    0.000000
   2.498658,    0.000000
   2.548090,    0.000000
   2.597656,    0.000000
   2.648464,    0.000000
   2.699052,    0.000000
   2.750458,    0.000000
   2.802011,    0.000000
   2.853856,    0.000000
   2.905986,    0.000000
   2.958776,    0.000000
   3.011776,    0.000000
   3.064389,    0.000000
   3.118309,    0.000000
   3.171904,    0.000000
   3.225336,    0.000000
   3.280113,    0.000000
   3.335341,    0.000000
   3.391241,    0.000000
   3.446783,    0.000000
   3.503033,    0.000000
   3.558887,    0.000000
   3.615826,    0.000000
   3.672775,    0.000000
   3.729719,    0.000000
   3.786934,    0.000000
   3.844850,    0.000000
   3.902898,    0.000000
   3.961209,    0.000000
   4.020408,    0.000000
   4.079389,    0.000000
   4.138735,    0.000000
   4.198415,    0.000000
   4.258825,    0.000000
   4.261224,    0.000000
   4.263189,    0.000000
   4.264758,    0.000000
   4.265848,    0.000000
   4.266803,    0.000000
   4.267679,    0.000000
   4.268458,    0.000000
   4.268605,    0.000000
   4.268801,    0.000000
   4.269027,    0.000000
   4.269087,    0.000000
   4.269106,    0.000000
   4.269129,    0.000000
   4.269133,    0.000000
   4.269138,    0.000000
   4.269186,    0.000000
   4.269659,    0.000000
   4.272473,    0.000000
   4.283615,    0.000000
   4.313063,    0.000000
   4.367130,    0.000000
   4.421209,    0.000000
   4.475397,    0.000000
   4.529987,    0.000000
   4.584839,    0.000000
   4.639959,    0.000000
   4.695262,    0.000000
   4.750950,    0.000000
   4.806980,    0.000000
   4.863020,    0.000000
   4.919382,    0.000000
   4.976120,    0.000000
   5.032606,    0.000000
   5.089685,    0.000000
   5.147323,    0.000000
   5.205137,    0.000000
   5.263134,    0.000000
   5.321120,    0.000000
   5.379140,    0.000000
   5.437710,    0.000000
   5.496560,    0.000000
   5.555934,    0.000000
   5.615539,    0.000000
   5.675731,    0.000000
   5.735606,    0.000000
   5.795473,    0.000000
   5.855835,    0.000000
   5.916397,    0.000000
   5.977430,    0.000000
   6.038651,    0.000000
   6.099479,    0.000000
   6.160850,    0.000000
   6.222968,    0.000000
   6.284800,    0.000000
   6.347168,    0.000000
   6.409627,    0.000000
   6.472217,    0.000000
   6.535108,    0.000000
   6.598121,    0.000000
   6.661375,    0.000000
   6.724942,    0.000000
   6.788489,    0.000000
   6.852414,    0.000000
   6.916678,    0.000000
   6.981381,    0.000000
   7.046091,    0.000000
   7.111168,    0.000000
   7.176043,    0.000000
   7.241092,    0.000000
   7.306519,    0.000000
   7.372304,    0.000000
   7.438382,    0.000000
   7.504985,    0.000000
   7.571463,    0.000000
   7.637891,    0.000000
   7.704467,    0.000000
   7.771795,    0.000000
   7.839116,    0.000000
   7.906385,    0.000000
   7.973831,    0.000000
   8.041672,    0.000000
   8.110101,    0.000000
   8.178245,    0.000000
   8.246651,    0.000000
   8.314847,    0.000000
   8.383951,    0.000000
   8.453289,    0.000000
   8.522820,    0.000000
   8.592226,    0.000000
   8.662179,    0.000000
   8.732490,    0.000000
   8.746546,    0.000000
   8.756437,    0.000000
   8.757843,    0.000000
   8.759255,    0.000000
   8.760518,    0.000000
   8.760771,    0.000000
   8.760793,    0.000000
   8.760806,    0.000000
   8.760812,    0.000000
   8.760818,    0.000000
   8.760872,    0.000000
   8.761417,    0.000000
   8.764691,    0.000000
   8.780722,    0.000000
   8.845587,    0.000000
   8.908076,    0.000000
   8.970886,    0.000000
   9.033934,    0.000000
   9.096696,    0.000000
   9.160061,    0.000000
   9.223741,    0.000000
   9.287159,    0.000000
   9.350790,    0.000000
   9.414785,    0.000000
   9.478939,    0.000000
   9.543110,    0.000000
   9.607721,    0.000000
   9.672174,    0.000000
   9.736936,    0.000000
   9.801831,    0.000000
   9.866807,    0.000000
   9.932026,    0.000000
   9.997575,    0.000000
  10.063279,    0.000000
  10.128834,    0.000000
  10.194648,    0.000000
  10.260547,    0.000000
  10.326474,    0.000000
  10.392964,    0.000000
  10.459516,    0.000000
  10.526181,    0.000000
  10.592909,    0.000000
  10.660206,    0.000000
  10.727604,    0.000000
  10.794928,    0.000000
  10.862505,    0.000000
  10.930076,    0.000000
  10.997659,    0.000000
  11.065538,    0.000000
  11.133678,    0.000000
  11.202161,    0.000000
  11.270785,    0.000000
  11.339435,    0.000000
  11.408570,    0.000000
  11.477660,    0.000000
  11.546744,    0.000000
  11.615937,    0.000000
  11.685425,    0.000000
  11.754917,    0.000000
  11.824686,    0.000000
  11.894514,    0.000000
  11.964722,    0.000000
  12.034798,    0.000000
  12.105227,    0.000000
  12.175691,    0.000000
  12.246422,    0.000000
  12.317140,    0.000000
  12.388223,    0.000000
  12.459488,    0.000000
  12.530661,    0.000000
  12.602183,    0.000000
  12.673898,    0.000000
  12.745520,    0.000000
  12.817218,    0.000000
  12.889363,    0.000000
  12.961732,    0.000000
  13.033976,    0.000000
  13.106699,    0.000000
  13.179292,    0.000000
  13.251839,    0.000000
  13.324824,    0.000000
  13.398031,    0.000000
  13.471394,    0.000000
  13.544872,    0.000000
  13.559553,    0.000000
  13.571761,    0.000000
  13.580015,    0.000000
  13.586971,    0.000000
  13.588254,    0.000000
  13.588554,    0.000000
  13.589086,    0.000000
  13.589235,    0.000000
  13.589479,    0.000000
  13.589571,    0.000000
  13.589621,    0.000000
  13.589683,    0.000000
  13.589716,    0.000000
  13.589722,    0.000000
  13.589727,    0.000000
  13.589780,    0.000000
  13.590314,    0.000000
  13.593896,    0.000000
  13.609916,    0.000000
  13.660596,    0.000000
  13.724516,    0.000000
  13.788884,    0.000000
  13.853299,    0.000000
  13.918078,    0.000000
  13.982956,    0.000000
  14.047753,    0.000000
  14.112868,    0.000000
  14.178058,    0.000000
  14.243382,    0.000000
  14.308857,    0.000000
  14.374265,    0.000000
  14.439635,    0.000000
  14.505405,    0.000000
  14.571471,    0.000000
  14.637497,    0.000000
  14.703557,    0.000000
  14.769756,    0.000000
  14.835955,    0.000000
  14.902423,    0.000000
  14.969070,    0.000000
  15.035691,    0.000000
  15.102359,    0.000000
  15.169370,    0.000000
  15.236278,    0.000000
  15.303298,    0.000000
  15.370416,    0.000000
  15.437757,    0.000000
  15.505209,    0.000000
  15.572831,    0.000000
  15.640462,    0.000000
  15.708166,    0.000000
  15.776163,    0.000000
  15.844085,    0.000000
  15.912263,    0.000000
  15.980620,    0.000000
  16.048932,    0.000000
  16.117485,    0.000000
  16.186226,    0.000000
  16.255075,    0.000000
  16.324126,    0.000000
  16.393322,    0.000000
  16.462531,    0.000000
  16.531854,    0.000000
  16.601264,    0.000000
  16.670816,    0.000000
  16.740493,    0.000000
  16.810135,    0.000000
  16.880106,    0.000000
  16.950166,    0.000000
  17.020294,    0.000000
  17.090590,    0.000000
  17.160922,    0.000000
  17.231519,    0.000000
  17.302159,    0.000000
  17.372915,    0.000000
  17.443865,    0.000000
  17.514701,    0.000000
  17.585748,    0.000000
  17.656940,    0.000000
  17.728185,    0.000000
  17.799668,    0.000000
  17.871216,    0.000000
  17.943144,    0.000000
  18.015100,    0.000000
  18.086938,    0.000000
  18.159123,    0.000000
  18.231394,    0.000000
  18.303421,    0.000000
  18.375573,    0.000000
  18.447961,    0.000000
  18.520499,    0.000000
  18.593232,    0.000000
  18.666031,    0.000000
  18.738955,    0.000000
  18.812051,    0.000000
  18.885230,    0.000000
  18.899888,    0.000000
  18.910817,    0.000000
  18.949260,    0.000000
  18.952140,    0.000000
  18.952367,    0.000000
  18.952545,    0.000000
  18.952665,    0.000000
  18.952728,    0.000000
  18.952813,    0.000000
  18.953633,    0.000000
  18.959103,    0.000000
  18.985721,    0.000000
  19.054512,    0.000000
  19.127771,    0.000000
  19.200948,    0.000000
  19.274231,    0.000000
  19.347534,    0.000000
  19.421283,    0.000000
  19.494825,    0.000000
  19.568795,    0.000000
  19.642711,    0.000000
  19.716886,    0.000000
  19.790960,    0.000000
  19.865060,    0.000000
  19.939430,    0.000000
  20.013891,    0.000000
  20.088486,    0.000000
  20.163161,    0.000000
  20.238044,    0.000000
  20.313223,    0.000000
  20.388315,    0.000000
  20.463403,    0.000000
  20.538701,    0.000000
  20.614039,    0.000000
  20.689506,    0.000000
  20.765194,    0.000000
  20.840854,    0.000000
  20.916749,    0.000000
  20.992556,    0.000000
  21.068539,    0.000000
  21.144709,    0.000000
  21.221070,    0.000000
  21.297475,    0.000000
  21.373968,    0.000000
  21.450775,    0.000000
  21.527471,    0.000000
  21.604347,    0.000000
  21.681375,    0.000000
  21.758368,    0.000000
  21.835403,    0.000000
  21.912730,    0.000000
  21.990171,    0.000000
  22.067739,    0.000000
  22.145428,    0.000000
  22.223218,    0.000000
  22.301202,    0.000000
  22.379209,    0.000000
  22.457490,    0.000000
  22.535643,    0.000000
  22.613970,    0.000000
  22.692399,    0.000000
  22.770908,    0.000000
  22.849469,    0.000000
  22.928170,    0.000000
  22.978501,    0.000000
  23.007024,    0.000000
  23.086071,   16.569867
  23.165154,   62.244414
  23.244310,  107.377277
  23.323757,  151.994394
  23.403397,  196.220679
  23.483307,  240.001366
  23.563143,  283.381762
  23.643096,  326.175755
  23.723214,  368.491715
  23.803655,  410.356934
  23.884068,  451.859642
  23.964574,  492.816343
  24.045023,  533.297095
  24.125556,  573.228008
  24.206201,  612.686132
  24.286834,  651.690618
  24.367615,  690.183222
  24.448383,  728.247888
  24.529443,  765.807245
  24.610330,  803.017457
  24.691210,  839.659421
  24.772175,  875.817363
  24.853177,  911.539394
  24.934180,  946.807939
  25.015138,  981.612888
  25.096104, 1015.939193
  25.099339, 1051.229506
  25.103358, 1052.554727
  25.104525, 1054.269778
  25.105060, 1054.764183
  25.105118, 1054.993973
  25.105173, 1055.018038
  25.105236, 1055.040374
  25.105245, 1055.067754
  25.105253, 1055.071365
  25.105317, 1055.073760
  25.105656, 1055.095705
  25.106883, 1055.221616
  25.110380, 1055.692871
  25.115868, 1057.109911
  25.121387, 1059.385029
  25.126910, 1061.670892
  25.132426, 1063.956709
  25.137952, 1066.237774
  25.143468, 1068.521052
  25.148996, 1070.797745
  25.154528, 1073.077637
  25.160064, 1075.357263
  25.165605, 1077.636412
  25.171142, 1079.915425
  25.176684, 1082.191437
  25.182237, 1084.466714
  25.187789, 1086.745131
  25.193349, 1089.020993
  25.198904, 1091.298276
  25.204463, 1093.571098
  25.210033, 1095.843835
  25.215603, 1098.119049
  25.221168, 1100.392589
  25.226738, 1102.661580
  25.232322, 1104.931043
  25.237908, 1107.203730
  25.243477, 1109.475917
  25.249066, 1111.738514
  25.254647, 1114.008047
  25.260243, 1116.271599
  25.265845, 1118.539319
  25.271445, 1120.808156
  25.277057, 1123.073588
  25.282668, 1125.342208
  25.288269, 1127.608192
  25.293890, 1129.867902
  25.299517, 1132.134113
  25.305148, 1134.400905
  25.310783, 1136.666764
  25.316409, 1138.932839
  25.322038, 1141.193386
  25.327653, 1143.452820
  25.333295, 1145.704515
  25.338946, 1147.965120
  25.344578, 1150.227577
  25.350241, 1152.479912
  25.355894, 1154.743280
  25.361565, 1157.000179
  25.367242, 1159.262407
  25.372921, 1161.525377
  25.378596, 1163.787009
  25.384268, 1166.045311
  25.389942, 1168.299870
  25.395640, 1170.553452
  25.401319, 1172.814894
  25.407025, 1175.066328
  25.412741, 1177.326403
  25.418443, 1179.589102
  25.424163, 1181.843533
  25.429892, 1184.103216
  25.435601, 1186.365331
  25.441332, 1188.616666
  25.447080, 1190.874792
  25.452811, 1193.138058
  25.458556, 1195.392121
  25.464316, 1197.649626
  25.470084, 1199.911305
  25.475852, 1202.174418
  25.481626, 1204.435193
  25.487407, 1206.696209
  25.493176, 1208.958328
  25.498967, 1211.213413
  25.504766, 1213.474894
  25.510567, 1215.737826
  25.516360, 1218.000083
  25.522172, 1220.256118
  25.527984, 1222.518317
  25.533813, 1224.777997
  25.539634, 1227.042617
  25.545473, 1229.302134
  25.551293, 1231.566834
  25.557134, 1233.821547
  25.562985, 1236.082378
  25.568851, 1238.345201
  25.574692, 1240.612744
  25.580579, 1242.866923
  25.586467, 1245.138006
  25.592341, 1247.407495
  25.598228, 1249.669304
  25.604115, 1251.934227
  25.610027, 1254.196327
  25.615930, 1256.467279
  25.621859, 1258.731451
  25.627755, 1261.004972
  25.633660, 1263.263115
  25.639575, 1265.522569
  25.645536, 1267.783029
  25.651449, 1270.060959
  25.657417, 1269.949790
  25.663387, 1269.838697
  25.669353, 1269.727786
  25.675329, 1269.616808
  25.681291, 1269.506211
  25.687298, 1269.394891
  25.693304, 1269.283689
  25.699311, 1269.172599
  25.705322, 1269.061540
  25.711334, 1268.950594
  25.717365, 1268.839414
  25.723385, 1268.728532
  25.729428, 1268.617360
  25.735449, 1268.506707
  25.741503, 1268.395562
  25.747538, 1268.284886
  25.753595, 1268.173925
  25.759660, 1268.062948
  25.765721, 1267.952149
  25.771813, 1267.840912
  25.777871, 1267.730419
  25.783927, 1267.620077
  25.790012, 1267.509311
  25.796102, 1267.398606
  25.802231, 1267.287303
  25.808319, 1267.176850
  25.814427, 1267.066184
  25.820560, 1266.955183
  25.826674, 1266.844637
  25.832806, 1266.733905
  25.838953, 1266.623003
  25.845099, 1266.512267
  25.851261, 1266.401372
  25.857423, 1266.290598
  25.863606, 1266.179567
  25.869751, 1266.069352
  25.875908, 1265.959050
  25.882115, 1265.847974
  25.888320, 1265.737056
  25.894529, 1265.626207
  25.900761, 1265.515096
  25.907007, 1265.403839
  25.913211, 1265.293478
  25.919458, 1265.182467
  25.925716, 1265.071418
  25.931982, 1264.960335
  25.938227, 1264.849779
  25.944476, 1264.739271
  25.950743, 1264.628590
  25.957034, 1264.517602
  25.963333, 1264.406621
  25.969626, 1264.295890
  25.975965, 1264.184486
  25.982294, 1264.073383
  25.988608, 1263.962684
  25.994965, 1263.851381
  26.001324, 1263.740177
  26.007699, 1263.628819
  26.014082, 1263.517484
  26.020455, 1263.406463
  26.026855, 1263.295108
  26.033244, 1263.184087
  26.039655, 1263.072821
  26.046061, 1262.961796
  26.052481, 1262.850669
  26.058911, 1262.739503
  26.065344, 1262.628453
  26.071787, 1262.517359
  26.078248, 1262.406112
  26.084712, 1262.294953
  26.091193, 1262.183649
  26.097707, 1262.071943
  26.104189, 1261.960922
  26.110660, 1261.850237
  26.117162, 1261.739178
  26.123705, 1261.627568
  26.130248, 1261.516123
  26.136796, 1261.404736
  26.143355, 1261.293305
  26.149905, 1261.182192
  26.151449, 1261.156029
  26.156473, 1261.070922
  26.163091, 1260.958974
  26.169663, 1260.847950
  26.176287, 1260.736223
  26.182909, 1260.624670
  26.189556, 1260.512858
  26.196192, 1260.401388
  26.202828, 1260.290094
  26.209473, 1260.178789
  26.216112, 1260.067752
  26.222817, 1259.955780
  26.229498, 1259.844372
  26.236172, 1259.733234
  26.242898, 1259.621397
  26.249642, 1259.509433
  26.256395, 1259.397496
  26.263129, 1259.286031
  26.269919, 1259.173813
  26.276668, 1259.062424
  26.283439, 1258.950850
  26.290225, 1258.839208
  26.297032, 1258.727383
  26.303849, 1258.615579
  26.310677, 1258.503758
  26.317519, 1258.391884
  26.324356, 1258.280252
  26.331182, 1258.168987
  26.338068, 1258.056926
  26.344948, 1257.945130
  26.351846, 1257.833217
  26.358739, 1257.721575
  26.365664, 1257.609585
  26.372568, 1257.498113
  26.379510, 1257.386216
  26.386451, 1257.274513
  26.393459, 1257.161911
  26.400429, 1257.050114
  26.407423, 1256.938113
  26.414410, 1256.826417
  26.421444, 1256.714142
  26.428508, 1256.601583
  26.435556, 1256.489479
  26.442623, 1256.377254
  26.449661, 1256.265683
  26.456718, 1256.153988
  26.463847, 1256.041368
  26.470952, 1255.929301
  26.478051, 1255.817541
  26.485149, 1255.705975
  26.492274, 1255.594185
  26.499415, 1255.482352
  26.506549, 1255.370803
  26.513728, 1255.258773
  26.520883, 1255.147294
  26.528091, 1255.035209
  26.535309, 1254.923154
  26.542558, 1254.810831
  26.549805, 1254.698748
  26.557081, 1254.586419
  26.564353, 1254.474362
  26.571635, 1254.362345
  26.578890, 1254.250964
  26.586182, 1254.139215
  26.593499, 1254.027292
  26.600870, 1253.914752
  26.608232, 1253.802572
  26.615608, 1253.690397
  26.622992, 1253.578304
  26.630400, 1253.466068
  26.637795, 1253.354244
  26.645223, 1253.242148
  26.652616, 1253.130784
  26.660021, 1253.019460
  26.667477, 1252.907595
  26.674937, 1252.795896
  26.682424, 1252.684008
  26.689919, 1252.572221
  26.697431, 1252.460417
  26.704941, 1252.348851
  26.712504, 1252.236741
  26.720017, 1252.125599
  26.727514, 1252.014909
  26.735063, 1251.903691
  26.742652, 1251.792118
  26.750270, 1251.680345
  26.757891, 1251.568761
  26.765515, 1251.457365
  26.773162, 1251.345874
  26.780822, 1251.234432
  26.788454, 1251.123634
  26.796133, 1251.012396
  26.803806, 1250.901481
  26.811505, 1250.790433
  26.819199, 1250.679695
  26.826922, 1250.568793
  26.834669, 1250.457784
  26.842433, 1250.346774
  26.850239, 1250.235414
  26.858042, 1250.124355
  26.865826, 1250.013813
  26.873638, 1249.903117
  26.881477, 1249.792301
  26.889319, 1249.681691
  26.897226, 1249.570421
  26.905132, 1249.459422
  26.913044, 1249.348592
  26.920978, 1249.237731
  26.928944, 1249.126664
  26.936868, 1249.016465
  26.944848, 1248.905738
  26.952804, 1248.795608
  26.960829, 1248.684795
  26.968829, 1248.574600
  26.976851, 1248.464363
  26.984932, 1248.353592
  26.992963, 1248.243778
  27.001056, 1248.133391
  27.009157, 1248.023167
  27.017265, 1247.913120
  27.025431, 1247.802566
  27.033552, 1247.692908
  27.041737, 1247.582665
  27.049884, 1247.473203
  27.058033, 1247.364007
  27.066209, 1247.254734
  27.074409, 1247.145412
  27.082612, 1247.036345
  27.090802, 1246.927729
  27.099102, 1246.817954
  27.107375, 1246.708821
  27.115712, 1246.599152
  27.123992, 1246.490519
  27.132303, 1246.381762
  27.140633, 1246.273070
  27.148942, 1246.164940
  27.157336, 1246.055999
  27.165696, 1245.947810
  27.174133, 1245.838929
  27.182544, 1245.730684
  27.191005, 1245.622097
  27.199394, 1245.514747
  27.207780, 1245.407739
  27.216211, 1245.300459
  27.224709, 1245.192633
  27.233211, 1245.085080
  27.241752, 1244.977341
  27.250277, 1244.870123
  27.258852, 1244.762592
  27.267435, 1244.655284
  27.276006, 1244.548442
  27.284540, 1244.442390
  27.293152, 1244.335678
  27.301753, 1244.229431
  27.310434, 1244.122520
  27.319057, 1244.016654
  27.327724, 1243.910570
  27.336494, 1243.803567
  27.345172, 1243.698019
  27.353938, 1243.591732
  27.362597, 1243.487083
  27.371304, 1243.382176
  27.380090, 1243.276659
  27.388871, 1243.171541
  27.397602, 1243.067363
  27.406441, 1242.962240
  27.415286, 1242.857395
  27.424069, 1242.753614
  27.432901, 1242.649615
  27.441712, 1242.546196
  27.450631, 1242.441871
  27.459521, 1242.338224
  27.468425, 1242.234777
  27.477361, 1242.131307
  27.486329, 1242.027830
  27.495356, 1241.924035
  27.504291, 1241.821659
  27.513248, 1241.719384
  27.522226, 1241.617230
  27.531145, 1241.516108
  27.540104, 1241.414892
  27.549242, 1241.312020
  27.558428, 1241.208989
  27.567539, 1241.107175
  27.576582, 1241.006482
  27.585701, 1240.905323
  27.594867, 1240.804025
  27.604090, 1240.702470
  27.613281, 1240.601660
  27.622406, 1240.501944
  27.631583, 1240.402042
  27.640733, 1240.302818
  27.649971, 1240.203026
  27.659186, 1240.103861
  27.668393, 1240.005176
  27.677632, 1239.906525
  27.686863, 1239.808363
  27.696155, 1239.709929
  27.705431, 1239.612065
  27.714721, 1239.514449
  27.723975, 1239.417600
  27.733235, 1239.321076
  27.742539, 1239.224488
  27.751860, 1239.128130
  27.761217, 1239.031794
  27.770569, 1238.935917
  27.779917, 1238.840474
  27.789331, 1238.744773
  27.798872, 1238.648185
  27.808303, 1238.553131
  27.817808, 1238.457748
  27.827277, 1238.363129
  27.836714, 1238.269246
  27.846223, 1238.175067
  27.855776, 1238.080873
  27.865350, 1237.986896
  27.874869, 1237.893878
  27.884396, 1237.801202
  27.894072, 1237.707502
  27.903597, 1237.615696
  27.913259, 1237.522998
  27.922939, 1237.430559
  27.932600, 1237.338744
  27.942146, 1237.248443
  27.951703, 1237.158458
  27.961331, 1237.068241
  27.971074, 1236.977387
  27.980702, 1236.888049
  27.990433, 1236.798185
  28.000136, 1236.709024
  28.009856, 1236.620141
  28.019641, 1236.531117
  28.029507, 1236.441815
  28.039193, 1236.354581
  28.048878, 1236.267796
  28.058606, 1236.181070
  28.068396, 1236.094246
  28.078290, 1236.006951
  28.088104, 1235.920813
  28.097940, 1235.834944
  28.107799, 1235.749328
  28.117791, 1235.663035
  28.127689, 1235.578004
  28.137642, 1235.492974
  28.147537, 1235.408905
  28.157414, 1235.325451
  28.167350, 1235.241966
  28.177321, 1235.158649
  28.187250, 1235.076157
  28.197176, 1234.994158
  28.207105, 1234.912600
  28.217146, 1234.830598
  28.227164, 1234.749258
  28.237129, 1234.668821
  28.247082, 1234.588958
  28.257064, 1234.509332
  28.267201, 1234.428960
  28.277302, 1234.349359
  28.287350, 1234.270656
  28.297470, 1234.191879
  28.307562, 1234.113801
  28.317732, 1234.035622
  28.327788, 1233.958793
  28.337952, 1233.881639
  28.348036, 1233.805576
  28.358153, 1233.729759
  28.368396, 1233.653495
  28.378514, 1233.578656
  28.388648, 1233.504186
  28.398877, 1233.429524
  28.409060, 1233.355695
  28.419220, 1233.282526
  28.429474, 1233.209186
  28.439708, 1233.136491
  28.449865, 1233.064846
  28.460079, 1232.993291
  28.470282, 1232.922320
  28.480520, 1232.851613
  28.490729, 1232.781604
  28.501055, 1232.711311
  28.511348, 1232.641745
  28.521710, 1232.572240
  28.531974, 1232.503895
  28.542199, 1232.436317
  28.552477, 1232.368906
  28.562860, 1232.301320
  28.573177, 1232.234678
  28.583609, 1232.167819
  28.593957, 1232.102020
  28.604463, 1232.035744
  28.614908, 1231.970387
  28.625352, 1231.905566
  28.635756, 1231.841516
  28.646155, 1231.778021
  28.656578, 1231.714910
  28.666978, 1231.652460
  28.677430, 1231.590233
  28.687863, 1231.528648
  28.698277, 1231.467697
  28.708715, 1231.407142
  28.719159, 1231.347081
  28.729665, 1231.287200
  28.740147, 1231.227986
  28.750607, 1231.169436
  28.761109, 1231.111185
  28.771537, 1231.053878
  28.776972, 1231.024223
