Time, Horizontal Forces
   0.000000,    0.000000
   0.000000,    0.000005
   0.000006,    0.000064
   0.000081,    0.000867
   0.000699,    0.007432
   0.003468,    0.036872
   0.009283,    0.098682
   0.017960,    0.190880
   0.029596,    0.314479
   0.044123,    0.468749
   0.061553,    0.653782
   0.081999,    0.870773
   0.105450,    1.119580
   0.131994,    1.401118
   0.161747,    1.716581
   0.194513,    2.063896
   0.230914,    2.449611
   0.270526,    2.869221
   0.313173,    3.320841
   0.359084,    3.806862
   0.408542,    4.330262
   0.461757,    4.893253
   0.519904,    5.508208
   0.581296,    6.157259
   0.646687,    6.848362
   0.715945,    7.580092
   0.788688,    8.348380
   0.864259,    9.146258
   0.945221,   10.000775
   1.029760,   10.892727
   1.119383,   11.837992
   1.212530,   12.820073
   1.312001,   13.868469
   1.414970,   14.953338
   1.525017,   16.112356
   1.639121,   17.313668
   1.758011,   18.564894
   1.884984,   19.900679
   2.015833,   21.276721
   2.152143,   22.709631
   2.294481,   24.205331
   2.441864,   25.753440
   2.593988,   27.350715
   2.754303,   29.033336
   2.916678,   30.736884
   3.087543,   32.528801
   3.262882,   34.366885
   3.447395,   36.300351
   3.636847,   38.284742
   3.836192,   40.371881
   4.040665,   42.511808
   4.250971,   44.711830
   4.466715,   46.967785
   4.693176,   49.334783
   4.924425,   51.750758
   5.163882,   54.251393
   5.412825,   56.849932
   5.674078,   59.575731
   5.938114,   62.329299
   6.212622,   65.190754
   6.492260,   68.104352
   6.781912,   71.120874
   7.079639,   74.220036
   7.383248,   77.378932
   7.697232,   80.644229
   8.016771,   83.965704
   8.347162,   87.398341
   8.685301,   90.909773
   9.033737,   94.526361
   9.393934,   98.263184
   9.762446,  102.084352
  10.142003,  106.018075
  10.524603,  109.981342
  10.923586,  114.112207
  11.329340,  118.311026
  11.749655,  122.658283
  12.173712,  127.041948
  12.613157,  131.582313
  13.061504,  136.212210
  13.518263,  140.926469
  13.991016,  145.803186
  14.467732,  150.718138
  14.958757,  155.777876
  15.456775,  160.906883
  15.973773,  166.228435
  16.495344,  171.594081
  17.029105,  177.082100
  17.574798,  182.689659
  18.134788,  188.440887
  18.702388,  194.266976
  19.286740,  200.261591
  19.885425,  206.399694
  20.494528,  212.640983
  21.115462,  218.999777
  21.746890,  225.462254
  22.390314,  232.043625
  23.048963,  238.776735
  23.716674,  245.598403
  24.402398,  252.599910
  25.107305,  259.792886
  25.135325,  260.078722
  25.154587,  260.275201
  25.171818,  260.450973
  25.185688,  260.592445
  25.201701,  260.755785
  25.213792,  260.879119
  25.216352,  260.905230
  25.219779,  260.940186
  25.220523,  260.947778
  25.221723,  260.960011
  25.222112,  260.963986
  25.222191,  260.964789
  25.222357,  260.966484
  25.224019,  260.983430
  25.237170,  261.117573
  25.296358,  261.721262
  25.498740,  263.785160
  26.000947,  268.904698
  26.642256,  275.438168
  27.302605,  282.160880
  27.974971,  289.001045
  28.653947,  295.903523
  29.346020,  302.934100
  30.053653,  310.117540
  30.769314,  317.377196
  31.493917,  324.722201
  32.235460,  332.233406
  32.986662,  339.836818
  33.749175,  347.549008
  34.521758,  355.357223
  35.309010,  363.307745
  36.110702,  371.397989
  36.918686,  379.545562
  37.737715,  387.798274
  38.565372,  396.131594
  39.411603,  404.645420
  40.272584,  413.300990
  41.143597,  422.050620
  42.028225,  430.930128
  42.927001,  439.944595
  43.837619,  449.070667
  44.766343,  458.370832
  45.699879,  467.711780
  46.644286,  477.154019
  47.608940,  486.790994
  48.581376,  496.497926
  49.574219,  506.400584
  50.577529,  516.399516
  51.594742,  526.528756
  52.624413,  536.773682
  53.659619,  547.065261
  54.722782,  557.626090
  55.793643,  568.254569
  56.886581,  579.093129
  57.986542,  589.992195
  59.097008,  600.986145
  60.230149,  612.195151
  61.373373,  623.494307
  62.533107,  634.946909
  63.705654,  646.516165
  64.887957,  658.171702
  66.098842,  670.098741
  67.316009,  682.077270
  68.552761,  694.237963
  69.802626,  706.516864
  71.066063,  718.918240
  72.337267,  731.384921
  73.633184,  744.082785
  74.937627,  756.852884
  76.259104,  769.778266
  77.604494,  782.925807
  78.964225,  796.201543
  80.341091,  809.632445
  81.731271,  823.180947
  83.142511,  836.922187
  84.561698,  850.728198
  85.995265,  864.661367
  87.444770,  878.736561
  88.909104,  892.942679
  90.400811,  907.400975
  91.901031,  921.928266
  93.423639,  936.658606
  94.964104,  951.547720
  96.517240,  966.545198
  98.080217,  981.623498
  99.664272,  996.890731
 101.266676, 1012.320172
 102.891796, 1027.953406
 104.526630, 1043.665043
 104.539735, 1043.790926
 104.542737, 1043.819761
 104.543987, 1043.831776
 104.546489, 1043.855806
 104.546777, 1043.858572
 104.546938, 1043.860122
 104.547182, 1043.862468
 104.549626, 1043.885937
 104.574059, 1044.120632
 104.717274, 1045.496236
 105.202036, 1050.151367
 106.378729, 1061.444157
 107.871336, 1075.754817
 109.366606, 1090.075441
 110.882950, 1104.582111
 112.407164, 1119.148152
 113.943577, 1133.814746
 115.497772, 1148.634821
 117.071981, 1163.629188
 118.654749, 1178.688398
 120.245072, 1193.802766
 121.861354, 1209.146792
 123.485075, 1224.544249
 125.124172, 1240.070147
 126.780605, 1255.742656
 128.452606, 1271.544650
 130.136489, 1287.440969
 131.835861, 1303.465362
 133.556284, 1319.669796
 135.287735, 1335.959477
 137.033772, 1352.367603
 138.793246, 1368.883039
 140.565230, 1385.496799
 142.361784, 1402.321480
 144.164887, 1419.187935
 145.979488, 1436.142296
 147.815380, 1453.275653
 149.672591, 1470.587720
 151.547364, 1488.042951
 153.429532, 1505.546423
 155.329287, 1523.192644
 157.237444, 1540.895991
 159.171616, 1558.819450
 161.112003, 1576.779148
 163.075804, 1594.933912
 165.046358, 1613.129362
 167.036178, 1631.480746
 169.042826, 1649.965120
 171.062032, 1668.542796
 173.107959, 1687.343574
 175.162859, 1706.203907
 177.231972, 1725.171643
 179.321368, 1744.301992
 181.424434, 1763.533984
 183.537603, 1782.834747
 185.678299, 1802.362936
 187.832754, 1821.992404
 190.009434, 1841.799833
 192.198701, 1861.697074
 194.405030, 1881.724448
 196.620050, 1901.805686
 198.856798, 1922.058605
 201.111476, 1942.448308
 203.379910, 1962.936666
 205.669758, 1983.592382
 207.977134, 2004.379906
 210.306103, 2025.335340
 212.646846, 2046.369921
 214.994192, 2067.437026
 217.363102, 2088.670607
 219.756760, 2110.098567
 222.166594, 2131.643618
 224.602090, 2153.390005
 227.041404, 2175.142359
 229.496927, 2197.010965
 231.973480, 2219.038296
 234.466238, 2241.180956
 236.981575, 2263.495041
 239.508770, 2285.885027
 242.065907, 2308.510566
 244.638466, 2331.242559
 245.156938, 2335.820325
 245.494762, 2338.802428
 245.750051, 2341.055626
 245.955696, 2342.870453
 246.156817, 2344.645165
 246.360575, 2346.442962
 246.509926, 2347.760594
 246.536485, 2347.994902
 246.569959, 2348.290204
 246.609033, 2348.634901
 246.611229, 2348.654278
 246.612549, 2348.665916
 246.613518, 2348.674470
 246.614303, 2348.681393
 246.614556, 2348.683627
 246.614814, 2348.685906
 246.617397, 2348.708691
 246.639574, 2348.904326
 246.780542, 2350.147805
 247.315184, 2354.862861
 249.139642, 2370.940523
 251.404036, 2390.868441
 253.699369, 2411.038732
 256.004014, 2431.260716
 258.328686, 2451.628010
 260.655828, 2471.986498
 263.004579, 2492.503297
 265.366922, 2513.107862
 267.740256, 2533.777166
 270.131666, 2554.572526
 272.535832, 2575.447227
 274.948439, 2596.363547
 277.381395, 2617.424323
 279.827113, 2638.563395
 282.292498, 2659.839973
 284.769320, 2681.182576
 287.256506, 2702.581704
 289.758171, 2724.072429
 292.278909, 2745.693731
 294.806368, 2767.339319
 297.350989, 2789.098305
 299.915435, 2810.992909
 302.495314, 2832.985093
 305.082355, 2855.004084
 307.690629, 2877.169249
 310.309911, 2899.393235
 312.945474, 2921.720416
 315.596902, 2944.146803
 318.256757, 2966.609167
 320.932506, 2989.170270
 323.630245, 3011.880936
 326.343042, 3034.682238
 329.067365, 3057.544149
 331.802828, 3080.463157
 334.555459, 3103.489380
 337.328881, 3126.652543
 340.110638, 3149.848222
 342.912817, 3173.176822
 345.735048, 3196.634617
 348.571929, 3220.176202
 351.416009, 3243.739505
 354.278718, 3267.418885
 357.155150, 3291.173296
 360.049072, 3315.033405
 362.964475, 3339.031535
 365.884928, 3363.032089
 368.817322, 3387.091542
 371.766818, 3411.251848
 374.729592, 3435.481256
 377.712618, 3459.836330
 380.705417, 3484.231092
 383.719420, 3508.758297
 386.759157, 3533.454042
 389.800591, 3558.122702
 392.867138, 3582.953851
 395.945380, 3607.838287
 399.043014, 3632.837815
 402.157724, 3657.933193
 405.284131, 3683.080702
 408.419544, 3708.258482
 411.577222, 3733.572574
 414.764999, 3759.084921
 417.948210, 3784.517774
 421.160956, 3810.143297
 424.378335, 3835.762368
 427.616846, 3861.506049
 430.876829, 3887.376397
 434.145576, 3913.272139
 437.428615, 3939.236829
 440.728039, 3965.286586
 444.048966, 3991.461266
 447.386551, 4017.722121
 450.732892, 4044.006660
 454.108833, 4070.478053
 457.487058, 4096.921663
 460.888088, 4123.497823
 464.304706, 4150.149572
 464.990495, 4155.493594
 467.377924, 4174.083197
 467.515046, 4175.150210
 467.538661, 4175.333964
 467.548684, 4175.411952
 467.551293, 4175.432254
 467.552849, 4175.444361
 467.554620, 4175.458138
 467.572325, 4175.595906
 467.698666, 4176.578932
 468.534335, 4183.079451
 472.194187, 4211.516193
 475.641414, 4238.252480
 479.110670, 4265.112450
 482.595078, 4292.042325
 486.098418, 4319.070830
 489.616727, 4346.166926
 493.149280, 4373.324645
 496.693071, 4400.520577
 500.266628, 4427.896294
 503.847318, 4455.277875
 507.450139, 4482.779631
 511.064352, 4510.319135
 514.692557, 4537.915885
 518.341361, 4565.619659
 522.013405, 4593.449841
 525.693678, 4621.292240
 529.390924, 4649.212717
 533.101684, 4677.184745
 536.830320, 4705.240808
 540.583884, 4733.433303
 544.350946, 4761.675836
 548.132836, 4789.978017
 551.938246, 4818.404339
 555.759270, 4846.895187
 559.594637, 4875.440691
 563.445223, 4904.046993
 567.303561, 4932.658399
 571.184742, 4961.386408
 575.086347, 4990.212466
 579.001870, 5019.088044
 582.928818, 5047.994467
 586.875636, 5076.993498
 590.844468, 5106.100270
 594.826134, 5135.246982
 598.830514, 5164.505460
 602.857980, 5193.877742
 606.896590, 5223.276257
 610.951745, 5252.740014
 615.022109, 5282.258876
 619.112651, 5311.868411
 623.222789, 5341.563830
 627.351194, 5371.335003
 631.499344, 5401.192049
 635.657072, 5431.061447
 639.837451, 5461.036685
 644.029999, 5491.042143
 648.237023, 5521.094040
 652.466889, 5551.251607
 656.712596, 5581.464400
 660.980636, 5611.778083
 665.264700, 5642.147311
 669.570956, 5672.615273
 673.892541, 5703.132906
 676.160155, 5719.122581
 678.226955, 5733.682220
 682.580782, 5793.514274
 686.946938, 5885.779658
 691.344019, 5978.295099
 695.758548, 6074.727768
 700.197558, 6177.641464
 704.644708, 6280.828448
 709.105097, 6384.060911
 713.600697, 6491.669349
 718.119169, 6606.179867
 722.646755, 6720.948735
 727.198480, 6835.841679
 731.766217, 6954.522873
 736.344433, 7081.207608
 740.946719, 7208.023673
 745.564039, 7335.163128
 750.191281, 7463.235036
 754.835658, 7600.969013
 759.502489, 7738.940866
 764.175716, 7877.123378
 768.856914, 8015.180151
 773.555080, 8159.942483
 778.263018, 8307.765837
 782.988593, 8455.592516
 787.715931, 8603.455859
 792.453010, 8752.295198
 792.643139, 8868.481719
 792.899094, 8875.343679
 793.151053, 8883.742689
 793.217329, 8890.362251
 793.301442, 8892.707038
 793.321433, 8894.896379
 793.351294, 8895.644261
 793.353384, 8896.375966
 793.354241, 8896.433634
 793.355122, 8896.462067
 793.363923, 8896.562877
 793.451944, 8897.571006
 793.967135, 8904.343423
 796.012112, 8935.199382
 800.932922, 9028.851203
 805.905826, 9191.990057
 806.236681, 9312.773755
 806.566898, 9323.549436
 806.898423, 9334.318468
 807.229874, 9345.113682
 807.561840, 9355.908138
 807.893824, 9366.710977
 808.225486, 9377.507446
 808.558288, 9388.303017
 808.891287, 9399.123135
 809.224474, 9409.945637
 809.556565, 9420.758523
 809.888823, 9431.543452
 810.222823, 9442.344278
 810.556584, 9454.138895
 810.890991, 9465.948281
 811.225027, 9477.766854
 811.558493, 9489.566116
 811.893839, 9501.363300
 812.229759, 9513.210475
 812.565602, 9525.067491
 812.898568, 9536.891564
 813.232727, 9548.646936
 813.568861, 9560.447075
 813.906228, 9572.305469
 814.240510, 9584.163077
 814.576350, 9595.949956
 814.912871, 9607.779015
 815.249137, 9619.618763
 815.587293, 9631.464480
 815.924423, 9643.345154
 816.263204, 9655.209477
 816.602649, 9667.117958
 816.942211, 9679.039847
 817.282686, 9690.968218
 817.623920, 9702.922206
 817.965140, 9714.890737
 818.305496, 9726.845927
 818.647001, 9738.784167
 818.989324, 9750.754549
 819.331926, 9762.743486
 819.673757, 9774.727362
 820.017327, 9786.701999
 820.359033, 9798.699229
 820.701454, 9810.649583
 821.044816, 9822.621710
 821.390004, 9834.629467
 821.734523, 9846.672721
 822.079587, 9858.698275
 822.423887, 9870.725367
 822.769502, 9882.739311
 823.112594, 9894.758480
 823.457130, 9906.720421
 823.803423, 9918.729945
 824.150767, 9930.788530
 824.497731, 9942.864885
 824.845767, 9954.935557
 825.192354, 9967.014656
 825.541948, 9979.078242
 825.891199, 9991.209844
 826.241842, 10003.339401
 826.592505, 10015.498752
 826.943630, 10027.656767
 827.295039, 10039.823113
 827.645908, 10043.016455
 827.999299, 10046.229576
 828.349563, 10049.411127
 828.701677, 10052.606313
 829.054635, 10055.805984
 829.407189, 10058.998805
 829.762143, 10062.210128
 830.116670, 10065.414359
 830.468208, 10068.588381
 830.824009, 10071.797639
 831.180284, 10075.007903
 831.535037, 10078.201189
 831.891661, 10081.408026
 832.248324, 10084.611907
 832.605092, 10087.813432
 832.960269, 10090.997379
 833.318761, 10094.207714
 833.676508, 10097.408026
 834.035569, 10100.616721
 834.392862, 10103.806264
 834.753261, 10107.020149
 835.114144, 10110.234916
 835.474406, 10113.440738
 835.834996, 10116.646051
 836.196586, 10119.856805
 836.557140, 10123.054919
 836.918014, 10126.252416
 837.280459, 10129.460358
 837.643742, 10132.672222
 838.005706, 10135.868918
 838.368911, 10139.073076
 838.733942, 10142.289787
 839.098750, 10145.500974
 839.464945, 10148.720792
 839.829376, 10151.921523
 840.195898, 10155.137028
 840.562416, 10158.348881
 840.929494, 10161.562019
 841.297076, 10164.775922
 841.664141, 10167.981660
 842.031536, 10171.186637
 842.400603, 10174.402512
 842.770595, 10177.622741
 843.141760, 10180.849441
 843.511769, 10184.062358
 843.882689, 10187.279440
 844.254771, 10190.502831
 844.627622, 10193.729086
 845.001863, 10196.963533
 845.375418, 10200.188235
 845.749667, 10203.415081
 846.124187, 10206.640404
 846.499161, 10209.865773
 846.874047, 10213.086510
 847.249101, 10216.304804
 847.625681, 10219.532284
 848.002908, 10222.761364
 848.380154, 10225.986671
 848.756866, 10229.203459
 849.136393, 10232.440297
 849.516274, 10235.676136
 849.896483, 10238.910743
 850.274475, 10242.122479
 850.651819, 10245.324728
 851.033687, 10248.561306
 851.415841, 10251.796220
 851.797365, 10255.021708
 852.179981, 10258.252307
 852.564766, 10261.497071
 852.950007, 10264.741495
 853.334789, 10267.977870
 853.719457, 10271.209099
 854.104943, 10274.443002
 854.492253, 10277.687951
 854.879276, 10280.926246
 855.267379, 10284.169304
 855.656270, 10287.414635
 856.044594, 10290.650943
 856.435740, 10293.906408
 856.825734, 10297.147932
 857.216260, 10300.389511
 857.313734, 10301.197920
 857.607364, 10303.631506
 858.000336, 10306.884565
 858.393600, 10310.135594
 858.785537, 10313.371230
 859.179128, 10316.616059
 859.572171, 10319.851908
 859.967117, 10323.098925
 860.362796, 10326.347441
 860.760255, 10329.606004
 861.157309, 10332.856672
 861.558207, 10336.134160
 861.956036, 10339.381941
 862.355882, 10342.641532
 862.756088, 10345.899395
 863.157061, 10349.158809
 863.557516, 10352.409317
 863.960706, 10355.677278
 864.359707, 10358.906597
 864.764125, 10362.174986
 865.166178, 10365.419493
 865.570859, 10368.680406
 865.974751, 10371.930141
 866.382404, 10375.205258
 866.790407, 10378.478271
 867.198303, 10381.745499
 867.607160, 10385.015483
 868.016387, 10388.283457
 868.428370, 10391.568409
 868.841258, 10394.855514
 869.252705, 10398.126102
 869.664291, 10401.392739
 870.079102, 10404.679849
 870.490432, 10407.934304
 870.904933, 10411.208719
 871.319475, 10414.478304
 871.736259, 10417.760377
 872.152709, 10421.034608
 872.571378, 10424.321031
 872.988585, 10427.590714
 873.407026, 10430.864804
 873.828325, 10434.155908
 874.249166, 10437.438075
 874.669900, 10440.714053
 875.092793, 10444.001439
 875.514340, 10447.272951
 875.936788, 10450.546038
 876.359515, 10453.815862
 876.785346, 10457.104182
 877.212719, 10460.398857
 877.638508, 10463.675768
 878.065822, 10466.958847
 878.494814, 10470.249193
 878.926131, 10473.551692
 879.355284, 10476.831951
 879.786560, 10480.122737
 880.217856, 10483.407954
 880.650605, 10486.698486
 881.082838, 10489.979329
 881.518686, 10493.281766
 881.953170, 10496.568030
 882.388135, 10499.852082
 882.827019, 10503.159778
 883.262775, 10506.437996
 883.702141, 10509.737398
 884.142207, 10513.036037
 884.583542, 10516.338140
 885.024929, 10519.634556
 885.466250, 10522.924410
 885.907722, 10526.209292
 886.350292, 10529.496231
 886.794035, 10532.785729
 887.241563, 10536.097029
 887.687342, 10539.389143
 888.137453, 10542.706916
 888.584883, 10545.998610
 889.034499, 10549.300034
 889.483631, 10552.591533
 889.935720, 10555.898281
 890.388675, 10559.204886
 890.839060, 10562.486298
 891.289848, 10565.764208
 891.742976, 10569.052641
 892.194337, 10572.321769
 892.652820, 10575.635854
 893.108670, 10578.924280
 893.566714, 10582.221856
 894.025099, 10585.515202
 894.487541, 10588.830889
 894.951755, 10592.152411
 895.414974, 10595.459945
 895.874008, 10598.730812
 896.338777, 10602.035663
 896.803065, 10605.330168
 897.269913, 10608.635855
 897.733999, 10611.915036
 898.199581, 10615.197813
 898.670297, 10618.509684
 899.136172, 10621.780460
 899.608136, 10625.086827
 900.078317, 10628.373538
 900.550524, 10631.667210
 901.025698, 10634.974276
 901.499913, 10638.267365
 901.976972, 10641.572833
 902.455443, 10644.880646
 902.932880, 10648.173881
 903.412175, 10651.472462
 903.893436, 10654.777024
 904.375710, 10658.080957
 904.858117, 10661.378197
 905.341414, 10664.673877
 905.825655, 10667.968316
 906.307963, 10671.241963
 906.792044, 10674.519964
 907.275054, 10677.783029
 907.764509, 10681.081806
 908.252413, 10684.362277
 908.739848, 10687.631756
 909.230884, 10690.917461
 909.718306, 10694.171101
 910.208872, 10697.437796
 910.701236, 10700.708448
 911.194743, 10703.978632
 911.690610, 10707.256313
 912.183854, 10710.508555
 912.678655, 10713.762944
 913.173923, 10717.012236
 913.673358, 10720.280593
 914.173322, 10723.544086
 914.673550, 10726.800945
 915.179006, 10730.083351
 915.683997, 10733.354206
 916.188370, 10736.612541
 916.693425, 10739.866727
 917.197598, 10743.106707
 917.704768, 10746.357328
 918.213165, 10749.607134
 918.723747, 10752.862159
 919.234283, 10756.108111
 919.745399, 10759.348947
 920.258433, 10762.593077
 920.771740, 10765.830040
 921.286737, 10769.068709
 921.808078, 10772.338129
 922.324138, 10775.565361
 922.842956, 10778.800740
 923.360616, 10782.019787
 923.880403, 10785.242905
 924.399356, 10788.451687
 924.923949, 10791.686025
 925.445867, 10794.894567
 925.972403, 10798.122078
 926.497827, 10801.333348
 927.022257, 10804.529133
 927.553174, 10807.754875
 928.082439, 10810.960972
 928.615170, 10814.178373
 929.142353, 10817.352681
 929.669570, 10820.517663
 930.199181, 10823.687395
 930.727988, 10826.842696
 931.265367, 10830.039285
 931.802384, 10833.223779
 932.337279, 10836.385807
 932.870322, 10839.527067
 933.408978, 10842.691431
 933.952512, 10845.874286
 934.494651, 10849.038788
 935.036756, 10852.192915
 935.578429, 10855.334348
 936.122733, 10858.480791
 936.668893, 10861.627620
 937.210190, 10864.736200
 937.755543, 10867.857771
 938.301797, 10870.974114
 938.853365, 10874.110225
 939.401540, 10877.216532
 939.951147, 10880.320421
 940.506242, 10883.444598
 941.056927, 10886.533302
 941.611036, 10889.630506
 942.164136, 10892.711341
 942.721136, 10895.803068
 943.279062, 10898.889022
 943.836490, 10901.961303
 944.397389, 10905.041700
 944.955884, 10908.097894
 945.516172, 10911.152875
 946.076851, 10914.198914
 946.636561, 10917.228635
 947.200212, 10920.268516
 947.761325, 10923.283569
 948.328218, 10926.318386
 948.899542, 10929.365418
 949.467815, 10932.384717
 950.036504, 10935.394779
 950.607997, 10938.408127
 951.178154, 10941.402888
 951.748932, 10944.389344
 952.321689, 10947.374520
 952.894253, 10950.347032
 953.468456, 10953.316333
 954.036535, 10956.242412
 954.610039, 10959.184766
 955.188737, 10962.141875
 955.762027, 10965.059559
 956.343323, 10968.006005
 956.926953, 10970.952127
 957.506950, 10973.867837
 958.089281, 10976.783164
 958.671177, 10979.684178
 959.254097, 10982.578122
 959.840943, 10985.479244
 960.426181, 10988.360096
 961.015847, 10991.250303
 961.598091, 10994.091864
 962.185732, 10996.947390
 962.777821, 10999.811961
 963.366047, 11002.645327
 963.956071, 11005.474822
 964.549300, 11008.307022
 965.141692, 11011.122542
 965.735435, 11013.931765
 966.330756, 11016.735652
 966.928131, 11019.536320
 967.521810, 11022.306866
 968.117845, 11025.075557
 968.712985, 11027.827235
 969.309653, 11030.573086
 969.910094, 11033.323247
 970.509475, 11036.055493
 971.112830, 11038.792661
 971.714277, 11041.507996
 972.316663, 11044.214376
 972.919621, 11046.910087
 973.527303, 11049.613513
 974.134409, 11052.300933
 974.744648, 11054.988665
 975.356137, 11057.668262
 975.966504, 11060.329321
 976.581516, 11062.996852
 977.199943, 11065.665248
 977.819353, 11068.323851
 978.432003, 11070.939617
 979.043925, 11073.538543
 979.667866, 11076.174380
 980.285347, 11078.768862
 980.900476, 11081.339546
 981.517911, 11083.905887
 982.132529, 11086.446605
 982.748605, 11088.979406
 983.373846, 11091.535612
 983.993658, 11094.055410
 984.616662, 11096.573928
 985.234317, 11099.056701
 985.862233, 11101.566297
 986.490554, 11104.062950
 987.115172, 11106.530441
 987.736511, 11108.970683
 988.358319, 11111.398481
 988.987877, 11113.841976
 989.612720, 11116.252668
 990.244768, 11118.676459
 990.873834, 11121.074121
 991.506753, 11123.471671
 992.139798, 11125.854843
 992.767273, 11128.202376
 993.393892, 11130.532128
 994.029562, 11132.880635
 994.663437, 11135.207565
 995.302882, 11137.539810
 995.934763, 11139.829535
 996.576569, 11142.140019
 997.210255, 11144.406233
 997.850668, 11146.681311
 998.488917, 11148.933502
 999.122395, 11151.153843
 999.762229, 11153.381275
1000.399394, 11155.584243
1001.042265, 11157.791582
1001.679256, 11159.963512
1002.318896, 11162.129226
1002.959184, 11164.281822
1003.604742, 11166.436620
1004.248075, 11168.568482
1004.894921, 11170.696378
1005.538273, 11172.797244
1006.190313, 11174.910668
1006.832135, 11176.975418
1007.473391, 11179.022930
1008.119030, 11181.068865
1008.771666, 11183.121079
1009.424936, 11185.159287
1010.068713, 11187.152204
1010.719465, 11189.150899
1011.376823, 11191.153735
1012.029079, 11193.124976
1012.684650, 11195.090124
1013.337218, 11197.030221
1013.986888, 11198.945788
1014.645253, 11200.870793
1015.300441, 11202.770308
1015.958363, 11204.661488
1016.617797, 11206.540651
1017.279458, 11208.409695
1017.943456, 11210.268751
1018.603081, 11212.099103
1019.269732, 11213.932279
1019.927122, 11215.723569
1020.587314, 11217.506080
1021.247711, 11219.272685
1021.907759, 11221.021898
1022.573135, 11222.768577
1023.235997, 11224.492024
1023.898553, 11226.198080
1024.058882, 11226.608428
