Time, Horizontal Forces
   0.000000, 6491.576795
   0.000000, 6491.576792
   0.000006, 6491.576752
   0.000081, 6491.576212
   0.000699, 6491.571796
   0.003468, 6491.551992
   0.009283, 6491.510412
   0.017960, 6491.448391
   0.029596, 6491.365246
   0.044123, 6491.261469
   0.061553, 6491.136998
   0.081999, 6490.991028
   0.105450, 6490.823657
   0.131994, 6490.634267
   0.161747, 6490.422055
   0.194513, 6490.188418
   0.230914, 6489.928948
   0.270526, 6489.646677
   0.313173, 6489.342874
   0.359084, 6489.015928
   0.408542, 6488.663839
   0.461757, 6488.285116
   0.519904, 6487.871438
   0.581296, 6487.434823
   0.646687, 6486.969919
   0.715945, 6486.477686
   0.788688, 6485.960861
   0.864259, 6485.424130
   0.945221, 6484.849299
   1.029760, 6484.249285
   1.119383, 6483.613407
   1.212530, 6482.952764
   1.312001, 6482.247510
   1.414970, 6481.517722
   1.525017, 6480.738053
   1.639121, 6479.929934
   1.758011, 6479.088237
   1.884984, 6478.189657
   2.015833, 6477.263998
   2.152143, 6476.300082
   2.294481, 6475.293928
   2.441864, 6474.252520
   2.593988, 6473.178036
   2.754303, 6472.046141
   2.916678, 6470.900169
   3.087543, 6469.694751
   3.262882, 6468.458276
   3.447395, 6467.157638
   3.636847, 6465.822743
   3.836192, 6464.418730
   4.040665, 6462.979206
   4.250971, 6461.499257
   4.466715, 6459.981681
   4.693176, 6458.389408
   4.924425, 6456.764187
   5.163882, 6455.082016
   5.412825, 6453.333985
   5.674078, 6451.500347
   5.938114, 6449.648029
   6.212622, 6447.723135
   6.492260, 6445.763165
   6.781912, 6443.733958
   7.079639, 6441.649159
   7.383248, 6439.524178
   7.697232, 6437.327620
   8.016771, 6435.093272
   8.347162, 6432.784145
   8.685301, 6430.422014
   9.033737, 6427.989144
   9.393934, 6425.475392
   9.762446, 6422.904902
  10.142003, 6420.258696
  10.524603, 6417.592616
  10.923586, 6414.813794
  11.329340, 6411.989258
  11.749655, 6409.064869
  12.173712, 6406.115988
  12.613157, 6403.061696
  13.061504, 6399.947176
  13.518263, 6396.775905
  13.991016, 6393.495349
  14.467732, 6390.189073
  14.958757, 6386.785400
  15.456775, 6383.335130
  15.973773, 6379.755334
  16.495344, 6376.145878
  17.029105, 6372.454100
  17.574798, 6368.681910
  18.134788, 6364.813072
  18.702388, 6360.893877
  19.286740, 6356.861314
  19.885425, 6352.732227
  20.494528, 6348.533727
  21.115462, 6344.256182
  21.746890, 6339.908890
  22.390314, 6335.481618
  23.048963, 6330.952271
  23.716674, 6326.363352
  24.402398, 6321.653455
  25.107305, 6316.814758
  25.135325, 6316.622476
  25.154587, 6316.490305
  25.171818, 6316.372064
  25.185688, 6316.276896
  25.201701, 6316.167018
  25.213792, 6316.084051
  25.216352, 6316.066487
  25.219779, 6316.042972
  25.220523, 6316.037865
  25.221723, 6316.029635
  25.222112, 6316.026961
  25.222191, 6316.026421
  25.222357, 6316.025281
  25.224019, 6316.013882
  25.237170, 6315.923644
  25.296358, 6315.517544
  25.498740, 6314.129165
  26.000947, 6310.685264
  26.642256, 6306.290215
  27.302605, 6301.767863
  27.974971, 6297.166500
  28.653947, 6292.523220
  29.346020, 6287.793769
  30.053653, 6282.961486
  30.769314, 6278.077933
  31.493917, 6273.136967
  32.235460, 6268.084198
  32.986662, 6262.969401
  33.749175, 6257.781430
  34.521758, 6252.528862
  35.309010, 6247.180566
  36.110702, 6241.738278
  36.918686, 6236.257426
  37.737715, 6230.705847
  38.565372, 6225.100043
  39.411603, 6219.372813
  40.272584, 6213.550232
  41.143597, 6207.664378
  42.028225, 6201.691155
  42.927001, 6195.627144
  43.837619, 6189.488058
  44.766343, 6183.231860
  45.699879, 6176.948227
  46.644286, 6170.596456
  47.608940, 6164.113686
  48.581376, 6157.583858
  49.574219, 6150.922363
  50.577529, 6144.196106
  51.594742, 6137.382192
  52.624413, 6130.490455
  53.659619, 6123.567335
  54.722782, 6116.463091
  55.793643, 6109.313339
  56.886581, 6102.022267
  57.986542, 6094.690492
  59.097008, 6087.294889
  60.230149, 6079.754618
  61.373373, 6072.153703
  62.533107, 6064.449565
  63.705654, 6056.666956
  64.887957, 6048.826304
  66.098842, 6040.803015
  67.316009, 6032.745088
  68.552761, 6024.564619
  69.802626, 6016.304632
  71.066063, 6007.962257
  72.337267, 5999.575952
  73.633184, 5991.034129
  74.937627, 5982.443715
  76.259104, 5973.748842
  77.604494, 5964.904523
  78.964225, 5955.973969
  80.341091, 5946.939034
  81.731271, 5937.824990
  83.142511, 5928.581291
  84.561698, 5919.294021
  85.995265, 5909.921213
  87.444770, 5900.452864
  88.909104, 5890.896444
  90.400811, 5881.170383
  91.901031, 5871.397910
  93.423639, 5861.488847
  94.964104, 5851.472976
  96.517240, 5841.384209
  98.080217, 5831.241074
  99.664272, 5820.970844
 101.266676, 5810.591497
 102.891796, 5800.075058
 104.526630, 5789.505879
 104.539735, 5789.421198
 104.542737, 5789.401800
 104.543987, 5789.393718
 104.546489, 5789.377553
 104.546777, 5789.375692
 104.546938, 5789.374650
 104.547182, 5789.373071
 104.549626, 5789.357284
 104.574059, 5789.199405
 104.717274, 5788.274039
 105.202036, 5785.142544
 106.378729, 5777.545912
 107.871336, 5767.919166
 109.366606, 5758.285718
 110.882950, 5748.527117
 112.407164, 5738.728577
 113.943577, 5728.862394
 115.497772, 5718.892966
 117.071981, 5708.806292
 118.654749, 5698.675999
 120.245072, 5688.508600
 121.861354, 5678.186712
 123.485075, 5667.828880
 125.124172, 5657.384647
 126.780605, 5646.841788
 128.452606, 5636.211826
 130.136489, 5625.518411
 131.835861, 5614.738841
 133.556284, 5603.838158
 135.287735, 5592.880129
 137.033772, 5581.842423
 138.793246, 5570.732530
 140.565230, 5559.556494
 142.361784, 5548.238573
 144.164887, 5536.892550
 145.979488, 5525.487392
 147.815380, 5513.961825
 149.672591, 5502.316040
 151.547364, 5490.573949
 153.429532, 5478.799406
 155.329287, 5466.928837
 157.237444, 5455.019838
 159.171616, 5442.962772
 161.112003, 5430.881327
 163.075804, 5418.668662
 165.046358, 5406.428627
 167.036178, 5394.083696
 169.042826, 5381.649302
 171.062032, 5369.152146
 173.107959, 5356.504908
 175.162859, 5343.817608
 177.231972, 5331.058059
 179.321368, 5318.189120
 181.424434, 5305.251806
 183.537603, 5292.268230
 185.678299, 5279.131665
 187.832754, 5265.926970
 190.009434, 5252.602561
 192.198701, 5239.217736
 194.405030, 5225.745370
 196.620050, 5212.236771
 198.856798, 5198.612682
 201.111476, 5184.896579
 203.379910, 5171.114111
 205.669758, 5157.219061
 207.977134, 5143.235345
 210.306103, 5129.138676
 212.646846, 5114.988765
 214.994192, 5100.816975
 217.363102, 5086.533197
 219.756760, 5072.118661
 222.166594, 5057.625358
 224.602090, 5042.996616
 227.041404, 5028.363861
 229.496927, 5013.652903
 231.973480, 4998.835172
 234.466238, 4983.939859
 236.981575, 4968.929228
 239.508770, 4953.867540
 242.065907, 4938.647395
 244.638466, 4923.355639
 245.156938, 4920.276187
 245.494762, 4918.270134
 245.750051, 4916.754413
 245.955696, 4915.533584
 246.156817, 4914.339739
 246.360575, 4913.130365
 246.509926, 4912.243997
 246.536485, 4912.086379
 246.569959, 4911.887730
 246.609033, 4911.655853
 246.611229, 4911.642819
 246.612549, 4911.634989
 246.613518, 4911.629235
 246.614303, 4911.624578
 246.614556, 4911.623075
 246.614814, 4911.621543
 246.617397, 4911.606215
 246.639574, 4911.474612
 246.780542, 4910.638127
 247.315184, 4907.466320
 249.139642, 4896.650916
 251.404036, 4883.245455
 253.699369, 4869.676949
 256.004014, 4856.073670
 258.328686, 4842.372641
 260.655828, 4828.677536
 263.004579, 4814.875936
 265.366922, 4801.015296
 267.740256, 4787.111106
 270.131666, 4773.122118
 272.535832, 4759.079758
 274.948439, 4745.009400
 277.381395, 4730.841868
 279.827113, 4716.621666
 282.292498, 4702.308964
 284.769320, 4687.951847
 287.256506, 4673.556707
 289.758171, 4659.099948
 292.278909, 4644.555351
 294.806368, 4629.994418
 297.350989, 4615.357201
 299.915435, 4600.628755
 302.495314, 4585.834666
 305.082355, 4571.022545
 307.690629, 4556.112093
 310.309911, 4541.162071
 312.945474, 4526.142632
 315.596902, 4511.056456
 318.256757, 4495.946079
 320.932506, 4480.769280
 323.630245, 4465.491871
 326.343042, 4450.153491
 329.067365, 4434.774339
 331.802828, 4419.356779
 334.555459, 4403.867095
 337.328881, 4388.285292
 340.110638, 4372.681616
 342.912817, 4356.988524
 345.735048, 4341.208522
 348.571929, 4325.372156
 351.416009, 4309.521180
 354.278718, 4293.592119
 357.155150, 4277.612585
 360.049072, 4261.561948
 362.964475, 4245.418465
 365.884928, 4229.273351
 368.817322, 4213.088616
 371.766818, 4196.836037
 374.729592, 4180.536974
 377.712618, 4164.153375
 380.705417, 4147.743078
 383.719420, 4131.243688
 386.759157, 4114.630921
 389.800591, 4098.036374
 392.867138, 4081.332520
 395.945380, 4064.592821
 399.043014, 4047.775700
 402.157724, 4030.894101
 405.284131, 4013.977433
 408.419544, 3997.040402
 411.577222, 3980.011675
 414.764999, 3962.849581
 417.948210, 3945.740964
 421.160956, 3928.502737
 424.378335, 3911.268851
 427.616846, 3893.951139
 430.876829, 3876.548220
 434.145576, 3859.128218
 437.428615, 3841.661834
 440.728039, 3824.138227
 444.048966, 3806.530584
 447.386551, 3788.864971
 450.732892, 3771.183426
 454.108833, 3753.376185
 457.487058, 3735.587633
 460.888088, 3717.709915
 464.304706, 3699.781349
 464.990495, 3696.186438
 467.377924, 3683.681258
 467.515046, 3682.963481
 467.538661, 3682.839870
 467.548684, 3682.787408
 467.551293, 3682.773751
 467.552849, 3682.765606
 467.554620, 3682.756339
 467.572325, 3682.663662
 467.698666, 3682.002383
 468.534335, 3677.629500
 472.194187, 3658.500173
 475.641414, 3640.514739
 479.110670, 3622.446103
 482.595078, 3604.330442
 486.098418, 3586.148433
 489.616727, 3567.920955
 493.149280, 3549.652024
 496.693071, 3531.357387
 500.266628, 3512.941810
 503.847318, 3494.522287
 507.450139, 3476.021923
 511.064352, 3457.496167
 514.692557, 3438.931900
 518.341361, 3420.295640
 522.013405, 3401.574344
 525.693678, 3382.844831
 529.390924, 3364.062794
 533.101684, 3345.246079
 536.830320, 3326.372835
 540.583884, 3307.407812
 544.350946, 3288.409130
 548.132836, 3269.370322
 551.938246, 3250.248005
 555.759270, 3231.082281
 559.594637, 3211.879791
 563.445223, 3192.636402
 567.303561, 3173.389579
 571.184742, 3154.064318
 575.086347, 3134.673099
 579.001870, 3115.248569
 582.928818, 3095.803288
 586.875636, 3076.295711
 590.844468, 3056.715657
 594.826134, 3037.108736
 598.830514, 3017.426629
 602.857980, 2997.667967
 606.896590, 2977.891658
 610.951745, 2958.071461
 615.022109, 2938.214194
 619.112651, 2918.295933
 623.222789, 2898.319897
 627.351194, 2878.292902
 631.499344, 2858.208141
 635.657072, 2838.115070
 639.837451, 2817.950801
 644.029999, 2797.766203
 648.237023, 2777.550365
 652.466889, 2757.263444
 656.712596, 2736.939372
 660.980636, 2716.547432
 665.264700, 2696.118127
 669.570956, 2675.622403
 673.892541, 2655.093266
 676.160155, 2644.337051
 678.226955, 2634.542818
 682.580782, 2576.387275
 686.946938, 2476.548540
 691.344019, 2376.492963
 695.758548, 2275.956314
 700.197558, 2175.154152
 704.644708, 2074.049862
 709.105097, 1972.911454
 713.600697, 1871.536392
 718.119169, 1769.614836
 722.646755, 1667.443758
 727.198480, 1565.181345
 731.766217, 1462.621754
 736.344433, 1359.945367
 740.946719, 1257.170808
 745.564039, 1154.127087
 750.191281, 1051.000965
 754.835658,  947.844213
 759.502489,  844.509822
 764.175716,  741.014768
 768.856914,  637.613900
 773.555080,  534.233306
 778.263018,  430.781002
 782.988593,  327.324932
 787.715931,  223.847809
 792.453010,  120.550204
 792.643139,   47.252183
 792.899094,   42.707909
 793.151053,   37.199731
 793.217329,   32.974922
 793.301442,   31.425078
 793.321433,   30.029472
 793.351294,   29.532475
 793.353384,   29.070083
 793.354241,   29.033032
 793.355122,   29.014361
 793.363923,   28.943168
 793.451944,   28.231223
 793.967135,   23.515503
 796.012112,    2.297039
 800.932922,  -60.965728
 805.905826,    0.000000
 806.236681,    0.000000
 806.566898,    0.000000
 806.898423,    0.000000
 807.229874,    0.000000
 807.561840,    0.000000
 807.893824,    0.000000
 808.225486,    0.000000
 808.558288,    0.000000
 808.891287,    0.000000
 809.224474,    0.000000
 809.556565,    0.000000
 809.888823,    0.000000
 810.222823,    0.000000
 810.556584,    0.000000
 810.890991,    0.000000
 811.225027,    0.000000
 811.558493,    0.000000
 811.893839,    0.000000
 812.229759,    0.000000
 812.565602,    0.000000
 812.898568,    0.000000
 813.232727,    0.000000
 813.568861,    0.000000
 813.906228,    0.000000
 814.240510,    0.000000
 814.576350,    0.000000
 814.912871,    0.000000
 815.249137,    0.000000
 815.587293,    0.000000
 815.924423,    0.000000
 816.263204,    0.000000
 816.602649,    0.000000
 816.942211,    0.000000
 817.282686,    0.000000
 817.623920,    0.000000
 817.965140,    0.000000
 818.305496,    0.000000
 818.647001,    0.000000
 818.989324,    0.000000
 819.331926,    0.000000
 819.673757,    0.000000
 820.017327,    0.000000
 820.359033,    0.000000
 820.701454,    0.000000
 821.044816,    0.000000
 821.390004,    0.000000
 821.734523,    0.000000
 822.079587,    0.000000
 822.423887,    0.000000
 822.769502,    0.000000
 823.112594,    0.000000
 823.457130,    0.000000
 823.803423,    0.000000
 824.150767,    0.000000
 824.497731,    0.000000
 824.845767,    0.000000
 825.192354,    0.000000
 825.541948,    0.000000
 825.891199,    0.000000
 826.241842,    0.000000
 826.592505,    0.000000
 826.943630,    0.000000
 827.295039,    0.000000
 827.645908,    0.000000
 827.999299,    0.000000
 828.349563,    0.000000
 828.701677,    0.000000
 829.054635,    0.000000
 829.407189,    0.000000
 829.762143,    0.000000
 830.116670,    0.000000
 830.468208,    0.000000
 830.824009,    0.000000
 831.180284,    0.000000
 831.535037,    0.000000
 831.891661,    0.000000
 832.248324,    0.000000
 832.605092,    0.000000
 832.960269,    0.000000
 833.318761,    0.000000
 833.676508,    0.000000
 834.035569,    0.000000
 834.392862,    0.000000
 834.753261,    0.000000
 835.114144,    0.000000
 835.474406,    0.000000
 835.834996,    0.000000
 836.196586,    0.000000
 836.557140,    0.000000
 836.918014,    0.000000
 837.280459,    0.000000
 837.643742,    0.000000
 838.005706,    0.000000
 838.368911,    0.000000
 838.733942,    0.000000
 839.098750,    0.000000
 839.464945,    0.000000
 839.829376,    0.000000
 840.195898,    0.000000
 840.562416,    0.000000
 840.929494,    0.000000
 841.297076,    0.000000
 841.664141,    0.000000
 842.031536,    0.000000
 842.400603,    0.000000
 842.770595,    0.000000
 843.141760,    0.000000
 843.511769,    0.000000
 843.882689,    0.000000
 844.254771,    0.000000
 844.627622,    0.000000
 845.001863,    0.000000
 845.375418,    0.000000
 845.749667,    0.000000
 846.124187,    0.000000
 846.499161,    0.000000
 846.874047,    0.000000
 847.249101,    0.000000
 847.625681,    0.000000
 848.002908,    0.000000
 848.380154,    0.000000
 848.756866,    0.000000
 849.136393,    0.000000
 849.516274,    0.000000
 849.896483,    0.000000
 850.274475,    0.000000
 850.651819,    0.000000
 851.033687,    0.000000
 851.415841,    0.000000
 851.797365,    0.000000
 852.179981,    0.000000
 852.564766,    0.000000
 852.950007,    0.000000
 853.334789,    0.000000
 853.719457,    0.000000
 854.104943,    0.000000
 854.492253,    0.000000
 854.879276,    0.000000
 855.267379,    0.000000
 855.656270,    0.000000
 856.044594,    0.000000
 856.435740,    0.000000
 856.825734,    0.000000
 857.216260,    0.000000
 857.313734,    0.000000
 857.607364,    0.000000
 858.000336,    0.000000
 858.393600,    0.000000
 858.785537,    0.000000
 859.179128,    0.000000
 859.572171,    0.000000
 859.967117,    0.000000
 860.362796,    0.000000
 860.760255,    0.000000
 861.157309,    0.000000
 861.558207,    0.000000
 861.956036,    0.000000
 862.355882,    0.000000
 862.756088,    0.000000
 863.157061,    0.000000
 863.557516,    0.000000
 863.960706,    0.000000
 864.359707,    0.000000
 864.764125,    0.000000
 865.166178,    0.000000
 865.570859,    0.000000
 865.974751,    0.000000
 866.382404,    0.000000
 866.790407,    0.000000
 867.198303,    0.000000
 867.607160,    0.000000
 868.016387,    0.000000
 868.428370,    0.000000
 868.841258,    0.000000
 869.252705,    0.000000
 869.664291,    0.000000
 870.079102,    0.000000
 870.490432,    0.000000
 870.904933,    0.000000
 871.319475,    0.000000
 871.736259,    0.000000
 872.152709,    0.000000
 872.571378,    0.000000
 872.988585,    0.000000
 873.407026,    0.000000
 873.828325,    0.000000
 874.249166,    0.000000
 874.669900,    0.000000
 875.092793,    0.000000
 875.514340,    0.000000
 875.936788,    0.000000
 876.359515,    0.000000
 876.785346,    0.000000
 877.212719,    0.000000
 877.638508,    0.000000
 878.065822,    0.000000
 878.494814,    0.000000
 878.926131,    0.000000
 879.355284,    0.000000
 879.786560,    0.000000
 880.217856,    0.000000
 880.650605,    0.000000
 881.082838,    0.000000
 881.518686,    0.000000
 881.953170,    0.000000
 882.388135,    0.000000
 882.827019,    0.000000
 883.262775,    0.000000
 883.702141,    0.000000
 884.142207,    0.000000
 884.583542,    0.000000
 885.024929,    0.000000
 885.466250,    0.000000
 885.907722,    0.000000
 886.350292,    0.000000
 886.794035,    0.000000
 887.241563,    0.000000
 887.687342,    0.000000
 888.137453,    0.000000
 888.584883,    0.000000
 889.034499,    0.000000
 889.483631,    0.000000
 889.935720,    0.000000
 890.388675,    0.000000
 890.839060,    0.000000
 891.289848,    0.000000
 891.742976,    0.000000
 892.194337,    0.000000
 892.652820,    0.000000
 893.108670,    0.000000
 893.566714,    0.000000
 894.025099,    0.000000
 894.487541,    0.000000
 894.951755,    0.000000
 895.414974,    0.000000
 895.874008,    0.000000
 896.338777,    0.000000
 896.803065,    0.000000
 897.269913,    0.000000
 897.733999,    0.000000
 898.199581,    0.000000
 898.670297,    0.000000
 899.136172,    0.000000
 899.608136,    0.000000
 900.078317,    0.000000
 900.550524,    0.000000
 901.025698,    0.000000
 901.499913,    0.000000
 901.976972,    0.000000
 902.455443,    0.000000
 902.932880,    0.000000
 903.412175,    0.000000
 903.893436,    0.000000
 904.375710,    0.000000
 904.858117,    0.000000
 905.341414,    0.000000
 905.825655,    0.000000
 906.307963,    0.000000
 906.792044,    0.000000
 907.275054,    0.000000
 907.764509,    0.000000
 908.252413,    0.000000
 908.739848,    0.000000
 909.230884,    0.000000
 909.718306,    0.000000
 910.208872,    0.000000
 910.701236,    0.000000
 911.194743,    0.000000
 911.690610,    0.000000
 912.183854,    0.000000
 912.678655,    0.000000
 913.173923,    0.000000
 913.673358,    0.000000
 914.173322,    0.000000
 914.673550,    0.000000
 915.179006,    0.000000
 915.683997,    0.000000
 916.188370,    0.000000
 916.693425,    0.000000
 917.197598,    0.000000
 917.704768,    0.000000
 918.213165,    0.000000
 918.723747,    0.000000
 919.234283,    0.000000
 919.745399,    0.000000
 920.258433,    0.000000
 920.771740,    0.000000
 921.286737,    0.000000
 921.808078,    0.000000
 922.324138,    0.000000
 922.842956,    0.000000
 923.360616,    0.000000
 923.880403,    0.000000
 924.399356,    0.000000
 924.923949,    0.000000
 925.445867,    0.000000
 925.972403,    0.000000
 926.497827,    0.000000
 927.022257,    0.000000
 927.553174,    0.000000
 928.082439,    0.000000
 928.615170,    0.000000
 929.142353,    0.000000
 929.669570,    0.000000
 930.199181,    0.000000
 930.727988,    0.000000
 931.265367,    0.000000
 931.802384,    0.000000
 932.337279,    0.000000
 932.870322,    0.000000
 933.408978,    0.000000
 933.952512,    0.000000
 934.494651,    0.000000
 935.036756,    0.000000
 935.578429,    0.000000
 936.122733,    0.000000
 936.668893,    0.000000
 937.210190,    0.000000
 937.755543,    0.000000
 938.301797,    0.000000
 938.853365,    0.000000
 939.401540,    0.000000
 939.951147,    0.000000
 940.506242,    0.000000
 941.056927,    0.000000
 941.611036,    0.000000
 942.164136,    0.000000
 942.721136,    0.000000
 943.279062,    0.000000
 943.836490,    0.000000
 944.397389,    0.000000
 944.955884,    0.000000
 945.516172,    0.000000
 946.076851,    0.000000
 946.636561,    0.000000
 947.200212,    0.000000
 947.761325,    0.000000
 948.328218,    0.000000
 948.899542,    0.000000
 949.467815,    0.000000
 950.036504,    0.000000
 950.607997,    0.000000
 951.178154,    0.000000
 951.748932,    0.000000
 952.321689,    0.000000
 952.894253,    0.000000
 953.468456,    0.000000
 954.036535,    0.000000
 954.610039,    0.000000
 955.188737,    0.000000
 955.762027,    0.000000
 956.343323,    0.000000
 956.926953,    0.000000
 957.506950,    0.000000
 958.089281,    0.000000
 958.671177,    0.000000
 959.254097,    0.000000
 959.840943,    0.000000
 960.426181,    0.000000
 961.015847,    0.000000
 961.598091,    0.000000
 962.185732,    0.000000
 962.777821,    0.000000
 963.366047,    0.000000
 963.956071,    0.000000
 964.549300,    0.000000
 965.141692,    0.000000
 965.735435,    0.000000
 966.330756,    0.000000
 966.928131,    0.000000
 967.521810,    0.000000
 968.117845,    0.000000
 968.712985,    0.000000
 969.309653,    0.000000
 969.910094,    0.000000
 970.509475,    0.000000
 971.112830,    0.000000
 971.714277,    0.000000
 972.316663,    0.000000
 972.919621,    0.000000
 973.527303,    0.000000
 974.134409,    0.000000
 974.744648,    0.000000
 975.356137,    0.000000
 975.966504,    0.000000
 976.581516,    0.000000
 977.199943,    0.000000
 977.819353,    0.000000
 978.432003,    0.000000
 979.043925,    0.000000
 979.667866,    0.000000
 980.285347,    0.000000
 980.900476,    0.000000
 981.517911,    0.000000
 982.132529,    0.000000
 982.748605,    0.000000
 983.373846,    0.000000
 983.993658,    0.000000
 984.616662,    0.000000
 985.234317,    0.000000
 985.862233,    0.000000
 986.490554,    0.000000
 987.115172,    0.000000
 987.736511,    0.000000
 988.358319,    0.000000
 988.987877,    0.000000
 989.612720,    0.000000
 990.244768,    0.000000
 990.873834,    0.000000
 991.506753,    0.000000
 992.139798,    0.000000
 992.767273,    0.000000
 993.393892,    0.000000
 994.029562,    0.000000
 994.663437,    0.000000
 995.302882,    0.000000
 995.934763,    0.000000
 996.576569,    0.000000
 997.210255,    0.000000
 997.850668,    0.000000
 998.488917,    0.000000
 999.122395,    0.000000
 999.762229,    0.000000
1000.399394,    0.000000
1001.042265,    0.000000
1001.679256,    0.000000
1002.318896,    0.000000
1002.959184,    0.000000
1003.604742,    0.000000
1004.248075,    0.000000
1004.894921,    0.000000
1005.538273,    0.000000
1006.190313,    0.000000
1006.832135,    0.000000
1007.473391,    0.000000
1008.119030,    0.000000
1008.771666,    0.000000
1009.424936,    0.000000
1010.068713,    0.000000
1010.719465,    0.000000
1011.376823,    0.000000
1012.029079,    0.000000
1012.684650,    0.000000
1013.337218,    0.000000
1013.986888,    0.000000
1014.645253,    0.000000
1015.300441,    0.000000
1015.958363,    0.000000
1016.617797,    0.000000
1017.279458,    0.000000
1017.943456,    0.000000
1018.603081,    0.000000
1019.269732,    0.000000
1019.927122,    0.000000
1020.587314,    0.000000
1021.247711,    0.000000
1021.907759,    0.000000
1022.573135,    0.000000
1023.235997,    0.000000
1023.898553,    0.000000
1024.058882,    0.000000
