Time, Horizontal Forces
   0.000000, 68402.939535
   0.000000, 68402.655892
   0.000006, 68401.783598
   0.000081, 68398.533149
   0.000699, 68389.922529
   0.003468, 68373.874590
   0.009283, 68355.353156
   0.017960, 68336.734030
   0.029596, 68317.944347
   0.044123, 68299.157438
   0.061553, 68280.363210
   0.081999, 68261.467644
   0.105450, 68242.516581
   0.131994, 68223.469048
   0.161747, 68204.283569
   0.194513, 68185.106065
   0.230914, 68165.617071
   0.270526, 68146.089006
   0.313173, 68126.608638
   0.359084, 68107.073526
   0.408542, 68087.385345
   0.461757, 68067.495184
   0.519904, 68047.036945
   0.581296, 68026.648766
   0.646687, 68006.089215
   0.715945, 67985.422893
   0.788688, 67964.771677
   0.864259, 67944.308190
   0.945221, 67923.359335
   1.029760, 67902.427010
   1.119383, 67881.159159
   1.212530, 67859.944489
   1.312001, 67838.175950
   1.414970, 67816.500097
   1.525017, 67794.194819
   1.639121, 67771.907080
   1.758011, 67749.500946
   1.884984, 67726.399009
   2.015833, 67703.398087
   2.152143, 67680.224124
   2.294481, 67656.801987
   2.441864, 67633.309443
   2.593988, 67609.799735
   2.754303, 67585.765018
   2.916678, 67562.130950
   3.087543, 67537.967452
   3.262882, 67513.863414
   3.447395, 67489.194469
   3.636847, 67464.549849
   3.836192, 67439.308974
   4.040665, 67414.098374
   4.250971, 67388.832934
   4.466715, 67363.562685
   4.693176, 67337.692817
   4.924425, 67311.920031
   5.163882, 67285.870149
   5.412825, 67259.428916
   5.674078, 67232.334380
   5.938114, 67205.586142
   6.212622, 67178.408768
   6.492260, 67151.342338
   6.781912, 67123.923095
   7.079639, 67096.351775
   7.383248, 67068.835275
   7.697232, 67040.976115
   8.016771, 67013.210484
   8.347162, 66985.086790
   8.685301, 66956.883346
   9.033737, 66928.399083
   9.393934, 66899.534605
   9.762446, 66870.580751
  10.142003, 66841.334709
  10.524603, 66812.412750
  10.923586, 66782.817142
  11.329340, 66753.278696
  11.749655, 66723.243215
  12.173712, 66693.490464
  12.613157, 66663.210500
  13.061504, 66632.866761
  13.518263, 66602.495479
  13.991016, 66571.607506
  14.467732, 66540.995717
  14.958757, 66509.999197
  15.456775, 66479.087960
  15.973773, 66447.532721
  16.495344, 66416.223386
  17.029105, 66384.702352
  17.574798, 66352.995295
  18.134788, 66320.977399
  18.702388, 66289.037139
  19.286740, 66256.669050
  19.885425, 66224.024351
  20.494528, 66191.324880
  21.115462, 66158.499650
  21.746890, 66125.623906
  22.390314, 66092.624072
  23.048963, 66059.344194
  23.716674, 66026.101757
  24.402398, 65992.459617
  25.107305, 65958.379561
  25.135325, 65957.035091
  25.154587, 65956.111350
  25.171818, 65955.285262
  25.185688, 65954.620574
  25.201701, 65953.853372
  25.213792, 65953.274234
  25.216352, 65953.151645
  25.219779, 65952.987534
  25.220523, 65952.951893
  25.221723, 65952.894464
  25.222112, 65952.875804
  25.222191, 65952.872031
  25.222357, 65952.861633
  25.224019, 65952.757651
  25.237170, 65951.934664
  25.296358, 65948.233569
  25.498740, 65935.612350
  26.000947, 65904.516695
  26.642256, 65865.259742
  27.302605, 65825.348745
  27.974971, 65785.225513
  28.653947, 65745.215265
  29.346020, 65704.939385
  30.053653, 65664.267666
  30.769314, 65623.640225
  31.493917, 65583.005326
  32.235460, 65541.923490
  32.986662, 65500.807635
  33.749175, 65459.570792
  34.521758, 65418.284019
  35.309010, 65376.708258
  36.110702, 65334.866237
  36.918686, 65293.185812
  37.737715, 65251.421133
  38.565372, 65209.697060
  39.411603, 65167.520000
  40.272584, 65125.093181
  41.143597, 65082.654475
  42.028225, 65040.033212
  42.927001, 64997.210988
  43.837619, 64954.303197
  44.766343, 64911.023106
  45.699879, 64867.992965
  46.644286, 64824.930735
  47.608940, 64781.417518
  48.581376, 64738.021704
  49.574219, 64694.185821
  50.577529, 64650.356518
  51.594742, 64606.386576
  52.624413, 64562.342587
  53.659619, 64518.519227
  54.722782, 64473.975796
  55.793643, 64429.570892
  56.886581, 64384.713910
  57.986542, 64340.027851
  59.097008, 64295.368995
  60.230149, 64250.255128
  61.373373, 64205.194524
  62.533107, 64159.936729
  63.705654, 64114.630498
  64.887957, 64069.394468
  66.098842, 64023.517481
  67.316009, 63977.851552
  68.552761, 63931.899515
  69.802626, 63885.907359
  71.066063, 63839.860353
  72.337267, 63793.969447
  73.633184, 63747.627850
  74.937627, 63701.419729
  76.259104, 63655.045000
  77.604494, 63608.270922
  78.964225, 63561.437594
  80.341091, 63514.452533
  81.731271, 63467.449282
  83.142511, 63420.170828
  84.561698, 63373.058802
  85.995265, 63325.898861
  87.444770, 63278.642440
  88.909104, 63231.328677
  90.400811, 63183.559904
  91.901031, 63135.944962
  93.423639, 63088.046022
  94.964104, 63040.012032
  96.517240, 62992.006874
  98.080217, 62944.117021
  99.664272, 62896.000400
 101.266676, 62847.745460
 102.891796, 62799.226780
 104.526630, 62750.835085
 104.539735, 62750.448844
 104.542737, 62750.360372
 104.543987, 62750.323510
 104.546489, 62750.249785
 104.546777, 62750.241299
 104.546938, 62750.235670
 104.547182, 62750.226367
 104.549626, 62750.133334
 104.574059, 62749.203011
 104.717274, 62743.752285
 105.202036, 62725.333231
 106.378729, 62680.819736
 107.871336, 62624.749301
 109.366606, 62569.011943
 110.882950, 62512.922518
 112.407164, 62456.972905
 113.943577, 62401.003738
 115.497772, 62344.815374
 117.071981, 62288.333906
 118.654749, 62231.973279
 120.245072, 62175.767084
 121.861354, 62119.069639
 123.485075, 62062.535246
 125.124172, 62005.888017
 126.780605, 61949.064388
 128.452606, 61892.129172
 130.136489, 61835.209940
 131.835861, 61778.186673
 133.556284, 61720.878064
 135.287735, 61663.621512
 137.033772, 61606.300450
 138.793246, 61548.954592
 140.565230, 61491.615307
 142.361784, 61433.897362
 144.164887, 61376.382606
 145.979488, 61318.911512
 147.815380, 61261.177271
 149.672591, 61203.185472
 151.547364, 61145.058676
 153.429532, 61087.112573
 155.329287, 61029.033872
 157.237444, 60971.104232
 159.171616, 60912.792358
 161.112003, 60854.697878
 163.075804, 60796.307712
 165.046358, 60738.119183
 167.036178, 60679.763443
 169.042826, 60621.315648
 171.062032, 60562.901785
 173.107959, 60504.116558
 175.162859, 60445.473266
 177.231972, 60386.822011
 179.321368, 60327.993613
 181.424434, 60269.176928
 183.537603, 60210.471476
 185.678299, 60151.396805
 187.832754, 60092.337408
 190.009434, 60033.064182
 192.198701, 59973.842231
 194.405030, 59914.551681
 196.620050, 59855.417622
 198.856798, 59796.093381
 201.111476, 59736.683367
 203.379910, 59677.299155
 205.669758, 59617.742764
 207.977134, 59558.118580
 210.306103, 59498.324906
 212.646846, 59438.615683
 214.994192, 59379.120936
 217.363102, 59319.461995
 219.756760, 59259.563554
 222.166594, 59199.643654
 224.602090, 59139.470098
 227.041404, 59079.583233
 229.496927, 59019.677408
 231.973480, 58959.637426
 234.466238, 58899.582685
 236.981575, 58839.362384
 239.508770, 58779.234862
 242.065907, 58718.773163
 244.638466, 58658.324645
 245.156938, 58646.187232
 245.494762, 58638.286933
 245.750051, 58632.321014
 245.955696, 58627.517883
 246.156817, 58622.822716
 246.360575, 58618.068290
 246.509926, 58614.584858
 246.536485, 58613.965519
 246.569959, 58613.184999
 246.609033, 58612.273985
 246.611229, 58612.222776
 246.612549, 58612.192017
 246.613518, 58612.169411
 246.614303, 58612.151115
 246.614556, 58612.144894
 246.614814, 58612.136950
 246.617397, 58612.057509
 246.639574, 58611.375438
 246.780542, 58607.040792
 247.315184, 58590.614966
 249.139642, 58534.728555
 251.404036, 58465.720874
 253.699369, 58396.166126
 256.004014, 58326.724571
 258.328686, 58257.075329
 260.655828, 58187.744729
 263.004579, 58118.163233
 265.366922, 58048.571709
 267.740256, 57979.047574
 270.131666, 57909.385017
 272.535832, 57839.741261
 274.948439, 57770.241168
 277.381395, 57700.543358
 279.827113, 57630.867848
 282.292498, 57561.020377
 284.769320, 57491.236260
 287.256506, 57421.545622
 289.758171, 57351.833806
 292.278909, 57281.975372
 294.806368, 57212.313449
 297.350989, 57142.560624
 299.915435, 57072.647146
 302.495314, 57002.695638
 305.082355, 56932.930350
 307.690629, 56862.973113
 310.309911, 56793.100245
 312.945474, 56723.172071
 315.596902, 56653.201644
 318.256757, 56583.385595
 320.932506, 56513.528208
 323.630245, 56443.473468
 326.343042, 56373.404347
 329.067365, 56303.412764
 331.802828, 56233.508543
 334.555459, 56163.538697
 337.328881, 56093.414132
 340.110638, 56023.450946
 342.912817, 55953.346186
 345.735048, 55883.112545
 348.571929, 55812.886639
 351.416009, 55742.852534
 354.278718, 55672.729218
 357.155150, 55602.638550
 360.049072, 55532.490178
 362.964475, 55462.190210
 365.884928, 55392.135356
 368.817322, 55322.159033
 371.766818, 55252.139034
 374.729592, 55182.167351
 377.712618, 55112.080986
 380.705417, 55042.127264
 383.719420, 54972.040208
 386.759157, 54901.718600
 389.800591, 54831.719035
 392.867138, 54761.503020
 395.945380, 54691.379998
 399.043014, 54621.175743
 402.157724, 54550.944850
 405.284131, 54480.809315
 408.419544, 54410.828814
 411.577222, 54340.708538
 414.764999, 54270.279195
 417.948210, 54200.306786
 421.160956, 54130.041680
 424.378335, 54060.030072
 427.616846, 53989.913047
 430.876829, 53919.686086
 434.145576, 53849.623827
 437.428615, 53779.607381
 440.728039, 53709.593049
 444.048966, 53639.474212
 447.386551, 53569.355187
 450.732892, 53499.402018
 454.108833, 53429.180951
 457.487058, 53359.261186
 460.888088, 53289.217927
 464.304706, 53219.201764
 464.990495, 53205.189698
 467.377924, 53156.517668
 467.515046, 53153.727267
 467.538661, 53153.246757
 467.548684, 53153.042824
 467.551293, 53152.989737
 467.552849, 53152.957839
 467.554620, 53152.921392
 467.572325, 53152.556919
 467.698666, 53149.956455
 468.534335, 53132.767886
 472.194187, 53057.732430
 475.641414, 52987.414648
 479.110670, 52916.994554
 482.595078, 52846.613443
 486.098418, 52776.196226
 489.616727, 52705.823730
 493.149280, 52635.510965
 496.693071, 52565.317702
 500.266628, 52494.879129
 503.847318, 52424.642948
 507.450139, 52354.315428
 511.064352, 52284.107221
 514.692557, 52213.967755
 518.341361, 52143.770467
 522.013405, 52073.466988
 525.693678, 52003.345441
 529.390924, 51933.239055
 533.101684, 51863.214006
 536.830320, 51793.188609
 540.583884, 51723.032668
 544.350946, 51652.961382
 548.132836, 51582.950261
 551.938246, 51512.839941
 555.759270, 51442.777683
 559.594637, 51372.787229
 563.445223, 51302.852954
 567.303561, 51233.109931
 571.184742, 51163.285888
 575.086347, 51093.426429
 579.001870, 51023.648959
 582.928818, 50953.997706
 586.875636, 50884.323406
 590.844468, 50814.590051
 594.826134, 50744.959891
 598.830514, 50675.261183
 602.857980, 50605.489680
 606.896590, 50535.853133
 610.951745, 50466.258393
 615.022109, 50396.728953
 619.112651, 50327.180839
 623.222789, 50257.625408
 627.351194, 50188.086349
 631.499344, 50118.539992
 635.657072, 50049.156937
 639.837451, 49979.719572
 644.029999, 49910.402801
 648.237023, 49841.168318
 652.466889, 49771.879552
 656.712596, 49702.652370
 660.980636, 49633.382067
 665.264700, 49564.172191
 669.570956, 49494.924225
 673.892541, 49425.749540
 676.160155, 49389.579437
 678.226955, 49356.688162
 682.580782, 49287.526049
 686.946938, 49217.734553
 691.344019, 49146.929986
 695.758548, 49075.346544
 700.197558, 49002.913109
 704.644708, 48929.900905
 709.105097, 48856.267742
 713.600697, 48781.702953
 718.119169, 48706.402092
 722.646755, 48630.609219
 727.198480, 48554.138212
 731.766217, 48477.115613
 736.344433, 48399.671747
 740.946719, 48321.634969
 745.564039, 48243.133162
 750.191281, 48164.280901
 754.835658, 48085.019474
 759.502489, 48005.273966
 764.175716, 47925.283083
 768.856914, 47845.081647
 773.555080, 47764.565889
 778.263018, 47683.836960
 782.988593, 47602.819432
 787.715931, 47521.731541
 792.453010, 47440.524990
 792.643139, 47422.956182
 792.899094, 47418.765747
 793.151053, 47414.423007
 793.217329, 47412.694328
 793.301442, 47411.305390
 793.321433, 47410.758009
 793.351294, 47410.276177
 793.353384, 47410.151953
 793.354241, 47410.133550
 793.355122, 47410.119465
 793.363923, 47410.003063
 793.451944, 47408.839063
 793.967135, 47401.911939
 796.012112, 47373.920239
 800.932922, 47304.191338
 805.905826, 47224.673139
 806.236681, 47203.975656
 806.566898, 47198.730246
 806.898423, 47193.473161
 807.229874, 47188.215201
 807.561840, 47182.953680
 807.893824, 47177.692870
 808.225486, 47172.438689
 808.558288, 47167.174089
 808.891287, 47161.905951
 809.224474, 47156.637598
 809.556565, 47151.385019
 809.888823, 47146.136887
 810.222823, 47140.869452
 810.556584, 47135.602090
 810.890991, 47130.330576
 811.225027, 47125.064513
 811.558493, 47119.809841
 811.893839, 47114.537052
 812.229759, 47109.253943
 812.565602, 47103.973028
 812.898568, 47098.730972
 813.232727, 47093.487307
 813.568861, 47088.218596
 813.906228, 47082.931329
 814.240510, 47077.680937
 814.576350, 47072.425435
 814.912871, 47067.159655
 815.249137, 47061.898073
 815.587293, 47056.617804
 815.924423, 47051.347024
 816.263204, 47046.063240
 816.602649, 47040.769275
 816.942211, 47035.475205
 817.282686, 47030.173348
 817.623920, 47024.862844
 817.965140, 47019.553606
 818.305496, 47014.258623
 818.647001, 47008.956576
 818.989324, 47003.644511
 819.331926, 46998.330115
 819.673757, 46993.027921
 820.017327, 46987.711483
 820.359033, 46982.415274
 820.701454, 46977.121007
 821.044816, 46971.817001
 821.390004, 46966.491986
 821.734523, 46961.172657
 822.079587, 46955.853342
 822.423887, 46950.545376
 822.769502, 46945.228678
 823.112594, 46939.941497
 823.457130, 46934.650348
 823.803423, 46929.337610
 824.150767, 46924.010617
 824.497731, 46918.688770
 824.845767, 46913.360078
 825.192354, 46908.049101
 825.541948, 46902.712426
 825.891199, 46897.373663
 826.241842, 46892.024415
 826.592505, 46886.674640
 826.943630, 46881.324074
 827.295039, 46875.973272
 827.645908, 46871.886692
 827.999299, 46867.775417
 828.349563, 46863.705145
 828.701677, 46859.618040
 829.054635, 46855.525809
 829.407189, 46851.442948
 829.762143, 46847.337042
 830.116670, 46843.240816
 830.468208, 46839.183811
 830.824009, 46835.082378
 831.180284, 46830.980274
 831.535037, 46826.900470
 831.891661, 46822.803964
 832.248324, 46818.711844
 832.605092, 46814.623340
 832.960269, 46810.557887
 833.318761, 46806.459348
 833.676508, 46802.374212
 834.035569, 46798.278983
 834.392862, 46794.208799
 834.753261, 46790.108162
 835.114144, 46786.007007
 835.474406, 46781.917870
 835.834996, 46777.829987
 836.196586, 46773.735771
 836.557140, 46769.658274
 836.918014, 46765.582166
 837.280459, 46761.493345
 837.643742, 46757.400128
 838.005706, 46753.326843
 838.368911, 46749.244650
 838.733942, 46745.147067
 839.098750, 46741.057123
 839.464945, 46736.956793
 839.829376, 46732.881366
 840.195898, 46728.787730
 840.562416, 46724.699345
 840.929494, 46720.609924
 841.297076, 46716.520130
 841.664141, 46712.441324
 842.031536, 46708.364081
 842.400603, 46704.273573
 842.770595, 46700.178127
 843.141760, 46696.075054
 843.511769, 46691.990106
 843.882689, 46687.900458
 844.254771, 46683.803391
 844.627622, 46679.703282
 845.001863, 46675.593365
 845.375418, 46671.496430
 845.749667, 46667.397368
 846.124187, 46663.300841
 846.499161, 46659.204852
 846.874047, 46655.115340
 847.249101, 46651.029524
 847.625681, 46646.932641
 848.002908, 46642.834323
 848.380154, 46638.741388
 848.756866, 46634.659856
 849.136393, 46630.553480
 849.516274, 46626.448967
 849.896483, 46622.346613
 850.274475, 46618.273854
 850.651819, 46614.213710
 851.033687, 46610.110630
 851.415841, 46606.010253
 851.797365, 46601.922416
 852.179981, 46597.828690
 852.564766, 46593.717609
 852.950007, 46589.607553
 853.334789, 46585.508285
 853.719457, 46581.416125
 854.104943, 46577.321168
 854.492253, 46573.212814
 854.879276, 46569.113475
 855.267379, 46565.008696
 855.656270, 46560.901630
 856.044594, 46556.806573
 856.435740, 46552.687865
 856.825734, 46548.587385
 857.216260, 46544.487422
 857.313734, 46543.465034
 857.607364, 46540.387519
 858.000336, 46536.274213
 858.393600, 46532.164063
 858.785537, 46528.073957
 859.179128, 46523.972816
 859.572171, 46519.883606
 859.967117, 46515.780866
 860.362796, 46511.676818
 860.760255, 46507.560663
 861.157309, 46503.455064
 861.558207, 46499.316184
 861.956036, 46495.215402
 862.355882, 46491.100294
 862.756088, 46486.987950
 863.157061, 46482.874233
 863.557516, 46478.772338
 863.960706, 46474.649002
 864.359707, 46470.574997
 864.764125, 46466.452284
 865.166178, 46462.360273
 865.570859, 46458.248151
 865.974751, 46454.150700
 866.382404, 46450.021829
 866.790407, 46445.896193
 867.198303, 46441.778430
 867.607160, 46437.657774
 868.016387, 46433.540229
 868.428370, 46429.401877
 868.841258, 46425.261396
 869.252705, 46421.142300
 869.664291, 46417.028755
 870.079102, 46412.890010
 870.490432, 46408.792954
 870.904933, 46404.671345
 871.319475, 46400.556389
 871.736259, 46396.426294
 872.152709, 46392.306642
 872.571378, 46388.172226
 872.988585, 46384.059443
 873.407026, 46379.941687
 873.828325, 46375.803109
 874.249166, 46371.676343
 874.669900, 46367.557931
 875.092793, 46363.425748
 875.514340, 46359.314088
 875.936788, 46355.201016
 876.359515, 46351.092609
 876.785346, 46346.961531
 877.212719, 46342.823043
 877.638508, 46338.707434
 878.065822, 46334.584645
 878.494814, 46330.453298
 878.926131, 46326.307263
 879.355284, 46322.189714
 879.786560, 46318.059515
 880.217856, 46313.936871
 880.650605, 46309.808120
 881.082838, 46305.692087
 881.518686, 46301.549529
 881.953170, 46297.427820
 882.388135, 46293.309443
 882.827019, 46289.161979
 883.262775, 46285.052037
 883.702141, 46280.916094
 884.142207, 46276.781669
 884.583542, 46272.643463
 885.024929, 46268.512942
 885.466250, 46264.391199
 885.907722, 46260.276237
 886.350292, 46256.159250
 886.794035, 46252.039611
 887.241563, 46247.893223
 887.687342, 46243.771413
 888.137453, 46239.618035
 888.584883, 46235.497854
 889.034499, 46231.366045
 889.483631, 46227.247205
 889.935720, 46223.109833
 890.388675, 46218.973191
 890.839060, 46214.868610
 891.289848, 46210.768946
 891.742976, 46206.656663
 892.194337, 46202.569058
 892.652820, 46198.425783
 893.108670, 46194.315127
 893.566714, 46190.193573
 894.025099, 46186.077846
 894.487541, 46181.934740
 894.951755, 46177.784887
 895.414974, 46173.653052
 895.874008, 46169.567552
 896.338777, 46165.440139
 896.803065, 46161.326178
 897.269913, 46157.198787
 897.733999, 46153.105020
 898.199581, 46149.007287
 898.670297, 46144.873768
 899.136172, 46140.792063
 899.608136, 46136.666468
 900.078317, 46132.565924
 900.550524, 46128.457218
 901.025698, 46124.332327
 901.499913, 46120.225392
 901.976972, 46116.103541
 902.455443, 46111.979288
 902.932880, 46107.873730
 903.412175, 46103.762025
 903.893436, 46099.643381
 904.375710, 46095.526038
 904.858117, 46091.417550
 905.341414, 46087.311518
 905.825655, 46083.207541
 906.307963, 46079.129971
 906.792044, 46075.047479
 907.275054, 46070.984086
 907.764509, 46066.876726
 908.252413, 46062.792659
 908.739848, 46058.722773
 909.230884, 46054.633185
 909.718306, 46050.583997
 910.208872, 46046.519051
 910.701236, 46042.449670
 911.194743, 46038.381359
 911.690610, 46034.304211
 912.183854, 46030.259188
 912.678655, 46026.211974
 913.173923, 46022.171576
 913.673358, 46018.107949
 914.173322, 46014.050848
 914.673550, 46010.002469
 915.179006, 46005.922812
 915.683997, 46001.857989
 916.188370, 45997.809195
 916.693425, 45993.766024
 917.197598, 45989.740966
 917.704768, 45985.703153
 918.213165, 45981.666812
 918.723747, 45977.624450
 919.234283, 45973.593813
 919.745399, 45969.569984
 920.258433, 45965.542519
 920.771740, 45961.524400
 921.286737, 45957.504612
 921.808078, 45953.447110
 922.324138, 45949.442410
 922.842956, 45945.428042
 923.360616, 45941.434374
 923.880403, 45937.436093
 924.399356, 45933.456025
 924.923949, 45929.444692
 925.445867, 45925.465780
 925.972403, 45921.463772
 926.497827, 45917.482327
 927.022257, 45913.520498
 927.553174, 45909.521953
 928.082439, 45905.548178
 928.615170, 45901.560807
 929.142353, 45897.627249
 929.669570, 45893.705647
 930.199181, 45889.778560
 930.727988, 45885.869745
 931.265367, 45881.910181
 931.802384, 45877.965995
 932.337279, 45874.050025
 932.870322, 45870.160159
 933.408978, 45866.242065
 933.952512, 45862.301462
 934.494651, 45858.383963
 935.036756, 45854.479685
 935.578429, 45850.591491
 936.122733, 45846.697465
 936.668893, 45842.803328
 937.210190, 45838.956883
 937.755543, 45835.094718
 938.301797, 45831.239376
 938.853365, 45827.359932
 939.401540, 45823.517704
 939.951147, 45819.678810
 940.506242, 45815.815167
 941.056927, 45811.995730
 941.611036, 45808.166117
 942.164136, 45804.357071
 942.721136, 45800.534887
 943.279062, 45796.720163
 943.836490, 45792.922661
 944.397389, 45789.115443
 944.955884, 45785.338449
 945.516172, 45781.563261
 946.076851, 45777.799424
 946.636561, 45774.056048
 947.200212, 45770.300414
 947.761325, 45766.575741
 948.328218, 45762.826940
 948.899542, 45759.063336
 949.467815, 45755.334269
 950.036504, 45751.616884
 950.607997, 45747.895712
 951.178154, 45744.197761
 951.748932, 45740.510324
 952.321689, 45736.824725
 952.894253, 45733.155014
 953.468456, 45729.489515
 954.036535, 45725.877611
 954.610039, 45722.245853
 955.188737, 45718.596118
 955.762027, 45714.995271
 956.343323, 45711.359153
 956.926953, 45707.723657
 957.506950, 45704.125906
 958.089281, 45700.528838
 958.671177, 45696.949637
 959.254097, 45693.379360
 959.840943, 45689.800425
 960.426181, 45686.246688
 961.015847, 45682.681598
 961.598091, 45679.176694
 962.185732, 45675.654741
 962.777821, 45672.121805
 963.366047, 45668.627520
 963.956071, 45665.138171
 964.549300, 45661.645642
 965.141692, 45658.173832
 965.735435, 45654.709934
 966.330756, 45651.252756
 966.928131, 45647.799682
 967.521810, 45644.383877
 968.117845, 45640.970481
 968.712985, 45637.578179
 969.309653, 45634.193173
 969.910094, 45630.802961
 970.509475, 45627.434935
 971.112830, 45624.060938
 971.714277, 45620.713946
 972.316663, 45617.378076
 972.919621, 45614.055436
 973.527303, 45610.723360
 974.134409, 45607.411082
 974.744648, 45604.098480
 975.356137, 45600.795962
 975.966504, 45597.516341
 976.581516, 45594.228790
 977.199943, 45590.940211
 977.819353, 45587.663733
 978.432003, 45584.440074
 979.043925, 45581.237187
 979.667866, 45577.988825
 980.285347, 45574.791435
 980.900476, 45571.623374
 981.517911, 45568.460659
 982.132529, 45565.329509
 982.748605, 45562.208097
 983.373846, 45559.057815
 983.993658, 45555.952371
 984.616662, 45552.848465
 985.234317, 45549.788567
 985.862233, 45546.695560
 986.490554, 45543.618443
 987.115172, 45540.577204
 987.736511, 45537.569477
 988.358319, 45534.577011
 988.987877, 45531.565109
 989.612720, 45528.593549
 990.244768, 45525.605741
 990.873834, 45522.650034
 991.506753, 45519.694350
 992.139798, 45516.756268
 992.767273, 45513.861996
 993.393892, 45510.989511
 994.029562, 45508.093758
 994.663437, 45505.224458
 995.302882, 45502.348444
 995.934763, 45499.524697
 996.576569, 45496.675174
 997.210255, 45493.880068
 997.850668, 45491.073839
 998.488917, 45488.295644
 999.122395, 45485.556534
 999.762229, 45482.808464
1000.399394, 45480.090357
1001.042265, 45477.366629
1001.679256, 45474.686357
1002.318896, 45472.013515
1002.959184, 45469.356611
1003.604742, 45466.696728
1004.248075, 45464.064886
1004.894921, 45461.437662
1005.538273, 45458.843525
1006.190313, 45456.233584
1006.832135, 45453.683449
1007.473391, 45451.154298
1008.119030, 45448.626779
1008.771666, 45446.091168
1009.424936, 45443.572521
1010.068713, 45441.109497
1010.719465, 45438.638976
1011.376823, 45436.162966
1012.029079, 45433.725636
1012.684650, 45431.295453
1013.337218, 45428.895855
1013.986888, 45426.526196
1014.645253, 45424.144446
1015.300441, 45421.793808
1015.958363, 45419.453051
1016.617797, 45417.126719
1017.279458, 45414.812455
1017.943456, 45412.510085
1018.603081, 45410.242786
1019.269732, 45407.971496
1019.927122, 45405.751604
1020.587314, 45403.542088
1021.247711, 45401.351771
1021.907759, 45399.182490
1022.573135, 45397.015809
1023.235997, 45394.877393
1023.898553, 45392.759996
1024.058882, 45392.250624
