Time, Horizontal Forces
   0.000000, 61911.362739
   0.000000, 61911.079095
   0.000006, 61910.206781
   0.000081, 61906.956070
   0.000699, 61898.343301
   0.003468, 61882.285727
   0.009283, 61863.744061
   0.017960, 61845.094758
   0.029596, 61826.264622
   0.044123, 61807.427220
   0.061553, 61788.572430
   0.081999, 61769.605842
   0.105450, 61750.573344
   0.131994, 61731.433664
   0.161747, 61712.144933
   0.194513, 61692.853752
   0.230914, 61673.238512
   0.270526, 61653.573107
   0.313173, 61633.944924
   0.359084, 61614.250736
   0.408542, 61594.391244
   0.461757, 61574.316815
   0.519904, 61553.657300
   0.581296, 61533.056684
   0.646687, 61512.270934
   0.715945, 61491.365115
   0.788688, 61470.462436
   0.864259, 61449.737802
   0.945221, 61428.509262
   1.029760, 61407.284999
   1.119383, 61385.707759
   1.212530, 61364.171652
   1.312001, 61342.059971
   1.414970, 61320.029038
   1.525017, 61297.344410
   1.639121, 61274.663479
   1.758011, 61251.847815
   1.884984, 61228.308673
   2.015833, 61204.857369
   2.152143, 61181.214411
   2.294481, 61157.302728
   2.441864, 61133.303484
   2.593988, 61109.270984
   2.754303, 61084.685540
   2.916678, 61060.493897
   3.087543, 61035.743901
   3.262882, 61011.038252
   3.447395, 60985.736480
   3.636847, 60960.442364
   3.836192, 60934.518363
   4.040665, 60908.607360
   4.250971, 60882.621847
   4.466715, 60856.613218
   4.693176, 60829.968626
   4.924425, 60803.405086
   5.163882, 60776.536740
   5.412825, 60749.244998
   5.674078, 60721.258302
   5.938114, 60693.608815
   6.212622, 60665.494879
   6.492260, 60637.474821
   6.781912, 60609.068264
   7.079639, 60580.482580
   7.383248, 60551.932165
   7.697232, 60523.004266
   8.016771, 60494.151508
   8.347162, 60464.904303
   8.685301, 60435.551559
   9.033737, 60405.883579
   9.393934, 60375.796029
   9.762446, 60345.591497
  10.142003, 60315.057938
  10.524603, 60284.838792
  10.923586, 60253.891142
  11.329340, 60222.978411
  11.749655, 60191.520063
  12.173712, 60160.332527
  12.613157, 60128.566491
  13.061504, 60096.707375
  13.518263, 60064.793105
  13.991016, 60032.308970
  14.467732, 60000.088505
  14.958757, 59967.435921
  15.456775, 59934.845948
  15.973773, 59901.548952
  16.495344, 59868.483428
  17.029105, 59835.166152
  17.574798, 59801.623726
  18.134788, 59767.723440
  18.702388, 59733.876286
  19.286740, 59699.546145
  19.885425, 59664.892430
  20.494528, 59630.150170
  21.115462, 59595.243691
  21.746890, 59560.252763
  22.390314, 59525.098830
  23.048963, 59489.615188
  23.716674, 59454.140003
  24.402398, 59418.206252
  25.107305, 59381.771918
  25.135325, 59380.333892
  25.154587, 59379.345843
  25.171818, 59378.462225
  25.185688, 59377.751233
  25.201701, 59376.930570
  25.213792, 59376.311064
  25.216352, 59376.179928
  25.219779, 59376.004377
  25.220523, 59375.966250
  25.221723, 59375.904818
  25.222112, 59375.884857
  25.222191, 59375.880821
  25.222357, 59375.869868
  25.224019, 59375.760340
  25.237170, 59374.893447
  25.296358, 59370.994763
  25.498740, 59357.698026
  26.000947, 59324.926733
  26.642256, 59283.531359
  27.302605, 59241.420002
  27.974971, 59199.057967
  28.653947, 59156.788521
  29.346020, 59114.211517
  30.053653, 59071.188639
  30.769314, 59028.185096
  31.493917, 58985.146158
  32.235460, 58941.605886
  32.986662, 58898.001416
  33.749175, 58854.240355
  34.521758, 58810.397934
  35.309010, 58766.219947
  36.110702, 58721.729969
  36.918686, 58677.382824
  37.737715, 58632.917012
  38.565372, 58588.465423
  39.411603, 58543.501767
  40.272584, 58498.241959
  41.143597, 58452.939478
  42.028225, 58407.411930
  42.927001, 58361.639248
  43.837619, 58315.744471
  44.766343, 58269.420414
  45.699879, 58223.332958
  46.644286, 58177.180260
  47.608940, 58130.512837
  48.581376, 58083.939921
  49.574219, 58036.862873
  50.577529, 57989.760895
  51.594742, 57942.475628
  52.624413, 57895.078450
  53.659619, 57847.886631
  54.722782, 57799.886615
  55.793643, 57752.002984
  56.886581, 57703.598515
  57.986542, 57655.345164
  59.097008, 57607.087962
  60.230149, 57558.305359
  61.373373, 57509.546514
  62.533107, 57460.540254
  63.705654, 57411.447378
  64.887957, 57362.396461
  66.098842, 57312.615725
  67.316009, 57263.029195
  68.552761, 57213.096933
  69.802626, 57163.085863
  71.066063, 57112.979856
  72.337267, 57063.008575
  73.633184, 57012.510935
  74.937627, 56962.123130
  76.259104, 56911.517892
  77.604494, 56860.440591
  78.964225, 56809.262082
  80.341091, 56757.881055
  81.731271, 56706.443346
  83.142511, 56654.667350
  84.561698, 56603.036583
  85.995265, 56551.316281
  87.444770, 56499.453014
  88.909104, 56447.489554
  90.400811, 56394.988546
  91.901031, 56342.618785
  93.423639, 56289.898570
  94.964104, 56236.991336
  96.517240, 56184.077466
  98.080217, 56131.252449
  99.664272, 56078.138825
 101.266676, 56024.833792
 102.891796, 55971.198316
 104.526630, 55917.664164
 104.539735, 55917.236720
 104.542737, 55917.138811
 104.543987, 55917.098016
 104.546489, 55917.016426
 104.546777, 55917.007034
 104.546938, 55917.000899
 104.547182, 55916.990827
 104.549626, 55916.890113
 104.574059, 55915.882974
 104.717274, 55909.982009
 105.202036, 55890.039320
 106.378729, 55841.829667
 107.871336, 55781.075318
 109.366606, 55720.650784
 110.882950, 55659.813291
 112.407164, 55599.096177
 113.943577, 55538.326597
 115.497772, 55477.287587
 117.071981, 55415.898426
 118.654749, 55354.608883
 120.245072, 55293.455718
 121.861354, 55231.736136
 123.485075, 55170.162117
 125.124172, 55108.433224
 126.780605, 55046.479944
 128.452606, 54984.372696
 130.136489, 54922.250560
 131.835861, 54859.982471
 133.556284, 54797.370111
 135.287735, 54734.781905
 137.033772, 54672.090424
 138.793246, 54609.339023
 140.565230, 54546.562014
 142.361784, 54483.337310
 144.164887, 54420.302122
 145.979488, 54357.281823
 147.815380, 54293.939793
 149.672591, 54230.281712
 151.547364, 54166.441776
 153.429532, 54102.766744
 155.329287, 54038.912392
 157.237444, 53975.188403
 159.171616, 53911.010137
 161.112003, 53847.037403
 163.075804, 53782.705138
 165.046358, 53718.561194
 167.036178, 53654.199001
 169.042826, 53589.701225
 171.062032, 53525.206843
 173.107959, 53460.268076
 175.162859, 53395.451750
 177.231972, 53330.592309
 179.321368, 53265.502501
 181.424434, 53200.391138
 183.537603, 53135.368499
 185.678299, 53069.902204
 187.832754, 53004.418034
 190.009434, 52938.661788
 192.198701, 52872.927420
 194.405030, 52807.081862
 196.620050, 52741.375164
 198.856798, 52675.422094
 201.111476, 52609.338480
 203.379910, 52543.248378
 205.669758, 52476.931321
 207.977134, 52410.503330
 210.306103, 52343.850891
 212.646846, 52277.256998
 214.994192, 52210.866936
 217.363102, 52144.258191
 219.756760, 52077.346326
 222.166594, 52010.374678
 224.602090, 51943.083477
 227.041404, 51876.077013
 229.496927, 51809.013540
 231.973480, 51741.763958
 234.466238, 51674.461870
 236.981575, 51606.938115
 239.508770, 51539.482295
 242.065907, 51471.615202
 244.638466, 51403.726447
 245.156938, 51390.090720
 245.494762, 51381.214371
 245.750051, 51374.510975
 245.955696, 51369.113847
 246.156817, 51363.837812
 246.360575, 51358.494962
 246.509926, 51354.580266
 246.536485, 51353.884238
 246.569959, 51353.007065
 246.609033, 51351.983231
 246.611229, 51351.925680
 246.612549, 51351.891112
 246.613518, 51351.865706
 246.614303, 51351.845144
 246.614556, 51351.838192
 246.614814, 51351.829502
 246.617397, 51351.742604
 246.639574, 51350.996500
 246.780542, 51346.254861
 247.315184, 51328.285785
 249.139642, 51267.137116
 251.404036, 51191.606979
 253.699369, 51115.450445
 256.004014, 51039.390185
 258.328686, 50963.074678
 260.655828, 50887.080695
 263.004579, 50810.784000
 265.366922, 50734.448552
 267.740256, 50658.159303
 270.131666, 50581.690373
 272.535832, 50505.214277
 274.948439, 50428.868221
 277.381395, 50352.277167
 279.827113, 50275.682788
 282.292498, 50198.871440
 284.769320, 50122.101837
 287.256506, 50045.407212
 289.758171, 49968.661429
 292.278909, 49891.726289
 294.806368, 49814.979713
 297.350989, 49738.105119
 299.915435, 49661.025482
 302.495314, 49583.875878
 305.082355, 49506.903721
 307.690629, 49429.691771
 310.309911, 49352.544938
 312.945474, 49275.309023
 315.596902, 49197.998385
 318.256757, 49120.830349
 320.932506, 49043.588657
 323.630245, 48966.100662
 326.343042, 48888.568618
 329.067365, 48811.094276
 331.802828, 48733.688607
 334.555459, 48656.182222
 337.328881, 48578.476297
 340.110638, 48500.921108
 342.912817, 48423.180840
 345.735048, 48345.269406
 348.571929, 48267.338281
 351.416009, 48189.591849
 354.278718, 48111.718214
 357.155150, 48033.852669
 360.049072, 47955.894825
 362.964475, 47877.740210
 365.884928, 47799.829916
 368.817322, 47721.978875
 371.766818, 47644.051149
 374.729592, 47566.149121
 377.712618, 47488.091281
 380.705417, 47410.153093
 383.719420, 47332.038223
 386.759157, 47253.633637
 389.800591, 47175.559959
 392.867138, 47097.216648
 395.945380, 47018.948890
 399.043014, 46940.562227
 402.157724, 46862.117556
 405.284131, 46783.751179
 408.419544, 46705.529930
 411.577222, 46627.124290
 414.764999, 46548.344693
 417.948210, 46470.048048
 421.160956, 46391.395646
 424.378335, 46312.998853
 427.616846, 46234.455858
 430.876829, 46155.761469
 434.145576, 46077.223470
 437.428615, 45998.708718
 440.728039, 45920.168236
 444.048966, 45841.482362
 447.386551, 45762.768095
 450.732892, 45684.211932
 454.108833, 45605.326713
 457.487058, 45526.751890
 460.888088, 45448.010188
 464.304706, 45369.270842
 464.990495, 45353.509665
 467.377924, 45298.753213
 467.515046, 45295.613576
 467.538661, 45295.072923
 467.548684, 45294.843464
 467.551293, 45294.783732
 467.552849, 45294.747871
 467.554620, 45294.706915
 467.572325, 45294.297351
 467.698666, 45291.375139
 468.534335, 45272.058935
 472.194187, 45187.716064
 475.641414, 45108.647429
 479.110670, 45029.436001
 482.595078, 44950.240676
 486.098418, 44870.976963
 489.616727, 44791.735848
 493.149280, 44712.534295
 496.693071, 44633.439738
 500.266628, 44554.041025
 503.847318, 44474.842785
 507.450139, 44395.513873
 511.064352, 44316.291919
 514.692557, 44237.119969
 518.341361, 44157.855169
 522.013405, 44078.442803
 525.693678, 43999.208370
 529.390924, 43919.963544
 533.101684, 43840.783181
 536.830320, 43761.574966
 540.583884, 43682.191552
 544.350946, 43602.876416
 548.132836, 43523.601922
 551.938246, 43444.187596
 555.759270, 43364.800214
 559.594637, 43285.466747
 563.445223, 43206.169559
 567.303561, 43127.061953
 571.184742, 43047.835163
 575.086347, 42968.540864
 579.001870, 42889.312347
 582.928818, 42810.199950
 586.875636, 42731.034196
 590.844468, 42651.774124
 594.826134, 42572.604173
 598.830514, 42493.329094
 602.857980, 42413.943970
 606.896590, 42334.685218
 610.951745, 42255.446918
 615.022109, 42176.255882
 619.112651, 42097.016494
 623.222789, 42017.741680
 627.351194, 41938.458444
 631.499344, 41859.139802
 635.657072, 41779.980421
 639.837451, 41700.732086
 644.029999, 41621.594455
 648.237023, 41542.523913
 652.466889, 41463.364501
 656.712596, 41384.248598
 660.980636, 41305.056553
 665.264700, 41225.906754
 669.570956, 41146.686549
 673.892541, 41067.523367
 676.160155, 41026.119805
 678.226955, 40988.463125
 682.580782, 40917.624500
 686.946938, 40855.406355
 691.344019, 40792.141924
 695.758548, 40724.662463
 700.197558, 40650.117493
 704.644708, 40575.022594
 709.105097, 40499.295376
 713.600697, 40418.497212
 718.119169, 40330.607388
 722.646755, 40242.216726
 727.198480, 40153.115188
 731.766217, 40059.970986
 736.344433, 39958.518772
 740.946719, 39856.440488
 745.564039, 39753.842947
 750.191281, 39650.044901
 754.835658, 39536.206249
 759.502489, 39421.823278
 764.175716, 39307.144937
 768.856914, 39192.287597
 773.555080, 39070.390100
 778.263018, 38945.290121
 782.988593, 38819.901985
 787.715931, 38694.427873
 792.453010, 38567.679589
 792.643139, 38507.222281
 792.899094, 38500.714159
 793.151053, 38493.480587
 793.217329, 38489.357155
 793.301442, 38487.173274
 793.321433, 38485.832159
 793.351294, 38485.099441
 793.353384, 38484.705904
 793.354241, 38484.666884
 793.355122, 38484.643037
 793.363923, 38484.497017
 793.451944, 38483.036835
 793.967135, 38474.053013
 796.012112, 38436.423819
 800.932922, 38336.305863
 805.905826, 38200.680649
 806.236681, 38123.347652
 806.566898, 38102.031379
 806.898423, 38080.433282
 807.229874, 38058.602013
 807.561840, 38036.522533
 807.893824, 38014.214476
 808.225486, 37991.702999
 808.558288, 37968.910357
 808.891287, 37945.871013
 809.224474, 37922.596711
 809.556565, 37899.162608
 809.888823, 37875.511786
 810.222823, 37851.534658
 810.556584, 37826.369727
 810.890991, 37800.928256
 811.225027, 37775.278393
 811.558493, 37749.448873
 811.893839, 37723.289181
 812.229759, 37696.842562
 812.565602, 37670.169772
 812.898568, 37643.463688
 813.232727, 37616.503833
 813.568861, 37589.175327
 813.906228, 37561.512705
 814.240510, 37533.817953
 814.576350, 37505.843753
 814.912871, 37477.578666
 815.249137, 37449.100117
 815.587293, 37420.271595
 815.924423, 37391.265237
 816.263204, 37361.934452
 816.602649, 37332.307943
 816.942211, 37302.439330
 817.282686, 37272.278266
 817.623920, 37241.822692
 817.965140, 37211.131732
 818.305496, 37180.281796
 818.647001, 37149.133542
 818.989324, 37117.680527
 819.331926, 37085.968281
 819.673757, 37054.087022
 820.017327, 37021.855556
 820.359033, 36989.520804
 820.701454, 36956.932954
 821.044816, 36924.034135
 821.390004, 36890.747223
 821.734523, 36857.261183
 822.079587, 36823.514014
 822.423887, 36789.596451
 822.769502, 36755.354271
 823.112594, 36721.080674
 823.457130, 36686.498102
 823.803423, 36651.517988
 824.150767, 36616.194055
 824.497731, 36580.660220
 824.845767, 36544.810800
 825.192354, 36508.846654
 825.541948, 36472.408968
 825.891199, 36435.728447
 826.241842, 36398.698033
 826.592505, 36361.415268
 826.943630, 36323.859879
 827.295039, 36286.041343
 827.645908, 36253.420314
 827.999299, 36220.505291
 828.349563, 36187.822588
 828.701677, 36154.908393
 829.054635, 36121.855947
 829.407189, 36088.782239
 829.762143, 36055.423919
 830.116670, 36022.046125
 830.468208, 35988.891062
 830.824009, 35955.274661
 831.180284, 35921.553674
 831.535037, 35887.917457
 831.891661, 35854.044363
 832.248324, 35820.108059
 832.605092, 35786.102165
 832.960269, 35752.189030
 833.318761, 35717.899724
 833.676508, 35683.622180
 834.035569, 35649.159083
 834.392862, 35614.806403
 834.753261, 35580.095238
 835.114144, 35545.277546
 835.474406, 35510.459893
 835.834996, 35475.550821
 836.196586, 35440.485047
 836.557140, 35405.460112
 836.918014, 35370.344700
 837.280459, 35335.016603
 837.643742, 35299.546732
 838.005706, 35264.146172
 838.368911, 35228.564396
 838.733942, 35192.743667
 839.098750, 35156.884695
 839.464945, 35120.828997
 839.829376, 35084.887155
 840.195898, 35048.678870
 840.562416, 35012.410820
 840.929494, 34976.027093
 841.297076, 34939.533178
 841.664141, 34903.030556
 842.031536, 34866.435037
 842.400603, 34829.612723
 842.770595, 34792.637527
 843.141760, 34755.484325
 843.511769, 34718.386368
 843.882689, 34681.136572
 844.254771, 34643.709317
 844.627622, 34606.143827
 845.001863, 34568.377230
 845.375418, 34530.618716
 845.749667, 34492.729119
 846.124187, 34454.751168
 846.499161, 34416.666121
 846.874047, 34378.529117
 847.249101, 34340.314269
 847.625681, 34301.882820
 848.002908, 34263.324222
 848.380154, 34224.702417
 848.756866, 34186.074509
 849.136393, 34147.096518
 849.516274, 34108.020599
 849.896483, 34068.849322
 850.274475, 34029.845620
 850.651819, 33990.848273
 851.033687, 33951.322031
 851.415841, 33911.704424
 851.797365, 33872.090738
 852.179981, 33832.302271
 852.564766, 33792.226157
 852.950007, 33752.040423
 853.334789, 33711.840630
 853.719457, 33671.591040
 854.104943, 33631.193988
 854.492253, 33590.543768
 854.879276, 33549.861491
 855.267379, 33509.003432
 855.656270, 33468.000175
 856.044594, 33426.994433
 856.435740, 33385.628149
 856.825734, 33344.321238
 857.216260, 33302.895660
 857.313734, 33292.546215
 857.607364, 33261.346367
 858.000336, 33219.535853
 858.393600, 33177.631485
 858.785537, 33135.806029
 859.179128, 33093.741605
 859.572171, 33051.673334
 859.967117, 33009.338729
 860.362796, 32966.862704
 860.760255, 32924.132377
 861.157309, 32881.382449
 861.558207, 32838.154854
 861.956036, 32795.194824
 862.355882, 32751.953757
 862.756088, 32708.610189
 863.157061, 32665.120038
 863.557516, 32621.622771
 863.960706, 32577.764677
 864.359707, 32534.299321
 864.764125, 32490.180237
 865.166178, 32446.255807
 865.570859, 32401.980535
 865.974751, 32357.728134
 866.382404, 32312.999391
 866.790407, 32268.167784
 867.198303, 32223.283656
 867.607160, 32178.229346
 868.016387, 32133.069926
 868.428370, 32087.541558
 868.841258, 32041.847978
 869.252705, 31996.249034
 869.664291, 31950.570237
 870.079102, 31904.468478
 870.490432, 31858.689057
 870.904933, 31812.492088
 871.319475, 31766.225781
 871.736259, 31719.644021
 872.152709, 31673.034437
 872.571378, 31626.110974
 872.988585, 31579.286413
 873.407026, 31532.258081
 873.828325, 31484.842902
 874.249166, 31437.413588
 874.669900, 31389.930819
 875.092793, 31342.138523
 875.514340, 31294.432992
 875.936788, 31246.560092
 876.359515, 31198.590032
 876.785346, 31150.201923
 877.212719, 31101.572091
 877.638508, 31053.056618
 878.065822, 31004.301285
 878.494814, 30955.288171
 878.926131, 30905.942467
 879.355284, 30856.778032
 879.786560, 30807.303864
 880.217856, 30757.760901
 880.650605, 30707.984264
 881.082838, 30658.200520
 881.518686, 30607.933376
 881.953170, 30557.756567
 882.388135, 30507.457463
 882.827019, 30456.637734
 883.262775, 30406.113231
 883.702141, 30355.102912
 884.142207, 30303.943834
 884.583542, 30252.569434
 885.024929, 30201.121415
 885.466250, 30149.613525
 885.907722, 30098.020889
 886.350292, 30046.232498
 886.794035, 29994.239259
 887.241563, 29941.734304
 887.687342, 29889.366507
 888.137453, 29836.421133
 888.584883, 29783.722946
 889.034499, 29730.699033
 889.483631, 29677.664164
 889.935720, 29624.211411
 890.388675, 29570.587459
 890.839060, 29517.199601
 891.289848, 29463.696228
 891.742976, 29409.846952
 892.194337, 29356.139956
 892.652820, 29301.516451
 893.108670, 29247.137815
 893.566714, 29192.428757
 894.025099, 29137.609888
 894.487541, 29082.236358
 894.951755, 29026.580435
 895.414974, 28970.973918
 895.874008, 28915.801254
 896.338777, 28859.869862
 896.803065, 28803.926886
 897.269913, 28747.605607
 897.733999, 28691.548353
 898.199581, 28635.241357
 898.670297, 28578.243315
 899.136172, 28521.762112
 899.608136, 28464.472787
 900.078317, 28407.330069
 900.550524, 28349.871084
 901.025698, 28291.980579
 901.499913, 28234.136551
 901.976972, 28175.874907
 902.455443, 28117.369917
 902.932880, 28058.920735
 903.412175, 28000.173317
 903.893436, 27941.113974
 904.375710, 27881.859014
 904.858117, 27822.516564
 905.341414, 27762.993649
 905.825655, 27703.283384
 906.307963, 27643.740894
 906.792044, 27583.908961
 907.275054, 27524.139327
 907.764509, 27463.500821
 908.252413, 27402.983244
 908.739848, 27342.453122
 909.230884, 27281.404549
 909.718306, 27220.734853
 910.208872, 27159.603101
 910.701236, 27098.176336
 911.194743, 27036.535736
 911.690610, 26974.528904
 912.183854, 26912.779160
 912.678655, 26850.763571
 913.173923, 26788.618882
 913.673358, 26725.879853
 914.173322, 26663.002672
 914.673550, 26600.020982
 915.179006, 26536.308703
 915.683997, 26472.582663
 916.188370, 26408.862586
 916.693425, 26344.984802
 917.197598, 26281.146971
 917.704768, 26216.858132
 918.213165, 26152.341873
 918.723747, 26087.476076
 919.234283, 26022.544067
 919.745399, 25957.466411
 920.258433, 25892.072516
 920.771740, 25826.571683
 921.286737, 25760.783061
 921.808078, 25694.110757
 922.324138, 25628.041480
 922.842956, 25561.546758
 923.360616, 25495.128571
 923.880403, 25428.365349
 924.399356, 25361.637453
 924.923949, 25294.111768
 925.445867, 25226.858226
 925.972403, 25158.937135
 926.497827, 25091.086879
 927.022257, 25023.293168
 927.553174, 24954.587880
 928.082439, 24886.023805
 928.615170, 24816.937715
 929.142353, 24748.499419
 929.669570, 24679.985361
 930.199181, 24611.089023
 930.727988, 24542.226115
 931.265367, 24472.174495
 931.802384, 24402.097491
 932.337279, 24332.225454
 932.870322, 24262.524189
 933.408978, 24192.017246
 933.952512, 24120.798896
 934.494651, 24049.690750
 935.036756, 23978.514854
 935.578429, 23907.324013
 936.122733, 23835.715276
 936.668893, 23763.790207
 937.210190, 23692.434522
 937.755543, 23620.472803
 938.301797, 23548.320957
 938.853365, 23475.395006
 939.401540, 23402.846140
 939.951147, 23330.036553
 940.506242, 23256.427672
 941.056927, 23183.332491
 941.611036, 23109.711329
 942.164136, 23036.153290
 942.721136, 22962.005053
 943.279062, 22887.662054
 943.836490, 22813.314372
 944.397389, 22738.432111
 944.955884, 22663.800074
 945.516172, 22588.857535
 946.076851, 22513.792169
 946.636561, 22438.786423
 947.200212, 22363.182153
 947.761325, 22287.848325
 948.328218, 22211.667882
 948.899542, 22134.820789
 949.467815, 22058.313398
 950.036504, 21981.679605
 950.607997, 21904.597645
 951.178154, 21827.625746
 951.748932, 21750.500410
 952.321689, 21673.037841
 952.894253, 21595.531813
 953.468456, 21517.734528
 954.036535, 21440.698812
 954.610039, 21362.859084
 955.188737, 21284.245131
 955.762027, 21206.297666
 956.343323, 21127.192532
 956.926953, 21047.700257
 957.506950, 20968.634125
 958.089281, 20889.181283
 958.671177, 20809.719540
 959.254097, 20730.050028
 959.840943, 20649.775459
 960.426181, 20569.653017
 961.015847, 20488.855914
 961.598091, 20409.008883
 962.185732, 20328.354850
 962.777821, 20247.022402
 963.366047, 20166.153779
 963.956071, 20084.971251
 964.549300, 20003.280785
 965.141692, 19921.639039
 965.735435, 19839.744550
 966.330756, 19757.566133
 966.928131, 19675.037826
 967.521810, 19592.954388
 968.117845, 19510.479925
 968.712985, 19428.064498
 969.309653, 19345.372462
 969.910094, 19262.092580
 970.509475, 19178.894911
 971.112830, 19095.080767
 971.714277, 19011.467175
 972.316663, 18927.658823
 972.919621, 18843.707126
 973.527303, 18759.033413
 974.134409, 18674.375831
 974.744648, 18589.217331
 975.356137, 18503.820424
 975.966504, 18418.516562
 976.581516, 18332.499882
 977.199943, 18245.941249
 977.819353, 18159.181008
 978.432003, 18073.304960
 979.043925, 17987.469150
 979.667866, 17899.884160
 980.285347, 17813.143674
 980.900476, 17726.672182
 981.517911, 17639.815465
 982.132529, 17553.294548
 982.748605, 17466.508391
 983.373846, 17378.369904
 983.993658, 17290.936627
 984.616662, 17202.992801
 985.234317, 17115.744945
 985.862233, 17026.987830
 986.490554, 16938.113427
 987.115172, 16849.703813
 987.736511, 16761.700215
 988.358319, 16673.572744
 988.987877, 16584.288581
 989.612720, 16495.615774
 990.244768, 16405.862498
 990.873834, 16316.475465
 991.506753, 16226.483687
 992.139798, 16136.416922
 992.767273, 16047.086875
 993.393892, 15957.823497
 994.029562, 15867.215022
 994.663437, 15776.806811
 995.302882, 15685.548533
 995.934763, 15595.315067
 996.576569, 15503.609256
 997.210255, 15413.009565
 997.850668, 15321.394115
 998.488917, 15230.034538
 999.122395, 15139.305398
 999.762229, 15047.613182
1000.399394, 14956.251134
1001.042265, 14864.018686
1001.679256, 14772.578395
1002.318896, 14680.706737
1002.959184, 14588.691175
1003.604742, 14495.867282
1004.248075, 14403.312898
1004.894921, 14310.202577
1005.538273, 14217.545548
1006.190313, 14123.587161
1006.832135, 14031.052369
1007.473391, 13938.551270
1008.119030, 13845.369932
1008.771666, 13751.130474
1009.424936, 13656.751004
1010.068713, 13563.696318
1010.719465, 13469.586564
1011.376823, 13374.474172
1012.029079, 13280.053514
1012.684650, 13185.106647
1013.337218, 13090.549149
1013.986888, 12996.366990
1014.645253, 12900.879121
1015.300441, 12805.807626
1015.958363, 12710.295010
1016.617797, 12614.518988
1017.279458, 12518.375509
1017.943456, 12421.848837
1018.603081, 12325.915071
1019.269732, 12228.916549
1019.927122, 12133.223712
1020.587314, 12037.081809
1021.247711, 11940.869002
1021.907759, 11844.666795
1022.573135, 11747.647465
1023.235997, 11650.954796
1023.898553, 11554.267553
1024.058882, 11530.864717
