Time, Horizontal Forces
   0.000000,    0.000000
   0.000000,    0.000000
   0.000006,    0.000000
   0.000081,    0.000000
   0.000699,    0.000000
   0.003468,    0.000000
   0.009283,    0.000000
   0.017960,    0.000000
   0.029596,    0.000000
   0.044123,    0.000000
   0.061553,    0.000000
   0.081999,    0.000000
   0.105450,    0.000000
   0.131994,    0.000000
   0.161747,    0.000000
   0.194513,    0.000000
   0.230914,    0.000000
   0.270526,    0.000000
   0.313173,    0.000000
   0.359084,    0.000000
   0.408542,    0.000000
   0.461757,    0.000000
   0.519904,    0.000000
   0.581296,    0.000000
   0.646687,    0.000000
   0.715945,    0.000000
   0.788688,    0.000000
   0.864259,    0.000000
   0.945221,    0.000000
   1.029760,    0.000000
   1.119383,    0.000000
   1.212530,    0.000000
   1.312001,    0.000000
   1.414970,    0.000000
   1.525017,    0.000000
   1.639121,    0.000000
   1.758011,    0.000000
   1.884984,    0.000000
   2.015833,    0.000000
   2.152143,    0.000000
   2.294481,    0.000000
   2.441864,    0.000000
   2.593988,    0.000000
   2.754303,    0.000000
   2.916678,    0.000000
   3.087543,    0.000000
   3.262882,    0.000000
   3.447395,    0.000000
   3.636847,    0.000000
   3.836192,    0.000000
   4.040665,    0.000000
   4.250971,    0.000000
   4.466715,    0.000000
   4.693176,    0.000000
   4.924425,    0.000000
   5.163882,    0.000000
   5.412825,    0.000000
   5.674078,    0.000000
   5.938114,    0.000000
   6.212622,    0.000000
   6.492260,    0.000000
   6.781912,    0.000000
   7.079639,    0.000000
   7.383248,    0.000000
   7.697232,    0.000000
   8.016771,    0.000000
   8.347162,    0.000000
   8.685301,    0.000000
   9.033737,    0.000000
   9.393934,    0.000000
   9.762446,    0.000000
  10.142003,    0.000000
  10.524603,    0.000000
  10.923586,    0.000000
  11.329340,    0.000000
  11.749655,    0.000000
  12.173712,    0.000000
  12.613157,    0.000000
  13.061504,    0.000000
  13.518263,    0.000000
  13.991016,    0.000000
  14.467732,    0.000000
  14.958757,    0.000000
  15.456775,    0.000000
  15.973773,    0.000000
  16.495344,    0.000000
  17.029105,    0.000000
  17.574798,    0.000000
  18.134788,    0.000000
  18.702388,    0.000000
  19.286740,    0.000000
  19.885425,    0.000000
  20.494528,    0.000000
  21.115462,    0.000000
  21.746890,    0.000000
  22.390314,    0.000000
  23.048963,    0.000000
  23.716674,    0.000000
  24.402398,    0.000000
  25.107305,    0.000000
  25.135325,    0.000000
  25.154587,    0.000000
  25.171818,    0.000000
  25.185688,    0.000000
  25.201701,    0.000000
  25.213792,    0.000000
  25.216352,    0.000000
  25.219779,    0.000000
  25.220523,    0.000000
  25.221723,    0.000000
  25.222112,    0.000000
  25.222191,    0.000000
  25.222357,    0.000000
  25.224019,    0.000000
  25.237170,    0.000000
  25.296358,    0.000000
  25.498740,    0.000000
  26.000947,    0.000000
  26.642256,    0.000000
  27.302605,    0.000000
  27.974971,    0.000000
  28.653947,    0.000000
  29.346020,    0.000000
  30.053653,    0.000000
  30.769314,    0.000000
  31.493917,    0.000000
  32.235460,    0.000000
  32.986662,    0.000000
  33.749175,    0.000000
  34.521758,    0.000000
  35.309010,    0.000000
  36.110702,    0.000000
  36.918686,    0.000000
  37.737715,    0.000000
  38.565372,    0.000000
  39.411603,    0.000000
  40.272584,    0.000000
  41.143597,    0.000000
  42.028225,    0.000000
  42.927001,    0.000000
  43.837619,    0.000000
  44.766343,    0.000000
  45.699879,    0.000000
  46.644286,    0.000000
  47.608940,    0.000000
  48.581376,    0.000000
  49.574219,    0.000000
  50.577529,    0.000000
  51.594742,    0.000000
  52.624413,    0.000000
  53.659619,    0.000000
  54.722782,    0.000000
  55.793643,    0.000000
  56.886581,    0.000000
  57.986542,    0.000000
  59.097008,    0.000000
  60.230149,    0.000000
  61.373373,    0.000000
  62.533107,    0.000000
  63.705654,    0.000000
  64.887957,    0.000000
  66.098842,    0.000000
  67.316009,    0.000000
  68.552761,    0.000000
  69.802626,    0.000000
  71.066063,    0.000000
  72.337267,    0.000000
  73.633184,    0.000000
  74.937627,    0.000000
  76.259104,    0.000000
  77.604494,    0.000000
  78.964225,    0.000000
  80.341091,    0.000000
  81.731271,    0.000000
  83.142511,    0.000000
  84.561698,    0.000000
  85.995265,    0.000000
  87.444770,    0.000000
  88.909104,    0.000000
  90.400811,    0.000000
  91.901031,    0.000000
  93.423639,    0.000000
  94.964104,    0.000000
  96.517240,    0.000000
  98.080217,    0.000000
  99.664272,    0.000000
 101.266676,    0.000000
 102.891796,    0.000000
 104.526630,    0.000000
 104.539735,    0.000000
 104.542737,    0.000000
 104.543987,    0.000000
 104.546489,    0.000000
 104.546777,    0.000000
 104.546938,    0.000000
 104.547182,    0.000000
 104.549626,    0.000000
 104.574059,    0.000000
 104.717274,    0.000000
 105.202036,    0.000000
 106.378729,    0.000000
 107.871336,    0.000000
 109.366606,    0.000000
 110.882950,    0.000000
 112.407164,    0.000000
 113.943577,    0.000000
 115.497772,    0.000000
 117.071981,    0.000000
 118.654749,    0.000000
 120.245072,    0.000000
 121.861354,    0.000000
 123.485075,    0.000000
 125.124172,    0.000000
 126.780605,    0.000000
 128.452606,    0.000000
 130.136489,    0.000000
 131.835861,    0.000000
 133.556284,    0.000000
 135.287735,    0.000000
 137.033772,    0.000000
 138.793246,    0.000000
 140.565230,    0.000000
 142.361784,    0.000000
 144.164887,    0.000000
 145.979488,    0.000000
 147.815380,    0.000000
 149.672591,    0.000000
 151.547364,    0.000000
 153.429532,    0.000000
 155.329287,    0.000000
 157.237444,    0.000000
 159.171616,    0.000000
 161.112003,    0.000000
 163.075804,    0.000000
 165.046358,    0.000000
 167.036178,    0.000000
 169.042826,    0.000000
 171.062032,    0.000000
 173.107959,    0.000000
 175.162859,    0.000000
 177.231972,    0.000000
 179.321368,    0.000000
 181.424434,    0.000000
 183.537603,    0.000000
 185.678299,    0.000000
 187.832754,    0.000000
 190.009434,    0.000000
 192.198701,    0.000000
 194.405030,    0.000000
 196.620050,    0.000000
 198.856798,    0.000000
 201.111476,    0.000000
 203.379910,    0.000000
 205.669758,    0.000000
 207.977134,    0.000000
 210.306103,    0.000000
 212.646846,    0.000000
 214.994192,    0.000000
 217.363102,    0.000000
 219.756760,    0.000000
 222.166594,    0.000000
 224.602090,    0.000000
 227.041404,    0.000000
 229.496927,    0.000000
 231.973480,    0.000000
 234.466238,    0.000000
 236.981575,    0.000000
 239.508770,    0.000000
 242.065907,    0.000000
 244.638466,    0.000000
 245.156938,    0.000000
 245.494762,    0.000000
 245.750051,    0.000000
 245.955696,    0.000000
 246.156817,    0.000000
 246.360575,    0.000000
 246.509926,    0.000000
 246.536485,    0.000000
 246.569959,    0.000000
 246.609033,    0.000000
 246.611229,    0.000000
 246.612549,    0.000000
 246.613518,    0.000000
 246.614303,    0.000000
 246.614556,    0.000000
 246.614814,    0.000000
 246.617397,    0.000000
 246.639574,    0.000000
 246.780542,    0.000000
 247.315184,    0.000000
 249.139642,    0.000000
 251.404036,    0.000000
 253.699369,    0.000000
 256.004014,    0.000000
 258.328686,    0.000000
 260.655828,    0.000000
 263.004579,    0.000000
 265.366922,    0.000000
 267.740256,    0.000000
 270.131666,    0.000000
 272.535832,    0.000000
 274.948439,    0.000000
 277.381395,    0.000000
 279.827113,    0.000000
 282.292498,    0.000000
 284.769320,    0.000000
 287.256506,    0.000000
 289.758171,    0.000000
 292.278909,    0.000000
 294.806368,    0.000000
 297.350989,    0.000000
 299.915435,    0.000000
 302.495314,    0.000000
 305.082355,    0.000000
 307.690629,    0.000000
 310.309911,    0.000000
 312.945474,    0.000000
 315.596902,    0.000000
 318.256757,    0.000000
 320.932506,    0.000000
 323.630245,    0.000000
 326.343042,    0.000000
 329.067365,    0.000000
 331.802828,    0.000000
 334.555459,    0.000000
 337.328881,    0.000000
 340.110638,    0.000000
 342.912817,    0.000000
 345.735048,    0.000000
 348.571929,    0.000000
 351.416009,    0.000000
 354.278718,    0.000000
 357.155150,    0.000000
 360.049072,    0.000000
 362.964475,    0.000000
 365.884928,    0.000000
 368.817322,    0.000000
 371.766818,    0.000000
 374.729592,    0.000000
 377.712618,    0.000000
 380.705417,    0.000000
 383.719420,    0.000000
 386.759157,    0.000000
 389.800591,    0.000000
 392.867138,    0.000000
 395.945380,    0.000000
 399.043014,    0.000000
 402.157724,    0.000000
 405.284131,    0.000000
 408.419544,    0.000000
 411.577222,    0.000000
 414.764999,    0.000000
 417.948210,    0.000000
 421.160956,    0.000000
 424.378335,    0.000000
 427.616846,    0.000000
 430.876829,    0.000000
 434.145576,    0.000000
 437.428615,    0.000000
 440.728039,    0.000000
 444.048966,    0.000000
 447.386551,    0.000000
 450.732892,    0.000000
 454.108833,    0.000000
 457.487058,    0.000000
 460.888088,    0.000000
 464.304706,    0.000000
 464.990495,    0.000000
 467.377924,    0.000000
 467.515046,    0.000000
 467.538661,    0.000000
 467.548684,    0.000000
 467.551293,    0.000000
 467.552849,    0.000000
 467.554620,    0.000000
 467.572325,    0.000000
 467.698666,    0.000000
 468.534335,    0.000000
 472.194187,    0.000000
 475.641414,    0.000000
 479.110670,    0.000000
 482.595078,    0.000000
 486.098418,    0.000000
 489.616727,    0.000000
 493.149280,    0.000000
 496.693071,    0.000000
 500.266628,    0.000000
 503.847318,    0.000000
 507.450139,    0.000000
 511.064352,    0.000000
 514.692557,    0.000000
 518.341361,    0.000000
 522.013405,    0.000000
 525.693678,    0.000000
 529.390924,    0.000000
 533.101684,    0.000000
 536.830320,    0.000000
 540.583884,    0.000000
 544.350946,    0.000000
 548.132836,    0.000000
 551.938246,    0.000000
 555.759270,    0.000000
 559.594637,    0.000000
 563.445223,    0.000000
 567.303561,    0.000000
 571.184742,    0.000000
 575.086347,    0.000000
 579.001870,    0.000000
 582.928818,    0.000000
 586.875636,    0.000000
 590.844468,    0.000000
 594.826134,    0.000000
 598.830514,    0.000000
 602.857980,    0.000000
 606.896590,    0.000000
 610.951745,    0.000000
 615.022109,    0.000000
 619.112651,    0.000000
 623.222789,    0.000000
 627.351194,    0.000000
 631.499344,    0.000000
 635.657072,    0.000000
 639.837451,    0.000000
 644.029999,    0.000000
 648.237023,    0.000000
 652.466889,    0.000000
 656.712596,    0.000000
 660.980636,    0.000000
 665.264700,    0.000000
 669.570956,    0.000000
 673.892541,    0.000000
 676.160155,    0.000000
 678.226955,    0.000000
 682.580782,    0.000000
 686.946938,    0.000000
 691.344019,    0.000000
 695.758548,    0.000000
 700.197558,    0.000000
 704.644708,    0.000000
 709.105097,    0.000000
 713.600697,    0.000000
 718.119169,    0.000000
 722.646755,    0.000000
 727.198480,    0.000000
 731.766217,    0.000000
 736.344433,    0.000000
 740.946719,    0.000000
 745.564039,    0.000000
 750.191281,    0.000000
 754.835658,    0.000000
 759.502489,    0.000000
 764.175716,    0.000000
 768.856914,    0.000000
 773.555080,    0.000000
 778.263018,    0.000000
 782.988593,    0.000000
 787.715931,    0.000000
 792.453010,    0.000000
 792.643139,    0.000000
 792.899094,    0.000000
 793.151053,    0.000000
 793.217329,    0.000000
 793.301442,    0.000000
 793.321433,    0.000000
 793.351294,    0.000000
 793.353384,    0.000000
 793.354241,    0.000000
 793.355122,    0.000000
 793.363923,    0.000000
 793.451944,    0.000000
 793.967135,    0.000000
 796.012112,    0.000000
 800.932922,    0.000000
 805.905826,    0.000000
 806.236681,   12.160949
 806.566898,   24.522681
 806.898423,   37.157936
 807.229874,   50.015506
 807.561840,   63.118229
 807.893824,   76.446929
 808.225486,   89.987539
 808.558288,  103.799982
 808.891287,  117.846431
 809.224474,  132.126673
 809.556565,  146.584887
 809.888823,  161.274539
 810.222823,  176.266555
 810.556584,  191.473776
 810.890991,  206.936541
 811.225027,  222.608108
 811.558493,  238.477948
 811.893839,  254.663124
 812.229759,  271.103271
 812.565602,  287.766877
 812.898568,  304.512427
 813.232727,  321.541758
 813.568861,  338.897429
 813.906228,  356.544338
 814.240510,  374.255557
 814.576350,  392.274143
 814.912871,  410.555273
 815.249137,  429.048496
 815.587293,  447.872684
 815.924423,  466.866781
 816.263204,  486.181457
 816.602649,  505.762685
 816.942211,  525.579675
 817.282686,  545.679304
 817.623920,  566.054106
 817.965140,  586.658615
 818.305496,  607.440451
 818.647001,  628.522179
 818.989324,  649.885149
 819.331926,  671.496713
 819.673757,  693.290065
 820.017327,  715.425454
 820.359033,  737.671139
 820.701454,  760.193034
 821.044816,  783.007379
 821.390004,  806.175193
 821.734523,  829.530640
 822.079587,  853.155261
 822.423887,  876.959275
 822.769502,  901.086307
 823.112594,  925.267754
 823.457130,  949.780955
 823.803423,  974.651078
 824.150767,  999.830055
 824.497731, 1025.215109
 824.845767, 1050.912349
 825.192354, 1076.735638
 825.541948, 1103.017315
 825.891199, 1129.508641
 826.241842, 1156.341649
 826.592505, 1183.412748
 826.943630, 1210.756302
 827.295039, 1238.358868
 827.645908, 1265.983644
 827.999299, 1293.872086
 828.349563, 1321.578203
 828.701677, 1349.495097
 829.054635, 1377.543836
 829.407189, 1405.625160
 829.762143, 1433.962780
 830.116670, 1462.331574
 830.468208, 1490.525464
 830.824009, 1519.126225
 831.180284, 1547.830616
 831.535037, 1576.477374
 831.891661, 1605.340445
 832.248324, 1634.271955
 832.605092, 1663.277341
 832.960269, 1692.218027
 833.318761, 1721.494282
 833.676508, 1750.775033
 834.035569, 1780.228855
 834.392862, 1809.602762
 834.753261, 1839.297765
 835.114144, 1869.098527
 835.474406, 1898.913816
 835.834996, 1928.821923
 836.196586, 1958.878848
 836.557140, 1988.915255
 836.918014, 2019.043703
 837.280459, 2049.369148
 837.643742, 2079.830854
 838.005706, 2110.247501
 838.368911, 2140.834331
 838.733942, 2171.641147
 839.098750, 2202.495421
 839.464945, 2233.533574
 839.829376, 2264.488213
 840.195898, 2295.686877
 840.562416, 2326.951596
 840.929494, 2358.330591
 841.297076, 2389.819182
 841.664141, 2421.329796
 842.031536, 2452.935086
 842.400603, 2484.750800
 842.770595, 2516.713219
 843.141760, 2548.844174
 843.511769, 2580.941934
 843.882689, 2613.185648
 844.254771, 2645.597603
 844.627622, 2678.143936
 845.001863, 2710.879235
 845.375418, 2743.622209
 845.749667, 2776.493528
 846.124187, 2809.456169
 846.499161, 2842.526432
 846.874047, 2875.656448
 847.249101, 2908.868700
 847.625681, 2942.283869
 848.002908, 2975.824296
 848.380154, 3009.434390
 848.756866, 3043.064414
 849.136393, 3077.013966
 849.516274, 3111.063595
 849.896483, 3145.211091
 850.274475, 3179.227122
 850.651819, 3213.252117
 851.033687, 3247.753290
 851.415841, 3282.349005
 851.797365, 3316.956024
 852.179981, 3351.730480
 852.564766, 3386.771194
 852.950007, 3421.922648
 853.334789, 3457.101242
 853.719457, 3492.338207
 854.104943, 3527.719075
 854.492253, 3563.336569
 854.879276, 3598.997029
 855.267379, 3634.826475
 855.656270, 3670.798184
 856.044594, 3706.786958
 856.435740, 3743.107164
 856.825734, 3779.390199
 857.216260, 3815.792400
 857.313734, 3824.889169
 857.607364, 3852.318258
 858.000336, 3889.088783
 858.393600, 3925.956897
 858.785537, 3962.770526
 859.179128, 3999.809471
 859.572171, 4036.866750
 859.967117, 4074.173654
 860.362796, 4111.620241
 860.760255, 4149.306161
 861.157309, 4187.024488
 861.558207, 4225.179561
 861.956036, 4263.113630
 862.355882, 4301.311044
 862.756088, 4339.614217
 863.157061, 4378.062158
 863.557516, 4416.531572
 863.960706, 4455.335403
 864.359707, 4493.806832
 864.764125, 4532.872152
 865.166178, 4571.780326
 865.570859, 4611.014554
 865.974751, 4650.243769
 866.382404, 4689.910672
 866.790407, 4729.684277
 867.198303, 4769.519922
 867.607160, 4809.522071
 868.016387, 4849.633015
 868.428370, 4890.087261
 868.841258, 4930.703979
 869.252705, 4971.252150
 869.664291, 5011.886851
 870.079102, 5052.913482
 870.490432, 5093.668766
 870.904933, 5134.811358
 871.319475, 5176.031319
 871.736259, 5217.548036
 872.152709, 5259.105252
 872.571378, 5300.958112
 872.988585, 5342.738472
 873.407026, 5384.716373
 873.828325, 5427.055453
 874.249166, 5469.423025
 874.669900, 5511.854170
 875.092793, 5554.577823
 875.514340, 5597.239753
 875.936788, 5640.067192
 876.359515, 5682.997386
 876.785346, 5726.317689
 877.212719, 5769.870495
 877.638508, 5813.336881
 878.065822, 5857.034190
 878.494814, 5900.978652
 878.926131, 5945.237555
 879.355284, 5989.350008
 879.786560, 6033.756547
 880.217856, 6078.241022
 880.650605, 6122.951549
 881.082838, 6167.684664
 881.518686, 6212.868499
 881.953170, 6257.987457
 882.388135, 6303.232673
 882.827019, 6348.962690
 883.262775, 6394.443400
 883.702141, 6440.377892
 884.142207, 6486.462876
 884.583542, 6532.758417
 885.024929, 6579.136880
 885.466250, 6625.585862
 885.907722, 6672.127788
 886.350292, 6718.862858
 886.794035, 6765.799394
 887.241563, 6813.214687
 887.687342, 6860.522865
 888.137453, 6908.369743
 888.584883, 6956.010060
 889.034499, 7003.961703
 889.483631, 7051.940098
 889.935720, 7100.313502
 890.388675, 7148.858875
 890.839060, 7197.207391
 891.289848, 7245.677339
 891.742976, 7294.477572
 892.194337, 7343.165702
 892.652820, 7392.701864
 893.108670, 7442.033087
 893.566714, 7491.681225
 894.025099, 7541.446208
 894.487541, 7591.732108
 894.951755, 7642.291992
 895.414974, 7692.824473
 895.874008, 7742.979880
 896.338777, 7793.842422
 896.803065, 7844.732947
 897.269913, 7895.985160
 897.733999, 7947.014523
 898.199581, 7998.288637
 898.670297, 8050.209723
 899.136172, 8101.677490
 899.608136, 8153.899351
 900.078317, 8206.005256
 900.550524, 8258.417283
 901.025698, 8311.240827
 901.499913, 8364.039836
 901.976972, 8417.238015
 902.455443, 8470.676472
 902.932880, 8524.081968
 903.412175, 8577.778029
 903.893436, 8631.777374
 904.375710, 8685.973815
 904.858117, 8740.268508
 905.341414, 8794.746567
 905.825655, 8849.414383
 906.307963, 8903.946756
 906.792044, 8958.762407
 907.275054, 9013.539116
 907.764509, 9069.130555
 908.252413, 9124.629572
 908.739848, 9180.158447
 909.230884, 9236.181450
 909.718306, 9291.875109
 910.208872, 9348.011346
 910.701236, 9404.437037
 911.194743, 9461.077764
 911.690610, 9518.073751
 912.183854, 9574.852021
 912.678655, 9631.893334
 913.173923, 9689.072014
 913.673358, 9746.816375
 914.173322, 9804.706799
 914.673550, 9862.712344
 915.179006, 9921.409923
 915.683997, 9980.139387
 916.188370, 10038.882485
 916.693425, 10097.790094
 917.197598, 10156.679909
 917.704768, 10216.004945
 918.213165, 10275.559106
 918.723747, 10335.455298
 919.234283, 10395.432012
 919.745399, 10455.562637
 920.258433, 10516.004928
 920.771740, 10576.565543
 921.286737, 10637.411794
 921.808078, 10699.095252
 922.324138, 10760.240502
 922.842956, 10821.799209
 923.360616, 10883.306734
 923.880403, 10945.153521
 924.399356, 11006.987279
 924.923949, 11069.580281
 925.445867, 11131.940908
 925.972403, 11194.940585
 926.497827, 11257.894617
 927.022257, 11320.816131
 927.553174, 11384.603973
 928.082439, 11448.280968
 928.615170, 11512.463161
 929.142353, 11576.063649
 929.669570, 11639.754512
 930.199181, 11703.820817
 930.727988, 11767.876073
 931.265367, 11833.057532
 931.802384, 11898.283199
 932.337279, 11963.338515
 932.870322, 12028.255077
 933.408978, 12093.942509
 933.952512, 12160.313572
 934.494651, 12226.602762
 935.036756, 12292.975879
 935.578429, 12359.383642
 936.122733, 12426.202041
 936.668893, 12493.336551
 937.210190, 12559.960264
 937.755543, 12627.170592
 938.301797, 12694.579358
 938.853365, 12762.732496
 939.401540, 12830.554255
 939.951147, 12898.640757
 940.506242, 12967.496026
 941.056927, 13035.891907
 941.611036, 13104.801169
 942.164136, 13173.672540
 942.721136, 13243.117867
 943.279062, 13312.767062
 943.836490, 13382.442055
 944.397389, 13452.639601
 944.955884, 13522.624040
 945.516172, 13592.921133
 946.076851, 13663.354952
 946.636561, 13733.754260
 947.200212, 13804.736940
 947.761325, 13875.487211
 948.328218, 13947.054339
 948.899542, 14019.269835
 949.467815, 14091.188066
 950.036504, 14163.247011
 950.607997, 14235.749402
 951.178154, 14308.170246
 951.748932, 14380.757407
 952.321689, 14453.684005
 952.894253, 14526.673557
 953.468456, 14599.959492
 954.036535, 14672.549765
 954.610039, 14745.919562
 955.188737, 14820.041403
 955.762027, 14893.556873
 956.343323, 14968.186550
 956.926953, 15043.204081
 957.506950, 15117.841878
 958.089281, 15192.867177
 958.671177, 15267.923320
 959.254097, 15343.198172
 959.840943, 15419.067377
 960.426181, 15494.815427
 961.015847, 15571.224121
 961.598091, 15646.756786
 962.185732, 15723.075426
 962.777821, 15800.058922
 963.366047, 15876.626132
 963.956071, 15953.513286
 964.549300, 16030.904429
 965.141692, 16108.272321
 965.735435, 16185.902662
 966.330756, 16263.825171
 966.928131, 16342.102591
 967.521810, 16419.980992
 968.117845, 16498.253355
 968.712985, 16576.492623
 969.309653, 16655.017455
 969.910094, 16734.123700
 970.509475, 16813.175022
 971.112830, 16892.835444
 971.714277, 16972.328540
 972.316663, 17052.030069
 972.919621, 17131.891211
 973.527303, 17212.462737
 974.134409, 17293.042488
 974.744648, 17374.122744
 975.356137, 17455.453810
 975.966504, 17536.720008
 976.581516, 17618.689250
 977.199943, 17701.199171
 977.819353, 17783.925590
 978.432003, 17865.832838
 979.043925, 17947.725418
 979.667866, 18031.311187
 980.285347, 18114.115206
 980.900476, 18196.686339
 981.517911, 18279.649279
 982.132529, 18362.315283
 982.748605, 18445.258522
 983.373846, 18529.518553
 983.993658, 18613.128583
 984.616662, 18697.251065
 985.234317, 18780.731768
 985.862233, 18865.680978
 986.490554, 18950.767056
 987.115172, 19035.432528
 987.736511, 19119.733259
 988.358319, 19204.176668
 988.987877, 19289.752864
 989.612720, 19374.767388
 990.244768, 19460.842403
 990.873834, 19546.590718
 991.506753, 19632.943833
 992.139798, 19719.393633
 992.767273, 19805.160677
 993.393892, 19890.887906
 994.029562, 19977.931620
 994.663437, 20064.807669
 995.302882, 20152.525558
 995.934763, 20239.283014
 996.576569, 20327.481125
 997.210255, 20414.640145
 997.850668, 20502.801275
 998.488917, 20590.741087
 999.122395, 20678.098618
 999.762229, 20766.408247
1000.399394, 20854.424640
1001.042265, 20943.304565
1001.679256, 21031.445877
1002.318896, 21120.027756
1002.959184, 21208.773214
1003.604742, 21298.323397
1004.248075, 21387.638645
1004.894921, 21477.515579
1005.538273, 21566.980007
1006.190313, 21657.726413
1006.832135, 21747.122895
1007.473391, 21836.511577
1008.119030, 21926.582581
1008.771666, 22017.701824
1009.424936, 22108.982032
1010.068713, 22199.005982
1010.719465, 22290.075855
1011.376823, 22382.141699
1012.029079, 22473.563489
1012.684650, 22565.520371
1013.337218, 22657.125604
1013.986888, 22748.392427
1014.645253, 22840.950178
1015.300441, 22933.129930
1015.958363, 23025.763057
1016.617797, 23118.677439
1017.279458, 23211.974228
1017.943456, 23305.668950
1018.603081, 23398.814013
1019.269732, 23493.019037
1019.927122, 23585.981707
1020.587314, 23679.406319
1021.247711, 23772.925564
1021.907759, 23866.460200
1022.573135, 23960.815280
1023.235997, 24054.878584
1023.898553, 24148.962434
1024.058882, 24171.739003
