Speed, Forces
 131.828671, 3490.124718
 133.262044, 3460.621281
 134.695417, 3433.043145
 136.128790, 3407.295116
 137.562163, 3383.278289
 138.995536, 3360.890039
 140.428909, 3340.024028
 141.862282, 3320.874740
 143.295655, 3303.520251
 144.729028, 3287.448073
 146.162401, 3272.538860
 147.595774, 3259.510283
 149.029147, 3247.707636
 150.462520, 3236.795823
 151.895893, 3227.792915
 153.329266, 3219.679761
 154.762639, 3212.651634
 156.196012, 3207.167158
 157.629385, 3202.125871
 159.062758, 3199.088942
 160.496131, 3196.298254
 161.929504, 3195.261176
 163.362877, 3194.538908
 164.796250, 3195.485063
 166.229623, 3196.619740
 167.662996, 3199.546940
 169.096369, 3202.499273
 170.529742, 3207.218282
 171.963115, 3212.162007
 173.396487, 3218.255700
 174.829860, 3225.180579
 176.263233, 3232.400941
 177.696606, 3241.293023
 179.129979, 3250.257122
 180.563352, 3260.222506
 181.996725, 3271.150528
 183.430098, 3282.164958
 184.863471, 3294.547275
 186.296844, 3307.517395
 187.730217, 3320.587692
 189.163590, 3335.036560
 190.596963, 3350.049359
 192.030336, 3365.175487
 193.463709, 3381.318227
 194.897082, 3398.368715
 196.330455, 3415.545064
 197.763828, 3432.986702
 199.197201, 3452.064313
 200.630574, 3471.279698
 202.063947, 3490.632857
 203.497320, 3510.691563
 204.930693, 3531.929227
 206.364066, 3553.315957
 207.797439, 3574.851754
 209.230812, 3597.010041
 210.664185, 3620.407392
 212.097558, 3643.964483
 213.530931, 3667.681315
 214.964304, 3691.557888
 216.397677, 3716.933780
 217.831050, 3742.652817
 219.264423, 3768.541649
 220.697796, 3794.600276
 222.131169, 3820.883908
 223.564542, 3848.749044
 224.997915, 3876.793410
 226.431287, 3905.017007
 227.864660, 3933.419834
 229.298033, 3962.001891
 230.731406, 3991.737799
 232.164779, 4022.101847
 233.598152, 4052.653942
 235.031525, 4083.394083
 236.464898, 4114.322271
 237.898271, 4145.438505
 239.331644, 4177.757907
 240.765017, 4210.622945
 242.198390, 4243.684225
 243.631763, 4276.941748
 245.065136, 4310.395515
 246.498509, 4344.045525
 247.931882, 4378.001609
 249.365255, 4413.358564
 250.798628, 4448.919340
 252.232001, 4484.683936
 253.665374, 4520.652353
 255.098747, 4556.824590
 256.532120, 4593.200648
 257.965493, 4629.780526
 259.398866, 4667.260596
 260.832239, 4705.510807
 262.265612, 4743.971797
 263.698985, 4782.643566
 265.132358, 4821.526113
 266.565731, 4860.619439
 267.999104, 4899.923544
 269.432477, 4939.438427
 270.865850, 4979.164089
 272.299223, 5020.236550
 273.732596, 5061.591124
