Speed, Forces
  77.190003, 25244.002923
  77.896272, 24312.809767
  78.602541, 23024.075285
  79.308811, 22198.901700
  80.015080, 21483.295986
  80.721349, 20997.976748
  81.427618, 20508.260474
  82.133887, 20099.215001
  82.840157, 19774.219172
  83.546426, 19446.356765
  84.252695, 19115.627781
  84.958964, 18855.309982
  85.665233, 18600.219940
  86.371503, 18342.956591
  87.077772, 18083.519935
  87.784041, 17864.165960
  88.490310, 17656.140785
  89.196579, 17446.401694
  89.902848, 17234.948687
  90.609118, 17028.213370
  91.315387, 16862.926418
  92.021656, 16696.321117
  92.727925, 16528.397467
  93.434194, 16359.155467
  94.140464, 16188.595117
  94.846733, 16055.938805
  95.553002, 15926.233110
  96.259271, 15795.540114
  96.965540, 15663.859818
  97.671810, 15531.192223
  98.378079, 15397.537328
  99.084348, 15303.830765
  99.790617, 15211.088432
 100.496886, 15117.670992
 101.203155, 15023.578444
 101.909425, 14928.810789
 102.615694, 14833.368026
 103.321963, 14741.967288
 104.028232, 14690.360156
 104.734501, 14638.393077
 105.440771, 14586.066051
 106.147040, 14533.379077
 106.853309, 14480.332157
 107.559578, 14426.925289
 108.265847, 14373.158474
 108.972117, 14322.176994
 109.678386, 14306.032366
 110.384655, 14289.781084
 111.090924, 14273.423148
 111.797193, 14256.958559
 112.503462, 14240.387316
 113.209732, 14223.709419
 113.916001, 14206.924869
 114.622270, 14190.033664
 115.328539, 14173.035806
 116.034808, 14173.297207
 116.741078, 14189.603439
 117.447347, 14206.010717
 118.153616, 14222.519041
 118.859885, 14239.128411
 119.566154, 14255.838828
 120.272424, 14272.650290
 120.978693, 14289.562799
 121.684962, 14306.576353
 122.391231, 14323.690954
 123.097500, 14340.906601
 123.803769, 14358.223294
 124.510039, 14402.951647
 125.216308, 14452.590139
 125.922577, 14502.514940
 126.628846, 14552.726049
 127.335115, 14603.223466
 128.041385, 14654.007192
 128.747654, 14705.077227
 129.453923, 14756.433570
 130.160192, 14808.076221
 130.866461, 14860.005181
 131.572731, 14912.220449
 132.279000, 14964.722026
 132.985269, 15017.509912
 133.691538, 15070.584105
 134.397807, 15130.094654
 135.104076, 15217.578593
 135.810346, 15305.529426
 136.516615, 15393.947154
 137.222884, 15482.831775
 137.929153, 15572.183291
 138.635422, 15662.001702
 139.341692, 15752.287007
 140.047961, 15843.039206
 140.754230, 15934.258299
 141.460499, 16025.944287
 142.166768, 16118.097169
 142.873038, 16210.716946
 143.579307, 16303.803617
 144.285576, 16397.357182
 144.991845, 16491.377641
 145.698114, 16585.864995
 146.404383, 16680.819243
 147.110653, 16776.240386
