Speed, Forces
  67.362411, 25244.002923
  68.216266, 23716.458067
  69.070122, 22399.258924
  69.923978, 21417.038116
  70.777834, 20745.792975
  71.631689, 20133.140891
  72.485545, 19684.630663
  73.339401, 19230.669075
  74.193257, 18847.140048
  75.047112, 18494.701416
  75.900968, 18138.129816
  76.754824, 17829.084346
  77.608680, 17541.365595
  78.462536, 17250.387496
  79.316391, 16977.729269
  80.170247, 16748.893890
  81.024103, 16517.551410
  81.877959, 16283.701831
  82.731814, 16078.876385
  83.585670, 15899.993471
  84.439526, 15719.233012
  85.293382, 15536.595008
  86.147237, 15364.814274
  87.001093, 15237.360212
  87.854949, 15108.622300
  88.708805, 14978.600538
  89.562660, 14847.294927
  90.416516, 14729.947131
  91.270372, 14658.569871
  92.124228, 14586.508101
  92.978083, 14513.761820
  93.831939, 14440.331030
  94.685795, 14366.215729
  95.539651, 14313.994324
  96.393506, 14291.628021
  97.247362, 14269.058894
  98.101218, 14246.286944
  98.955074, 14223.312171
  99.808930, 14200.134575
 100.662785, 14176.754156
 101.516641, 14175.912451
 102.370497, 14198.447885
 103.224353, 14221.175479
 104.078208, 14244.095231
 104.932064, 14267.207143
 105.785920, 14290.511213
 106.639776, 14314.007443
 107.493631, 14337.695831
 108.347487, 14363.100240
 109.201343, 14431.308899
 110.055199, 14500.062030
 110.909054, 14569.359632
 111.762910, 14639.201707
 112.616766, 14709.588253
 113.470622, 14780.519271
 114.324477, 14851.994760
 115.178333, 14924.014721
 116.032189, 14996.579155
 116.886045, 15069.688059
 117.739900, 15161.725816
 118.593756, 15282.723130
 119.447612, 15404.608336
 120.301468, 15527.381433
 121.155324, 15651.042420
 122.009179, 15775.591300
 122.863035, 15901.028070
 123.716891, 16027.352732
 124.570747, 16154.565284
 125.424602, 16282.665728
 126.278458, 16411.654064
 127.132314, 16541.530290
 127.986170, 16672.294408
 128.840025, 16803.946417
 129.693881, 16952.750223
 130.547737, 17122.795176
 131.401593, 17293.971687
 132.255448, 17466.279758
 133.109304, 17639.719388
 133.963160, 17814.290576
 134.817016, 17989.993324
 135.670871, 18166.827631
 136.524727, 18344.793497
 137.378583, 18523.890921
 138.232439, 18704.119905
 139.086294, 18885.480448
 139.940150, 19067.972550
 140.794006, 19251.596211
 141.647862, 19436.351431
 142.501718, 19622.238210
 143.355573, 19809.256548
 144.209429, 19997.406444
 145.063285, 20186.687900
 145.917141, 20377.673901
 146.770996, 20599.159229
 147.624852, 20821.952993
 148.478708, 21046.055192
 149.332564, 21271.465827
 150.186419, 21498.184898
 151.040275, 21726.212403
 151.894131, 21955.548345
