Speed, Forces
  72.031476, 25244.002923
  72.814198, 24022.720482
  73.596921, 22720.409881
  74.379644, 21738.799371
  75.162367, 21125.481387
  75.945090, 20546.277050
  76.727813, 20064.503386
  77.510535, 19678.856040
  78.293258, 19289.186512
  79.075981, 18941.332068
  79.858704, 18639.803776
  80.641427, 18335.226053
  81.424150, 18027.598896
  82.206872, 17781.370423
  82.989595, 17533.959316
  83.772318, 17284.143360
  84.555041, 17036.013698
  85.337764, 16840.154924
  86.120486, 16642.446334
  86.903209, 16442.887928
  87.685932, 16241.479706
  88.468655, 16072.043891
  89.251378, 15918.440482
  90.034101, 15763.451762
  90.816823, 15607.077732
  91.599546, 15449.318392
  92.382269, 15322.483653
  93.164992, 15212.714586
  93.947715, 15101.998255
  94.730438, 14990.334660
  95.513160, 14877.723802
  96.295883, 14764.165679
  97.078606, 14695.266982
  97.861329, 14633.711069
  98.644052, 14571.650103
  99.426774, 14509.084084
 100.209497, 14446.013012
 100.992220, 14382.436887
 101.774943, 14321.976691
 102.557666, 14302.839535
 103.340389, 14283.552730
 104.123111, 14264.116276
 104.905834, 14244.530172
 105.688557, 14224.794419
 106.471280, 14204.909017
 107.254003, 14184.873966
 108.036725, 14164.999714
 108.819448, 14184.264918
 109.602171, 14203.671903
 110.384894, 14223.220669
 111.167617, 14242.911215
 111.950340, 14262.743543
 112.733062, 14282.717651
 113.515785, 14302.833541
 114.298508, 14323.091211
 115.081231, 14343.490662
 115.863954, 14370.057803
 116.646677, 14428.661956
 117.429399, 14487.667836
 118.212122, 14547.075445
 118.994845, 14606.884782
 119.777568, 14667.095847
 120.560291, 14727.708641
 121.343013, 14788.723162
 122.125736, 14850.139412
 122.908459, 14911.957390
 123.691182, 14974.177095
 124.473905, 15036.798529
 125.256628, 15099.821692
 126.039350, 15194.185911
 126.822073, 15298.270458
 127.604796, 15403.010118
 128.387519, 15508.404893
 129.170242, 15614.454780
 129.952964, 15721.159782
 130.735687, 15828.519897
 131.518410, 15936.535126
 132.301133, 16045.205469
 133.083856, 16154.530925
 133.866579, 16264.511495
 134.649301, 16375.147179
 135.432024, 16486.437976
 136.214747, 16598.383887
 136.997470, 16710.984912
 137.780193, 16824.241050
 138.562916, 16954.873412
 139.345638, 17100.880717
 140.128361, 17247.722921
 140.911084, 17395.400025
 141.693807, 17543.912028
 142.476530, 17693.258931
 143.259252, 17843.440733
 144.041975, 17994.457434
 144.824698, 18146.309034
 145.607421, 18298.995534
 146.390144, 18452.516933
 147.172867, 18606.873232
 147.955589, 18762.064430
 148.738312, 18918.090527
 149.521035, 19074.951524
