Speed, Forces
 123.571859, 5552.781997
 125.351965, 5122.654397
 127.132071, 4858.094777
 128.912177, 4660.259570
 130.692283, 4519.529508
 132.472389, 4397.152723
 134.252496, 4284.553995
 136.032602, 4195.099939
 137.812708, 4104.439523
 139.592814, 4021.544155
 141.372920, 3948.896703
 143.153026, 3875.307637
 144.933132, 3804.250110
 146.713239, 3747.145413
 148.493345, 3689.328261
 150.273451, 3630.798655
 152.053557, 3579.716624
 153.833663, 3537.062648
 155.613769, 3493.901804
 157.393875, 3450.234093
 159.173982, 3409.039210
 160.954088, 3381.122655
 162.734194, 3352.889414
 164.514300, 3324.339486
 166.294406, 3295.472872
 168.074512, 3268.404045
 169.854618, 3255.201853
 171.634725, 3241.857933
 173.414831, 3228.372285
 175.194937, 3214.744911
 176.975043, 3200.975809
 178.755149, 3188.355564
 180.535255, 3189.854325
 182.315361, 3191.368202
 184.095468, 3192.897195
 185.875574, 3194.441304
 187.655680, 3196.000528
 189.435786, 3197.574869
 191.215892, 3199.164325
 192.995998, 3209.137338
 194.776104, 3223.552765
 196.556210, 3238.102725
 198.336317, 3252.787217
 200.116423, 3267.606242
 201.896529, 3282.559799
 203.676635, 3297.647888
 205.456741, 3312.870510
 207.236847, 3328.227664
 209.016953, 3346.502406
 210.797060, 3373.785993
 212.577166, 3401.304475
 214.357272, 3429.057853
 216.137378, 3457.046126
 217.917484, 3485.269294
 219.697590, 3513.727358
 221.477696, 3542.420317
 223.257803, 3571.348172
 225.037909, 3600.510922
 226.818015, 3629.908567
 228.598121, 3659.541108
 230.378227, 3689.408544
 232.158333, 3727.202611
 233.938439, 3768.030167
 235.718546, 3809.173842
 237.498652, 3850.633638
 239.278758, 3892.409554
 241.058864, 3934.501589
 242.838970, 3976.909745
 244.619076, 4019.634021
 246.399182, 4062.674416
 248.179289, 4106.030932
 249.959395, 4149.703568
 251.739501, 4193.692324
 253.519607, 4237.997200
 255.299713, 4282.618195
 257.079819, 4327.555311
 258.859925, 4372.808547
 260.640032, 4418.377903
 262.420138, 4464.263379
 264.200244, 4519.931488
 265.980350, 4575.981430
 267.760456, 4632.412269
 269.540562, 4689.224007
 271.320668, 4746.416643
 273.100775, 4803.990177
 274.880881, 4861.944609
 276.660987, 4920.279939
 278.441093, 4978.996167
 280.221199, 5038.093294
 282.001305, 5097.571318
 283.781411, 5157.430240
 285.561517, 5217.670061
 287.341624, 5278.290779
 289.121730, 5339.292396
 290.901836, 5400.674911
 292.681942, 5462.438323
 294.462048, 5524.582634
 296.242154, 5587.107843
 298.022260, 5650.013950
 299.802367, 5713.300955
