Speed, Forces
 140.017987, 5675.077617
 141.539479, 5400.522402
 143.060970, 5107.751332
 144.582462, 4887.076511
 146.103953, 4749.197143
 147.625445, 4618.986828
 149.146936, 4510.679800
 150.668427, 4423.982828
 152.189919, 4336.381633
 153.711410, 4258.180843
 155.232902, 4190.394587
 156.754393, 4121.922790
 158.275885, 4052.765454
 159.797376, 3997.411092
 161.318868, 3941.790862
 162.840359, 3885.630001
 164.361850, 3829.848234
 165.883342, 3785.817430
 167.404833, 3741.370771
 168.926325, 3696.508257
 170.447816, 3651.229887
 171.969308, 3613.139201
 173.490799, 3578.607781
 175.012291, 3543.764930
 176.533782, 3508.610650
 178.055273, 3473.144939
 179.576765, 3444.631356
 181.098256, 3419.954288
 182.619748, 3395.064266
 184.141239, 3369.961292
 185.662731, 3344.645364
 187.184222, 3319.116482
 188.705714, 3303.627439
 190.227205, 3289.789119
 191.748696, 3275.837259
 193.270188, 3261.771858
 194.791679, 3247.592917
 196.313171, 3233.300436
 197.834662, 3219.708443
 199.356154, 3215.406239
 200.877645, 3211.070393
 202.399137, 3206.700904
 203.920628, 3202.297773
 205.442119, 3197.860999
 206.963611, 3193.390583
 208.485102, 3188.886524
 210.006594, 3184.418615
 211.528085, 3188.749605
 213.049577, 3193.112469
 214.571068, 3197.507206
 216.092560, 3201.933817
 217.614051, 3206.392302
 219.135542, 3210.882660
 220.657034, 3215.404892
 222.178525, 3219.958997
 223.700017, 3224.544976
 225.221508, 3230.517507
 226.743000, 3243.692245
 228.264491, 3256.957294
 229.785983, 3270.312656
 231.307474, 3283.758330
 232.828965, 3297.294316
 234.350457, 3310.920614
 235.871948, 3324.637224
 237.393440, 3338.444146
 238.914931, 3352.341380
 240.436423, 3366.328927
 241.957914, 3380.406785
 243.479406, 3394.574955
 245.000897, 3415.788876
 246.522388, 3439.188013
 248.043880, 3462.734425
 249.565371, 3486.428113
 251.086863, 3510.269076
 252.608354, 3534.257315
 254.129846, 3558.392829
 255.651337, 3582.675618
 257.172829, 3607.105683
 258.694320, 3631.683024
 260.215812, 3656.407639
 261.737303, 3681.279530
 263.258794, 3706.298697
 264.780286, 3731.465139
 266.301777, 3756.778856
 267.823269, 3782.239849
 269.344760, 3811.607172
 270.866252, 3844.430920
 272.387743, 3877.442361
 273.909235, 3910.641494
 275.430726, 3944.028321
 276.952217, 3977.602840
 278.473709, 4011.365052
 279.995200, 4045.314957
 281.516692, 4079.452555
 283.038183, 4113.777846
 284.559675, 4148.290829
 286.081166, 4182.991506
 287.602658, 4217.879875
 289.124149, 4252.955937
 290.645640, 4288.219692
