Speed, Forces
 150.045362, 3522.724761
 151.418240, 3501.216745
 152.791117, 3481.261990
 154.163995, 3463.963541
 155.536872, 3446.665091
 156.909750, 3429.366642
 158.282627, 3412.068192
 159.655505, 3394.769742
 161.028382, 3377.471293
 162.401260, 3360.172843
 163.774137, 3342.874394
 165.147015, 3325.575944
 166.519892, 3308.277495
 167.892770, 3290.979045
 169.265647, 3273.680596
 170.638524, 3256.382146
 172.011402, 3239.083697
 173.384279, 3221.819023
 174.757157, 3207.563908
 176.130034, 3193.308793
 177.502912, 3179.053678
 178.875789, 3164.798563
 180.248667, 3150.543448
 181.621544, 3136.288333
 182.994422, 3122.033218
 184.367299, 3107.778103
 185.740177, 3093.522987
 187.113054, 3079.267872
 188.485932, 3065.012757
 189.858809, 3050.757642
 191.231687, 3036.502527
 192.604564, 3022.247412
 193.977441, 3007.992297
 195.350319, 2995.188106
 196.723196, 2983.154179
 198.096074, 2971.120252
 199.468951, 2959.086325
 200.841829, 2947.052398
 202.214706, 2935.018470
 203.587584, 2922.984543
 204.960461, 2910.950616
 206.333339, 2898.916689
 207.706216, 2886.882762
 209.079094, 2874.848835
 210.451971, 2862.814908
 211.824849, 2850.780981
 213.197726, 2838.747054
 214.570604, 2826.713127
 215.943481, 2815.220134
 217.316358, 2805.017848
 218.689236, 2794.815561
 220.062113, 2784.613274
 221.434991, 2774.410988
 222.807868, 2764.208701
 224.180746, 2754.006414
 225.553623, 2743.804128
 226.926501, 2733.601841
 228.299378, 2723.399554
 229.672256, 2713.197268
 231.045133, 2702.994981
 232.418011, 2692.792694
 233.790888, 2682.590408
 235.163766, 2672.388121
 236.536643, 2662.185834
 237.909520, 2653.135274
 239.282398, 2644.161562
 240.655275, 2635.187850
 242.028153, 2626.214137
 243.401030, 2617.240425
 244.773908, 2608.266713
 246.146785, 2599.293000
 247.519663, 2590.319288
 248.892540, 2581.345576
 250.265418, 2572.371863
 251.638295, 2563.398151
 253.011173, 2554.424439
 254.384050, 2545.450727
 255.756928, 2536.477014
 257.129805, 2527.503302
 258.502683, 2518.994807
 259.875560, 2510.823806
 261.248437, 2502.652804
 262.621315, 2494.481803
 263.994192, 2486.310802
 265.367070, 2478.139800
 266.739947, 2469.968799
 268.112825, 2461.797798
 269.485702, 2453.626796
 270.858580, 2445.455795
 272.231457, 2437.284794
 273.604335, 2429.113792
 274.977212, 2420.942791
 276.350090, 2412.771790
 277.722967, 2404.600788
 279.095845, 2396.484291
 280.468722, 2388.559161
 281.841600, 2380.634031
 283.214477, 2372.708901
 284.587354, 2364.783770
 285.960232, 2356.858640
