Speed, Forces
 122.702048, 5106.463928
 124.490940, 5065.078871
 126.279832, 5023.693813
 128.068724, 4982.308756
 129.857617, 4940.923698
 131.646509, 4899.538640
 133.435401, 4858.153583
 135.224293, 4816.768525
 137.013185, 4776.684757
 138.802077, 4740.359874
 140.590969, 4704.034991
 142.379861, 4667.710108
 144.168753, 4631.385225
 145.957646, 4595.060341
 147.746538, 4558.735458
 149.535430, 4522.410575
 151.324322, 4486.085692
 153.113214, 4449.760809
 154.902106, 4413.435926
 156.690998, 4377.111043
 158.479890, 4340.786160
 160.268782, 4307.971285
 162.057674, 4275.904515
 163.846567, 4243.837744
 165.635459, 4211.770974
 167.424351, 4179.704204
 169.213243, 4147.637434
 171.002135, 4115.570664
 172.791027, 4083.503894
 174.579919, 4051.437124
 176.368811, 4019.370354
 178.157703, 3987.303584
 179.946596, 3955.236814
 181.735488, 3924.513865
 183.524380, 3895.880001
 185.313272, 3867.246137
 187.102164, 3838.612272
 188.891056, 3809.978408
 190.679948, 3781.344543
 192.468840, 3752.710679
 194.257732, 3724.076815
 196.046624, 3695.442950
 197.835517, 3666.809086
 199.624409, 3638.175222
 201.413301, 3609.541357
 203.202193, 3580.907493
 204.991085, 3554.982379
 206.779977, 3529.174248
 208.568869, 3503.366118
 210.357761, 3477.557987
 212.146653, 3451.749857
 213.935546, 3425.941726
 215.724438, 3400.133595
 217.513330, 3374.325465
 219.302222, 3348.517334
 221.091114, 3322.709203
 222.880006, 3296.901073
 224.668898, 3271.092942
 226.457790, 3247.081167
 228.246682, 3224.689863
 230.035574, 3202.298560
 231.824467, 3179.907257
 233.613359, 3157.515953
 235.402251, 3135.124650
 237.191143, 3112.733347
 238.980035, 3090.342043
 240.768927, 3067.950740
 242.557819, 3045.559437
 244.346711, 3023.168133
 246.135603, 3000.776830
 247.924496, 2978.530223
 249.713388, 2957.696708
 251.502280, 2936.863194
 253.291172, 2916.029679
 255.080064, 2895.196164
 256.868956, 2874.362649
 258.657848, 2853.529135
 260.446740, 2832.695620
 262.235632, 2811.862105
 264.024524, 2791.028590
 265.813417, 2770.195076
 267.602309, 2749.361561
 269.391201, 2728.528046
 271.180093, 2708.082904
 272.968985, 2687.837813
 274.757877, 2667.592722
 276.546769, 2647.347631
 278.335661, 2627.102540
 280.124553, 2606.857449
 281.913446, 2586.612358
 283.702338, 2566.367267
 285.491230, 2546.122175
 287.280122, 2525.877084
 289.069014, 2505.631993
 290.857906, 2485.386902
 292.646798, 2465.111418
 294.435690, 2444.732537
 296.224582, 2424.353657
 298.013474, 2403.974777
 299.802367, 2383.595896
