%Drag_and_Thrust_curves_altitudes
\begin{tikzpicture}

\begin{axis}[
width=\figurewidth,
height=\figureheight,
scaled ticks=false, tick label style={/pgf/number format/fixed},
xmin=59.21372681087494,
xmax=146.32640319914915,
xlabel={Speed ((m/s))},
xmajorgrids,
ymin=13957.732423871286,
ymax=40969.739014577804,
ylabel={Forces ((N))},
ymajorgrids,
legend style={at={(1.03,0.5)},anchor=west,draw=black,fill=white,legend cell align=left}
]

\addplot [
color=black,
solid
]
table[row sep=crcr]{
80.6644003488891	15879.502487947988\\
81.32765290293213	15758.845959937298\\
81.99090545697516	15641.233694854483\\
82.65415801101818	15529.910894492295\\
83.31741056506121	15423.498700029688\\
83.98066311910424	15320.037701780673\\
84.64391567314726	15224.147075257717\\
85.30716822719029	15129.455833430318\\
85.97042078123332	15042.505024011693\\
86.63367333527634	14956.920191618196\\
87.29692588931937	14877.849223595495\\
87.9601784433624	14800.591182026477\\
88.62343099740542	14729.406825143773\\
89.28668355144845	14659.658811162886\\
89.94993610549147	14596.355453621924\\
90.6131886595345	14533.2635593659\\
91.27644121357753	14477.823207826115\\
91.93969376762055	14421.978534667978\\
92.60294632166358	14372.888660383285\\
93.2661988757066	14324.938732414043\\
93.92945142974963	14280.580857751134\\
94.59270398379266	14240.480854955224\\
95.25595653783569	14200.098695091752\\
95.91920909187871	14167.57204103767\\
96.58246164592174	14135.040591679473\\
97.24571419996477	14105.129903238298\\
97.90896675400779	14080.377517694806\\
98.57221930805082	14055.456885272992\\
99.23547186209385	14034.965178003124\\
99.89872441613687	14017.793440872192\\
100.5619769701799	14000.507316571979\\
101.22522952422293	13988.088436094937\\
101.88848207826595	13978.504529838701\\
102.55173463230898	13968.858032531842\\
103.214987186352	13963.09153521529\\
103.87823974039503	13961.084069982415\\
104.54149229443806	13959.063746227195\\
105.20474484848108	13958.454899184942\\
105.86799740252411	13963.993912810642\\
106.53124995656714	13969.567736851886\\
107.19450251061016	13975.176371308678\\
107.85775506465319	13985.584475949903\\
108.52100761869622	13998.701849718973\\
109.18426017273924	14011.899639251094\\
109.84751272678227	14025.177844546268\\
110.5107652808253	14044.68649626073\\
111.17401783486832	14065.402206895691\\
111.83727038891135	14086.241875050826\\
112.50052294295438	14107.20550072613\\
113.1637754969974	14133.774479480504\\
113.82702805104043	14162.083740619264\\
114.49028060508346	14190.558437444926\\
115.15353315912648	14219.1985699575\\
115.81678571316951	14250.66384029536\\
116.48003826721254	14286.537102491202\\
117.14329082125556	14322.615214950296\\
117.80654337529859	14358.898177672652\\
118.46979592934161	14395.385990658266\\
119.13304848338464	14436.354839436073\\
119.79630103742767	14479.979991406886\\
120.4595535914707	14523.847344626922\\
121.12280614551372	14567.956899096182\\
121.78605869955675	14612.308654814668\\
122.44931125359977	14660.0224459777\\
123.1125638076428	14711.390986898692\\
123.77581636168583	14763.037016464494\\
124.43906891572885	14814.960534675103\\
125.10232146977188	14867.161541530513\\
125.7655740238149	14919.640037030733\\
126.42882657785793	14977.748391080033\\
127.09207913190096	15037.131578720655\\
127.75533168594399	15096.825478811272\\
128.418584239987	15156.8300913519\\
129.08183679403004	15217.145416342522\\
129.74508934807307	15277.771453783147\\
130.4083419021161	15342.768841095292\\
131.07159445615912	15410.158587348826\\
131.73484701020215	15477.890206267171\\
132.39809956424517	15545.963697850324\\
133.0613521182882	15614.379062098296\\
133.72460467233122	15683.13629901108\\
134.38785722637425	15752.235408588675\\
135.05110978041728	15826.608249706958\\
135.7143623344603	15902.330291129003\\
136.37761488850333	15978.423301840283\\
137.04086744254636	16054.887281840805\\
137.70411999658938	16131.722231130569\\
138.3673725506324	16208.928149709567\\
139.03062510467544	16286.505037577806\\
139.69387765871846	16365.799090170462\\
140.3571302127615	16449.82511546853\\
141.02038276680452	16534.249143089888\\
141.68363532084754	16619.07117303452\\
142.34688787489057	16704.291205302437\\
143.0101404289336	16789.90923989363\\
143.67339298297662	16875.925276808106\\
144.33664553701965	16962.339316045865\\
144.99989809106268	17049.151357606905\\
145.6631506451057	17140.279312092724\\
146.32640319914915	17233.38361811019\\
};

\addplot [
color=black,
densely dashed
]
table[row sep=crcr]{
74.34798723885135	15879.502487947988\\
75.07504194552102	15736.181673698535\\
75.8020966521907	15599.186639406584\\
76.52915135886037	15467.942419778528\\
77.25620606553005	15345.222727551365\\
77.98326077219973	15229.226083852185\\
78.7103154788694	15117.67398830858\\
79.43737018553908	15014.076440389592\\
80.16442489220876	14916.305059210204\\
80.89147959887843	14821.826935305318\\
81.61853430554811	14737.030653574724\\
82.34558901221779	14654.448702221613\\
83.07264371888746	14579.061621827132\\
83.79969842555714	14507.742717378997\\
84.52675313222682	14441.538759826912\\
85.25380783889649	14380.534259297166\\
85.98086254556617	14323.532808868113\\
86.70791725223584	14271.841528346064\\
87.43497195890552	14224.044455679288\\
88.1620266655752	14180.612670330125\\
88.88908137224487	14142.004332423514\\
89.61613607891455	14105.725776488334\\
90.34319078558423	14076.273016698402\\
91.0702454922539	14046.582272381605\\
91.79730019892358	14025.64103153608\\
92.52435490559326	14005.131379391065\\
93.25140961226293	13988.828845403217\\
93.97846431893261	13977.429182563534\\
94.70551902560229	13965.940984936664\\
95.43257373227196	13962.10858215883\\
96.15962843894164	13959.712103788968\\
96.88668314561131	13957.732423871286\\
97.61373785228099	13964.318615669026\\
98.34079255895067	13970.954046658342\\
99.06784726562034	13978.235798064336\\
99.79490197229002	13993.791845069509\\
100.5219566789597	14009.461639845302\\
101.24901138562937	14025.245182391709\\
101.97606609229905	14048.703546723656\\
102.70312079896873	14073.383889251172\\
103.4301755056384	14098.239569188116\\
104.15723021230808	14127.071374222529\\
104.88428491897776	14160.712178004957\\
105.61133962564743	14194.586989895402\\
106.33839433231711	14228.695809893858\\
107.06544903898678	14269.280266463362\\
107.79250374565646	14312.094934408213\\
108.51955845232614	14355.199362219444\\
109.24661315899581	14398.593549897038\\
109.97366786566549	14448.41326984888\\
110.70072257233517	14500.40484017151\\
111.42777727900484	14552.739003178633\\
112.15483198567452	14605.415758870258\\
112.8818866923442	14661.778217638004\\
113.60894139901387	14722.914701271011\\
114.33599610568355	14784.443691466418\\
115.06305081235323	14846.365188224225\\
115.7901055190229	14908.679191544426\\
116.51716022569258	14976.617105421012\\
117.24421493236225	15047.270987514341\\
117.97126963903193	15118.364371107742\\
118.69832434570161	15189.897256201217\\
119.42537905237128	15261.869642794763\\
120.15243375904096	15337.898233492058\\
120.87948846571064	15418.055622407728\\
121.60654317238031	15498.696588820918\\
122.33359787904999	15579.821132731624\\
123.06065258571967	15661.429254139848\\
123.78770729238934	15743.520953045585\\
124.51476199905902	15831.404258745819\\
125.2418167057287	15921.532213297169\\
125.96887141239837	16012.18490240325\\
126.69592611906805	16103.362326064069\\
127.42298082573772	16195.064484279617\\
128.1500355324074	16287.291377049894\\
128.87709023907706	16382.5252721935\\
129.60414494574673	16482.59880876968\\
130.3311996524164	16583.23531801758\\
131.05825435908605	16684.434799937204\\
131.7853090657557	16786.197254528543\\
132.51236377242537	16888.52268179161\\
133.23941847909504	16991.411081726394\\
133.9664731857647	17096.17684841634\\
134.69352789243436	17206.71673433088\\
135.42058259910402	17317.85491209391\\
136.14763730577369	17429.591381705413\\
136.87469201244335	17541.926143165398\\
137.601746719113	17654.859196473863\\
138.32880142578267	17768.390541630804\\
139.05585613245233	17882.52017863623\\
139.782910839122	17997.80852918779\\
140.50996554579166	18119.380191539716\\
141.23702025246132	18241.582545976653\\
141.96407495913098	18364.415592498604\\
142.69112966580064	18487.87933110557\\
143.4181843724703	18611.97376179754\\
144.14523907913997	18736.698884574525\\
144.87229378580963	18862.05469943652\\
145.5993484924793	18988.041206383536\\
146.32640319914915	19114.65840541559\\
};

\addplot [
color=black,
dashdotted
]
table[row sep=crcr]{
68.73022695707306	15879.50248794799\\
69.51402671709403	15712.48687432258\\
70.297826477115	15555.159789658604\\
71.08162623713596	15406.912834840548\\
71.86542599715693	15267.113793295406\\
72.6492257571779	15135.106630992601\\
73.43302551719887	15014.390585579518\\
74.21682527721984	14900.949650547862\\
75.00062503724081	14793.809941407431\\
75.78442479726178	14694.866521286882\\
76.56822455728275	14604.644091256898\\
77.35202431730372	14519.08535944553\\
78.13582407732468	14441.940152471607\\
78.91962383734565	14371.439364068412\\
79.70342359736662	14304.829061700617\\
80.48722335738759	14248.353561171367\\
81.27102311740856	14193.720289157047\\
82.05482287742953	14148.792165200677\\
82.8386226374505	14105.991400952536\\
83.62242239747147	14071.624120772485\\
84.40622215749244	14039.428699519756\\
85.1900219175134	14015.623102672806\\
85.97382167753437	13992.734407272119\\
86.75762143755534	13979.467515857488\\
87.54142119757631	13966.080222666324\\
88.32522095759728	13961.740495452255\\
89.10902071761825	13958.94077912288\\
89.89282047763922	13960.929906752688\\
90.67662023766019	13968.643184892997\\
91.46041999768116	13976.423425256058\\
92.24421975770213	13993.556217984573\\
93.0280195177231	14011.838780602948\\
93.81181927774406	14031.95338657537\\
94.59561903776503	14060.61208456563\\
95.379418797786	14089.509230472893\\
96.16321855780697	14120.897758034174\\
96.94701831782794	14160.100823455115\\
97.73081807784891	14199.622125275806\\
98.51461783786988	14240.086145628391\\
99.29841759789085	14289.811394494487\\
100.08221735791182	14339.930698666823\\
100.86601711793278	14390.4440581454\\
101.64981687795375	14447.318400407368\\
102.43361663797472	14507.973827183278\\
103.21741639799569	14569.095158595654\\
104.00121615801666	14630.682394644504\\
104.78501591803763	14701.076030244667\\
105.5688156780586	14772.703758080212\\
106.35261543807957	14844.865270306202\\
107.13641519810054	14917.56056692264\\
107.9202149581215	14998.344292714446\\
108.70401471814247	15080.938809844381\\
109.48781447816344	15164.131021542487\\
110.27161423818441	15247.920927808758\\
111.05541399820538	15335.727366070301\\
111.83921375822635	15429.235525814314\\
112.62301351824732	15523.401320727962\\
113.40681327826829	15618.22475081124\\
114.19061303828926	15713.705816064152\\
114.97441279831023	15813.769370007962\\
115.7582125583312	15918.803996965506\\
116.54201231835216	16024.552230117895\\
117.32581207837313	16131.014069465124\\
118.1096118383941	16238.189515007196\\
118.89341159841507	16346.08580003744\\
119.67721135843604	16462.602480595968\\
120.46101111845701	16579.88476879829\\
121.24481087847798	16697.932664644402\\
122.02861063849895	16816.746168134312\\
122.81241039851992	16936.325279268018\\
123.59621015854088	17056.669998045516\\
124.38000991856185	17184.29673111485\\
125.16380967858282	17313.818787050946\\
125.94760943860379	17444.15448250354\\
126.73140919862476	17575.30381747262\\
127.51520895864573	17707.266791958195\\
128.2990087186667	17840.043405960256\\
129.08280847868767	17973.633659478808\\
129.86660823870864	18114.597728734516\\
130.6504079987296	18257.137908333723\\
131.43420775875057	18400.53578974586\\
132.21800751877154	18544.79137297093\\
133.0018072787925	18689.90465800893\\
133.78560703881348	18835.87564485986\\
134.56940679883445	18982.70433352372\\
135.35320655885542	19130.390724000525\\
136.1370063188764	19285.43342874855\\
136.92080607889736	19441.818913728137\\
137.70460583891833	19599.10219324084\\
138.4884055989393	19757.28326728666\\
139.27220535896026	19916.3621358656\\
140.05600511898123	20076.33879897765\\
140.8398048790022	20237.21325662282\\
141.62360463902317	20398.985508801106\\
142.40740439904414	20561.65555551251\\
143.1912041590651	20729.776084964633\\
143.97500391908608	20900.859065372286\\
144.75880367910705	21072.87596345699\\
145.54260343912802	21245.826779218743\\
146.32640319914915	21419.71151265757\\
};

\addplot [
color=black,
dashed
]
table[row sep=crcr]{
63.7127254935474	15879.502487947988\\
64.54720708653328	15687.750682728594\\
65.38168867951916	15509.124172967435\\
66.21617027250504	15342.99854884005\\
67.05065186549092	15188.71798372838\\
67.8851334584768	15045.595234220777\\
68.71961505146268	14912.911640111972\\
69.55409664444856	14789.917124403126\\
70.38857823743444	14676.145586361956\\
71.22305983042033	14574.963396497933\\
72.0575414234062	14481.762518041223\\
72.89202301639209	14395.682915215373\\
73.72650460937797	14319.401490859611\\
74.56098620236385	14252.221610748078\\
75.39546779534973	14190.18296039691\\
76.22994938833561	14138.506804389592\\
77.0644309813215	14093.10403181228\\
77.89891257430737	14053.46561053516\\
78.73339416729326	14023.429213710882\\
79.56787576027914	13995.899476405613\\
80.40235735326502	13979.86570293277\\
81.2368389462509	13964.484182047398\\
82.07132053923678	13960.995029143587\\
82.90580213222266	13957.769840332561\\
83.74028372520854	13965.273054834583\\
84.57476531819442	13974.180896958755\\
85.4092469111803	13991.02997532262\\
86.24372850416619	14012.016130449241\\
87.07821009715207	14036.47031875016\\
87.91269169013795	14069.448652152887\\
88.74717328312383	14102.741514047222\\
89.58165487610971	14144.525906244158\\
90.41613646909559	14189.798641153215\\
91.25061806208147	14235.491150812426\\
92.08509965506735	14292.268073201101\\
92.91958124805323	14349.886261555514\\
93.75406284103912	14408.024234786377\\
94.588544434025	14477.2675129009\\
95.42302602701088	14547.23508144931\\
96.25750761999676	14617.817208868193\\
97.09198921298264	14696.8121674811\\
97.92647080596852	14779.085917781747\\
98.7609523989544	14862.063764814622\\
99.59543399194028	14947.907227936843\\
100.42991558492616	15042.396836357566\\
101.26439717791204	15137.67484324001\\
102.09887877089793	15233.74124858417\\
102.9333603638838	15333.843151839139\\
103.76784195686969	15441.278633616323\\
104.60232354985557	15549.581579452455\\
105.43680514284145	15658.751989347526\\
106.27128673582733	15769.220574273146\\
107.10576832881321	15889.565014323756\\
107.9402499217991	16010.850747898265\\
108.77473151478497	16133.077774996666\\
109.60921310777086	16256.246095618973\\
110.44369470075674	16382.860764848654\\
111.27817629374262	16517.02430135904\\
112.1126578867285	16652.197724726007\\
112.94713947971438	16788.381034949565\\
113.78162107270026	16925.574232029718\\
114.61610266568614	17063.777315966454\\
115.45058425867202	17211.088289032374\\
116.2850658516579	17360.10829820296\\
117.11954744464379	17510.20155143055\\
117.95402903762967	17661.368048715154\\
118.78851063061555	17813.607790056773\\
119.62299222360143	17966.9207754554\\
120.45747381658731	18128.58578259253\\
121.29195540957319	18292.46409671904\\
122.12643700255907	18457.473775970713\\
122.96091859554495	18623.61482034757\\
123.79540018853083	18790.887229849584\\
124.62988178151672	18959.291004476778\\
125.4643633745026	19128.826144229133\\
126.29884496748848	19306.95222425187\\
127.13332656047436	19486.780675310303\\
127.96780815346024	19667.793376429796\\
128.80228974644612	19849.990327610358\\
129.636771339432	20033.371528851963\\
130.47125293241785	20217.93698015464\\
131.30573452540372	20403.68668151838\\
132.1402161183896	20590.62063294317\\
132.97469771137546	20785.44473897528\\
133.80917930436132	20982.36385497171\\
134.6436608973472	21180.51486983282\\
135.47814249033306	21379.897783558623\\
136.31262408331892	21580.512596149107\\
137.1471056763048	21782.359307604285\\
137.98158726929066	21985.437917924137\\
138.81606886227652	22189.74842710868\\
139.6505504552624	22395.29083515791\\
140.48503204824826	22604.835820742595\\
141.31951364123412	22820.00340891957\\
142.15399523422	23036.445308632596\\
142.98847682720586	23254.16151988167\\
143.82295842019172	23473.152042666774\\
144.6574400131776	23693.416876987932\\
145.49192160616346	23914.956022845126\\
146.32640319914915	24137.769480238334\\
};

\addplot [
color=black,
densely dashdotted
]
table[row sep=crcr]{
59.21372681087494	15879.502487947988\\
60.09365283499892	15662.584143596063\\
60.9735788591229	15463.15656055681\\
61.853504883246885	15279.052703419831\\
62.73343090737087	15109.591253041626\\
63.61335693149485	14954.05044868733\\
64.49328295561882	14811.668088030716\\
65.3732089797428	14682.778586422688\\
66.25313500386677	14567.188027078795\\
67.13306102799075	14463.032035486407\\
68.01298705211472	14369.406863749578\\
68.8929130762387	14285.368322381013\\
69.77283910036267	14212.751460448631\\
70.65276512448665	14151.50641050228\\
71.53269114861062	14097.672517207904\\
72.4126171727346	14052.723328059677\\
73.29254319685857	14019.230508684324\\
74.17246922098255	13990.723982431333\\
75.05239524510652	13973.388706173157\\
75.9323212692305	13962.413602279052\\
76.81224729335447	13958.768294750835\\
77.69217331747845	13963.732765353996\\
78.57209934160242	13973.828693128378\\
79.4520253657264	13993.019565593146\\
80.33195138985037	14016.867553651411\\
81.21187741397435	14048.450330568061\\
82.09180343809832	14086.020762300137\\
82.9717294622223	14128.039621484884\\
83.85165548634627	14179.262438689359\\
84.73158151047025	14231.025615267326\\
85.61150753459422	14294.404936068458\\
86.4914335587182	14359.838737391856\\
87.37135958284217	14429.098841321425\\
88.25128560696615	14508.045585740902\\
89.13121163109012	14587.783427400256\\
90.0111376552141	14673.094539241678\\
90.89106367933807	14766.262459291767\\
91.77098970346205	14860.336735117078\\
92.65091572758602	14958.624903799539\\
93.53084175171	15065.992471188436\\
94.41076777583397	15174.37491262269\\
95.29069379995795	15283.7722281023\\
96.17061982408192	15403.80856157613\\
97.0505458482059	15526.410237675276\\
97.93047187232987	15650.128565824674\\
98.81039789645385	15775.91969627789\\
99.69032392057782	15912.591013710844\\
100.5702499447018	16050.474020933738\\
101.45017596882577	16189.56871794657\\
102.33010199294975	16329.87510474934\\
103.21002801707372	16480.532260156302\\
104.0899540411977	16633.662937733745\\
104.96988006532168	16788.093602575573\\
105.84980608944565	16943.824254681796\\
106.72973211356963	17102.545235403475\\
107.6096581376936	17270.80903938356\\
108.48958416181758	17440.45438783726\\
109.36951018594155	17611.481280764583\\
110.24943621006553	17783.88971816552\\
111.1293622341895	17957.679700040077\\
112.00928825831348	18140.755176395556\\
112.88921428243745	18326.86940247891\\
113.76914030656143	18514.439989979885\\
114.6490663306854	18703.466938898477\\
115.52899235480938	18893.95024923469\\
116.40891837893335	19085.889920988524\\
117.28884440305733	19285.8009803324\\
118.1687704271813	19489.761624916817\\
119.04869645130528	19695.246707597624\\
119.92862247542925	19902.25622837483\\
120.80854849955323	20110.79018724842\\
121.6884745236772	20320.848584218424\\
122.56840054780118	20532.43141928482\\
123.44832657192515	20750.90877519608\\
124.32825259604913	20974.176284415233\\
125.2081786201731	21199.029568144335\\
126.08810464429708	21425.468626383386\\
126.96803066842105	21653.49345913238\\
127.84795669254503	21883.104066391323\\
128.727882716669	22114.300448160207\\
129.607808740793	22347.08260443905\\
130.48773476491698	22583.511479869037\\
131.36766078904097	22827.58876352754\\
132.24758681316496	23073.306417844302\\
133.12751283728895	23320.664442819347\\
134.00743886141294	23569.662838452663\\
134.88736488553693	23820.30160474425\\
135.76729090966091	24072.580741694113\\
136.6472169337849	24326.50024930225\\
137.5271429579089	24582.060127568657\\
138.40706898203288	24839.260376493334\\
139.28699500615687	25099.40918860207\\
140.16692103028086	25367.48940512544\\
141.04684705440485	25637.25784819019\\
141.92677307852884	25908.71451779632\\
142.80669910265283	26181.85941394382\\
143.68662512677682	26456.69253663269\\
144.5665511509008	26733.213885862937\\
145.4464771750248	27011.423461634553\\
146.32640319914915	27291.321263947662\\
};

\addplot [
color=black,
densely dotted
]
table[row sep=crcr]{
80.6644003488891	21678.9859013181\\
81.32765290293213	21568.34214659981\\
81.99090545697516	21458.616865911416\\
82.65415801101818	21349.870835612535\\
83.31741056506121	21242.164832062812\\
83.98066311910424	21135.559631621854\\
84.64391567314726	21030.11601064929\\
85.30716822719029	20925.89474550476\\
85.97042078123332	20822.956612547874\\
86.63367333527634	20721.362388138274\\
87.29692588931937	20621.172848635568\\
87.9601784433624	20522.235761308733\\
88.62343099740542	20424.36765407394\\
89.28668355144845	20327.582617022745\\
89.94993610549147	20231.89474025072\\
90.6131886595345	20137.318113853427\\
91.27644121357753	20043.86682792647\\
91.93969376762055	19951.554972565395\\
92.60294632166358	19860.3966378658\\
93.2661988757066	19770.40591392326\\
93.92945142974963	19681.596890833338\\
94.59270398379266	19593.983658691628\\
95.25595653783569	19507.580307593696\\
95.91920909187871	19422.400927635113\\
96.58246164592174	19338.459608911475\\
97.24571419996477	19255.77044151834\\
97.90896675400779	19174.347515551297\\
98.57221930805082	19094.289788850467\\
99.23547186209385	19015.980618261547\\
99.89872441613687	18939.36075841197\\
100.5619769701799	18864.308312168727\\
101.22522952422293	18790.7013823988\\
101.88848207826595	18718.418071969183\\
102.55173463230898	18647.336483746865\\
103.214987186352	18577.33472059884\\
103.87823974039503	18508.290885392093\\
104.54149229443806	18440.083080993616\\
105.20474484848108	18372.589410270393\\
105.86799740252411	18305.687976089426\\
106.53124995656714	18239.256881317702\\
107.19450251061016	18173.174228822194\\
107.85775506465319	18107.31812146991\\
108.52100761869622	18041.566662127836\\
109.18426017273924	17975.801288919345\\
109.84751272678227	17910.355417051385\\
110.5107652808253	17845.504682654253\\
111.17401783486832	17781.236736113977\\
111.83727038891135	17717.539227816582\\
112.50052294295438	17654.399808148097\\
113.1637754969974	17591.80612749454\\
113.82702805104043	17529.745836241935\\
114.49028060508346	17468.206584776322\\
115.15353315912648	17407.17602348371\\
115.81678571316951	17346.64180275014\\
116.48003826721254	17286.59157296162\\
117.14329082125556	17227.01298450418\\
117.80654337529859	17167.893687763855\\
118.46979592934161	17109.22133312667\\
119.13304848338464	17050.983570978635\\
119.79630103742767	16993.16805170579\\
120.4595535914707	16935.790462027566\\
121.12280614551372	16878.937529809613\\
121.78605869955675	16822.605515177525\\
122.44931125359977	16766.781998205723\\
123.1125638076428	16711.454558968624\\
123.77581636168583	16656.61077754064\\
124.43906891572885	16602.2382339962\\
125.10232146977188	16548.324508409707\\
125.7655740238149	16494.85718085559\\
126.42882657785793	16441.823831408263\\
127.09207913190096	16389.212040142138\\
127.75533168594399	16337.009387131635\\
128.418584239987	16285.203452451171\\
129.08183679403004	16233.781816175166\\
129.74508934807307	16182.732058378033\\
130.4083419021161	16132.041759134188\\
131.07159445615912	16081.699002261701\\
131.73484701020215	16031.714323031963\\
132.39809956424517	15982.102249460411\\
133.0613521182882	15932.870347099386\\
133.72460467233122	15884.026181501227\\
134.38785722637425	15835.577318218284\\
135.05110978041728	15787.531322802892\\
135.7143623344603	15739.895760807394\\
136.37761488850333	15692.678197784138\\
137.04086744254636	15645.886199285458\\
137.70411999658938	15599.527330863697\\
138.3673725506324	15553.609158071202\\
139.03062510467544	15508.13924646031\\
139.69387765871846	15463.125161583364\\
140.3571302127615	15418.57446899271\\
141.02038276680452	15374.494734240683\\
141.68363532084754	15330.89352287963\\
142.34688787489057	15287.922938291735\\
143.0101404289336	15245.900010509038\\
143.67339298297662	15204.734670003423\\
144.33664553701965	15164.317214021736\\
144.99989809106268	15124.537939810834\\
145.6631506451057	15085.287144617574\\
146.32640319914915	15046.455125688783\\
};

\addplot [
color=black,
dashdotdotted
]
table[row sep=crcr]{
74.34798723885135	26611.397233903874\\
75.07504194552102	26456.05749587255\\
75.8020966521907	26303.28967543498\\
76.52915135886037	26153.450866158077\\
77.25620606553005	26006.898161608737\\
77.98326077219973	25863.97469798423\\
78.7103154788694	25724.273323711597\\
79.43737018553908	25587.338315041714\\
80.16442489220876	25453.00533138974\\
80.89147959887843	25321.11003217083\\
81.61853430554811	25191.488076800124\\
82.34558901221779	25063.975124692784\\
83.07264371888746	24938.40683526397\\
83.79969842555714	24814.61886792882\\
84.52675313222682	24692.446882102486\\
85.25380783889649	24571.72653720013\\
85.98086254556617	24452.293492636905\\
86.70791725223584	24333.98340782796\\
87.43497195890552	24216.631942188444\\
88.1620266655752	24100.074755133508\\
88.88908137224487	23984.14750607831\\
89.61613607891455	23869.2109888956\\
90.34319078558423	23755.994042305534\\
91.0702454922539	23644.402539586696\\
91.79730019892358	23534.330186188774\\
92.52435490559326	23425.670687561455\\
93.25140961226293	23318.317749154423\\
93.97846431893261	23212.16507641736\\
94.70551902560229	23107.106374799965\\
95.43257373227196	23003.035349751906\\
96.15962843894164	22899.845706722877\\
96.88668314561131	22797.43115116257\\
97.61373785228099	22695.685388520662\\
98.34079255895067	22594.502124246843\\
99.06784726562034	22493.77506379079\\
99.79490197229002	22393.397912602195\\
100.5219566789597	22293.367805118574\\
101.24901138562937	22194.093194022378\\
101.97606609229905	22095.61501557903\\
102.70312079896873	21997.917225322148\\
103.4301755056384	21900.983778785332\\
104.15723021230808	21804.798631502203\\
104.88428491897776	21709.345739006374\\
105.61133962564743	21614.60905683145\\
106.33839433231711	21520.572540511046\\
107.06544903898678	21427.220145578773\\
107.79250374565646	21334.535827568252\\
108.51955845232614	21242.50354201308\\
109.24661315899581	21151.107244446892\\
109.97366786566549	21060.33089040327\\
110.70072257233517	20970.15843541585\\
111.42777727900484	20880.57555875448\\
112.15483198567452	20791.605605878885\\
112.8818866923442	20703.26634917989\\
113.60894139901387	20615.564903406736\\
114.33599610568355	20528.508383308705\\
115.06305081235323	20442.103903635056\\
115.7901055190229	20356.358579135056\\
116.51716022569258	20271.279524557965\\
117.24421493236225	20186.87385465305\\
117.97126963903193	20103.148684169573\\
118.69832434570161	20020.11112785681\\
119.42537905237128	19937.768300464013\\
120.15243375904096	19856.12731674045\\
120.87948846571064	19775.195291435386\\
121.60654317238031	19694.979339298083\\
122.33359787904999	19615.486575077808\\
123.06065258571967	19536.742499577136\\
123.78770729238934	19458.759780091714\\
124.51476199905902	19381.52217805687\\
125.2418167057287	19305.013433917917\\
125.96887141239837	19229.21728812015\\
126.69592611906805	19154.11748110888\\
127.42298082573772	19079.697753329405\\
128.1500355324074	19005.94184522704\\
128.87709023907706	18932.83349724708\\
129.60414494574673	18860.35644983483\\
130.3311996524164	18788.4944434356\\
131.05825435908605	18717.231218494686\\
131.7853090657557	18646.5505154574\\
132.51236377242537	18576.436074769033\\
133.23941847909504	18506.871636874905\\
133.9664731857647	18437.918972121133\\
134.69352789243436	18369.79434764065\\
135.42058259910402	18302.463858748695\\
136.14763730577369	18235.874183145723\\
136.87469201244335	18169.97199853218\\
137.601746719113	18104.703982608535\\
138.32880142578267	18040.01681307523\\
139.05585613245233	17975.857167632723\\
139.782910839122	17912.17172398146\\
140.50996554579166	17848.907159821913\\
141.23702025246132	17786.010152854513\\
141.96407495913098	17723.42738077973\\
142.69112966580064	17661.105521298006\\
143.4181843724703	17598.9912521098\\
144.14523907913997	17537.031250915566\\
144.87229378580963	17475.21258753799\\
145.5993484924793	17413.9075754944\\
146.32640319914915	17353.170489693355\\
};

\addplot [
color=black,
densely dashdotdetted
]
table[row sep=crcr]{
68.73022695707306	31594.952328595387\\
69.51402671709403	31397.64049535259\\
70.297826477115	31201.332265287638\\
71.08162623713596	31006.175133722107\\
71.86542599715693	30812.316595977572\\
72.6492257571779	30619.904147375597\\
73.43302551719887	30429.085283237757\\
74.21682527721984	30240.007498885614\\
75.00062503724081	30052.818289640745\\
75.78442479726178	29867.665150824723\\
76.56822455728275	29684.695577759103\\
77.35202431730372	29504.057065765475\\
78.13582407732468	29325.897110165395\\
78.91962383734565	29150.363206280443\\
79.70342359736662	28977.59521493579\\
80.48722335738759	28807.585139449482\\
81.27102311740856	28640.192723291777\\
82.05482287742953	28475.27319507015\\
82.8386226374505	28312.681783392112\\
83.62242239747147	28152.273716865166\\
84.40622215749244	27993.904224096805\\
85.1900219175134	27837.42853369454\\
85.97382167753437	27682.701874265855\\
86.75762143755534	27529.57947441825\\
87.54142119757631	27377.916562759237\\
88.32522095759728	27227.56836789631\\
89.10902071761825	27078.39011843696\\
89.89282047763922	26930.237042988698\\
90.67662023766019	26782.965395583593\\
91.46041999768116	26637.068297631275\\
92.24421975770213	26492.976139055216\\
93.0280195177231	26350.592104835174\\
93.81181927774406	26209.819379950914\\
94.59561903776503	26070.56114938219\\
95.379418797786	25932.720598108757\\
96.16321855780697	25796.200911110376\\
96.94701831782794	25660.90527336681\\
97.73081807784891	25526.736869857803\\
98.51461783786988	25393.598885563133\\
99.29841759789085	25261.39450546254\\
100.08221735791182	25130.026914535785\\
100.86601711793278	24999.39929776264\\
101.64981687795375	24869.414840122838\\
102.43361663797472	24740.00712987255\\
103.21741639799569	24611.279347399824\\
104.00121615801666	24483.308696946428\\
104.78501591803763	24356.161894434506\\
105.5688156780586	24229.905655786206\\
106.35261543807957	24104.606696923674\\
107.13641519810054	23980.33173376905\\
107.9202149581215	23857.147482244487\\
108.70401471814247	23735.12065827213\\
109.48781447816344	23614.317977774117\\
110.27161423818441	23494.806156672596\\
111.05541399820538	23376.651910889712\\
111.83921375822635	23259.921956347614\\
112.62301351824732	23144.68300896844\\
113.40681327826829	23031.001340046114\\
114.19061303828926	22918.88521561537\\
114.97441279831023	22808.27346137174\\
115.7582125583312	22699.109112734055\\
116.54201231835216	22591.33520512114\\
117.32581207837313	22484.89477395183\\
118.1096118383941	22379.730854644953\\
118.89341159841507	22275.786482619333\\
119.67721135843604	22173.004693293806\\
120.46101111845701	22071.328522087195\\
121.24481087847798	21970.701004418337\\
122.02861063849895	21871.065175706055\\
122.81241039851992	21772.36407136918\\
123.59621015854088	21674.54072682654\\
124.38000991856185	21577.53817749696\\
125.16380967858282	21481.419838251044\\
125.94760943860379	21386.511530317395\\
126.73140919862476	21292.788553959974\\
127.51520895864573	21200.198253597475\\
128.2990087186667	21108.68797364858\\
129.08280847868767	21018.205058531978\\
129.86660823870864	20928.696852666344\\
130.6504079987296	20840.110700470374\\
131.43420775875057	20752.39394636275\\
132.21800751877154	20665.49393476216\\
133.0018072787925	20579.35801008729\\
133.78560703881348	20493.933516756824\\
134.56940679883445	20409.16779918945\\
135.35320655885542	20325.00820180386\\
136.1370063188764	20241.415590965033\\
136.92080607889736	20158.713657657372\\
137.70460583891833	20077.01136601184\\
138.4884055989393	19996.243828549465\\
139.27220535896026	19916.346157791275\\
140.05600511898123	19837.253466258295\\
140.8398048790022	19758.900866471537\\
141.62360463902317	19681.223470952038\\
142.40740439904414	19604.15639222083\\
143.1912041590651	19527.634742798924\\
143.97500391908608	19451.59363520735\\
144.75880367910705	19375.968181967135\\
145.54260343912802	19300.693495599306\\
146.32640319914915	19225.704688624868\\
};

\addplot [
color=black,
loosely dashed
]
table[row sep=crcr]{
63.7127254935474	37184.55448664457\\
64.54720708653328	36909.12366453531\\
65.38168867951916	36635.58752231182\\
66.21617027250504	36365.553097159194\\
67.05065186549092	36100.62742626249\\
67.8851334584768	35842.417546806784\\
68.71961505146268	35592.53049597713\\
69.55409664444856	35352.01301428068\\
70.38857823743444	35117.08735335852\\
71.22305983042033	34886.49058401042\\
72.0575414234062	34659.93123982234\\
72.89202301639209	34437.11785438028\\
73.72650460937797	34217.75896127019\\
74.56098620236385	34001.56309407806\\
75.39546779534973	33788.23878638984\\
76.22994938833561	33577.49457179151\\
77.0644309813215	33369.03898386905\\
77.89891257430737	33162.58055620843\\
78.73339416729326	32957.827822395615\\
79.56787576027914	32754.489316016578\\
80.40235735326502	32552.273570657297\\
81.2368389462509	32351.331515455877\\
82.07132053923678	32153.224534145527\\
82.90580213222266	31957.895917519185\\
83.74028372520854	31765.088336827725\\
84.57476531819442	31574.544463321996\\
85.4092469111803	31386.00696825287\\
86.24372850416619	31199.218522871215\\
87.07821009715207	31013.921798427888\\
87.91269169013795	30829.859466173762\\
88.74717328312383	30646.774197359697\\
89.58165487610971	30464.408663236543\\
90.41613646909559	30282.50553505518\\
91.25061806208147	30100.807484066474\\
92.08509965506735	29919.057181521286\\
92.91958124805323	29737.586267526432\\
93.75406284103912	29557.50320781417\\
94.588544434025	29378.68321349614\\
95.42302602701088	29200.952651811498\\
96.25750761999676	29024.13788999938\\
97.09198921298264	28848.065295298922\\
97.92647080596852	28672.561234949284\\
98.7609523989544	28497.45207618961\\
99.59543399194028	28322.564186259042\\
100.42991558492616	28147.723932396726\\
101.26439717791204	27972.757681841817\\
102.09887877089793	27797.491801833443\\
102.9333603638838	27621.752659610764\\
103.76784195686969	27445.366622412916\\
104.60232354985557	27267.80530145617\\
105.43680514284145	27088.81673580138\\
106.27128673582733	26908.771586952153\\
107.10576832881321	26728.04156569673\\
107.9402499217991	26546.998382823353\\
108.77473151478497	26366.013749120262\\
109.60921310777086	26185.459375375707\\
110.44369470075674	26005.706972377928\\
111.27817629374262	25827.128250915164\\
112.1126578867285	25650.094921775664\\
112.94713947971438	25474.97869574766\\
113.78162107270026	25302.151283619412\\
114.61610266568614	25131.984396179145\\
115.45058425867202	24964.837585674835\\
116.2850658516579	24800.122032396477\\
117.11954744464379	24637.285003566074\\
117.95402903762967	24476.24813251723\\
118.78851063061555	24316.933052583565\\
119.62299222360143	24159.26139709868\\
120.45747381658731	24003.154799396176\\
121.29195540957319	23848.534892809676\\
122.12643700255907	23695.323310672782\\
122.96091859554495	23543.441686319104\\
123.79540018853083	23392.81165308225\\
124.62988178151672	23243.35484429583\\
125.4643633745026	23094.992893293453\\
126.29884496748848	22947.64743340873\\
127.13332656047436	22801.26897194286\\
127.96780815346024	22656.21474720132\\
128.80228974644612	22512.56783775611\\
129.636771339432	22370.26924659956\\
130.47125293241785	22229.259976724014\\
131.30573452540372	22089.481031121806\\
132.1402161183896	21950.87341278527\\
132.97469771137546	21813.37812470675\\
133.80917930436132	21676.936169878572\\
134.6436608973472	21541.488551293085\\
135.47814249033306	21406.976271942618\\
136.31262408331892	21273.34033481951\\
137.1471056763048	21140.521742916102\\
137.98158726929066	21008.46149922473\\
138.81606886227652	20877.20357825487\\
139.6505504552624	20747.309009274984\\
140.48503204824826	20618.756688107263\\
141.31951364123412	20491.408431915304\\
142.15399523422	20365.126057862704\\
142.98847682720586	20239.771383113075\\
143.82295842019172	20115.20622483\\
144.6574400131776	19991.29240017708\\
145.49192160616346	19867.891726317914\\
146.32640319914915	19744.86602041614\\
};

\addplot [
color=black,
loosely dashdotted
]
table[row sep=crcr]{
59.21372681087494	40969.739014577804\\
60.09365283499892	40827.48958508193\\
60.9735788591229	40579.239885122086\\
61.853504883246885	40245.97424822517\\
62.73343090737087	39848.67700791804\\
63.61335693149485	39408.3324977276\\
64.49328295561882	38945.92505118072\\
65.3732089797428	38482.43900180429\\
66.25313500386677	38038.858683125196\\
67.13306102799075	37636.16842867031\\
68.01298705211472	37295.35257196651\\
68.8929130762387	37037.39544654069\\
69.77283910036267	36883.28138591973\\
70.65276512448665	36843.61444040996\\
71.53269114861062	36753.91122468113\\
72.4126171727346	36564.777371685166\\
73.29254319685857	36294.67066172905\\
74.17246922098255	35962.048875119726\\
75.05239524510652	35585.36979216419\\
75.9323212692305	35183.09119316937\\
76.81224729335447	34773.67085844226\\
77.69217331747845	34375.56656828981\\
78.57209934160242	34007.23610301899\\
79.4520253657264	33687.13724293677\\
80.33195138985037	33433.72776835011\\
81.21187741397435	33265.46545956597\\
82.09180343809832	33200.80809689132\\
82.9717294622223	33154.30103167883\\
83.85165548634627	33014.7500719626\\
84.73158151047025	32798.12861902308\\
85.61150753459422	32520.756712640752\\
86.4914335587182	32198.954392596057\\
87.37135958284217	31849.041698669458\\
88.25128560696615	31487.3386706414\\
89.13121163109012	31130.165348292347\\
90.0111376552141	30793.84177140274\\
90.89106367933807	30494.687979753042\\
91.77098970346205	30249.024013123708\\
92.65091572758602	30073.16991129519\\
93.53084175171	29983.445714047943\\
94.41076777583397	29957.98031591417\\
95.29069379995795	29860.693128317824\\
96.17061982408192	29690.423070928664\\
97.0505458482059	29461.599431527673\\
97.93047187232987	29188.65149789582\\
98.81039789645385	28886.0085578141\\
99.69032392057782	28568.099899063487\\
100.5702499447018	28249.354809424978\\
101.45017596882577	27944.202576679545\\
102.33010199294975	27667.072488608177\\
103.21002801707372	27432.393832991846\\
104.0899540411977	27254.595897611547\\
104.96988006532168	27148.107970248253\\
105.84980608944565	27120.535288799685\\
106.72973211356963	27059.027204328555\\
107.6096581376936	26928.71057007757\\
108.48958416181758	26742.3430834384\\
109.36951018594155	26512.682441802765\\
110.24943621006553	26252.48634256233\\
111.1293622341895	25974.512483108814\\
112.00928825831348	25691.51856083389\\
112.88921428243745	25416.262273129265\\
113.76914030656143	25161.501317386614\\
114.6490663306854	24939.993390997646\\
115.52899235480938	24764.496191354036\\
116.40891837893335	24647.7674158475\\
117.28884440305733	24602.56476186971\\
118.1687704271813	24571.248460768016\\
119.04869645130528	24476.48223498412\\
119.92862247542925	24329.094659726063\\
120.80854849955323	24140.21306585475\\
121.6884745236772	23920.964784231102\\
122.56840054780118	23682.477145716024\\
123.44832657192515	23435.877481170424\\
124.32825259604913	23192.293121455223\\
125.2081786201731	22962.85139743132\\
126.08810464429708	22758.67963995964\\
126.96803066842105	22590.905179901078\\
127.84795669254503	22470.655348116557\\
128.727882716669	22409.057475466983\\
129.607808740793	22391.46399235896\\
130.48773476491698	22323.815292066953\\
131.36766078904097	22205.07510944365\\
132.24758681316496	22045.331517216473\\
133.12751283728895	21854.672588112862\\
134.00743886141294	21643.18639486024\\
134.88736488553693	21420.961010186034\\
135.76729090966091	21198.08450681767\\
136.6472169337849	20984.64495748259\\
137.5271429579089	20790.73043490821\\
138.40706898203288	20626.429011821965\\
139.28699500615687	20501.828760951277\\
140.16692103028086	20427.017755023582\\
141.04684705440485	20407.412677444572\\
141.92677307852884	20362.184444540533\\
142.80669910265283	20265.88695388171\\
143.68662512677682	20127.977355111336\\
144.5665511509008	19957.91279787263\\
145.4464771750248	19765.150431808815\\
146.32640319914915	19559.147406563035\\
};
\end{axis}
\end{tikzpicture}%
