%Drag_and_Thrust_curves_altitudes_PHI_0.75
\begin{tikzpicture}

\begin{axis}[
width=\figurewidth,
height=\figureheight,
scaled ticks=false, tick label style={/pgf/number format/fixed},
xmin=59.21372732324278,
xmax=142.9234635898666,
xlabel={Speed ((m/s))},
xmajorgrids,
ymin=11438.505520746055,
ymax=30727.304225011656,
ylabel={Forces ((N))},
ymajorgrids,
legend style={at={(1.03,0.5)},anchor=west,draw=black,fill=white,legend cell align=left}
]

\addplot [
color=black,
solid
]
table[row sep=crcr]{
59.21372732324278	15879.502640223502\\
60.05928021482484	15670.460367086605\\
60.9048331064069	15477.654494555029\\
61.75038599798896	15299.104618973435\\
62.595938889571016	15134.06765931433\\
63.441491781153076	14982.692885136821\\
64.28704467273514	14844.450376585915\\
65.1325975643172	14718.196493537558\\
65.97815045589925	14603.12032486226\\
66.82370334748131	14498.37361571998\\
67.66925623906337	14403.070767560155\\
68.51480913064543	14319.954154950186\\
69.36036202222749	14246.906495978234\\
70.20591491380955	14181.26804352468\\
71.05146780539161	14124.792430614549\\
71.89702069697367	14079.128298383286\\
72.74257358855573	14038.608431991333\\
73.58812648013779	14008.75565490191\\
74.43367937171985	13985.599370323522\\
75.2792322633019	13968.886790442806\\
76.12478515488397	13961.619957279208\\
76.97033804646603	13958.109007526045\\
77.81589093804808	13965.145464246842\\
78.66144382963014	13974.860233829522\\
79.5069967212122	13994.50178777267\\
80.35254961279426	14017.429022188964\\
81.19810250437632	14047.865449560784\\
82.04365539595838	14083.95455059789\\
82.88920828754044	14123.263596473073\\
83.7347611791225	14172.426622207662\\
84.58031407070456	14222.088615032062\\
85.42586696228662	14280.68566532746\\
86.27141985386868	14343.415174694024\\
87.11697274545074	14406.76252862897\\
87.9625256370328	14482.05090603683\\
88.80807852861486	14558.409576744572\\
89.65363142019692	14635.50014397474\\
90.49918431177898	14724.657710496796\\
91.34473720336103	14814.652204689095\\
92.1902900949431	14905.483626551635\\
93.03584298652515	15005.468377208064\\
93.88139587810721	15109.049341462482\\
94.72694876968927	15213.567439010434\\
95.57250166127133	15321.10911127644\\
96.41805455285339	15438.171176604717\\
97.26360744443545	15556.264356898071\\
98.10916033601751	15675.388652156498\\
98.95471322759957	15798.251806260881\\
99.80026611918163	15929.752460793805\\
100.64581901076369	16062.371988011584\\
101.49137190234575	16196.110387914217\\
102.3369247939278	16330.967660501712\\
103.18247768550987	16475.758649035717\\
104.02803057709193	16622.84396664232\\
104.87358346867398	16771.129690701797\\
105.71913636025604	16920.61582121416\\
106.5646892518381	17071.302358179404\\
107.41024214342016	17232.554525260857\\
108.25579503500222	17395.246105568734\\
109.10134792658428	17559.213402145757\\
109.94690081816634	17724.456414991928\\
110.7924537097484	17890.975144107244\\
111.63800660133046	18062.661678195804\\
112.48355949291252	18240.887761556187\\
113.32911238449458	18420.45864705023\\
114.17466527607664	18601.374334677927\\
115.0202181676587	18783.63482443928\\
115.86577105924076	18967.240116334284\\
116.71132395082282	19152.764225824187\\
117.55687684240488	19347.767357358363\\
118.40242973398693	19544.17815293894\\
119.247982625569	19741.996612565934\\
120.09353551715105	19941.22273623932\\
120.93908840873311	20141.85652395911\\
121.78464130031517	20343.897975725315\\
122.63019419189723	20547.34709153792\\
123.47574708347929	20757.842129113993\\
124.32129997506135	20972.405710557246\\
125.16685286664341	21188.4335940079\\
126.01240575822547	21405.925779465953\\
126.85795864980753	21624.882266931403\\
127.70351154138959	21845.30305640425\\
128.54906443297165	22067.188147884495\\
129.3946173245537	22290.537541372138\\
130.24017021613577	22515.351236867184\\
131.08572310771783	22749.204921759396\\
131.93127599929988	22984.788091754173\\
132.77682889088194	23221.88597776558\\
133.622381782464	23460.498579793617\\
134.46793467404606	23700.625897838294\\
135.31348756562812	23942.267931899598\\
136.15904045721018	24185.424681977544\\
137.00459334879224	24430.09614807212\\
137.8501462403743	24676.28233018332\\
138.69569913195636	24923.98322831116\\
139.54125202353842	25176.697925499248\\
140.38680491512048	25434.743018018227\\
141.23235780670254	25694.34701661133\\
142.0779106982846	25955.509921278528\\
142.9234635898666	26218.23173201983\\
};

\addplot [
color=black,
densely dashed
]
table[row sep=crcr]{
63.71272604484442	15879.502640223503\\
64.51283450489515	15695.635297639481\\
65.31294296494588	15523.805968256327\\
66.1130514249966	15363.393255954503\\
66.91315988504732	15213.74688269465\\
67.71326834509804	15074.187688517482\\
68.51337680514877	14944.007631543833\\
69.31348526519949	14822.848453633778\\
70.11359372525021	14713.786519046811\\
70.91370218530093	14612.49542819046\\
71.71381064535166	14518.166052465931\\
72.51391910540238	14433.160324075276\\
73.3140275654531	14357.215438166435\\
74.11413602550383	14286.37366394413\\
74.91424448555455	14225.077629144074\\
75.71435294560527	14170.502958214587\\
76.514461405656	14120.758217670915\\
77.31456986570672	14081.267210678305\\
78.11467832575744	14043.653535961643\\
78.91478678580816	14017.469840168123\\
79.71489524585888	13992.418095986994\\
80.5150037059096	13977.798737837302\\
81.31511216596033	13963.88961582332\\
82.11522062601105	13960.826267159555\\
82.91532908606177	13957.732923926975\\
83.7154375461125	13965.009263929014\\
84.51554600616322	13973.545915496132\\
85.31565446621394	13988.689036260248\\
86.11576292626467	14008.784776976061\\
86.91587138631539	14030.09136458827\\
87.71597984636611	14061.646406881868\\
88.51608830641683	14093.490599821444\\
89.31619676646756	14130.212176049105\\
90.11630522651828	14173.483755507308\\
90.916413686569	14217.141240043135\\
91.71652214661972	14266.984528546594\\
92.51663060667045	14321.99897531536\\
93.31673906672117	14377.491267940068\\
94.11684752677189	14437.989700860326\\
94.91695598682261	14504.73002220578\\
95.71706444687334	14572.03531653218\\
96.51717290692406	14640.54903449089\\
97.31728136697478	14718.954914799308\\
98.1173898270255	14798.008081560363\\
98.91749828707623	14877.708534774049\\
99.71760674712695	14961.69173443766\\
100.51771520717767	15052.384321486497\\
101.3178236672284	15143.801694806347\\
102.11793212727912	15235.943854397203\\
102.91804058732984	15331.878857493448\\
103.71814904738056	15434.85656223943\\
104.51825750743129	15538.631739421484\\
105.31836596748201	15643.2043890396\\
106.11847442753273	15748.574511093788\\
106.91858288758345	15862.488167657379\\
107.71869134763418	15978.556982165264\\
108.5187998076849	16095.491141620965\\
109.31890826773562	16213.290646024478\\
110.11901672778635	16331.9554953758\\
110.91912518783707	16459.174079078926\\
111.71923364788779	16588.34300434274\\
112.51934210793851	16718.44033341279\\
113.31945056798924	16849.466066289086\\
114.11955902803996	16981.42020297162\\
114.91966748809068	17116.836758688103\\
115.7197759481414	17259.042590902132\\
116.51988440819213	17402.235072127514\\
117.31999286824285	17546.414202364256\\
118.12010132829357	17691.57998161235\\
118.9202097883443	17837.7324098718\\
119.72031824839502	17984.871487142605\\
120.52042670844574	18140.909067098422\\
121.32053516849646	18298.09655878354\\
122.12064362854719	18456.32413103181\\
122.92075208859791	18615.591783843243\\
123.72086054864863	18775.899517217826\\
124.52096900869935	18937.247331155562\\
125.32107746875008	19099.635225656453\\
126.1211859288008	19268.819902966545\\
126.92129438885152	19440.975912311525\\
127.72140284890224	19614.22062011815\\
128.52151130895297	19788.554026386402\\
129.3216197690037	19963.976131116302\\
130.1217282290544	20140.48693430783\\
130.92183668910513	20318.086435961006\\
131.72194514915586	20496.77463607582\\
132.52205360920658	20679.14588845737\\
133.3221620692573	20867.288689638164\\
134.12227052930803	21056.563993525775\\
134.92237898935875	21246.971800120187\\
135.72248744940947	21438.512109421412\\
136.5225959094602	21631.18492142944\\
137.32270436951092	21824.99023614428\\
138.12281282956164	22019.92805356592\\
138.92292128961236	22215.998373694365\\
139.72302974966308	22413.201196529622\\
140.5231382097138	22614.63328696724\\
141.32324666976453	22820.968532514416\\
142.12335512981525	23028.475271360254\\
142.9234635898666	23237.153503504924\\
};

\addplot [
color=black,
dashdotted
]
table[row sep=crcr]{
68.7302275517858	15879.502640223502\\
69.47965417843308	15719.783822167057\\
70.22908080508036	15568.72536126219\\
70.97850743172764	15425.727263276\\
71.72793405837491	15290.167759716578\\
72.47736068502219	15163.973442581453\\
73.22678731166947	15046.279947370347\\
73.97621393831675	14934.614535817402\\
74.72564056496402	14829.39996158294\\
75.4750671916113	14734.041544145492\\
76.22449381825858	14643.1664250006\\
76.97392044490586	14558.954668345286\\
77.72334707155314	14482.635189795523\\
78.47277369820041	14409.11994957574\\
79.22220032484769	14345.803439624247\\
79.97162695149497	14284.90014719166\\
80.72105357814225	14231.701993166016\\
81.47048020478952	14182.32827885268\\
82.2199068314368	14139.27457206421\\
82.96933345808408	14100.282743425267\\
83.71876008473136	14067.377800926322\\
84.46818671137864	14037.554842739999\\
85.21761333802591	14014.781207323977\\
85.96703996467319	13992.848781591605\\
86.71646659132047	13980.167221792914\\
87.46589321796775	13967.375588962117\\
88.21531984461502	13962.131177833005\\
88.9647464712623	13959.458074835187\\
89.71417309790958	13959.181311908253\\
90.46359972455686	13966.540329716725\\
91.21302635120414	13973.960565330317\\
91.96245297785141	13987.021718775875\\
92.71187960449869	14004.446093763978\\
93.46130623114597	14022.011888411069\\
94.21073285779325	14046.509437920746\\
94.96015948444052	14074.022358165274\\
95.7095861110878	14101.753270879492\\
96.45901273773508	14135.6550505911\\
97.20843936438236	14173.247042780393\\
97.95786599102964	14211.129971206929\\
98.70729261767691	14252.273169704451\\
99.45671924432419	14299.902099138399\\
100.20614587097147	14347.891279533973\\
100.95557249761875	14396.240710891174\\
101.70499912426602	14451.57351043763\\
102.4544257509133	14509.590517670522\\
103.20385237756058	14568.033461546258\\
103.95327900420786	14626.902342064846\\
104.70270563085514	14693.585039095735\\
105.45213225750241	14762.006779926669\\
106.20155888414969	14830.916514038514\\
106.95098551079697	14900.31424143127\\
107.70041213744425	14975.289389792399\\
108.44983876409152	15054.088971502542\\
109.1992653907388	15133.434974088495\\
109.94869201738608	15213.327397550267\\
110.69811864403336	15293.766241887848\\
111.44754527068064	15382.426789850328\\
112.19697189732791	15472.134990630468\\
112.94639852397519	15562.444410838152\\
113.69582515062247	15653.35505047339\\
114.44525177726975	15744.86690953618\\
115.19467840391702	15843.21432445517\\
115.9441050305643	15943.819493567742\\
116.69353165721158	16045.077051616445\\
117.44295828385886	16146.986998601273\\
118.19238491050614	16249.549334522226\\
118.94181153715341	16353.25846986834\\
119.69123816380069	16464.694520928373\\
120.44066479044797	16576.830501389948\\
121.19009141709525	16689.66641125307\\
121.93951804374252	16803.20225051773\\
122.6889446703898	16917.438019183934\\
123.43837129703708	17032.373717251685\\
124.18779792368436	17152.65800865103\\
124.93722455033163	17276.292101273713\\
125.68665117697891	17400.670034720195\\
126.43607780362619	17525.791808990478\\
127.18550443027347	17651.657424084555\\
127.93493105692075	17778.266880002433\\
128.68435768356804	17905.620176744105\\
129.43378431021532	18036.252707852917\\
130.1832109368626	18172.071013874804\\
130.93263756350987	18308.673443099586\\
131.68206419015715	18446.059995527256\\
132.43149081680443	18584.23067115781\\
133.1809174434517	18723.185469991262\\
133.93034407009898	18862.9243920276\\
134.67977069674626	19003.44743726683\\
135.42919732339354	19144.98104860222\\
136.17862395004082	19293.71430649229\\
136.9280505766881	19443.268340921175\\
137.67747720333537	19593.643151888893\\
138.42690382998265	19744.838739395425\\
139.17633045662993	19896.85510344078\\
139.9257570832772	20049.692244024955\\
140.67518370992448	20203.35016114795\\
141.42461033657176	20357.82885480977\\
142.17403696321904	20513.1283250104\\
142.9234635898666	20671.549087739775\\
};

\addplot [
color=black,
dashed
]
table[row sep=crcr]{
74.34798788217375	15879.502640223502\\
75.04066945497873	15742.916559403211\\
75.7333510277837	15611.687801883136\\
76.42603260058867	15485.25414915702\\
77.11871417339364	15368.519231927185\\
77.81139574619861	15255.945724921754\\
78.50407731900358	15147.896364527713\\
79.19675889180856	15048.466672885317\\
79.88944046461353	14951.816188989258\\
80.5821220374185	14862.131307541811\\
81.27480361022347	14777.090062816576\\
81.96748518302844	14696.190356210454\\
82.66016675583342	14621.912196483036\\
83.35284832863839	14549.830959035598\\
84.04552990144336	14485.422039751827\\
84.73821147424833	14422.176668986725\\
85.4308930470533	14366.695455211282\\
86.12357461985827	14312.287451858438\\
86.81625619266325	14264.744718274862\\
87.50893776546822	14219.15968627048\\
88.20161933827319	14178.518517181143\\
88.89430091107816	14141.726163667714\\
89.58698248388313	14106.90195299384\\
90.2796640566881	14078.856088320144\\
90.97234562949308	14050.594209682471\\
91.66502720229805	14029.355077322884\\
92.35770877510302	14009.846752132673\\
93.05039034790799	13991.965160596194\\
93.74307192071296	13981.129756149156\\
94.43575349351794	13970.213990377873\\
95.12843506632291	13963.105767683595\\
95.82111663912788	13960.83024527892\\
96.51379821193285	13958.538213671434\\
97.20647978473782	13960.623390717374\\
97.8991613575428	13966.917729374973\\
98.59184293034777	13973.256761485565\\
99.28452450315274	13982.85998840745\\
99.97720607595771	13997.710321956654\\
100.66988764876268	14012.663902149048\\
101.36256922156765	14028.01444832028\\
102.05525079437263	14051.383065399841\\
102.7479323671776	14074.910832847172\\
103.44061393998257	14098.597750662271\\
104.13329551278754	14125.967930936955\\
104.82597708559251	14158.005679621785\\
105.51865865839748	14190.255832933333\\
106.21134023120246	14222.7183908716\\
106.90402180400743	14259.813497371264\\
107.5967033768124	14300.536185505625\\
108.28938494961737	14341.52188306004\\
108.98206652242234	14382.770590034512\\
109.67474809522732	14427.136946943498\\
110.36742966803229	14476.52858878423\\
111.06011124083726	14526.231195372735\\
111.75279281364223	14576.244766709015\\
112.4454743864472	14626.56930279306\\
113.13815595925217	14683.282546490986\\
113.83083753205715	14741.651633317357\\
114.52351910486212	14800.376990753599\\
115.21620067766709	14859.45861879971\\
115.90888225047206	14918.896517455683\\
116.60156382327703	14984.796711640367\\
117.294245396082	15052.1489833273\\
117.98692696888698	15119.900182020578\\
118.67960854169195	15188.050307720197\\
119.37229011449692	15256.599360426162\\
120.06497168730189	15328.288116889657\\
120.75765326010686	15404.589571327775\\
121.45033483291184	15481.329959703095\\
122.1430164057168	15558.509282015608\\
122.83569797852178	15636.127538265326\\
123.52837955132675	15714.184728452241\\
124.22106112413172	15795.144909989545\\
124.9137426969367	15880.798094487614\\
125.60642426974167	15966.927570388118\\
126.29910584254664	16053.533337691057\\
126.99178741535161	16140.615396396432\\
127.68446898815658	16228.173746504244\\
128.37715056096155	16316.208388014495\\
129.06983213376654	16408.999781696963\\
129.76251370657153	16504.471625578302\\
130.4551952793765	16600.4544688617\\
131.1478768521815	16696.94831154715\\
131.84055842498648	16793.953153634648\\
132.53323999779147	16891.468995124204\\
133.22592157059646	16989.49583601581\\
133.91860314340144	17088.919650895732\\
134.61128471620643	17194.18251076846\\
135.3039662890114	17299.988428577235\\
135.9966478618164	17406.33740432206\\
136.68932943462138	17513.229438002938\\
137.38201100742637	17620.66452961987\\
138.07469258023136	17728.642679172848\\
138.76737415303634	17837.16388666188\\
139.46005572584133	17946.22815208697\\
140.15273729864631	18059.568668471264\\
140.8454188714513	18175.684196174327\\
141.5381004442563	18292.372190881822\\
142.23078201706127	18409.632652593744\\
142.9234635898666	18527.46558131016\\
};

\addplot [
color=black,
densely dashdotted
]
table[row sep=crcr]{
80.66440104686652	15879.502640223503\\
81.29328046649277	15765.044023266219\\
81.92215988611903	15652.721176495508\\
82.55103930574529	15547.277873445406\\
83.17991872537155	15444.843700713494\\
83.80879814499781	15346.925977867022\\
84.43767756462407	15253.708818013956\\
85.06655698425033	15163.341968097988\\
85.69543640387658	15078.636765620955\\
86.32431582350284	14995.83494991475\\
86.9531952431291	14918.903254968087\\
87.58207466275536	14843.66950330328\\
88.21095408238162	14773.739471698445\\
88.83983350200788	14706.065682459059\\
89.46871292163414	14642.332075664675\\
90.0975923412604	14582.199015787097\\
90.72647176088665	14523.823200928915\\
91.35535118051291	14471.200505901927\\
91.98423060013917	14418.214311329806\\
92.61311001976543	14372.156629627596\\
93.24198943939169	14326.695146709455\\
93.87086885901795	14284.109337997681\\
94.4997482786442	14246.118084085781\\
95.12862769827046	14207.873160911937\\
95.75750711789672	14175.46941725427\\
96.38638653752298	14144.681241270995\\
97.01526595714924	14113.69152830546\\
97.6441453767755	14090.280884642969\\
98.27302479640176	14066.719595122182\\
98.90190421602802	14043.558201794744\\
99.53078363565427	14027.333748245583\\
100.15966305528053	14011.00645654972\\
100.78854247490679	13994.576326707162\\
101.41742189453305	13985.317833115334\\
102.04630131415931	13976.214953435398\\
102.67518073378557	13967.055802164634\\
103.30406015341183	13962.822781276878\\
103.93293957303808	13960.91803063243\\
104.56181899266434	13959.001719711769\\
105.1906984122906	13958.33805172627\\
105.81957783191686	13963.588449965462\\
106.44845725154312	13968.87014400177\\
107.07733667116938	13974.183133835197\\
107.70621609079564	13982.598790230546\\
108.3350955104219	13995.016956659267\\
108.96397493004815	14007.507419717174\\
109.59285434967441	14020.070179404262\\
110.22173376930067	14035.697856280323\\
110.85061318892693	14055.28570758545\\
111.47949260855319	14074.98500111056\\
112.10837202817945	14094.795736855649\\
112.7372514478057	14115.656815836071\\
113.36613086743196	14142.39400580924\\
113.99501028705822	14169.27992835191\\
114.62388970668448	14196.31458346409\\
115.25276912631074	14223.497971145778\\
115.881648545937	14254.163051233954\\
116.51052796556326	14288.191138449325\\
117.13940738518951	14322.403393342453\\
117.76828680481577	14356.799815913346\\
118.39716622444203	14391.380406161998\\
119.02604564406829	14429.339465248951\\
119.65492506369455	14470.660737441645\\
120.28380448332081	14512.199757179093\\
120.91268390294707	14553.956524461284\\
121.54156332257332	14595.931039288223\\
122.17044274219958	14638.507083550681\\
122.79932216182584	14687.095999836789\\
123.4282015814521	14735.934388293355\\
124.05708100107836	14785.02224892039\\
124.68596042070462	14834.359581717885\\
125.31483984033088	14883.946386685844\\
125.94371925995713	14934.51183649483\\
126.5725986795834	14990.594368926282\\
127.20147809920965	15046.956242912649\\
127.83035751883591	15103.59745845392\\
128.45923693846217	15160.518015550104\\
129.08811635808843	15217.717914201197\\
129.7169957777147	15275.197154407198\\
130.34587519734094	15336.439473869552\\
130.9747546169672	15400.297808308773\\
131.60363403659346	15464.463498446079\\
132.23251345621972	15528.936544281474\\
132.86139287584598	15593.71694581495\\
133.49027229547224	15658.804703046515\\
134.1191517150985	15724.199815976168\\
134.74803113472476	15792.129859376677\\
135.376910554351	15863.757749448952\\
136.00578997397727	15935.71915412122\\
136.63466939360353	16008.01407339348\\
137.2635488132298	16080.642507265731\\
137.89242823285605	16153.604455737981\\
138.5213076524823	16226.899918810217\\
139.15018707210857	16300.528896482449\\
139.77906649173482	16376.569099164262\\
140.40794591136108	16456.27915668884\\
141.03682533098734	16536.34703247405\\
141.6657047506136	16616.772726519885\\
142.29458417023986	16697.55623882635\\
142.9234635898666	16778.697569393502\\
};

\addplot [
color=black,
densely dotted
]
table[row sep=crcr]{
59.21372732324278	30727.304225011656\\
60.05928021482484	30626.37912784616\\
60.9048331064069	30451.475959806186\\
61.75038599798896	30216.559700118312\\
62.595938889571016	29935.595328009156\\
63.441491781153076	29622.547822705303\\
64.28704467273514	29291.382163433358\\
65.1325975643172	28956.06332941992\\
65.97815045589925	28630.5562998916\\
66.82370334748131	28328.82605407499\\
67.66925623906337	28064.83757119668\\
68.51480913064543	27852.55583048329\\
69.36036202222749	27705.945811161404\\
70.20591491380955	27638.972492457622\\
71.05146780539161	27612.350855137425\\
71.89702069697367	27514.95549932695\\
72.74257358855573	27353.99226789777\\
73.58812648013779	27141.74473031497\\
74.43367937171985	26890.496456043642\\
75.2792322633019	26612.531014548862\\
76.12478515488397	26320.131975295713\\
76.97033804646603	26025.582907749274\\
77.81589093804808	25741.16738137463\\
78.66144382963014	25479.168965636873\\
79.5069967212122	25251.871230001067\\
80.35254961279426	25071.55774393231\\
81.19810250437632	24950.512076895677\\
82.04365539595838	24901.017798356253\\
82.88920828754044	24872.138531933\\
83.7347611791225	24778.56220343861\\
84.58031407070456	24630.10930533574\\
85.42586696228662	24437.64075042009\\
86.27141985386868	24212.017451487358\\
87.11697274545074	23964.100321333244\\
87.9625256370328	23704.750272753437\\
88.80807852861486	23444.828218543655\\
89.65363142019692	23195.195071499573\\
90.49918431177898	22966.71174441692\\
91.34473720336103	22770.23915009137\\
92.1902900949431	22616.63820131863\\
93.03584298652515	22516.769810894402\\
93.88139587810721	22481.489743552527\\
94.72694876968927	22449.248610637103\\
95.57250166127133	22360.061025264567\\
96.41805455285339	22223.529613310926\\
97.26360744443545	22049.25700065219\\
98.10916033601751	21846.845813164367\\
98.95471322759957	21625.89867672346\\
99.80026611918163	21396.018217205496\\
100.64581901076369	21166.807060486477\\
101.49137190234575	20947.867832442407\\
102.3369247939278	20748.803158949308\\
103.18247768550987	20579.215665883174\\
104.02803057709193	20448.70797912003\\
104.87358346867398	20366.88272453588\\
105.71913636025604	20342.266788305264\\
106.5646892518381	20307.14353720742\\
107.41024214342016	20222.709800729503\\
108.25579503500222	20097.455768889984\\
109.10134792658428	19939.87163170733\\
109.94690081816634	19758.447579200027\\
110.7924537097484	19561.673801386532\\
111.63800660133046	19358.04048828533\\
112.48355949291252	19156.037829914883\\
113.32911238449458	18964.15601629367\\
114.17466527607664	18790.88523744016\\
115.0202181676587	18644.715683372837\\
115.86577105924076	18534.137544110155\\
116.71132395082282	18467.641009670602\\
117.55687684240488	18450.176633014275\\
118.40242973398693	18413.881920879958\\
119.247982625569	18335.484467857652\\
120.09353551715105	18222.389462400017\\
120.93908840873311	18082.00209295972\\
121.78464130031517	17921.727547989423\\
122.63019419189723	17748.971015941792\\
123.47574708347929	17571.13768526949\\
124.32129997506135	17395.632744425187\\
125.16685286664341	17229.861381861545\\
126.01240575822547	17081.228786031224\\
126.85795864980753	16957.14014538689\\
127.70351154138959	16865.000648381218\\
128.54906443297165	16812.215483466858\\
129.3946173245537	16799.272908098195\\
130.24017021613577	16761.336572986307\\
131.08572310771783	16686.051257185478\\
131.93127599929988	16580.130527552355\\
132.77682889088194	16450.28795094359\\
133.622381782464	16303.237094215834\\
134.46793467404606	16145.691524225735\\
135.31348756562812	15984.364807829934\\
136.15904045721018	15825.970511885102\\
137.00459334879224	15677.222203247871\\
137.8501462403743	15544.833448774896\\
138.69569913195636	15435.517815322833\\
139.54125202353842	15355.988869748322\\
140.38680491512048	15312.960178908026\\
141.23235780670254	15301.946264097242\\
142.0779106982846	15261.760519027845\\
142.9234635898666	15187.331771594094\\
};

\addplot [
color=black,
dashdotdotted
]
table[row sep=crcr]{
63.71272604484442	27888.41572830773\\
64.51283450489515	27690.331765375635\\
65.31294296494588	27493.508517618655\\
66.1130514249966	27299.008373858684\\
66.91315988504732	27107.893722917608\\
67.71326834509804	26921.226953617355\\
68.51337680514877	26740.070454779794\\
69.31348526519949	26565.44696420164\\
70.11359372525021	26395.506978703663\\
70.91370218530093	26228.61792591487\\
71.71381064535166	26064.587121644065\\
72.51391910540238	25903.221881700047\\
73.3140275654531	25744.329521891646\\
74.11413602550383	25587.71735802765\\
74.91424448555455	25433.192705916874\\
75.71435294560527	25280.562881368125\\
76.514461405656	25129.635200190205\\
77.31456986570672	24980.216978191922\\
78.11467832575744	24832.115531182084\\
78.91478678580816	24685.138174969507\\
79.71489524585888	24539.092225362983\\
80.5150037059096	24393.78499817133\\
81.31511216596033	24249.468243240713\\
82.11522062601105	24107.161330847193\\
82.91532908606177	23966.760728180794\\
83.7154375461125	23828.09631896222\\
84.51554600616322	23690.997986912163\\
85.31565446621394	23555.295615751304\\
86.11576292626467	23420.81908920034\\
86.91587138631539	23287.398290979963\\
87.71597984636611	23154.86310481087\\
88.51608830641683	23023.043414413733\\
89.31619676646756	22891.76910350926\\
90.11630522651828	22760.870055818134\\
90.916413686569	22630.176155061054\\
91.71652214661972	22499.517284958707\\
92.51663060667045	22368.785702139186\\
93.31673906672117	22238.78262957656\\
94.11684752677189	22109.71316279496\\
94.91695598682261	21981.462515711042\\
95.71706444687334	21853.91590224149\\
96.51717290692406	21726.95853630295\\
97.31728136697478	21600.4756318121\\
98.1173898270255	21474.3524026856\\
98.91749828707623	21348.474062840127\\
99.71760674712695	21222.72582619232\\
100.51771520717767	21096.992906658874\\
101.3178236672284	20971.160518156434\\
102.11793212727912	20845.11387460168\\
102.91804058732984	20718.738189911266\\
103.71814904738056	20591.918678001864\\
104.51825750743129	20464.32275612813\\
105.31836596748201	20335.720346780523\\
106.11847442753273	20206.3530625674\\
106.91858288758345	20076.46663606426\\
107.71869134763418	19946.306799846596\\
108.5187998076849	19816.119286489913\\
109.31890826773562	19686.14982856971\\
110.11901672778635	19556.644158661482\\
110.91912518783707	19427.84800934072\\
111.71923364788779	19300.007113182925\\
112.51934210793851	19173.36720276361\\
113.31945056798924	19048.17401065826\\
114.11955902803996	18924.673269442374\\
114.91966748809068	18803.110711691446\\
115.7197759481414	18683.619519047257\\
116.51988440819213	18565.58552817694\\
117.31999286824285	18448.831549141483\\
118.12010132829357	18333.305774881803\\
118.9202097883443	18218.956398338833\\
119.72031824839502	18105.731612453485\\
120.52042670844574	17993.579610166697\\
121.32053516849646	17882.448584419384\\
122.12064362854719	17772.286728152474\\
122.92075208859791	17663.042234306886\\
123.72086054864863	17554.663295823553\\
124.52096900869935	17447.098105643396\\
125.32107746875008	17340.294856707333\\
126.1211859288008	17234.2017419563\\
126.92129438885152	17128.7676481675\\
127.72140284890224	17024.172908681354\\
128.52151130895297	16920.56050468403\\
129.3216197690037	16817.89143411504\\
130.1217282290544	16716.126694913935\\
130.92183668910513	16615.22728502024\\
131.72194514915586	16515.15420237349\\
132.52205360920658	16415.868444913212\\
133.3221620692573	16317.331010578942\\
134.12227052930803	16219.502897310216\\
134.92237898935875	16122.345103046559\\
135.72248744940947	16025.818625727497\\
136.5225959094602	15929.884463292577\\
137.32270436951092	15834.503613681323\\
138.12281282956164	15739.637074833263\\
138.92292128961236	15645.368468690622\\
139.72302974966308	15552.06922034422\\
140.5231382097138	15459.687157934124\\
141.32324666976453	15368.130930804535\\
142.12335512981525	15277.309188299634\\
142.9234635898666	15187.130579763545\\
};

\addplot [
color=black,
densely dashdotdetted
]
table[row sep=crcr]{
68.7302275517858	23696.214133905312\\
69.47965417843308	23554.705041931906\\
70.22908080508036	23413.879646199326\\
70.97850743172764	23273.83464337076\\
71.72793405837491	23134.666730109373\\
72.47736068502219	22996.472603078357\\
73.22678731166947	22859.34895894089\\
73.97621393831675	22723.392494360138\\
74.72564056496402	22588.699905999296\\
75.4750671916113	22455.36789052154\\
76.22449381825858	22323.493144590044\\
76.97392044490586	22193.17236486799\\
77.72334707155314	22064.50224801856\\
78.47277369820041	21937.579490704935\\
79.22220032484769	21812.50078959029\\
79.97162695149497	21689.337717570168\\
80.72105357814225	21568.034778327863\\
81.47048020478952	21448.497051830916\\
82.2199068314368	21330.629627200597\\
82.96933345808408	21214.337593558186\\
83.71876008473136	21099.526040024935\\
84.46818671137864	20986.10005572214\\
85.21761333802591	20873.96472977105\\
85.96703996467319	20763.02515129295\\
86.71646659132047	20653.1864094091\\
87.46589321796775	20544.353593240783\\
88.21531984461502	20436.431791909257\\
88.9647464712623	20329.3260945358\\
89.71417309790958	20222.941590241688\\
90.46359972455686	20117.183368148177\\
91.21302635120414	20012.18911233535\\
91.96245297785141	19908.430401145655\\
92.71187960449869	19805.866747313463\\
93.46130623114597	19704.434679744892\\
94.21073285779325	19604.070727346058\\
94.96015948444052	19504.711419023075\\
95.7095861110878	19406.293283682055\\
96.45901273773508	19308.752850229117\\
97.20843936438236	19212.026647570372\\
97.95786599102964	19116.051204611926\\
98.70729261767691	19020.76305025991\\
99.45671924432419	18926.098713420433\\
100.20614587097147	18831.9947229996\\
100.95557249761875	18738.38760790353\\
101.70499912426602	18645.213897038342\\
102.4544257509133	18552.435237907037\\
103.20385237756058	18460.125597147533\\
103.95327900420786	18368.334300418926\\
104.70270563085514	18277.1050861055\\
105.45213225750241	18186.481692591497\\
106.20155888414969	18096.507858261197\\
106.95098551079697	18007.227321498867\\
107.70041213744425	17918.683820688773\\
108.44983876409152	17830.92109421518\\
109.1992653907388	17743.982880462354\\
109.94869201738608	17657.912917814567\\
110.69811864403336	17572.754944656073\\
111.44754527068064	17488.552699371157\\
112.19697189732791	17405.34992034407\\
112.94639852397519	17323.190345959087\\
113.69582515062247	17242.111404759675\\
114.44525177726975	17162.09081224164\\
115.19467840391702	17083.089018041155\\
115.9441050305643	17005.06867666915\\
116.69353165721158	16927.99244263657\\
117.44295828385886	16851.82297045435\\
118.19238491050614	16776.522914633413\\
118.94181153715341	16702.054929684713\\
119.69123816380069	16628.381670119175\\
120.44066479044797	16555.465790447746\\
121.19009141709525	16483.269945181353\\
121.93951804374252	16411.75678883093\\
122.6889446703898	16340.888975907425\\
123.43837129703708	16270.629160921766\\
124.18779792368436	16200.939998384893\\
124.93722455033163	16131.813598830067\\
125.68665117697891	16063.482056245277\\
126.43607780362619	15995.97526934184\\
127.18550443027347	15929.258717573906\\
127.93493105692075	15863.297880395628\\
128.68435768356804	15798.058237261157\\
129.43378431021532	15733.505267624636\\
130.1832109368626	15669.604450940227\\
130.93263756350987	15606.321266662075\\
131.68206419015715	15543.621194244331\\
132.43149081680443	15481.469713141141\\
133.1809174434517	15419.832302806668\\
133.93034407009898	15358.67444269505\\
134.67977069674626	15297.961612260442\\
135.42919732339354	15237.659290957003\\
136.17862395004082	15177.748616344838\\
136.9280505766881	15118.465517486466\\
137.67747720333537	15059.867422397814\\
138.42690382998265	15001.911791406208\\
139.17633045662993	14944.556084839\\
139.9257570832772	14887.757763023514\\
140.67518370992448	14831.474286287095\\
141.42461033657176	14775.663114957071\\
142.17403696321904	14720.281709360788\\
142.9234635898666	14665.287529825553\\
};

\addplot [
color=black,
loosely dashed
]
table[row sep=crcr]{
74.34798788217375	19958.547821566142\\
75.04066945497873	19847.509708020876\\
75.7333510277837	19738.210961742312\\
76.42603260058867	19630.883185059378\\
77.11871417339364	19525.75798030099\\
77.81139574619861	19423.066949796066\\
78.50407731900358	19322.70987083439\\
79.19675889180856	19224.269558049364\\
79.88944046461353	19127.63762553501\\
80.5821220374185	19032.707485926807\\
81.27480361022347	18939.372551860208\\
81.96748518302844	18847.526235970694\\
82.66016675583342	18757.06195089373\\
83.35284832863839	18667.873109264783\\
84.04552990144336	18579.85312371933\\
84.73821147424833	18492.895406892825\\
85.4308930470533	18406.893371420752\\
86.12357461985827	18321.740429938574\\
86.81625619266325	18237.329995081753\\
87.50893776546822	18153.555479485767\\
88.20161933827319	18070.310295786076\\
88.89430091107816	17987.48785661816\\
89.58698248388313	17905.33964175172\\
90.2796640566881	17824.365060079323\\
90.97234562949308	17744.503338983443\\
91.66502720229805	17665.68553836632\\
92.35770877510302	17587.842718130232\\
93.05039034790799	17510.90593817743\\
93.74307192071296	17434.80625841018\\
94.43575349351794	17359.474738730732\\
95.12843506632291	17284.842439041364\\
95.82111663912788	17210.840419244316\\
96.51379821193285	17137.39973924186\\
97.20647978473782	17064.45145893625\\
97.8991613575428	16991.926638229754\\
98.59184293034777	16919.756337024624\\
99.28452450315274	16847.871615223117\\
99.97720607595771	16776.203532727504\\
100.66988764876268	16704.827604578986\\
101.36256922156765	16633.994944443337\\
102.05525079437263	16563.702758239364\\
102.7479323671776	16493.940639910714\\
103.44061393998257	16424.69818340103\\
104.13329551278754	16355.964982653955\\
104.82597708559251	16287.730631613136\\
105.51865865839748	16219.98472422221\\
106.21134023120246	16152.716854424827\\
106.90402180400743	16085.916616164628\\
107.5967033768124	16019.573603385254\\
108.28938494961737	15953.677410030348\\
108.98206652242234	15888.217630043559\\
109.67474809522732	15823.183857368524\\
110.36742966803229	15758.565685948895\\
111.06011124083726	15694.352709728306\\
111.75279281364223	15630.544343079271\\
112.4454743864472	15567.161733408171\\
113.13815595925217	15504.21041296512\\
113.83083753205715	15441.694996205959\\
114.52351910486212	15379.620097586547\\
115.21620067766709	15317.99033156273\\
115.90888225047206	15256.810312590367\\
116.60156382327703	15196.084655125309\\
117.294245396082	15135.817973623398\\
117.98692696888698	15076.01488254049\\
118.67960854169195	15016.679996332445\\
119.37229011449692	14957.817929455108\\
120.06497168730189	14899.433296364328\\
120.75765326010686	14841.53071151596\\
121.45033483291184	14784.114789365856\\
122.1430164057168	14727.190144369859\\
122.83569797852178	14670.7681815385\\
123.52837955132675	14614.866394415607\\
124.22106112413172	14559.475801894923\\
124.9137426969367	14504.585858418974\\
125.60642426974167	14450.186018430279\\
126.29910584254664	14396.265736371355\\
126.99178741535161	14342.814466684735\\
127.68446898815658	14289.821663812934\\
128.37715056096155	14237.276782198473\\
129.06983213376654	14185.169276283872\\
129.76251370657153	14133.488600511664\\
130.4551952793765	14082.224209324362\\
131.1478768521815	14031.365557164485\\
131.84055842498648	13980.902098474566\\
132.53323999779147	13930.823287697116\\
133.22592157059646	13881.118579274666\\
133.91860314340144	13831.82514127294\\
134.61128471620643	13783.094745420798\\
135.3039662890114	13734.909071874128\\
135.9966478618164	13687.23353706744\\
136.68932943462138	13640.03355743524\\
137.38201100742637	13593.274549412024\\
138.07469258023136	13546.921929432312\\
138.76737415303634	13500.9411139306\\
139.46005572584133	13455.2975193414\\
140.15273729864631	13409.956562099214\\
140.8454188714513	13364.883658638548\\
141.5381004442563	13320.044225393909\\
142.23078201706127	13275.403678799807\\
142.9234635898666	13230.927435290712\\
};

\addplot [
color=black,
loosely dashdotted
]
table[row sep=crcr]{
80.66440104686652	16259.239338314688\\
81.29328046649277	16180.540583972337\\
81.92215988611903	16102.45901153318\\
82.55103930574529	16025.033477284469\\
83.17991872537155	15948.30283751343\\
83.80879814499781	15872.305948507306\\
84.43767756462407	15797.081666553338\\
85.06655698425033	15722.66884793876\\
85.69543640387658	15649.10634895081\\
86.32431582350284	15576.43302587673\\
86.9531952431291	15504.68773500375\\
87.58207466275536	15433.88042940483\\
88.21095408238162	15363.829058399828\\
88.83983350200788	15294.502067967085\\
89.46871292163414	15225.908466359231\\
90.0975923412604	15158.057261828879\\
90.72647176088665	15090.957462628652\\
91.35535118051291	15024.618077011175\\
91.98423060013917	14959.048113229068\\
92.61311001976543	14894.256579534953\\
93.24198943939169	14830.252484181452\\
93.87086885901795	14767.044835421184\\
94.4997482786442	14704.642641506776\\
95.12862769827046	14643.054910690844\\
95.75750711789672	14582.290651226012\\
96.38638653752298	14522.358871364902\\
97.01526595714924	14463.268579360134\\
97.6441453767755	14405.028783464335\\
98.27302479640176	14347.650533513315\\
98.90190421602802	14291.359221089493\\
99.53078363565427	14236.248308352284\\
100.15966305528053	14182.239862532386\\
100.78854247490679	14129.255950860499\\
101.41742189453305	14077.218640567318\\
102.04630131415931	14026.049998883547\\
102.67518073378557	13975.672093039877\\
103.30406015341183	13926.006990267015\\
103.93293957303808	13876.976757795652\\
104.56181899266434	13828.503462856494\\
105.1906984122906	13780.509172680231\\
105.81957783191686	13732.915954497565\\
106.44845725154312	13685.645875539192\\
107.07733667116938	13638.621003035816\\
107.70621609079564	13591.76340421813\\
108.3350955104219	13544.995146316836\\
108.96397493004815	13498.238296562631\\
109.59285434967441	13451.559415028172\\
110.22173376930067	13405.269671458336\\
110.85061318892693	13359.376516930113\\
111.47949260855319	13313.872055936918\\
112.10837202817945	13268.748392972158\\
112.7372514478057	13223.99763252926\\
113.36613086743196	13179.611879101609\\
113.99501028705822	13135.583237182636\\
114.62388970668448	13091.903811265744\\
115.25276912631074	13048.565705844352\\
115.881648545937	13005.561025411856\\
116.51052796556326	12962.881874461684\\
117.13940738518951	12920.520357487238\\
117.76828680481577	12878.468578981927\\
118.39716622444203	12836.718643439168\\
119.02604564406829	12795.262655352366\\
119.65492506369455	12754.09271921494\\
120.28380448332081	12713.208199818328\\
120.91268390294707	12672.668927773539\\
121.54156332257332	12632.483551409987\\
122.17044274219958	12592.6441302686\\
122.79932216182584	12553.142723890316\\
123.4282015814521	12513.971391816063\\
124.05708100107836	12475.122193586769\\
124.68596042070462	12436.587188743371\\
125.31483984033088	12398.358436826802\\
125.94371925995713	12360.427997377989\\
126.5725986795834	12322.78792993787\\
127.20147809920965	12285.430294047374\\
127.83035751883591	12248.347149247427\\
128.45923693846217	12211.530555078969\\
129.08811635808843	12174.97257108293\\
129.7169957777147	12138.66525680024\\
130.34587519734094	12102.600671771832\\
130.9747546169672	12066.77089513137\\
131.60363403659346	12031.180197149779\\
132.23251345621972	11995.839729291032\\
132.86139287584598	11960.754328456795\\
133.49027229547224	11925.928831548732\\
134.1191517150985	11891.368075468501\\
134.74803113472476	11857.07689711777\\
135.376910554351	11823.060133398194\\
136.00578997397727	11789.322621211442\\
136.63466939360353	11755.869197459175\\
137.2635488132298	11722.704699043052\\
137.89242823285605	11689.833962864739\\
138.5213076524823	11657.261825825897\\
139.15018707210857	11624.99312482819\\
139.77906649173482	11593.03269677328\\
140.40794591136108	11561.385378562827\\
141.03682533098734	11530.056007098494\\
141.6657047506136	11499.049419281946\\
142.29458417023986	11468.457417245716\\
142.9234635898666	11438.505520746055\\
};
\end{axis}
\end{tikzpicture}%
