%Drag_and_Thrust_curves_altitudes_PHI_0.95
\begin{tikzpicture}

\begin{axis}[
width=\figurewidth,
height=\figureheight,
scaled ticks=false, tick label style={/pgf/number format/fixed},
xmin=59.21372732324278,
xmax=142.9234635898666,
xlabel={Speed ((m/s))},
xmajorgrids,
ymin=13957.732923926975,
ymax=38921.252018348096,
ylabel={Forces ((N))},
ymajorgrids,
legend style={at={(1.03,0.5)},anchor=west,draw=black,fill=white,legend cell align=left}
]

\addplot [
color=black,
solid
]
table[row sep=crcr]{
59.21372732324278	15879.502640223502\\
60.05928021482484	15670.460367086605\\
60.9048331064069	15477.654494555029\\
61.75038599798896	15299.104618973435\\
62.595938889571016	15134.06765931433\\
63.441491781153076	14982.692885136821\\
64.28704467273514	14844.450376585915\\
65.1325975643172	14718.196493537558\\
65.97815045589925	14603.12032486226\\
66.82370334748131	14498.37361571998\\
67.66925623906337	14403.070767560155\\
68.51480913064543	14319.954154950186\\
69.36036202222749	14246.906495978234\\
70.20591491380955	14181.26804352468\\
71.05146780539161	14124.792430614549\\
71.89702069697367	14079.128298383286\\
72.74257358855573	14038.608431991333\\
73.58812648013779	14008.75565490191\\
74.43367937171985	13985.599370323522\\
75.2792322633019	13968.886790442806\\
76.12478515488397	13961.619957279208\\
76.97033804646603	13958.109007526045\\
77.81589093804808	13965.145464246842\\
78.66144382963014	13974.860233829522\\
79.5069967212122	13994.50178777267\\
80.35254961279426	14017.429022188964\\
81.19810250437632	14047.865449560784\\
82.04365539595838	14083.95455059789\\
82.88920828754044	14123.263596473073\\
83.7347611791225	14172.426622207662\\
84.58031407070456	14222.088615032062\\
85.42586696228662	14280.68566532746\\
86.27141985386868	14343.415174694024\\
87.11697274545074	14406.76252862897\\
87.9625256370328	14482.05090603683\\
88.80807852861486	14558.409576744572\\
89.65363142019692	14635.50014397474\\
90.49918431177898	14724.657710496796\\
91.34473720336103	14814.652204689095\\
92.1902900949431	14905.483626551635\\
93.03584298652515	15005.468377208064\\
93.88139587810721	15109.049341462482\\
94.72694876968927	15213.567439010434\\
95.57250166127133	15321.10911127644\\
96.41805455285339	15438.171176604717\\
97.26360744443545	15556.264356898071\\
98.10916033601751	15675.388652156498\\
98.95471322759957	15798.251806260881\\
99.80026611918163	15929.752460793805\\
100.64581901076369	16062.371988011584\\
101.49137190234575	16196.110387914217\\
102.3369247939278	16330.967660501712\\
103.18247768550987	16475.758649035717\\
104.02803057709193	16622.84396664232\\
104.87358346867398	16771.129690701797\\
105.71913636025604	16920.61582121416\\
106.5646892518381	17071.302358179404\\
107.41024214342016	17232.554525260857\\
108.25579503500222	17395.246105568734\\
109.10134792658428	17559.213402145757\\
109.94690081816634	17724.456414991928\\
110.7924537097484	17890.975144107244\\
111.63800660133046	18062.661678195804\\
112.48355949291252	18240.887761556187\\
113.32911238449458	18420.45864705023\\
114.17466527607664	18601.374334677927\\
115.0202181676587	18783.63482443928\\
115.86577105924076	18967.240116334284\\
116.71132395082282	19152.764225824187\\
117.55687684240488	19347.767357358363\\
118.40242973398693	19544.17815293894\\
119.247982625569	19741.996612565934\\
120.09353551715105	19941.22273623932\\
120.93908840873311	20141.85652395911\\
121.78464130031517	20343.897975725315\\
122.63019419189723	20547.34709153792\\
123.47574708347929	20757.842129113993\\
124.32129997506135	20972.405710557246\\
125.16685286664341	21188.4335940079\\
126.01240575822547	21405.925779465953\\
126.85795864980753	21624.882266931403\\
127.70351154138959	21845.30305640425\\
128.54906443297165	22067.188147884495\\
129.3946173245537	22290.537541372138\\
130.24017021613577	22515.351236867184\\
131.08572310771783	22749.204921759396\\
131.93127599929988	22984.788091754173\\
132.77682889088194	23221.88597776558\\
133.622381782464	23460.498579793617\\
134.46793467404606	23700.625897838294\\
135.31348756562812	23942.267931899598\\
136.15904045721018	24185.424681977544\\
137.00459334879224	24430.09614807212\\
137.8501462403743	24676.28233018332\\
138.69569913195636	24923.98322831116\\
139.54125202353842	25176.697925499248\\
140.38680491512048	25434.743018018227\\
141.23235780670254	25694.34701661133\\
142.0779106982846	25955.509921278528\\
142.9234635898666	26218.23173201983\\
};

\addplot [
color=black,
densely dashed
]
table[row sep=crcr]{
63.71272604484442	15879.502640223503\\
64.51283450489515	15695.635297639481\\
65.31294296494588	15523.805968256327\\
66.1130514249966	15363.393255954503\\
66.91315988504732	15213.74688269465\\
67.71326834509804	15074.187688517482\\
68.51337680514877	14944.007631543833\\
69.31348526519949	14822.848453633778\\
70.11359372525021	14713.786519046811\\
70.91370218530093	14612.49542819046\\
71.71381064535166	14518.166052465931\\
72.51391910540238	14433.160324075276\\
73.3140275654531	14357.215438166435\\
74.11413602550383	14286.37366394413\\
74.91424448555455	14225.077629144074\\
75.71435294560527	14170.502958214587\\
76.514461405656	14120.758217670915\\
77.31456986570672	14081.267210678305\\
78.11467832575744	14043.653535961643\\
78.91478678580816	14017.469840168123\\
79.71489524585888	13992.418095986994\\
80.5150037059096	13977.798737837302\\
81.31511216596033	13963.88961582332\\
82.11522062601105	13960.826267159555\\
82.91532908606177	13957.732923926975\\
83.7154375461125	13965.009263929014\\
84.51554600616322	13973.545915496132\\
85.31565446621394	13988.689036260248\\
86.11576292626467	14008.784776976061\\
86.91587138631539	14030.09136458827\\
87.71597984636611	14061.646406881868\\
88.51608830641683	14093.490599821444\\
89.31619676646756	14130.212176049105\\
90.11630522651828	14173.483755507308\\
90.916413686569	14217.141240043135\\
91.71652214661972	14266.984528546594\\
92.51663060667045	14321.99897531536\\
93.31673906672117	14377.491267940068\\
94.11684752677189	14437.989700860326\\
94.91695598682261	14504.73002220578\\
95.71706444687334	14572.03531653218\\
96.51717290692406	14640.54903449089\\
97.31728136697478	14718.954914799308\\
98.1173898270255	14798.008081560363\\
98.91749828707623	14877.708534774049\\
99.71760674712695	14961.69173443766\\
100.51771520717767	15052.384321486497\\
101.3178236672284	15143.801694806347\\
102.11793212727912	15235.943854397203\\
102.91804058732984	15331.878857493448\\
103.71814904738056	15434.85656223943\\
104.51825750743129	15538.631739421484\\
105.31836596748201	15643.2043890396\\
106.11847442753273	15748.574511093788\\
106.91858288758345	15862.488167657379\\
107.71869134763418	15978.556982165264\\
108.5187998076849	16095.491141620965\\
109.31890826773562	16213.290646024478\\
110.11901672778635	16331.9554953758\\
110.91912518783707	16459.174079078926\\
111.71923364788779	16588.34300434274\\
112.51934210793851	16718.44033341279\\
113.31945056798924	16849.466066289086\\
114.11955902803996	16981.42020297162\\
114.91966748809068	17116.836758688103\\
115.7197759481414	17259.042590902132\\
116.51988440819213	17402.235072127514\\
117.31999286824285	17546.414202364256\\
118.12010132829357	17691.57998161235\\
118.9202097883443	17837.7324098718\\
119.72031824839502	17984.871487142605\\
120.52042670844574	18140.909067098422\\
121.32053516849646	18298.09655878354\\
122.12064362854719	18456.32413103181\\
122.92075208859791	18615.591783843243\\
123.72086054864863	18775.899517217826\\
124.52096900869935	18937.247331155562\\
125.32107746875008	19099.635225656453\\
126.1211859288008	19268.819902966545\\
126.92129438885152	19440.975912311525\\
127.72140284890224	19614.22062011815\\
128.52151130895297	19788.554026386402\\
129.3216197690037	19963.976131116302\\
130.1217282290544	20140.48693430783\\
130.92183668910513	20318.086435961006\\
131.72194514915586	20496.77463607582\\
132.52205360920658	20679.14588845737\\
133.3221620692573	20867.288689638164\\
134.12227052930803	21056.563993525775\\
134.92237898935875	21246.971800120187\\
135.72248744940947	21438.512109421412\\
136.5225959094602	21631.18492142944\\
137.32270436951092	21824.99023614428\\
138.12281282956164	22019.92805356592\\
138.92292128961236	22215.998373694365\\
139.72302974966308	22413.201196529622\\
140.5231382097138	22614.63328696724\\
141.32324666976453	22820.968532514416\\
142.12335512981525	23028.475271360254\\
142.9234635898666	23237.153503504924\\
};

\addplot [
color=black,
dashdotted
]
table[row sep=crcr]{
68.7302275517858	15879.502640223502\\
69.47965417843308	15719.783822167057\\
70.22908080508036	15568.72536126219\\
70.97850743172764	15425.727263276\\
71.72793405837491	15290.167759716578\\
72.47736068502219	15163.973442581453\\
73.22678731166947	15046.279947370347\\
73.97621393831675	14934.614535817402\\
74.72564056496402	14829.39996158294\\
75.4750671916113	14734.041544145492\\
76.22449381825858	14643.1664250006\\
76.97392044490586	14558.954668345286\\
77.72334707155314	14482.635189795523\\
78.47277369820041	14409.11994957574\\
79.22220032484769	14345.803439624247\\
79.97162695149497	14284.90014719166\\
80.72105357814225	14231.701993166016\\
81.47048020478952	14182.32827885268\\
82.2199068314368	14139.27457206421\\
82.96933345808408	14100.282743425267\\
83.71876008473136	14067.377800926322\\
84.46818671137864	14037.554842739999\\
85.21761333802591	14014.781207323977\\
85.96703996467319	13992.848781591605\\
86.71646659132047	13980.167221792914\\
87.46589321796775	13967.375588962117\\
88.21531984461502	13962.131177833005\\
88.9647464712623	13959.458074835187\\
89.71417309790958	13959.181311908253\\
90.46359972455686	13966.540329716725\\
91.21302635120414	13973.960565330317\\
91.96245297785141	13987.021718775875\\
92.71187960449869	14004.446093763978\\
93.46130623114597	14022.011888411069\\
94.21073285779325	14046.509437920746\\
94.96015948444052	14074.022358165274\\
95.7095861110878	14101.753270879492\\
96.45901273773508	14135.6550505911\\
97.20843936438236	14173.247042780393\\
97.95786599102964	14211.129971206929\\
98.70729261767691	14252.273169704451\\
99.45671924432419	14299.902099138399\\
100.20614587097147	14347.891279533973\\
100.95557249761875	14396.240710891174\\
101.70499912426602	14451.57351043763\\
102.4544257509133	14509.590517670522\\
103.20385237756058	14568.033461546258\\
103.95327900420786	14626.902342064846\\
104.70270563085514	14693.585039095735\\
105.45213225750241	14762.006779926669\\
106.20155888414969	14830.916514038514\\
106.95098551079697	14900.31424143127\\
107.70041213744425	14975.289389792399\\
108.44983876409152	15054.088971502542\\
109.1992653907388	15133.434974088495\\
109.94869201738608	15213.327397550267\\
110.69811864403336	15293.766241887848\\
111.44754527068064	15382.426789850328\\
112.19697189732791	15472.134990630468\\
112.94639852397519	15562.444410838152\\
113.69582515062247	15653.35505047339\\
114.44525177726975	15744.86690953618\\
115.19467840391702	15843.21432445517\\
115.9441050305643	15943.819493567742\\
116.69353165721158	16045.077051616445\\
117.44295828385886	16146.986998601273\\
118.19238491050614	16249.549334522226\\
118.94181153715341	16353.25846986834\\
119.69123816380069	16464.694520928373\\
120.44066479044797	16576.830501389948\\
121.19009141709525	16689.66641125307\\
121.93951804374252	16803.20225051773\\
122.6889446703898	16917.438019183934\\
123.43837129703708	17032.373717251685\\
124.18779792368436	17152.65800865103\\
124.93722455033163	17276.292101273713\\
125.68665117697891	17400.670034720195\\
126.43607780362619	17525.791808990478\\
127.18550443027347	17651.657424084555\\
127.93493105692075	17778.266880002433\\
128.68435768356804	17905.620176744105\\
129.43378431021532	18036.252707852917\\
130.1832109368626	18172.071013874804\\
130.93263756350987	18308.673443099586\\
131.68206419015715	18446.059995527256\\
132.43149081680443	18584.23067115781\\
133.1809174434517	18723.185469991262\\
133.93034407009898	18862.9243920276\\
134.67977069674626	19003.44743726683\\
135.42919732339354	19144.98104860222\\
136.17862395004082	19293.71430649229\\
136.9280505766881	19443.268340921175\\
137.67747720333537	19593.643151888893\\
138.42690382998265	19744.838739395425\\
139.17633045662993	19896.85510344078\\
139.9257570832772	20049.692244024955\\
140.67518370992448	20203.35016114795\\
141.42461033657176	20357.82885480977\\
142.17403696321904	20513.1283250104\\
142.9234635898666	20671.549087739775\\
};

\addplot [
color=black,
dashed
]
table[row sep=crcr]{
74.34798788217375	15879.502640223502\\
75.04066945497873	15742.916559403211\\
75.7333510277837	15611.687801883136\\
76.42603260058867	15485.25414915702\\
77.11871417339364	15368.519231927185\\
77.81139574619861	15255.945724921754\\
78.50407731900358	15147.896364527713\\
79.19675889180856	15048.466672885317\\
79.88944046461353	14951.816188989258\\
80.5821220374185	14862.131307541811\\
81.27480361022347	14777.090062816576\\
81.96748518302844	14696.190356210454\\
82.66016675583342	14621.912196483036\\
83.35284832863839	14549.830959035598\\
84.04552990144336	14485.422039751827\\
84.73821147424833	14422.176668986725\\
85.4308930470533	14366.695455211282\\
86.12357461985827	14312.287451858438\\
86.81625619266325	14264.744718274862\\
87.50893776546822	14219.15968627048\\
88.20161933827319	14178.518517181143\\
88.89430091107816	14141.726163667714\\
89.58698248388313	14106.90195299384\\
90.2796640566881	14078.856088320144\\
90.97234562949308	14050.594209682471\\
91.66502720229805	14029.355077322884\\
92.35770877510302	14009.846752132673\\
93.05039034790799	13991.965160596194\\
93.74307192071296	13981.129756149156\\
94.43575349351794	13970.213990377873\\
95.12843506632291	13963.105767683595\\
95.82111663912788	13960.83024527892\\
96.51379821193285	13958.538213671434\\
97.20647978473782	13960.623390717374\\
97.8991613575428	13966.917729374973\\
98.59184293034777	13973.256761485565\\
99.28452450315274	13982.85998840745\\
99.97720607595771	13997.710321956654\\
100.66988764876268	14012.663902149048\\
101.36256922156765	14028.01444832028\\
102.05525079437263	14051.383065399841\\
102.7479323671776	14074.910832847172\\
103.44061393998257	14098.597750662271\\
104.13329551278754	14125.967930936955\\
104.82597708559251	14158.005679621785\\
105.51865865839748	14190.255832933333\\
106.21134023120246	14222.7183908716\\
106.90402180400743	14259.813497371264\\
107.5967033768124	14300.536185505625\\
108.28938494961737	14341.52188306004\\
108.98206652242234	14382.770590034512\\
109.67474809522732	14427.136946943498\\
110.36742966803229	14476.52858878423\\
111.06011124083726	14526.231195372735\\
111.75279281364223	14576.244766709015\\
112.4454743864472	14626.56930279306\\
113.13815595925217	14683.282546490986\\
113.83083753205715	14741.651633317357\\
114.52351910486212	14800.376990753599\\
115.21620067766709	14859.45861879971\\
115.90888225047206	14918.896517455683\\
116.60156382327703	14984.796711640367\\
117.294245396082	15052.1489833273\\
117.98692696888698	15119.900182020578\\
118.67960854169195	15188.050307720197\\
119.37229011449692	15256.599360426162\\
120.06497168730189	15328.288116889657\\
120.75765326010686	15404.589571327775\\
121.45033483291184	15481.329959703095\\
122.1430164057168	15558.509282015608\\
122.83569797852178	15636.127538265326\\
123.52837955132675	15714.184728452241\\
124.22106112413172	15795.144909989545\\
124.9137426969367	15880.798094487614\\
125.60642426974167	15966.927570388118\\
126.29910584254664	16053.533337691057\\
126.99178741535161	16140.615396396432\\
127.68446898815658	16228.173746504244\\
128.37715056096155	16316.208388014495\\
129.06983213376654	16408.999781696963\\
129.76251370657153	16504.471625578302\\
130.4551952793765	16600.4544688617\\
131.1478768521815	16696.94831154715\\
131.84055842498648	16793.953153634648\\
132.53323999779147	16891.468995124204\\
133.22592157059646	16989.49583601581\\
133.91860314340144	17088.919650895732\\
134.61128471620643	17194.18251076846\\
135.3039662890114	17299.988428577235\\
135.9966478618164	17406.33740432206\\
136.68932943462138	17513.229438002938\\
137.38201100742637	17620.66452961987\\
138.07469258023136	17728.642679172848\\
138.76737415303634	17837.16388666188\\
139.46005572584133	17946.22815208697\\
140.15273729864631	18059.568668471264\\
140.8454188714513	18175.684196174327\\
141.5381004442563	18292.372190881822\\
142.23078201706127	18409.632652593744\\
142.9234635898666	18527.46558131016\\
};

\addplot [
color=black,
densely dashdotted
]
table[row sep=crcr]{
80.66440104686652	15879.502640223503\\
81.29328046649277	15765.044023266219\\
81.92215988611903	15652.721176495508\\
82.55103930574529	15547.277873445406\\
83.17991872537155	15444.843700713494\\
83.80879814499781	15346.925977867022\\
84.43767756462407	15253.708818013956\\
85.06655698425033	15163.341968097988\\
85.69543640387658	15078.636765620955\\
86.32431582350284	14995.83494991475\\
86.9531952431291	14918.903254968087\\
87.58207466275536	14843.66950330328\\
88.21095408238162	14773.739471698445\\
88.83983350200788	14706.065682459059\\
89.46871292163414	14642.332075664675\\
90.0975923412604	14582.199015787097\\
90.72647176088665	14523.823200928915\\
91.35535118051291	14471.200505901927\\
91.98423060013917	14418.214311329806\\
92.61311001976543	14372.156629627596\\
93.24198943939169	14326.695146709455\\
93.87086885901795	14284.109337997681\\
94.4997482786442	14246.118084085781\\
95.12862769827046	14207.873160911937\\
95.75750711789672	14175.46941725427\\
96.38638653752298	14144.681241270995\\
97.01526595714924	14113.69152830546\\
97.6441453767755	14090.280884642969\\
98.27302479640176	14066.719595122182\\
98.90190421602802	14043.558201794744\\
99.53078363565427	14027.333748245583\\
100.15966305528053	14011.00645654972\\
100.78854247490679	13994.576326707162\\
101.41742189453305	13985.317833115334\\
102.04630131415931	13976.214953435398\\
102.67518073378557	13967.055802164634\\
103.30406015341183	13962.822781276878\\
103.93293957303808	13960.91803063243\\
104.56181899266434	13959.001719711769\\
105.1906984122906	13958.33805172627\\
105.81957783191686	13963.588449965462\\
106.44845725154312	13968.87014400177\\
107.07733667116938	13974.183133835197\\
107.70621609079564	13982.598790230546\\
108.3350955104219	13995.016956659267\\
108.96397493004815	14007.507419717174\\
109.59285434967441	14020.070179404262\\
110.22173376930067	14035.697856280323\\
110.85061318892693	14055.28570758545\\
111.47949260855319	14074.98500111056\\
112.10837202817945	14094.795736855649\\
112.7372514478057	14115.656815836071\\
113.36613086743196	14142.39400580924\\
113.99501028705822	14169.27992835191\\
114.62388970668448	14196.31458346409\\
115.25276912631074	14223.497971145778\\
115.881648545937	14254.163051233954\\
116.51052796556326	14288.191138449325\\
117.13940738518951	14322.403393342453\\
117.76828680481577	14356.799815913346\\
118.39716622444203	14391.380406161998\\
119.02604564406829	14429.339465248951\\
119.65492506369455	14470.660737441645\\
120.28380448332081	14512.199757179093\\
120.91268390294707	14553.956524461284\\
121.54156332257332	14595.931039288223\\
122.17044274219958	14638.507083550681\\
122.79932216182584	14687.095999836789\\
123.4282015814521	14735.934388293355\\
124.05708100107836	14785.02224892039\\
124.68596042070462	14834.359581717885\\
125.31483984033088	14883.946386685844\\
125.94371925995713	14934.51183649483\\
126.5725986795834	14990.594368926282\\
127.20147809920965	15046.956242912649\\
127.83035751883591	15103.59745845392\\
128.45923693846217	15160.518015550104\\
129.08811635808843	15217.717914201197\\
129.7169957777147	15275.197154407198\\
130.34587519734094	15336.439473869552\\
130.9747546169672	15400.297808308773\\
131.60363403659346	15464.463498446079\\
132.23251345621972	15528.936544281474\\
132.86139287584598	15593.71694581495\\
133.49027229547224	15658.804703046515\\
134.1191517150985	15724.199815976168\\
134.74803113472476	15792.129859376677\\
135.376910554351	15863.757749448952\\
136.00578997397727	15935.71915412122\\
136.63466939360353	16008.01407339348\\
137.2635488132298	16080.642507265731\\
137.89242823285605	16153.604455737981\\
138.5213076524823	16226.899918810217\\
139.15018707210857	16300.528896482449\\
139.77906649173482	16376.569099164262\\
140.40794591136108	16456.27915668884\\
141.03682533098734	16536.34703247405\\
141.6657047506136	16616.772726519885\\
142.29458417023986	16697.55623882635\\
142.9234635898666	16778.697569393502\\
};

\addplot [
color=black,
densely dotted
]
table[row sep=crcr]{
59.21372732324278	38921.252018348096\\
60.05928021482484	38793.41356193847\\
60.9048331064069	38571.86954908784\\
61.75038599798896	38274.308953483196\\
62.595938889571016	37918.42074881159\\
63.441491781153076	37521.89390876005\\
64.28704467273514	37102.417407015586\\
65.1325975643172	36677.68021726523\\
65.97815045589925	36265.371313196025\\
66.82370334748131	35883.17966849499\\
67.66925623906337	35548.79425684913\\
68.51480913064543	35279.904051945494\\
69.36036202222749	35094.19802747111\\
70.20591491380955	35009.36515711299\\
71.05146780539161	34975.6444165074\\
71.89702069697367	34852.27696581413\\
72.74257358855573	34648.39020600384\\
73.58812648013779	34379.54332506563\\
74.43367937171985	34061.29551098861\\
75.2792322633019	33709.20595176189\\
76.12478515488397	33338.833835374564\\
76.97033804646603	32965.73834981574\\
77.81589093804808	32605.478683074532\\
78.66144382963014	32273.61402314004\\
79.5069967212122	31985.70355800135\\
80.35254961279426	31757.306475647594\\
81.19810250437632	31603.981964067854\\
82.04365539595838	31541.289211251256\\
82.88920828754044	31504.70880711513\\
83.7347611791225	31386.178791022237\\
84.58031407070456	31198.13845342527\\
85.42586696228662	30954.34495053211\\
86.27141985386868	30668.55543855065\\
87.11697274545074	30354.527073688776\\
87.9625256370328	30026.017012154356\\
88.80807852861486	29696.782410155294\\
89.65363142019692	29380.580423899457\\
90.49918431177898	29091.16820959476\\
91.34473720336103	28842.302923449068\\
92.1902900949431	28647.741721670267\\
93.03584298652515	28521.241760466244\\
93.88139587810721	28476.55367516653\\
94.72694876968927	28435.714906806996\\
95.57250166127133	28322.743965335118\\
96.41805455285339	28149.804176860507\\
97.26360744443545	27929.05886749277\\
98.10916033601751	27672.67136334153\\
98.95471322759957	27392.80499051638\\
99.80026611918163	27101.62307512696\\
100.64581901076369	26811.288943282867\\
101.49137190234575	26533.965921093713\\
102.3369247939278	26281.817334669122\\
103.18247768550987	26067.00651011869\\
104.02803057709193	25901.696773552037\\
104.87358346867398	25798.05145107878\\
105.71913636025604	25766.871265186666\\
106.5646892518381	25722.381813796066\\
107.41024214342016	25615.432414257368\\
108.25579503500222	25456.777307260643\\
109.10134792658428	25257.17073349595\\
109.94690081816634	25027.366933653364\\
110.7924537097484	24778.12014842294\\
111.63800660133046	24520.184618494746\\
112.48355949291252	24264.31458455885\\
113.32911238449458	24021.264287305316\\
114.17466527607664	23801.787967424203\\
115.0202181676587	23616.63986560559\\
115.86577105924076	23476.57422253953\\
116.71132395082282	23392.345278916095\\
117.55687684240488	23370.223735151412\\
118.40242973398693	23324.250433114612\\
119.247982625569	23224.94699261969\\
120.09353551715105	23081.69331904002\\
120.93908840873311	22903.869317748977\\
121.78464130031517	22700.854894119937\\
122.63019419189723	22482.029953526267\\
123.47574708347929	22256.774401341354\\
124.32129997506135	22034.46814293857\\
125.16685286664341	21824.49108369129\\
126.01240575822547	21636.223128972884\\
126.85795864980753	21479.044184156726\\
127.70351154138959	21362.33415461621\\
128.54906443297165	21295.472945724683\\
129.3946173245537	21279.07901692438\\
130.24017021613577	21231.026325782652\\
131.08572310771783	21135.664925768273\\
131.93127599929988	21001.498668232984\\
132.77682889088194	20837.03140452855\\
133.622381782464	20650.76698600672\\
134.46793467404606	20451.209264019264\\
135.31348756562812	20246.862089917915\\
136.15904045721018	20046.22931505446\\
137.00459334879224	19857.814790780638\\
137.8501462403743	19690.1223684482\\
138.69569913195636	19551.65589940892\\
139.54125202353842	19450.919235014542\\
140.38680491512048	19396.41622661683\\
141.23235780670254	19382.465267856503\\
142.0779106982846	19331.563324101935\\
142.9234635898666	19237.286910685852\\
};

\addplot [
color=black,
dashdotdotted
]
table[row sep=crcr]{
63.71272604484442	35325.32658918979\\
64.51283450489515	35074.42023614247\\
65.31294296494588	34825.11078898363\\
66.1130514249966	34578.74394022099\\
66.91315988504732	34336.665382362306\\
67.71326834509804	34100.22080791531\\
68.51337680514877	33870.75590938774\\
69.31348526519949	33649.56615465541\\
70.11359372525021	33434.30883969131\\
70.91370218530093	33222.91603949217\\
71.71381064535166	33015.14368741582\\
72.51391910540238	32810.74771682006\\
73.3140275654531	32609.48406106275\\
74.11413602550383	32411.108653501688\\
74.91424448555455	32215.377427494703\\
75.71435294560527	32022.04631639962\\
76.514461405656	31830.87125357426\\
77.31456986570672	31641.608172376436\\
78.11467832575744	31454.013006163972\\
78.91478678580816	31267.84168829471\\
79.71489524585888	31082.850152126444\\
80.5150037059096	30898.794331017016\\
81.31511216596033	30715.993108104904\\
82.11522062601105	30535.73768573978\\
82.91532908606177	30357.89692236234\\
83.7154375461125	30182.255337352148\\
84.51554600616322	30008.59745008874\\
85.31565446621394	29836.70777995165\\
86.11576292626467	29666.37084632043\\
86.91587138631539	29497.37116857462\\
87.71597984636611	29329.493266093767\\
88.51608830641683	29162.521658257392\\
89.31619676646756	28996.240864445062\\
90.11630522651828	28830.4354040363\\
90.916413686569	28664.88979641067\\
91.71652214661972	28499.388560947697\\
92.51663060667045	28333.795222709636\\
93.31673906672117	28169.124664130304\\
94.11684752677189	28005.636672873614\\
94.91695598682261	27843.185853233987\\
95.71706444687334	27681.626809505884\\
96.51717290692406	27520.81414598374\\
97.31728136697478	27360.60246696199\\
98.1173898270255	27200.84637673509\\
98.91749828707623	27041.40047959749\\
99.71760674712695	26882.119379843607\\
100.51771520717767	26722.857681767906\\
101.3178236672284	26563.469989664816\\
102.11793212727912	26403.810907828793\\
102.91804058732984	26243.735040554267\\
103.71814904738056	26083.096992135692\\
104.51825750743129	25921.475491095633\\
105.31836596748201	25758.579105921992\\
106.11847442753273	25594.713879252038\\
106.91858288758345	25430.191072348058\\
107.71869134763418	25265.32194647235\\
108.5187998076849	25100.41776288722\\
109.31890826773562	24935.789782854965\\
110.11901672778635	24771.749267637875\\
110.91912518783707	24608.60747849824\\
111.71923364788779	24446.67567669837\\
112.51934210793851	24286.26512350057\\
113.31945056798924	24127.687080167125\\
114.11955902803996	23971.25280796034\\
114.91966748809068	23817.273568142497\\
115.7197759481414	23665.918057459858\\
116.51988440819213	23516.40833569079\\
117.31999286824285	23368.519962245875\\
118.12010132829357	23222.187314850285\\
118.9202097883443	23077.344771229185\\
119.72031824839502	22933.92670910775\\
120.52042670844574	22791.86750621115\\
121.32053516849646	22651.10154026455\\
122.12064362854719	22511.563188993132\\
122.92075208859791	22373.186830122057\\
123.72086054864863	22235.9068413765\\
124.52096900869935	22099.65760048163\\
125.32107746875008	21964.37348516262\\
126.1211859288008	21829.988873144648\\
126.92129438885152	21696.439021012164\\
127.72140284890224	21563.95235099638\\
128.52151130895297	21432.709972599765\\
129.3216197690037	21302.66248321238\\
130.1217282290544	21173.760480224315\\
130.92183668910513	21045.954561025635\\
131.72194514915586	20919.19532300642\\
132.52205360920658	20793.433363556735\\
133.3221620692573	20668.61928006666\\
134.12227052930803	20544.70366992627\\
134.92237898935875	20421.63713052564\\
135.72248744940947	20299.37025925483\\
136.5225959094602	20177.85365350393\\
137.32270436951092	20057.03791066301\\
138.12281282956164	19936.87362812213\\
138.92292128961236	19817.46672700812\\
139.72302974966308	19699.287679102676\\
140.5231382097138	19582.27040004989\\
141.32324666976453	19466.29917901908\\
142.12335512981525	19351.258305179537\\
142.9234635898666	19237.03206770049\\
};

\addplot [
color=black,
densely dashdotdetted
]
table[row sep=crcr]{
68.7302275517858	30015.204569613394\\
69.47965417843308	29835.959719780414\\
70.22908080508036	29657.580885185813\\
70.97850743172764	29480.190548269627\\
71.72793405837491	29303.91119147187\\
72.47736068502219	29128.865297232584\\
73.22678731166947	28955.17534799179\\
73.97621393831675	28782.96382618951\\
74.72564056496402	28612.35321426577\\
75.4750671916113	28443.465994660615\\
76.22449381825858	28276.424649814056\\
76.97392044490586	28111.351662166122\\
77.72334707155314	27948.369514156842\\
78.47277369820041	27787.600688226248\\
79.22220032484769	27629.167666814363\\
79.97162695149497	27473.16110892221\\
80.72105357814225	27319.51071921529\\
81.47048020478952	27168.096265652493\\
82.2199068314368	27018.79752778742\\
82.96933345808408	26871.4942851737\\
83.71876008473136	26726.06631736492\\
84.46818671137864	26582.393403914713\\
85.21761333802591	26440.355324376662\\
85.96703996467319	26299.831858304402\\
86.71646659132047	26160.702785251528\\
87.46589321796775	26022.847884771658\\
88.21531984461502	25886.14693641839\\
88.9647464712623	25750.479719745348\\
89.71417309790958	25615.726014306136\\
90.46359972455686	25481.765599654358\\
91.21302635120414	25348.772875624774\\
91.96245297785141	25217.345174784496\\
92.71187960449869	25087.431213263717\\
93.46130623114597	24958.95059434353\\
94.21073285779325	24831.822921305007\\
94.96015948444052	24705.967797429224\\
95.7095861110878	24581.30482599727\\
96.45901273773508	24457.753610290216\\
97.20843936438236	24335.233753589135\\
97.95786599102964	24213.664859175104\\
98.70729261767691	24092.96653032922\\
99.45671924432419	23973.058370332546\\
100.20614587097147	23853.859982466158\\
100.95557249761875	23735.290970011138\\
101.70499912426602	23617.270936248566\\
102.4544257509133	23499.751301348915\\
103.20385237756058	23382.825756386876\\
103.95327900420786	23266.556780530642\\
104.70270563085514	23150.99977573363\\
105.45213225750241	23036.21014394923\\
106.20155888414969	22922.24328713085\\
106.95098551079697	22809.154607231896\\
107.70041213744425	22696.99950620578\\
108.44983876409152	22585.833386005892\\
109.1992653907388	22475.711648585646\\
109.94869201738608	22366.689695898447\\
110.69811864403336	22258.82292989769\\
111.44754527068064	22152.1667525368\\
112.19697189732791	22046.776565769153\\
112.94639852397519	21942.707771548176\\
113.69582515062247	21840.007779362255\\
114.44525177726975	21738.648362172742\\
115.19467840391702	21638.57942285213\\
115.9441050305643	21539.75365711426\\
116.69353165721158	21442.123760672985\\
117.44295828385886	21345.642429242173\\
118.19238491050614	21250.262358535656\\
118.94181153715341	21155.9362442673\\
119.69123816380069	21062.61678215095\\
120.44066479044797	20970.256667900478\\
121.19009141709525	20878.808597229712\\
121.93951804374252	20788.225265852514\\
122.6889446703898	20698.459369482738\\
123.43837129703708	20609.463603834236\\
124.18779792368436	20521.190664620863\\
124.93722455033163	20433.630558518085\\
125.68665117697891	20347.077271244016\\
126.43607780362619	20261.568674499664\\
127.18550443027347	20177.06104226028\\
127.93493105692075	20093.51064850113\\
128.68435768356804	20010.873767197463\\
129.43378431021532	19929.10667232454\\
130.1832109368626	19848.16563785762\\
130.93263756350987	19768.00693777196\\
131.68206419015715	19688.586846042817\\
132.43149081680443	19609.861636645444\\
133.1809174434517	19531.787583555113\\
133.93034407009898	19454.320960747064\\
134.67977069674626	19377.418042196558\\
135.42919732339354	19301.035101878868\\
136.17862395004082	19225.148247370125\\
136.9280505766881	19150.05632214952\\
137.67747720333537	19075.832068370564\\
138.42690382998265	19002.421602447863\\
139.17633045662993	18929.771040796066\\
139.9257570832772	18857.826499829782\\
140.67518370992448	18786.534095963652\\
141.42461033657176	18715.83994561229\\
142.17403696321904	18645.69016519033\\
142.9234635898666	18576.03087111237\\
};

\addplot [
color=black,
loosely dashed
]
table[row sep=crcr]{
74.34798788217375	25280.827240650447\\
75.04066945497873	25140.17896349311\\
75.7333510277837	25001.733884873596\\
76.42603260058867	24865.78536774188\\
77.11871417339364	24732.62677504792\\
77.81139574619861	24602.551469741684\\
78.50407731900358	24475.432503056894\\
79.19675889180856	24350.74144019586\\
79.88944046461353	24228.34099234435\\
80.5821220374185	24108.09614884062\\
81.27480361022347	23989.87189902293\\
81.96748518302844	23873.533232229544\\
82.66016675583342	23758.94513779872\\
83.35284832863839	23645.972605068724\\
84.04552990144336	23534.480623377814\\
84.73821147424833	23424.334182064245\\
85.4308930470533	23315.398270466285\\
86.12357461985827	23207.53787792219\\
86.81625619266325	23100.617993770218\\
87.50893776546822	22994.503607348634\\
88.20161933827319	22889.059707995697\\
88.89430091107816	22784.151285049673\\
89.58698248388313	22680.096879552177\\
90.2796640566881	22577.529076100476\\
90.97234562949308	22476.37089604569\\
91.66502720229805	22376.535015264006\\
92.35770877510302	22277.934109631628\\
93.05039034790799	22180.480855024747\\
93.74307192071296	22084.087927319557\\
94.43575349351794	21988.66800239226\\
95.12843506632291	21894.13375611906\\
95.82111663912788	21800.397864376133\\
96.51379821193285	21707.37300303969\\
97.20647978473782	21614.97184798592\\
97.8991613575428	21523.107075091022\\
98.59184293034777	21431.691360231187\\
99.28452450315274	21340.637379282616\\
99.97720607595771	21249.857808121506\\
100.66988764876268	21159.448299133383\\
101.36256922156765	21069.726929628225\\
102.05525079437263	20980.690160436527\\
102.7479323671776	20892.324810553568\\
103.44061393998257	20804.61769897464\\
104.13329551278754	20717.55564469501\\
104.82597708559251	20631.12546670997\\
105.51865865839748	20545.3139840148\\
106.21134023120246	20460.10801560478\\
106.90402180400743	20375.494380475197\\
107.5967033768124	20291.45989762132\\
108.28938494961737	20207.99138603844\\
108.98206652242234	20125.07566472184\\
109.67474809522732	20042.699552666796\\
110.36742966803229	19960.849868868598\\
111.06011124083726	19879.51343232252\\
111.75279281364223	19798.68950123374\\
112.4454743864472	19718.404862317013\\
113.13815595925217	19638.66652308915\\
113.83083753205715	19559.480328527545\\
114.52351910486212	19480.852123609628\\
115.21620067766709	19402.787753312794\\
115.90888225047206	19325.293062614463\\
116.60156382327703	19248.373896492056\\
117.294245396082	19172.03609992297\\
117.98692696888698	19096.285517884622\\
118.67960854169195	19021.12799535443\\
119.37229011449692	18946.569377309803\\
120.06497168730189	18872.615508728148\\
120.75765326010686	18799.27223458688\\
121.45033483291184	18726.545399863415\\
122.1430164057168	18654.440849535156\\
122.83569797852178	18582.973029948767\\
123.52837955132675	18512.1640995931\\
124.22106112413172	18442.002682400234\\
124.9137426969367	18372.475420664032\\
125.60642426974167	18303.56895667835\\
126.29910584254664	18235.26993273705\\
126.99178741535161	18167.564991133997\\
127.68446898815658	18100.44077416305\\
128.37715056096155	18033.883924118065\\
129.06983213376654	17967.881083292905\\
129.76251370657153	17902.41889398144\\
130.4551952793765	17837.483998477524\\
131.1478768521815	17773.063039075012\\
131.84055842498648	17709.142658067783\\
132.53323999779147	17645.709497749678\\
133.22592157059646	17582.750200414575\\
133.91860314340144	17520.311845612392\\
134.61128471620643	17458.58667753301\\
135.3039662890114	17397.55149104056\\
135.9966478618164	17337.16248028542\\
136.68932943462138	17277.375839417968\\
137.38201100742637	17218.147762588564\\
138.07469258023136	17159.434443947594\\
138.76737415303634	17101.192077645424\\
139.46005572584133	17043.376857832438\\
140.15273729864631	16985.944978659005\\
140.8454188714513	16928.852634275492\\
141.5381004442563	16872.056018832285\\
142.23078201706127	16815.511326479755\\
142.9234635898666	16759.174751368235\\
};

\addplot [
color=black,
loosely dashdotted
]
table[row sep=crcr]{
80.66440104686652	20595.0364951986\\
81.29328046649277	20495.35140636496\\
81.92215988611903	20396.44808127536\\
82.55103930574529	20298.37573789366\\
83.17991872537155	20201.18359418368\\
83.80879814499781	20104.920868109253\\
84.43767756462407	20009.63677763423\\
85.06655698425033	19915.380540722428\\
85.69543640387658	19822.201375337692\\
86.32431582350284	19730.148499443854\\
86.9531952431291	19639.27113100475\\
87.58207466275536	19549.581877246117\\
88.21095408238162	19460.85014063978\\
88.83983350200788	19373.03595275831\\
89.46871292163414	19286.150724055024\\
90.0975923412604	19200.205864983243\\
90.72647176088665	19115.212785996293\\
91.35535118051291	19031.18289754749\\
91.98423060013917	18948.127610090152\\
92.61311001976543	18866.058334077607\\
93.24198943939169	18784.986479963172\\
93.87086885901795	18704.923458200166\\
94.4997482786442	18625.880679241916\\
95.12862769827046	18547.869553541736\\
95.75750711789672	18470.901491552948\\
96.38638653752298	18394.987903728874\\
97.01526595714924	18320.140200522837\\
97.6441453767755	18246.369792388155\\
98.27302479640176	18173.69067578353\\
98.90190421602802	18102.388346713356\\
99.53078363565427	18032.58119057956\\
100.15966305528053	17964.17049254102\\
100.78854247490679	17897.05753775663\\
101.41742189453305	17831.14361138527\\
102.04630131415931	17766.329998585825\\
102.67518073378557	17702.517984517177\\
103.30406015341183	17639.608854338217\\
103.93293957303808	17577.503893207824\\
104.56181899266434	17516.104386284893\\
105.1906984122906	17455.31161872829\\
105.81957783191686	17395.026875696913\\
106.44845725154312	17335.15144234964\\
107.07733667116938	17275.586603845368\\
107.70621609079564	17216.233645342963\\
108.3350955104219	17156.993852001324\\
108.96397493004815	17097.76850897933\\
109.59285434967441	17038.64192570235\\
110.22173376930067	16980.008250513893\\
110.85061318892693	16921.876921444808\\
111.47949260855319	16864.237937520094\\
112.10837202817945	16807.081297764733\\
112.7372514478057	16750.397001203728\\
113.36613086743196	16694.175046862038\\
113.99501028705822	16638.40543376467\\
114.62388970668448	16583.07816093661\\
115.25276912631074	16528.183227402846\\
115.881648545937	16473.71063218835\\
116.51052796556326	16419.65037431813\\
117.13940738518951	16365.992452817167\\
117.76828680481577	16312.72686671044\\
118.39716622444203	16259.843615022945\\
119.02604564406829	16207.332696779664\\
119.65492506369455	16155.184111005588\\
120.28380448332081	16103.397053103216\\
120.91268390294707	16052.047308513149\\
121.54156332257332	16001.145831785983\\
122.17044274219958	15950.682565006893\\
122.79932216182584	15900.647450261065\\
123.4282015814521	15851.030429633678\\
124.05708100107836	15801.821445209906\\
124.68596042070462	15753.010439074937\\
125.31483984033088	15704.58735331395\\
125.94371925995713	15656.54213001212\\
126.5725986795834	15608.864711254633\\
127.20147809920965	15561.545039126673\\
127.83035751883591	15514.573055713408\\
128.45923693846217	15467.938703100028\\
129.08811635808843	15421.63192337171\\
129.7169957777147	15375.642658613637\\
130.34587519734094	15329.960850910988\\
130.9747546169672	15284.576467166402\\
131.60363403659346	15239.49491638972\\
132.23251345621972	15194.73032376864\\
132.86139287584598	15150.288816045273\\
133.49027229547224	15106.176519961726\\
134.1191517150985	15062.399562260101\\
134.74803113472476	15018.964069682508\\
135.376910554351	14975.876168971045\\
136.00578997397727	14933.141986867826\\
136.63466939360353	14890.767650114954\\
137.2635488132298	14848.759285454531\\
137.89242823285605	14807.123019628669\\
138.5213076524823	14765.86497937947\\
139.15018707210857	14724.99129144904\\
139.77906649173482	14684.508082579487\\
140.40794591136108	14644.421479512912\\
141.03682533098734	14604.737608991425\\
141.6657047506136	14565.46259775713\\
142.29458417023986	14526.712728511238\\
142.9234635898666	14488.773659611668\\
};
\end{axis}
\end{tikzpicture}%
