%Drag_and_Thrust_curves_altitudes
\begin{tikzpicture}

\begin{axis}[
width=\figurewidth,
height=\figureheight,
scaled ticks=false, tick label style={/pgf/number format/fixed},
xmin=59.21372681087494,
xmax=146.32640319914915,
xlabel={Speed ((m/s))},
xmajorgrids,
ymin=13357.090555650018,
ymax=34824.278162391136,
ylabel={Forces ((N))},
ymajorgrids,
legend style={at={(1.03,0.5)},anchor=west,draw=black,fill=white,legend cell align=left}
]

\addplot [
color=black,
solid
]
table[row sep=crcr]{
80.6644003488891	15879.502487947988\\
81.22409558538733	15777.510714683885\\
81.78379082188556	15676.350422042917\\
82.34348605838379	15582.166907113793\\
82.90318129488202	15487.882299508852\\
83.46287653138025	15400.877642389944\\
84.02257176787847	15313.47280207597\\
84.5822670043767	15232.991151287299\\
85.14196224087493	15152.461343534214\\
85.70165747737316	15077.820396640596\\
86.26135271387139	15004.152069733216\\
86.82104795036962	14934.643073344272\\
87.38074318686785	14867.813858582354\\
87.94043842336607	14802.701608352483\\
88.5001336598643	14742.680320050726\\
89.05982889636253	14682.278239182324\\
89.61952413286076	14627.949796167137\\
90.17921936935899	14574.362809958628\\
90.73891460585722	14522.785361020138\\
91.29860984235545	14475.963180318557\\
91.85830507885368	14428.853079293072\\
92.4180003153519	14386.198339425311\\
92.97769555185013	14345.838169643826\\
93.53739078834836	14305.234311413527\\
94.09708602484659	14270.472377343709\\
94.65678126134482	14236.591820114381\\
95.21647649784305	14202.51033681383\\
95.77617173434128	14174.558403358757\\
96.3358669708395	14147.161834836057\\
96.89556220733773	14119.605633122208\\
97.45525744383596	14097.32799318825\\
98.01495268033419	14076.406564049052\\
98.57464791683242	14055.365325101257\\
99.13434315333065	14037.573369684393\\
99.69403838982888	14023.105005127945\\
100.2537336263271	14008.555184647956\\
100.81342886282533	13994.007402833737\\
101.37312409932356	13985.956802581697\\
101.93281933582179	13977.861630793659\\
102.49251457232002	13969.721887469615\\
103.05220980881825	13963.582248053655\\
103.61190504531648	13961.8917297041\\
104.1716002818147	13960.192054708577\\
104.73129551831293	13958.483223067082\\
105.29099075481116	13959.173194679399\\
105.85068599130939	13963.848897783822\\
106.41038122780762	13968.549389634783\\
106.97007646430585	13973.274670232286\\
107.52977170080408	13979.12755165223\\
108.0894669373023	13990.157981791961\\
108.64916217380053	14001.245676573242\\
109.20885741029876	14012.390635996073\\
109.76855264679699	14023.592860060453\\
110.32824788329522	14039.007584938538\\
110.88794311979345	14056.45188476383\\
111.44763835629168	14073.984455628166\\
112.0073335927899	14091.605297531542\\
112.56702882928813	14109.314410473957\\
113.12672406578636	14132.197911685305\\
113.68641930228459	14156.068392637186\\
114.24611453878282	14180.056681528093\\
114.80580977528105	14204.162778358022\\
115.36550501177928	14228.38668312697\\
115.9252002482775	14256.513638770657\\
116.48489548477573	14286.800569827488\\
117.04459072127396	14317.233376225808\\
117.60428595777219	14347.812057965626\\
118.16398119427042	14378.536615046934\\
118.72367643076865	14409.549448445996\\
119.28337166726688	14446.22105612346\\
119.8430669037651	14483.065137047377\\
120.40276214026333	14520.081691217736\\
120.96245737676156	14557.27071863455\\
121.52215261325979	14594.632219297811\\
122.08184784975802	14632.16619320753\\
122.64154308625625	14674.882136692115\\
123.20123832275448	14718.279808351012\\
123.7609335592527	14761.875081663806\\
124.32062879575093	14805.667956630501\\
124.88032403224916	14849.658433251092\\
125.44001926874739	14893.846511525584\\
125.99971450524562	14939.494114975374\\
126.55940974174385	14989.41536728196\\
127.11910497824208	15039.557880152379\\
127.6788002147403	15089.921653586625\\
128.23849545123855	15140.506687584711\\
128.7981906877368	15191.312982146628\\
129.35788592423503	15242.34053727238\\
129.91758116073328	15293.589352961963\\
130.47727639723152	15349.757007809323\\
131.03697163372976	15406.632279673599\\
131.596666870228	15463.751001514129\\
132.15636210672625	15521.113173330916\\
132.7160573432245	15578.718795123965\\
133.27575257972273	15636.567866893265\\
133.83544781622098	15694.660388638824\\
134.39514305271922	15752.996360360641\\
134.95483828921746	15815.647982792307\\
135.5145335257157	15879.477241876204\\
136.07422876221423	15943.570670851306\\
};

\addplot [
color=black,
densely dashed
]
table[row sep=crcr]{
74.34798723885135	15879.502487947988\\
74.99807306982746	15751.257921868344\\
75.64815890080357	15627.163373461432\\
76.29824473177968	15508.62935948168\\
76.94833056275579	15397.330734879033\\
77.5984163937319	15288.975021840131\\
78.248502224708	15187.874007079396\\
78.89858805568412	15090.938546863099\\
79.54867388666023	14998.132775624801\\
80.19875971763634	14911.86256331598\\
80.84884554861245	14827.390618902975\\
81.49893137958856	14750.9886442056\\
82.14901721056466	14674.875108127108\\
82.79910304154077	14607.502355364195\\
83.44918887251688	14539.757807335793\\
84.099274703493	14480.533255449469\\
84.7493605344691	14421.15427339308\\
85.39944636544521	14369.154895944544\\
86.04953219642132	14318.124055988474\\
86.69961802739743	14272.384821157999\\
87.34970385837354	14229.670697636911\\
87.99978968934965	14189.184568223862\\
88.64987552032576	14154.741733678762\\
89.29996135130187	14120.045393997496\\
89.95004718227798	14092.228692279852\\
90.6001330132541	14065.80745375656\\
91.2502188442302	14040.967094431448\\
91.90030467520631	14022.745192387592\\
92.55039050618242	14004.393934444504\\
93.20047633715853	13989.624121913652\\
93.85056216813464	13979.441008147889\\
94.50064799911075	13969.187112652953\\
95.15073383008686	13963.032675696724\\
95.80081966106297	13960.897063018803\\
96.45090549203908	13958.746909149504\\
97.1009913230152	13959.668665786416\\
97.7510771539913	13965.568264315643\\
98.40116298496741	13971.507228558994\\
99.05124881594352	13977.881986045739\\
99.70133464691963	13991.78350321095\\
100.35142047789574	14005.775959363522\\
101.00150630887185	14019.85935450346\\
101.65159213984796	14037.745654734515\\
102.30167797082407	14059.734973902414\\
102.95176380180018	14081.864471698644\\
103.6018496327763	14104.134148123205\\
104.2519354637524	14131.440128372244\\
104.90202129472851	14161.53576360814\\
105.55210712570462	14191.818483481056\\
106.20219295668073	14222.288287991\\
106.85227878765684	14256.782067595313\\
107.50236461863295	14294.974529377228\\
108.15245044960906	14333.398648172588\\
108.80253628058517	14372.054423981386\\
109.45262211156128	14411.36410434186\\
110.10270794253739	14457.61589956054\\
110.7527937735135	14504.141590536809\\
111.40287960448961	14550.941177270668\\
112.05296543546572	14598.014659762113\\
112.70305126644183	14646.80047381071\\
113.35313709741794	14701.359906639082\\
114.00322292839405	14756.233140336919\\
114.65330875937016	14811.420174904215\\
115.30339459034627	14866.92101034097\\
115.95348042132238	14922.735646647192\\
116.60356625229849	14984.99087695998\\
117.2536520832746	15048.190962422495\\
117.90373791425071	15111.742420234072\\
118.55382374522682	15175.645250394706\\
119.20390957620293	15239.899452904405\\
119.85399540717904	15305.135553811288\\
120.50408123815515	15376.606795597496\\
121.15416706913126	15448.46464758009\\
121.80425290010737	15520.709109759071\\
122.45433873108348	15593.34018213444\\
123.10442456205959	15666.357864706195\\
123.7545103930357	15739.762157474335\\
124.40459622401181	15817.793546421135\\
125.05468205498792	15898.284273428833\\
125.70476788596403	15979.194514847968\\
126.35485371694014	16060.524270678545\\
127.00493954791625	16142.273540920563\\
127.65502537889236	16224.442325574017\\
128.30511120986847	16307.030624638906\\
128.95519704084458	16393.249086714673\\
129.6052828718207	16482.755876865795\\
130.2553687027968	16572.71275201113\\
130.9054545337729	16663.119712150696\\
131.55554036474902	16753.976757284472\\
132.20562619572513	16845.28388741247\\
132.85571202670124	16937.041102534688\\
133.50579785767735	17029.248402651123\\
134.15588368865346	17124.9167975453\\
134.80596951962957	17223.86554442876\\
135.45605535060568	17323.292613256956\\
136.1061411815818	17423.198004029873\\
136.7562270125579	17523.581716747514\\
137.406312843534	17624.443751409886\\
138.05639867451012	17725.784108016982\\
138.70648450548597	17827.602786568757\\
};

\addplot [
color=black,
dashdotted
]
table[row sep=crcr]{
68.73022695707306	15879.50248794799\\
69.46316321714309	15723.28299872951\\
70.19609947721312	15575.228456633282\\
70.92903573728316	15434.743494718992\\
71.66197199735319	15301.211919485346\\
72.39490825742322	15177.921399891296\\
73.12784451749326	15061.546692770798\\
73.86078077756329	14950.726116632391\\
74.59371703763333	14847.997849401376\\
75.32665329770336	14752.778521163662\\
76.05958955777339	14661.585637749951\\
76.79252581784343	14579.413044300905\\
77.52546207791346	14502.081820619866\\
78.2583983379835	14429.805499637197\\
78.99133459805353	14365.372467531039\\
79.72427085812356	14303.048394521595\\
80.4572071181936	14250.487606149509\\
81.19014337826363	14198.33184583675\\
81.92307963833366	14156.373957897293\\
82.6560158984037	14114.039001110828\\
83.38895215847373	14081.894937952382\\
84.12188841854376	14049.555196293659\\
84.8548246786138	14025.830655248754\\
85.58776093868383	14003.458797980593\\
86.32069719875386	13986.877912476351\\
87.0536334588239	13974.425782300576\\
87.78656971889393	13963.650206081109\\
88.51950597896396	13961.04881913853\\
89.252442239034	13958.425803323446\\
89.98537849910403	13961.837272135355\\
90.71831475917406	13969.05537139315\\
91.4512510192441	13976.332024038311\\
92.18418727931413	13992.162304943902\\
92.91712353938416	14009.242675753614\\
93.6500597994542	14026.45831111706\\
94.38299605952423	14052.814211812614\\
95.11593231959426	14079.768399684282\\
95.8488685796643	14106.931092182547\\
96.58180483973433	14141.794460998302\\
97.31474109980437	14178.602771600448\\
98.0476773598744	14215.68935580857\\
98.78061361994443	14256.917081708729\\
99.51354988001447	14303.528580868377\\
100.2464861400845	14350.484651519864\\
100.97942240015453	14397.785293663197\\
101.71235866022457	14452.141177805266\\
102.4452949202946	14508.881089792136\\
103.17823118036463	14566.028400063211\\
103.91116744043467	14623.583108618492\\
104.6441037005047	14688.25534205202\\
105.37703996057473	14755.128964407839\\
106.10997622064477	14822.469340746735\\
106.8429124807148	14890.276471068706\\
107.57584874078483	14962.244979233179\\
108.30878500085487	15039.215956377677\\
109.0417212609249	15116.709572110612\\
109.77465752099494	15194.725826431992\\
110.50759378106497	15273.264719341807\\
111.240530041135	15357.75259238773\\
111.97346630120504	15445.317967718924\\
112.70640256127507	15533.45839515042\\
113.4393388213451	15622.17387468222\\
114.17227508141514	15711.46440631432\\
114.90521134148517	15804.530176159651\\
115.6381476015552	15902.668172689962\\
116.37108386162524	16001.43016373894\\
117.10402012169527	16100.816149306587\\
117.8369563817653	16200.826129392895\\
118.56989264183534	16301.460103997879\\
119.30282890190537	16406.85270387986\\
120.0357651619754	16516.158944062732\\
120.76870142204544	16626.134650089134\\
121.50163768211547	16736.77982195907\\
122.2345739421855	16848.094459672528\\
122.96751020225554	16960.07856322952\\
123.70044646232557	17072.732132630033\\
124.4333827223956	17193.090712788762\\
125.16631898246564	17314.234753369212\\
125.89925524253567	17436.09026002455\\
126.6321915026057	17558.65723275478\\
127.36512776267574	17681.9356715599\\
128.09806402274577	17805.925576439902\\
128.8310002828158	17930.6269473948\\
129.56393654288584	18059.784043982672\\
130.29687280295587	18192.73855422352\\
131.0298090630259	18326.44305967712\\
131.76274532309594	18460.897560343466\\
132.49568158316598	18596.102056222568\\
133.228617843236	18732.056547314412\\
133.96155410330604	18868.761033619012\\
134.69449036337608	19006.21551513636\\
135.4274266234461	19144.630795280817\\
136.16036288351614	19290.080604738483\\
136.89329914358618	19436.315467453256\\
137.6262354036562	19583.33538342514\\
138.35917166372624	19731.14035265413\\
139.09210792379628	19879.73037514023\\
139.8250441838663	20029.105450883442\\
140.55798044393634	20179.265579883762\\
141.29091670400675	20330.210762141265\\
};

\addplot [
color=black,
dashed
]
table[row sep=crcr]{
63.7127254935474	15879.502487947988\\
64.52199194506049	15693.534909698661\\
65.33125839657359	15519.895716500692\\
66.14052484808668	15357.96251865033\\
66.94979129959978	15207.083379578724\\
67.75905775111288	15066.576815851873\\
68.56832420262597	14935.73179717066\\
69.37759065413907	14813.807746370843\\
70.18685710565217	14703.772192123855\\
70.99612355716526	14602.511684880059\\
71.80539000867836	14508.48402040233\\
72.61465646019145	14422.390676873074\\
73.42392291170455	14347.16135663116\\
74.23318936321765	14277.294548371727\\
75.04245581473074	14215.194059202666\\
75.85172226624384	14161.999398550215\\
76.66098871775694	14112.11471342837\\
77.47025516927003	14073.8804410712\\
78.27952162078313	14038.280709618894\\
79.08878807229623	14011.740171511408\\
79.89805452380932	13989.084237292687\\
80.70732097532242	13974.262897987059\\
81.51658742683551	13963.120963970603\\
82.32585387834861	13960.014741153864\\
83.1351203298617	13958.868369712956\\
83.9443867813748	13967.443634207037\\
84.7536532328879	13976.101969018811\\
85.562919684401	13994.879322881268\\
86.37218613591409	14015.264799913866\\
87.18145258742719	14040.533365450754\\
87.99071903894028	14072.548337318314\\
88.79998549045338	14104.859116932486\\
89.60925194196648	14146.016405180715\\
90.41851839347957	14189.928467377043\\
91.22778484499267	14234.235319318153\\
92.03705129650577	14288.966319173958\\
92.84631774801886	14344.80684562425\\
93.65558419953196	14401.136219339978\\
94.46485065104505	14466.948638508848\\
95.27411710255815	14534.704682840607\\
96.08338355407125	14603.038707480933\\
96.89265000558434	14677.262972477582\\
97.70191645709744	14756.877268020622\\
98.51118290861054	14837.153752437845\\
99.32044936012363	14918.092425729248\\
100.12971581163673	15008.31396837268\\
100.93898226314982	15100.426401121404\\
101.74824871466292	15193.280306832392\\
102.55751516617602	15286.875685505658\\
103.36678161768911	15389.535778656145\\
104.17604806920221	15494.14916056612\\
104.9853145207153	15599.578375048937\\
105.7945809722284	15705.823422104597\\
106.6038474237415	15817.06786997114\\
107.4131138752546	15934.125919267693\\
108.22238032676769	16052.069236270132\\
109.03164677828079	16170.897820978462\\
109.84091322979388	16290.611673392681\\
110.65017968130698	16415.964300296993\\
111.45944613282008	16546.3014198366\\
112.26871258433317	16677.58831773762\\
113.07797903584627	16809.824994000064\\
113.88724548735937	16943.01144862392\\
114.69651193887246	17077.350705246936\\
115.50577839038556	17220.911598150426\\
116.31504484189865	17365.481855593338\\
117.12431129341175	17511.061477575673\\
117.93357774492485	17657.65046409743\\
118.74284419643794	17805.24881515861\\
119.55211064795104	17953.85653075921\\
120.36137709946414	18109.786628833837\\
121.17064355097723	18268.570183539032\\
121.97991000249033	18428.417764484137\\
122.78917645400342	18589.329371669148\\
123.59844290551652	18751.305005094055\\
124.40770935702962	18914.34466475888\\
125.21697580854271	19078.448350663613\\
126.02624226005581	19248.463722826793\\
126.8355087115689	19422.465857020732\\
127.644775163082	19597.581754677547\\
128.4540416145951	19773.81141579723\\
129.26330806610818	19951.154840379782\\
130.07257451762126	20129.6120284252\\
130.88184096913434	20309.182979933492\\
131.69110742064743	20489.867694904653\\
132.5003738721605	20674.06396394041\\
133.3096403236736	20864.335757490506\\
134.11890677518667	21055.766127248917\\
134.92817322669976	21248.355073215647\\
135.73743967821284	21442.102595390683\\
136.54670612972592	21637.008693774034\\
137.355972581239	21833.073368365694\\
138.16523903275208	22030.29661916567\\
138.97450548426517	22228.678446173963\\
139.78377193577825	22428.218849390567\\
140.59303838729133	22632.613010471505\\
141.4023048388044	22841.420258497237\\
142.2115712903175	23051.425970999197\\
143.02083774183058	23262.630147977394\\
143.83010419334371	23475.032789431836\\
};

\addplot [
color=black,
densely dashdotted
]
table[row sep=crcr]{
59.21372681087494	15879.502487947988\\
60.09365283499892	15662.584143596063\\
60.9735788591229	15463.15656055681\\
61.853504883246885	15279.052703419831\\
62.73343090737087	15109.591253041626\\
63.61335693149485	14954.05044868733\\
64.49328295561882	14811.668088030716\\
65.3732089797428	14682.778586422688\\
66.25313500386677	14567.188027078795\\
67.13306102799075	14463.032035486407\\
68.01298705211472	14369.406863749578\\
68.8929130762387	14285.368322381013\\
69.77283910036267	14212.751460448631\\
70.65276512448665	14151.50641050228\\
71.53269114861062	14097.672517207904\\
72.4126171727346	14052.723328059677\\
73.29254319685857	14019.230508684324\\
74.17246922098255	13990.723982431333\\
75.05239524510652	13973.388706173157\\
75.9323212692305	13962.413602279052\\
76.81224729335447	13958.768294750835\\
77.69217331747845	13963.732765353996\\
78.57209934160242	13973.828693128378\\
79.4520253657264	13993.019565593146\\
80.33195138985037	14016.867553651411\\
81.21187741397435	14048.450330568061\\
82.09180343809832	14086.020762300137\\
82.9717294622223	14128.039621484884\\
83.85165548634627	14179.262438689359\\
84.73158151047025	14231.025615267326\\
85.61150753459422	14294.404936068458\\
86.4914335587182	14359.838737391856\\
87.37135958284217	14429.098841321425\\
88.25128560696615	14508.045585740902\\
89.13121163109012	14587.783427400256\\
90.0111376552141	14673.094539241678\\
90.89106367933807	14766.262459291767\\
91.77098970346205	14860.336735117078\\
92.65091572758602	14958.624903799539\\
93.53084175171	15065.992471188436\\
94.41076777583397	15174.37491262269\\
95.29069379995795	15283.7722281023\\
96.17061982408192	15403.80856157613\\
97.0505458482059	15526.410237675276\\
97.93047187232987	15650.128565824674\\
98.81039789645385	15775.91969627789\\
99.69032392057782	15912.591013710844\\
100.5702499447018	16050.474020933738\\
101.45017596882577	16189.56871794657\\
102.33010199294975	16329.87510474934\\
103.21002801707372	16480.532260156302\\
104.0899540411977	16633.662937733745\\
104.96988006532168	16788.093602575573\\
105.84980608944565	16943.824254681796\\
106.72973211356963	17102.545235403475\\
107.6096581376936	17270.80903938356\\
108.48958416181758	17440.45438783726\\
109.36951018594155	17611.481280764583\\
110.24943621006553	17783.88971816552\\
111.1293622341895	17957.679700040077\\
112.00928825831348	18140.755176395556\\
112.88921428243745	18326.86940247891\\
113.76914030656143	18514.439989979885\\
114.6490663306854	18703.466938898477\\
115.52899235480938	18893.95024923469\\
116.40891837893335	19085.889920988524\\
117.28884440305733	19285.8009803324\\
118.1687704271813	19489.761624916817\\
119.04869645130528	19695.246707597624\\
119.92862247542925	19902.25622837483\\
120.80854849955323	20110.79018724842\\
121.6884745236772	20320.848584218424\\
122.56840054780118	20532.43141928482\\
123.44832657192515	20750.90877519608\\
124.32825259604913	20974.176284415233\\
125.2081786201731	21199.029568144335\\
126.08810464429708	21425.468626383386\\
126.96803066842105	21653.49345913238\\
127.84795669254503	21883.104066391323\\
128.727882716669	22114.300448160207\\
129.607808740793	22347.08260443905\\
130.48773476491698	22583.511479869037\\
131.36766078904097	22827.58876352754\\
132.24758681316496	23073.306417844302\\
133.12751283728895	23320.664442819347\\
134.00743886141294	23569.662838452663\\
134.88736488553693	23820.30160474425\\
135.76729090966091	24072.580741694113\\
136.6472169337849	24326.50024930225\\
137.5271429579089	24582.060127568657\\
138.40706898203288	24839.260376493334\\
139.28699500615687	25099.40918860207\\
140.16692103028086	25367.48940512544\\
141.04684705440485	25637.25784819019\\
141.92677307852884	25908.71451779632\\
142.80669910265283	26181.85941394382\\
143.68662512677682	26456.69253663269\\
144.5665511509008	26733.213885862937\\
145.4464771750248	27011.423461634553\\
146.32640319914915	27291.321263947662\\
};

\addplot [
color=black,
densely dotted
]
table[row sep=crcr]{
80.6644003488891	18427.138016120385\\
81.22409558538733	18347.724816656835\\
81.78379082188556	18268.861817524958\\
82.34348605838379	18190.580062293942\\
82.90318129488202	18112.910594532983\\
83.46287653138025	18035.884457811273\\
84.02257176787847	17959.532695698017\\
84.5822670043767	17883.886351762398\\
85.14196224087493	17808.97646957362\\
85.70165747737316	17734.83409270087\\
86.26135271387139	17661.490264713342\\
86.82104795036962	17588.976029180238\\
87.38074318686785	17517.319635826847\\
87.94043842336607	17446.390255804123\\
88.5001336598643	17376.10766607768\\
89.05982889636253	17306.479063637595\\
89.61952413286076	17237.511645473936\\
90.17921936935899	17169.21260857678\\
90.73891460585722	17101.58914993621\\
91.29860984235545	17034.64846654229\\
91.85830507885368	16968.397755385096\\
92.4180003153519	16902.84421345471\\
92.97769555185013	16837.9950377412\\
93.53739078834836	16773.85742523464\\
94.09708602484659	16710.438572925108\\
94.65678126134482	16647.745677802675\\
95.21647649784305	16585.785936857417\\
95.77617173434128	16524.56654707941\\
96.3358669708395	16464.094705458727\\
96.89556220733773	16404.37760898544\\
97.45525744383596	16345.422454649628\\
98.01495268033419	16287.23643944136\\
98.57464791683242	16229.899844791029\\
99.13434315333065	16173.637264723979\\
99.69403838982888	16118.408459425385\\
100.2537336263271	16064.151165835934\\
100.81342886282533	16010.803120896342\\
101.37312409932356	15958.302061547309\\
101.93281933582179	15906.585724729533\\
102.49251457232002	15855.59184738373\\
103.05220980881825	15805.258166450596\\
103.61190504531648	15755.522418870833\\
104.1716002818147	15706.32234158515\\
104.73129551831293	15657.595671534245\\
105.29099075481116	15609.280145658831\\
105.85068599130939	15561.313500899603\\
106.41038122780762	15513.633474197268\\
106.97007646430585	15466.177802492528\\
107.52977170080408	15418.884222726092\\
108.0894669373023	15371.690471838654\\
108.64916217380053	15324.534286770928\\
109.20885741029876	15277.358896123096\\
109.76855264679699	15230.397992214948\\
110.32824788329522	15183.798209628983\\
110.88794311979345	15137.553240384625\\
111.44763835629168	15091.656776501291\\
112.0073335927899	15046.10250999842\\
112.56702882928813	15000.884132895433\\
113.12672406578636	14955.995337211752\\
113.68641930228459	14911.429814966807\\
114.24611453878282	14867.181258180011\\
114.80580977528105	14823.243358870805\\
115.36550501177928	14779.609809058604\\
115.9252002482775	14736.274300762829\\
116.48489548477573	14693.230526002915\\
117.04459072127396	14650.472176798281\\
117.60428595777219	14607.992945168353\\
118.16398119427042	14565.78652313256\\
118.72367643076865	14523.84660271032\\
119.28337166726688	14482.16687592106\\
119.8430669037651	14440.741034784209\\
120.40276214026333	14399.580674040717\\
120.96245737676156	14358.73902694664\\
121.52215261325979	14318.2145041102\\
122.08184784975802	14278.00076163681\\
122.64154308625625	14238.091455631882\\
123.20123832275448	14198.480242200816\\
123.7609335592527	14159.16077744902\\
124.32062879575093	14120.1267174819\\
124.88032403224916	14081.371718404866\\
125.44001926874739	14042.889436323321\\
125.99971450524562	14004.673527342677\\
126.55940974174385	13966.717647568335\\
127.11910497824208	13929.015453105707\\
127.6788002147403	13891.560600060197\\
128.23849545123855	13854.346744537212\\
128.7981906877368	13817.367542642158\\
129.35788592423503	13780.616650480444\\
129.91758116073328	13744.087724157476\\
130.47727639723152	13707.774419778661\\
131.03697163372976	13671.670615920519\\
131.596666870228	13635.782885184326\\
132.15636210672625	13600.119735284112\\
132.7160573432245	13564.685030580109\\
133.27575257972273	13529.482635432565\\
133.83544781622098	13494.516414201715\\
134.39514305271922	13459.790231247798\\
134.95483828921746	13425.307950931052\\
135.5145335257157	13391.07343761172\\
136.07422876221423	13357.090555650018\\
};

\addplot [
color=black,
dashdotdotted
]
table[row sep=crcr]{
74.34798723885135	22619.687648818293\\
74.99807306982746	22501.528846121473\\
75.64815890080357	22385.092119523862\\
76.29824473177968	22270.59444506744\\
76.94833056275579	22158.25279879419\\
77.5984163937319	22048.284156746067\\
78.248502224708	21940.77668582975\\
78.89858805568412	21835.271632205917\\
79.54867388666023	21731.61756328727\\
80.19875971763634	21629.714622977433\\
80.84884554861245	21529.46295518001\\
81.49893137958856	21430.762703798617\\
82.14901721056466	21333.51401273686\\
82.79910304154077	21237.617025898347\\
83.44918887251688	21142.971887186704\\
84.099274703493	21049.478740505525\\
84.7493605344691	20957.037729758427\\
85.39944636544521	20865.548998849026\\
86.04953219642132	20774.912691680922\\
86.69961802739743	20685.028952157736\\
87.34970385837354	20595.797924183076\\
87.99978968934965	20507.11975166055\\
88.64987552032576	20418.894578493775\\
89.29996135130187	20331.132789806758\\
89.95004718227798	20244.454885020958\\
90.6001330132541	20158.92062165955\\
91.2502188442302	20074.465413370533\\
91.90030467520631	19991.02467380189\\
92.55039050618242	19908.533816601626\\
93.20047633715853	19826.928255417733\\
93.85056216813464	19746.143403898197\\
94.50064799911075	19666.114675691017\\
95.15073383008686	19586.77748444419\\
95.80081966106297	19508.0672438057\\
96.45090549203908	19429.91936742356\\
97.1009913230152	19352.269268945744\\
97.7510771539913	19275.052362020255\\
98.40116298496741	19198.204060295087\\
99.05124881594352	19121.659777418234\\
99.70133464691963	19045.354927037693\\
100.35142047789574	18969.254893187925\\
101.00150630887185	18893.6284623212\\
101.65159213984796	18818.546964819572\\
102.30167797082407	18744.000651796076\\
102.95176380180018	18669.979774363776\\
103.6018496327763	18596.47458363572\\
104.2519354637524	18523.475330724974\\
104.90202129472851	18450.972266744582\\
105.55210712570462	18378.955642807603\\
106.20219295668073	18307.4157100271\\
106.85227878765684	18236.342719516117\\
107.50236461863295	18165.72692238771\\
108.15245044960906	18095.558569754943\\
108.80253628058517	18025.827912730856\\
109.45262211156128	17956.525202428522\\
110.10270794253739	17887.64068996099\\
110.7527937735135	17819.16462644131\\
111.40287960448961	17751.088372752238\\
112.05296543546572	17683.428240035424\\
112.70305126644183	17616.1960241647\\
113.35313709741794	17549.39604818106\\
114.00322292839405	17483.032635125535\\
114.65330875937016	17417.110108039124\\
115.30339459034627	17351.632789962845\\
115.95348042132238	17286.605003937715\\
116.60356625229849	17222.03107300474\\
117.2536520832746	17157.91532020493\\
117.90373791425071	17094.262068579304\\
118.55382374522682	17031.075641168878\\
119.20390957620293	16968.360361014657\\
119.85399540717904	16906.12055115766\\
120.50408123815515	16844.360534638887\\
121.15416706913126	16783.084634499373\\
121.80425290010737	16722.29717378011\\
122.45433873108348	16662.002834504605\\
123.10442456205959	16602.222279319307\\
123.7545103930357	16542.958458294357\\
124.40459622401181	16484.201491851563\\
125.05468205498792	16425.94150041271\\
125.70476788596403	16368.16860439959\\
126.35485371694014	16310.87292423399\\
127.00493954791625	16254.044580337704\\
127.65502537889236	16197.673693132523\\
128.30511120986847	16141.750383040233\\
128.95519704084458	16086.264770482629\\
129.6052828718207	16031.206975881501\\
130.2553687027968	15976.567119658639\\
130.9054545337729	15922.335322235835\\
131.55554036474902	15868.501704034881\\
132.20562619572513	15815.056385477563\\
132.85571202670124	15761.989486985674\\
133.50579785767735	15709.291340086158\\
134.15588368865346	15657.07806409236\\
134.80596951962957	15605.431244377869\\
135.45605535060568	15554.318481418917\\
136.1061411815818	15503.707375691754\\
136.7562270125579	15453.565527672614\\
137.406312843534	15403.86053783775\\
138.05639867451012	15354.560006663394\\
138.70648450548597	15305.631534625807\\
};

\addplot [
color=black,
densely dashdotdetted
]
table[row sep=crcr]{
68.73022695707306	26855.70947930608\\
69.46316321714309	26698.853503428036\\
70.19609947721312	26542.736352103293\\
70.92903573728316	26387.460538679414\\
71.66197199735319	26233.128576503972\\
72.39490825742322	26079.84297892454\\
73.12784451749326	25927.706259288694\\
73.86078077756329	25776.820930944003\\
74.59371703763333	25627.289507238038\\
75.32665329770336	25479.21450151837\\
76.05958955777339	25332.698427132575\\
76.79252581784343	25187.84379742822\\
77.52546207791346	25044.753125752883\\
78.2583983379835	24903.528925454135\\
78.99133459805353	24764.27370987954\\
79.72427085812356	24627.08248822825\\
80.4572071181936	24491.93968268679\\
81.19014337826363	24358.746600824874\\
81.92307963833366	24227.402622501337\\
82.6560158984037	24097.807127575008\\
83.38895215847373	23969.859495904733\\
84.12188841854376	23843.459107349332\\
84.8548246786138	23718.50534176764\\
85.58776093868383	23594.897579018492\\
86.32069719875386	23472.535198960715\\
87.0536334588239	23351.317581453146\\
87.78656971889393	23231.144106354623\\
88.51950597896396	23111.914153523965\\
89.252442239034	22993.527102820022\\
89.98537849910403	22875.882334101614\\
90.71831475917406	22758.88371287442\\
91.4512510192441	22642.949736595056\\
92.18418727931413	22528.358142351502\\
92.91712353938416	22415.04164101407\\
93.6500597994542	22302.932943453085\\
94.38299605952423	22191.964760538867\\
95.11593231959426	22082.06980314173\\
95.8488685796643	21973.180782132004\\
96.58180483973433	21865.230408379997\\
97.31474109980437	21758.151392756045\\
98.0476773598744	21651.87644613046\\
98.78061361994443	21546.33827937356\\
99.51354988001447	21441.46960335567\\
100.2464861400845	21337.2031289471\\
100.97942240015453	21233.471567018194\\
101.71235866022457	21130.207628439246\\
102.4452949202946	21027.371322081908\\
103.17823118036463	20925.04289859282\\
103.91116744043467	20823.27474240944\\
104.6441037005047	20722.11322295179\\
105.37703996057473	20621.60470963988\\
106.10997622064477	20521.795571893712\\
106.8429124807148	20422.732179133305\\
107.57584874078483	20324.460900778668\\
108.30878500085487	20227.028106249803\\
109.0417212609249	20130.480164966735\\
109.77465752099494	20034.863446349467\\
110.50759378106497	19940.224319818008\\
111.240530041135	19846.609154792368\\
111.97346630120504	19754.06432069256\\
112.70640256127507	19662.63618693859\\
113.4393388213451	19572.370444548673\\
114.17227508141514	19483.26726611833\\
114.90521134148517	19395.2832173027\\
115.6381476015552	19308.37870613476\\
116.37108386162524	19222.514140647472\\
117.10402012169527	19137.64992887381\\
117.8369563817653	19053.746478846737\\
118.56989264183534	18970.764198599227\\
119.30282890190537	18888.66349616425\\
120.0357651619754	18807.40477957477\\
120.76870142204544	18726.948456863753\\
121.50163768211547	18647.25493606417\\
122.2345739421855	18568.28462520901\\
122.96751020225554	18489.997932331207\\
123.70044646232557	18412.35526546376\\
124.4333827223956	18335.317032639618\\
125.16631898246564	18258.94693894631\\
125.89925524253567	18183.48200429468\\
126.6321915026057	18108.900494285204\\
127.36512776267574	18035.165811825504\\
128.09806402274577	17962.241359823194\\
128.8310002828158	17890.0905411859\\
129.56393654288584	17818.676758821242\\
130.29687280295587	17747.96341563685\\
131.0298090630259	17677.91391454034\\
131.76274532309594	17608.491658439325\\
132.49568158316598	17539.66005024145\\
133.228617843236	17471.382492854314\\
133.96155410330604	17403.62238918555\\
134.69449036337608	17336.343142142778\\
135.4274266234461	17269.50815463362\\
136.16036288351614	17203.095665834004\\
136.89329914358618	17137.358914607998\\
137.6262354036562	17072.366850145303\\
138.35917166372624	17008.07437384473\\
139.09210792379628	16944.43638710509\\
139.8250441838663	16881.407791325186\\
140.55798044393634	16818.94348790383\\
141.29091670400675	16756.998378239794\\
};

\addplot [
color=black,
loosely dashed
]
table[row sep=crcr]{
63.7127254935474	31606.871313647884\\
64.52199194506049	31379.812571556977\\
65.33125839657359	31154.22963315031\\
66.14052484808668	30931.368358243228\\
66.94979129959978	30712.474606651023\\
67.75905775111288	30498.794238189002\\
68.56832420262597	30291.57311267249\\
69.37759065413907	30091.94281758855\\
70.18685710565217	29897.448371622177\\
70.99612355716526	29706.470799862553\\
71.80539000867836	29518.78414220364\\
72.61465646019145	29334.16243853941\\
73.42392291170455	29152.379728763804\\
74.23318936321765	28973.2100527708\\
75.04245581473074	28796.427450454346\\
75.85172226624384	28621.8059617084\\
76.66098871775694	28449.11962642694\\
77.47025516927003	28278.142484503893\\
78.27952162078313	28108.648575833246\\
79.08878807229623	27940.411940308957\\
79.89805452380932	27773.20661782497\\
80.70732097532242	27606.806648275255\\
81.51658742683551	27441.904372216817\\
82.32585387834861	27279.35841133327\\
83.1351203298617	27118.97075153063\\
83.9443867813748	26960.54189801756\\
84.7536532328879	26803.872356002765\\
85.562919684401	26648.762630694924\\
86.37218613591409	26495.013227302716\\
87.18145258742719	26342.42465103483\\
87.99071903894028	26190.797407099955\\
88.79998549045338	26039.93200070677\\
89.60925194196648	25889.628937063957\\
90.41851839347957	25739.6887213802\\
91.22778484499267	25589.911858864194\\
92.03705129650577	25440.098854724616\\
92.84631774801886	25290.443366400592\\
93.65558419953196	25141.883122113915\\
94.46485065104505	24994.348962811742\\
95.27411710255815	24847.70627923837\\
96.08338355407125	24701.820462138094\\
96.89265000558434	24556.55690225522\\
97.70191645709744	24411.78099033404\\
98.51118290861054	24267.358117118845\\
99.32044936012363	24123.15367335394\\
100.12971581163673	23979.033049783622\\
100.93898226314982	23834.861637152182\\
101.74824871466292	23690.504826203927\\
102.55751516617602	23545.828007683147\\
103.36678161768911	23400.696572334135\\
104.17604806920221	23254.903220560856\\
104.9853145207153	23107.940351688892\\
105.7945809722284	22959.97207156148\\
106.6038474237415	22811.286549947352\\
107.4131138752546	22662.17195661526\\
108.22238032676769	22512.916461333956\\
109.03164677828079	22363.80823387218\\
109.84091322979388	22215.135443998668\\
110.65017968130698	22067.186261482184\\
111.45944613282008	21920.24885609147\\
112.26871258433317	21774.611397595265\\
113.07797903584627	21630.56205576231\\
113.88724548735937	21488.389000361367\\
114.69651193887246	21348.380401161172\\
115.50577839038556	21210.800909976417\\
116.31504484189865	21075.104002623477\\
117.12431129341175	20940.90655208664\\
117.93357774492485	20808.14780440114\\
118.74284419643794	20676.767005602214\\
119.55211064795104	20546.7034017251\\
120.36137709946414	20417.89623880503\\
121.17064355097723	20290.284762877247\\
121.97991000249033	20163.808219976974\\
122.78917645400342	20038.405856139463\\
123.59844290551652	19914.01691739994\\
124.40770935702962	19790.580649793636\\
125.21697580854271	19668.0362993558\\
126.02624226005581	19546.323112121667\\
126.8355087115689	19425.380334126454\\
127.644775163082	19305.366560291142\\
128.4540416145951	19186.495491446163\\
129.26330806610818	19068.72196105171\\
130.07257451762126	18952.00023152201\\
130.88184096913434	18836.284565271315\\
131.69110742064743	18721.529224713853\\
132.5003738721605	18607.688472263875\\
133.3096403236736	18494.716570335615\\
134.11890677518667	18382.56778134332\\
134.92817322669976	18271.196367701228\\
135.73743967821284	18160.556591823577\\
136.54670612972592	18050.602716124617\\
137.355972581239	17941.28900301857\\
138.16523903275208	17832.569714919697\\
138.97450548426517	17724.567073700317\\
139.78377193577825	17617.69475941431\\
140.59303838729133	17511.877813546846\\
141.4023048388044	17407.009109489634\\
142.2115712903175	17302.981520634385\\
143.02083774183058	17199.68792037279\\
143.83010419334371	17097.021182096567\\
};

\addplot [
color=black,
loosely dashdotted
]
table[row sep=crcr]{
59.21372681087494	34824.278162391136\\
60.09365283499892	34703.36614731964\\
60.9735788591229	34492.353902353774\\
61.853504883246885	34209.078110991395\\
62.73343090737087	33871.37545673033\\
63.61335693149485	33497.08262306846\\
64.49328295561882	33104.03629350361\\
65.3732089797428	32710.073151533645\\
66.25313500386677	32333.029880656417\\
67.13306102799075	31990.743164369764\\
68.01298705211472	31701.049686171533\\
68.8929130762387	31481.786129559587\\
69.77283910036267	31350.789178031766\\
70.65276512448665	31317.072274348466\\
71.53269114861062	31240.824540978956\\
72.4126171727346	31080.06076593239\\
73.29254319685857	30850.47006246969\\
74.17246922098255	30567.741543851767\\
75.05239524510652	30247.564323339557\\
75.9323212692305	29905.627514193962\\
76.81224729335447	29557.62022967592\\
77.69217331747845	29219.231583046338\\
78.57209934160242	28906.150687566143\\
79.4520253657264	28634.066656496252\\
80.33195138985037	28418.66860309759\\
81.21187741397435	28275.64564063107\\
82.09180343809832	28220.686882357622\\
82.9717294622223	28181.155876927\\
83.85165548634627	28062.537561168207\\
84.73158151047025	27878.409326169618\\
85.61150753459422	27642.64320574464\\
86.4914335587182	27369.111233706648\\
87.37135958284217	27071.68544386904\\
88.25128560696615	26764.237870045188\\
89.13121163109012	26460.640546048493\\
90.0111376552141	26174.76550569233\\
90.89106367933807	25920.484782790085\\
91.77098970346205	25711.67041115515\\
92.65091572758602	25562.19442460091\\
93.53084175171	25485.92885694075\\
94.41076777583397	25464.283268527044\\
95.29069379995795	25381.58915907015\\
96.17061982408192	25236.859610289364\\
97.0505458482059	25042.359516798522\\
97.93047187232987	24810.353773211446\\
98.81039789645385	24553.107274141985\\
99.69032392057782	24282.88491420396\\
100.5702499447018	24011.95158801123\\
101.45017596882577	23752.572190177612\\
102.33010199294975	23517.01161531695\\
103.21002801707372	23317.534758043068\\
104.0899540411977	23166.406512969814\\
104.96988006532168	23075.891774711014\\
105.84980608944565	23052.454995479733\\
106.72973211356963	23000.17312367927\\
107.6096581376936	22889.40398456593\\
108.48958416181758	22730.99162092264\\
109.36951018594155	22535.780075532348\\
110.24943621006553	22314.61339117798\\
111.1293622341895	22078.33561064249\\
112.00928825831348	21837.790776708807\\
112.88921428243745	21603.822932159874\\
113.76914030656143	21387.27611977862\\
114.6490663306854	21198.994382348\\
115.52899235480938	21049.82176265093\\
116.40891837893335	20950.602303470372\\
117.28884440305733	20912.180047589252\\
118.1687704271813	20885.561191652814\\
119.04869645130528	20805.009899736502\\
119.92862247542925	20679.730460767154\\
120.80854849955323	20519.18110597654\\
121.6884745236772	20332.820066596436\\
122.56840054780118	20130.10557385862\\
123.44832657192515	19920.495858994862\\
124.32825259604913	19713.44915323694\\
125.2081786201731	19518.423687816623\\
126.08810464429708	19344.877693965693\\
126.96803066842105	19202.269402915914\\
127.84795669254503	19100.057045899073\\
128.727882716669	19047.698854146936\\
129.607808740793	19032.744393505116\\
130.48773476491698	18975.24299825691\\
131.36766078904097	18874.313843027103\\
132.24758681316496	18738.531789634002\\
133.12751283728895	18576.471699895934\\
134.00743886141294	18396.708435631204\\
134.88736488553693	18207.81685865813\\
135.76729090966091	18018.37183079502\\
136.6472169337849	17836.9482138602\\
137.5271429579089	17672.12086967198\\
138.40706898203288	17532.46466004867\\
139.28699500615687	17426.554446808586\\
140.16692103028086	17362.965091770046\\
141.04684705440485	17346.300775827887\\
141.92677307852884	17307.85677785945\\
142.80669910265283	17226.003910799453\\
143.68662512677682	17108.780751844635\\
144.5665511509008	16964.225878191733\\
145.4464771750248	16800.377867037492\\
146.32640319914915	16625.27529557858\\
};
\end{axis}
\end{tikzpicture}%
