%Drag_and_Thrust_curves_weights
\begin{tikzpicture}

\begin{axis}[
width=\figurewidth,
height=\figureheight,
scaled ticks=false, tick label style={/pgf/number format/fixed},
xmin=74.02279331486532,
xmax=146.32640319914915,
xlabel={Speed ((m/s))},
xmajorgrids,
ymin=11754.847395308876,
ymax=22829.459842518954,
ylabel={Forces ((N))},
ymajorgrids,
legend style={at={(1.03,0.5)},anchor=west,draw=black,fill=white,legend cell align=left}
]

\addplot [
color=black,
solid
]
table[row sep=crcr]{
74.02279331486532	13372.235347866581\\
74.64957549110117	13267.62722158932\\
75.27635766733702	13166.020967988485\\
75.90313984357287	13069.423439863023\\
76.52992201980872	12977.881408768517\\
77.15670419604457	12888.339828826094\\
77.78348637228042	12806.012897018816\\
78.41026854851627	12725.387240964299\\
79.03705072475212	12649.852617991868\\
79.66383290098797	12577.5122522702\\
80.29061507722382	12508.793527631493\\
80.91739725345967	12444.074646706113\\
81.54417942969552	12382.184352572822\\
82.17096160593137	12324.389978925656\\
82.79774378216722	12269.329590142306\\
83.42452595840307	12217.729574273768\\
84.05130813463892	12169.489508357716\\
84.67809031087477	12123.320528786733\\
85.30487248711061	12081.880145928164\\
85.93165466334646	12040.345709192121\\
86.55843683958231	12005.673312254057\\
87.18521901581816	11970.748935156214\\
87.81200119205401	11939.996587427147\\
88.43878336828986	11911.849226934568\\
89.06556554452571	11883.933322230489\\
89.69234772076156	11862.507323663986\\
90.31912989699741	11840.93107234767\\
90.94591207323326	11821.751289491696\\
91.57269424946911	11806.877787468286\\
92.19947642570496	11791.902132068255\\
92.82625860194081	11780.31459430435\\
93.45304077817666	11772.008332461171\\
94.0798229544125	11763.646173726696\\
94.70660513064836	11758.440660335806\\
95.3333873068842	11756.699796319233\\
95.96016948312005	11754.947449008818\\
96.5869516593559	11754.847395308876\\
97.21373383559175	11759.653500774526\\
97.8405160118276	11764.490693655942\\
98.46729818806345	11769.358973953123\\
99.0940803642993	11779.471251614594\\
99.72086254053515	11790.861127464843\\
100.347644716771	11802.322818552599\\
100.97442689300685	11814.655338682454\\
101.6012090692427	11832.544454287787\\
102.22799124547855	11850.544270064505\\
102.8547734217144	11868.65478601261\\
103.48155559795025	11887.9268620325\\
104.1083377741861	11912.392930405815\\
104.73511995042195	11937.006740996536\\
105.3619021266578	11961.768293804662\\
105.98868430289365	11986.677588830196\\
106.6154664791295	12017.16568981134\\
107.24224865536534	12048.375435449256\\
107.8690308316012	12079.768122462736\\
108.49581300783704	12111.34375085178\\
109.12259518407289	12144.834825112299\\
109.74937736030874	12182.600331376267\\
110.37615953654459	12220.582135286093\\
111.00294171278044	12258.780236841774\\
111.62972388901629	12297.194636043314\\
112.25650606525214	12337.454489496458\\
112.88328824148799	12381.96127833928\\
113.51007041772384	12426.715878210392\\
114.13685259395969	12471.7182891098\\
114.76363477019554	12516.968511037496\\
115.39041694643139	12562.466543993483\\
116.01719912266724	12612.702589133141\\
116.64398129890309	12664.203079337\\
117.27076347513893	12715.981051063723\\
117.89754565137478	12768.036504313308\\
118.52432782761063	12820.369439085758\\
119.15111000384648	12872.97985538107\\
119.77789218008233	12930.193720601506\\
120.40467435631818	12988.69086132122\\
121.03145653255403	13047.493311170507\\
121.65823870878988	13106.601070149365\\
122.28502088502573	13166.014138257795\\
122.91180306126158	13225.732515495798\\
123.53858523749743	13286.693625320713\\
124.16536741373328	13352.157193729585\\
124.79214958996913	13417.952055986882\\
125.41893176620498	13484.078212092596\\
126.04571394244083	13550.535662046734\\
126.67249611867668	13617.324405849293\\
127.29927829491253	13684.444443500268\\
127.92606047114838	13751.895774999666\\
128.5528426473842	13823.658619190892\\
129.17962482362006	13896.73609183954\\
129.8064069998559	13970.169000167596\\
130.43318917609176	14043.957344175054\\
131.0599713523276	14118.101123861925\\
131.68675352856346	14192.600339228204\\
132.3135357047993	14267.45499027389\\
132.94031788103516	14342.665076998985\\
133.567100057271	14420.751078557296\\
134.19388223350686	14501.435084428509\\
134.8206644097427	14582.496824922251\\
135.44744658597855	14663.936300038531\\
136.07422876221423	14745.75350977732\\
};

\addplot [
color=black,
densely dashed
]
table[row sep=crcr]{
76.30084717892507	14207.96217971376\\
76.93120715192063	14099.497008852597\\
77.5615671249162	13993.830108239288\\
78.19192709791176	13893.741902334947\\
78.82228707090732	13798.203578418303\\
79.45264704390289	13705.176889680948\\
80.08300701689845	13619.15963838779\\
80.71336698989401	13534.286040352075\\
81.34372696288958	13456.096108938626\\
81.97408693588514	13379.474973251488\\
82.6044469088807	13308.366075172537\\
83.23480688187627	13239.29856239552\\
83.86516685487183	13175.277886502145\\
84.4955268278674	13113.03160542992\\
85.12588680086296	13056.095156650936\\
85.75624677385852	12999.904164311336\\
86.38660674685408	12950.036763653256\\
87.01696671984965	12899.804149886544\\
87.64732669284521	12856.276849854346\\
88.27768666584078	12813.143027302902\\
88.90804663883634	12773.944821910309\\
89.5384066118319	12737.870379749043\\
90.16876658482747	12702.12535078812\\
90.79912655782303	12673.059694269663\\
91.4294865308186	12643.791550711763\\
92.05984650381416	12617.73972222033\\
92.69020647680972	12595.469099684566\\
93.32056644980528	12573.046504158336\\
93.95092642280085	12555.546551174875\\
94.58128639579641	12540.095300153725\\
95.21164636879197	12524.54072620403\\
95.84200634178754	12514.384220233349\\
96.4723663147831	12505.759902375308\\
97.10272628777867	12497.079047663603\\
97.73308626077423	12492.990456676807\\
98.36344623376979	12491.183857746948\\
98.99380620676536	12489.365644051259\\
99.62416617976092	12490.002332485765\\
100.25452615275648	12494.98746236574\\
100.88488612575205	12500.004035580667\\
101.51524609874761	12505.052052130552\\
102.14560607174317	12515.690357028243\\
102.77596604473874	12527.497087164971\\
103.4063260177343	12539.376454750394\\
104.03668599072986	12551.71152723048\\
104.66704596372543	12570.247008416773\\
105.29740593672099	12588.894457178441\\
105.92776590971656	12607.653873515494\\
106.55812588271212	12626.555353648135\\
107.18848585570768	12651.890837843343\\
107.81884582870325	12677.375755753583\\
108.44920580169881	12703.010107378845\\
109.07956577469437	12728.793892719132\\
109.70992574768994	12758.661453743449\\
110.3402857206855	12790.958223481312\\
110.97064569368106	12823.440029086798\\
111.60100566667663	12856.106870559908\\
112.23136563967219	12888.95874790064\\
112.86172561266775	12927.480158196046\\
113.49208558566332	12966.759568629206\\
114.12244555865888	13006.25775309554\\
114.75280553165445	13045.974711595045\\
115.38316550465001	13085.910444127723\\
116.01352547764557	13130.605713239414\\
116.64388545064114	13176.86115971481\\
117.2742454236367	13223.367254401881\\
117.90460539663226	13270.12399730063\\
118.53496536962783	13317.131388411051\\
119.16532534262339	13365.352767049986\\
119.79568531561895	13418.549685108856\\
120.42604528861452	13472.027261570855\\
121.05640526161008	13525.785496435987\\
121.68676523460564	13579.824389704247\\
122.31712520760121	13634.143941375643\\
122.94748518059677	13688.832235125035\\
123.57784515359234	13749.216905110447\\
124.2082051265879	13809.910379703399\\
124.83856509958346	13870.91265890389\\
125.46892507257903	13932.223742711923\\
126.09928504557459	13993.8436311275\\
126.72964501857015	14055.772324150614\\
127.36000499156572	14119.170219748106\\
127.99036496456128	14187.039808849513\\
128.62072493755684	14255.244484775823\\
129.2510849105524	14323.784247527037\\
129.88144488354797	14392.659097103153\\
130.51180485654353	14461.86903350417\\
131.1421648295391	14531.414056730093\\
131.77252480253466	14601.294166780914\\
132.40288477553023	14674.874095819867\\
133.0332447485258	14750.565474150824\\
133.66360472152135	14826.616357537001\\
134.29396469451692	14903.026745978397\\
134.92432466751248	14979.796639475004\\
135.55468464050804	15056.926038026835\\
136.1850446135036	15134.414941633886\\
136.81540458649917	15212.26335029615\\
137.44576455949473	15291.338809461298\\
138.0761245324903	15374.835306838693\\
138.70648450548597	15458.713863514588\\
};

\addplot [
color=black,
dashdotted
]
table[row sep=crcr]{
78.51302867296727	15043.764766349901\\
79.14714875408887	14931.466972398879\\
79.78126883521048	14821.75931221917\\
80.41538891633209	14718.201841376125\\
81.0495089974537	14618.680560483726\\
81.68362907857531	14522.463009478512\\
82.31774915969692	14432.487201584776\\
82.95186924081852	14343.643685620125\\
83.58598932194013	14262.53849120202\\
84.22010940306174	14181.635552378022\\
84.85422948418335	14108.148414035924\\
85.48834956530496	14034.726784195442\\
86.12246964642657	13968.58568380776\\
86.75658972754817	13901.955786733068\\
87.39070980866978	13843.0737432596\\
88.02482988979139	13783.841164588322\\
88.658949970913	13730.790764154308\\
89.29307005203461	13678.933030365155\\
89.92719013315622	13630.86964727555\\
90.56131021427782	13586.352967102433\\
91.19543029539943	13542.398022427773\\
91.82955037652104	13505.177286859811\\
92.46367045764265	13467.698636598772\\
93.09779053876426	13434.437030717747\\
93.73191061988587	13404.250903077655\\
94.36603070100747	13373.859865515964\\
95.00015078212908	13350.154732967041\\
95.63427086325069	13327.037705715695\\
96.2683909443723	13304.339307644197\\
96.90251102549391	13288.413455876298\\
97.53663110661552	13272.383044857374\\
98.17075118773712	13256.859708651009\\
98.80487126885873	13247.973666442922\\
99.43899134998034	13239.030410882891\\
100.07311143110195	13230.029941970917\\
100.70723151222356	13227.49397196113\\
101.34135159334517	13225.621434469267\\
101.97547167446677	13223.737143233748\\
102.60959175558838	13225.531120021922\\
103.24371183670999	13230.6958865903\\
103.8778319178316	13235.892472732503\\
104.51195199895321	13241.120878448533\\
105.14607208007482	13252.691678516583\\
105.78019216119642	13264.916865120584\\
106.41431224231803	13277.21555832509\\
107.04843232343964	13289.944861815506\\
107.68255240456125	13309.129395348169\\
108.31667248568286	13328.427236217223\\
108.95079256680447	13347.838384422665\\
109.58491264792607	13367.362839964499\\
110.21903272904768	13392.956150754704\\
110.85315281016929	13419.316244628646\\
111.4872728912909	13445.82756028406\\
112.12139297241251	13472.490097720949\\
112.75551305353412	13502.10274105741\\
113.38963313465572	13535.492051186473\\
114.02375321577733	13569.068611251292\\
114.65787329689894	13602.832421251866\\
115.29199337802055	13636.783481188198\\
115.92611345914216	13674.68173280551\\
116.56023354026377	13715.265978749563\\
117.19435362138537	13756.071616492854\\
117.82847370250698	13797.098646035383\\
118.46259378362859	13838.34706737715\\
119.0967138647502	13881.943020287255\\
119.73083394587181	13929.708405462692\\
120.36495402699342	13977.727438010052\\
120.99907410811502	14026.000117929327\\
121.63319418923663	14074.526445220527\\
122.26731427035824	14123.30641988365\\
122.90143435147985	14175.966859724569\\
123.53555443260146	14231.155309839583\\
124.16967451372307	14286.627776608404\\
124.80379459484467	14342.384260031022\\
125.43791467596628	14398.424760107448\\
126.07203475708789	14454.749276837676\\
126.7061548382095	14513.191522398141\\
127.34027491933111	14575.789618127283\\
127.97439500045272	14638.700213501312\\
128.60851508157432	14701.923308520229\\
129.24263516269593	14765.458903184031\\
129.87675524381754	14829.306997492718\\
130.51087532493915	14893.467591446293\\
131.14499540606076	14959.971063704057\\
131.77911548718237	15030.270528832652\\
132.41323556830397	15100.909090306415\\
133.04735564942558	15171.886748125342\\
133.6814757305472	15243.203502289442\\
134.3155958116688	15314.859352798709\\
134.9497158927904	15386.854299653143\\
135.58383597391202	15459.18834285274\\
136.21795605503362	15535.225993486209\\
136.85207613615523	15613.558729793614\\
137.48619621727684	15692.255272855673\\
138.12031629839845	15771.31562267238\\
138.75443637952006	15850.739779243733\\
139.38855646064167	15930.527742569739\\
140.02267654176327	16010.67951265039\\
140.65679662288488	16091.195089485695\\
141.29091670400675	16172.07447307568\\
};

\addplot [
color=black,
dashed
]
table[row sep=crcr]{
80.66437269010765	15879.491598197079\\
81.30241038205953	15763.381926079443\\
81.94044807401141	15649.650513960567\\
82.5784857659633	15542.641909697139\\
83.21652345791517	15439.149218262237\\
83.85456114986705	15339.756533833342\\
84.49259884181893	15245.828776951423\\
85.13063653377081	15154.081563129603\\
85.76867422572269	15069.010580611352\\
86.40671191767457	14984.92693014969\\
87.04474960962645	14907.970187747476\\
87.68278730157833	14831.556735379636\\
88.32082499353021	14761.937324787525\\
88.95886268548209	14693.189247227721\\
89.59690037743397	14630.095886081463\\
90.23493806938585	14568.996902024475\\
90.87297576133773	14511.583933901511\\
91.5110134532896	14458.106304022682\\
92.14905114524149	14405.49369844215\\
92.78708883719337	14359.598225397378\\
93.42512652914525	14313.38606961342\\
94.06316422109713	14272.507606245848\\
94.701201913049	14233.882523326696\\
95.33923960500088	14195.823554587634\\
95.97727729695276	14164.72152148041\\
96.61531498890464	14133.412038752627\\
97.25335268085652	14104.834881996907\\
97.8913903728084	14081.0247200632\\
98.52942806476028	14057.05886056339\\
99.16746575671216	14036.708900819507\\
99.80550344866404	14020.20335573667\\
100.44354114061592	14003.591955472288\\
101.0815788325678	13990.145829652109\\
101.71961652451968	13980.940460068341\\
102.35765421647156	13971.677168017675\\
102.99569190842344	13963.74276491644\\
103.63372960037532	13961.815942450788\\
104.2717672923272	13959.87722056297\\
104.90980498427908	13957.926599252993\\
105.54784267623096	13961.306590101653\\
106.18588036818284	13966.65171329667\\
106.82391806013472	13972.029050444358\\
107.4619557520866	13977.78606806364\\
108.09999344403847	13990.357124232318\\
108.73803113599035	14003.00259805859\\
109.37606882794223	14015.722489542466\\
110.01410651989411	14029.246809208536\\
110.652144211846	14049.083410905161\\
111.29018190379787	14069.034724294404\\
111.92821959574975	14089.100749376265\\
112.56625728770163	14109.281486150749\\
113.20429497965351	14135.49116540591\\
113.84233267160539	14162.730891250954\\
114.48037036355727	14190.123713153735\\
115.11840805550915	14217.669631114253\\
115.75644574746103	14247.402774709282\\
116.39448343941291	14281.890569864096\\
117.03252113136479	14316.567935771853\\
117.67055882331667	14351.434872432554\\
118.30859651526855	14386.491379846193\\
118.94663420722043	14424.129902758692\\
119.5846718991723	14466.026643816604\\
120.22270959112419	14508.147520652761\\
120.86074728307607	14550.492533267166\\
121.49878497502795	14593.061681659812\\
122.13682266697982	14635.909735562976\\
122.7748603589317	14685.194558010997\\
123.41289805088358	14734.736171592653\\
124.05093574283546	14784.534576307953\\
124.68897343478734	14834.589772156893\\
125.32701112673922	14884.901759139471\\
125.9650488186911	14936.403032708913\\
126.60308651064298	14993.313963804574\\
127.24112420259486	15050.512431719371\\
127.87916189454674	15107.998436453294\\
128.5171995864986	15165.77197800635\\
129.15523727845047	15223.833056378531\\
129.79327497040234	15282.18167156985\\
130.4313126623542	15345.091079179932\\
131.06935035430607	15409.924009178942\\
131.70738804625793	15475.073312012666\\
132.3454257382098	15540.538987681104\\
132.98346343016166	15606.321036184256\\
133.62150112211353	15672.41945752212\\
134.2595388140654	15738.834251694698\\
134.89757650601726	15809.127000253828\\
135.53561419796912	15881.88092521022\\
136.173651889921	15954.978149346995\\
136.81168958187286	16028.418672664164\\
137.44972727382472	16102.202495161722\\
138.08776496577659	16176.329616839672\\
138.72580265772845	16250.800037698016\\
139.36384034968032	16325.61375773675\\
140.00187804163218	16404.76432247012\\
140.63991573358405	16485.766451226045\\
141.2779534255359	16567.136895838135\\
141.91599111748778	16648.875656306387\\
142.55402880943964	16730.982732630797\\
143.1920665013915	16813.45812481137\\
143.83010419334371	16896.301832848152\\
};

\addplot [
color=black,
densely dashdotted
]
table[row sep=crcr]{
82.75999886822794	16715.294184833227\\
83.40208376045946	16595.390564709247\\
84.04416865269098	16477.649964805696\\
84.68625354492251	16367.205915195898\\
85.32833843715403	16259.751521430704\\
85.97042332938555	16157.197317435022\\
86.61250822161708	16059.322914098797\\
87.2545931138486	15964.683711662\\
87.89667800608012	15875.64827152094\\
88.53876289831165	15788.937622746316\\
89.18084779054317	15707.965307042226\\
89.82293268277469	15629.185160191606\\
90.46501757500621	15555.465318641885\\
91.10710246723774	15484.60601813562\\
91.74918735946926	15417.29318893327\\
92.39127225170078	15354.333475350255\\
93.0333571439323	15292.547385163864\\
93.67544203616383	15237.454395241528\\
94.31752692839535	15181.982479669701\\
94.95961182062688	15133.009225849586\\
95.6016967128584	15085.417779439096\\
96.24378160508992	15039.991999848722\\
96.88586649732144	15000.22301768047\\
97.52795138955297	14960.189601098538\\
98.17003628178449	14925.334207860782\\
98.81212117401601	14893.107991418075\\
99.45420606624754	14860.671685219233\\
100.09629095847906	14835.138785202016\\
100.73837585071058	14810.478943250759\\
101.3804607429421	14785.661422227326\\
102.02254563517363	14768.13349924979\\
102.66463052740515	14751.04623479368\\
103.30671541963667	14733.851767975772\\
103.9488003118682	14722.941682808258\\
104.59088520409972	14713.415793088787\\
105.23297009633124	14703.83124374433\\
105.87505498856277	14698.082234108359\\
106.51713988079429	14696.08911060483\\
107.15922477302581	14694.083936239533\\
107.80130966525734	14692.066711012472\\
108.44339455748886	14697.463245237335\\
109.08547944972038	14702.989497594723\\
109.7275643419519	14708.548373879994\\
110.36964923418343	14715.830820308647\\
111.01173412641495	14728.823145370035\\
111.65381901864647	14741.890835175376\\
112.295903910878	14755.033889724682\\
112.93798880310952	14769.755662552398\\
113.58007369534104	14790.24747212335\\
114.22215858757257	14810.85545328075\\
114.86424347980409	14831.579606024601\\
115.50632837203561	14852.419930354903\\
116.14841326426713	14879.636101650693\\
116.79049815649866	14907.76002038132\\
117.43258304873018	14936.03898356731\\
118.0746679409617	14964.472991208664\\
118.71675283319323	14994.703248642001\\
119.35883772542475	15030.295543484088\\
120.00092261765627	15066.07982167688\\
120.6430075098878	15102.056083220368\\
121.28509240211932	15138.224328114557\\
121.92717729435084	15175.967368132588\\
122.56926218658236	15219.184258213889\\
123.21134707881389	15262.628136567657\\
123.85343197104541	15306.299003193883\\
124.49551686327693	15350.196858092575\\
125.13760175550846	15394.321701263723\\
125.77968664773998	15443.462419964722\\
126.4217715399715	15494.536129574613\\
127.06385643220302	15545.869898405153\\
127.70594132443455	15597.463726456333\\
128.34802621666609	15649.31761372816\\
128.99011110889762	15701.43156022063\\
129.63219600112916	15758.644869182033\\
130.2742808933607	15817.580827734786\\
130.91636578559223	15876.807982482786\\
131.55845067782377	15936.32633342603\\
132.2005355700553	15996.135880564523\\
132.84262046228685	16056.236623898267\\
133.48470535451838	16117.953754026705\\
134.12679024674992	16184.72257941218\\
134.76887513898146	16251.81180399393\\
135.410960031213	16319.221427771947\\
136.05304492344453	16386.95145074624\\
136.69512981567607	16455.001872916808\\
137.3372147079076	16523.372694283647\\
137.97929960013914	16592.06391484676\\
138.62138449237068	16666.833039839134\\
139.26346938460222	16742.065874870237\\
139.90555427683375	16817.64637812506\\
140.5476391690653	16893.574549603603\\
141.18972406129683	16969.85038930587\\
141.83180895352837	17046.473897231856\\
142.4738938457599	17123.445073381557\\
143.11597873799144	17200.76391775499\\
143.75806363022298	17283.684978259913\\
144.40014852245451	17367.384157993187\\
145.04223341468605	17451.456341004046\\
145.6843183069176	17535.9015272925\\
146.32640319914915	17620.71971685855\\
};

\addplot [
color=black,
densely dotted
]
table[row sep=crcr]{
74.02279331486532	22829.459842518954\\
74.75313280864597	22698.479442250464\\
75.48347230242662	22568.83405826208\\
76.21381179620727	22440.657106638733\\
76.94415128998791	22313.76478634961\\
77.67449078376856	22187.528302638777\\
78.40483027754921	22061.999596707654\\
79.13516977132986	21937.25981551513\\
79.8655092651105	21813.39010602009\\
80.59584875889115	21690.471615181414\\
81.3261882526718	21568.58548995799\\
82.05652774645245	21447.812877308712\\
82.7868672402331	21328.234924192446\\
83.51720673401374	21209.93277756809\\
84.24754622779439	21092.987584394516\\
84.97788572157503	20977.480491630628\\
85.70822521535568	20863.492646235296\\
86.43856470913633	20751.105195167405\\
87.16890420291698	20640.399285385844\\
87.89924369669762	20531.280990593772\\
88.62958319047827	20423.464897797985\\
89.35992268425892	20316.962216199736\\
90.09026217803957	20211.791758515228\\
90.82060167182021	20107.972337460676\\
91.55094116560086	20005.52276575233\\
92.28128065938151	19904.461856106376\\
93.01162015316216	19804.808421239042\\
93.7419596469428	19706.581273866555\\
94.47229914072345	19609.799226705127\\
95.2026386345041	19514.48109247097\\
95.93297812828474	19420.64568388031\\
96.66331762206539	19328.311813649372\\
97.39365711584604	19237.498294494362\\
98.12399660962669	19148.223939131505\\
98.85433610340733	19060.76643225917\\
99.58467559718798	18975.437276666747\\
100.31501509096863	18892.07863842392\\
101.04535458474928	18810.527763760947\\
101.77569407852992	18730.62189890808\\
102.50603357231057	18652.198290095585\\
103.23637306609122	18575.094183553694\\
103.96671255987187	18499.146825512682\\
104.69705205365251	18424.1934622028\\
105.42739154743316	18350.071339854294\\
106.15773104121381	18276.617704697434\\
106.88807053499445	18203.66980296247\\
107.6184100287751	18131.064880879654\\
108.34874952255575	18058.640184679247\\
109.0790890163364	17986.2329605915\\
109.80942851011704	17914.09712098306\\
110.53976800389769	17842.682277334214\\
111.27010749767834	17771.973425378124\\
112.00044699145899	17701.95407624274\\
112.73078648523963	17632.607741056006\\
113.46112597902028	17563.91793094588\\
114.19146547280093	17495.868157040313\\
114.92180496658158	17428.441930467256\\
115.65214446036222	17361.622762354662\\
116.38248395414287	17295.39416383048\\
117.11282344792352	17229.739646022666\\
117.84316294170416	17164.642720059164\\
118.57350243548481	17100.086897067933\\
119.30384192926546	17036.055688176923\\
120.0341814230461	16972.5326046084\\
120.76452091682675	16909.58367217619\\
121.4948604106074	16847.274501864995\\
122.22519990438805	16785.588510924586\\
122.9555393981687	16724.509116604764\\
123.68587889194934	16664.019736155304\\
124.41621838572999	16604.103786825995\\
125.14655787951064	16544.744685866626\\
125.87689737329129	16485.92585052698\\
126.60723686707193	16427.630698056833\\
127.33757636085258	16369.84264570599\\
128.0679158546332	16312.545110724224\\
128.79825534841385	16255.721510361323\\
129.52859484219448	16199.355261867071\\
130.2589343359751	16143.42978249126\\
130.98927382975575	16087.928548333746\\
131.71961332353638	16032.858227027156\\
132.449952817317	15978.239489748388\\
133.18029231109765	15924.082437819208\\
133.91063180487828	15870.397172561392\\
134.6409712986589	15817.193795296716\\
135.37131079243954	15764.482407346952\\
136.10165028622018	15712.273110033875\\
136.8319897800008	15660.576004679255\\
137.56232927378144	15609.401192604872\\
138.29266876756208	15558.758775132494\\
139.0230082613427	15508.6588535839\\
139.75334775512334	15459.11152928086\\
140.48368724890398	15410.126903545151\\
141.2140267426846	15361.715077698542\\
141.94436623646524	15313.890896095772\\
142.67470573024588	15267.03870563463\\
143.4050452240265	15221.293636213613\\
144.13538471780714	15176.50921567062\\
144.86572421158778	15132.538971843554\\
145.5960637053684	15089.23643257031\\
146.32640319914915	15046.455125688783\\
};
\end{axis}
\end{tikzpicture}%
