%Drag_and_Thrust_curves_weights
\begin{tikzpicture}

\begin{axis}[
width=\figurewidth,
height=\figureheight,
scaled ticks=false, tick label style={/pgf/number format/fixed},
xmin=72.14849432682922,
xmax=142.9234635898666,
xlabel={Speed ((m/s))},
xmajorgrids,
ymin=11167.02217043791,
ymax=23170.780012464817,
ylabel={Forces ((N))},
ymajorgrids,
legend style={at={(1.03,0.5)},anchor=west,draw=black,fill=white,legend cell align=left}
]

\addplot [
color=black,
solid
]
table[row sep=crcr]{
72.14849432682922	12703.623580473251\\
72.86339300625384	12587.45557041244\\
73.57829168567847	12476.564691906715\\
74.29319036510309	12370.488318357207\\
75.00808904452771	12270.967298666086\\
75.72298772395233	12177.399448553777\\
76.43788640337695	12087.595650816953\\
77.15278508280157	12003.552274523787\\
77.86768376222619	11925.081057479123\\
78.58258244165081	11849.234733544716\\
79.29748112107544	11780.63427283281\\
80.01237980050006	11714.817520513703\\
80.72727847992468	11653.626371956012\\
81.4421771593493	11597.119213201271\\
82.15707583877392	11543.370890455708\\
82.87197451819854	11495.41019261114\\
83.58687319762316	11449.123824467859\\
84.30177187704778	11408.903300276002\\
85.0166705564724	11370.08363065741\\
85.73156923589703	11336.753838257544\\
86.44646791532165	11305.391226218275\\
87.16136659474627	11278.059569146417\\
87.87626527417089	11254.129988873363\\
88.59116395359551	11231.860716062263\\
89.30606263302013	11215.325756874556\\
90.02096131244475	11198.657902748411\\
90.73585999186938	11187.94682900272\\
91.450758671294	11178.680977110076\\
92.16565735071862	11170.903964567702\\
92.88055603014324	11168.97053701423\\
93.59545470956786	11167.02217043791\\
94.31035338899248	11168.36541743193\\
95.0252520684171	11173.72089417355\\
95.74015074784172	11179.116813633173\\
96.45504942726635	11188.205488814987\\
97.16994810669097	11200.857490747641\\
97.88484678611559	11213.602919661203\\
98.59974546554021	11228.975882475675\\
99.31464414496483	11248.910453193686\\
100.02954282438945	11268.989037677544\\
100.74444150381407	11289.21163592724\\
101.4593401832387	11316.28044415906\\
102.17423886266332	11343.654253027937\\
102.88913754208794	11371.220264969634\\
103.60403622151256	11401.238662481346\\
104.31893490093718	11435.848187248339\\
105.0338335803618	11470.695706917168\\
105.74873225978642	11505.781221487841\\
106.46363093921104	11543.690998064909\\
107.17852961863566	11585.736542194378\\
107.89342829806029	11628.06347557675\\
108.60832697748491	11670.67179821202\\
109.32322565690953	11714.311887415999\\
110.03812433633415	11763.772781563974\\
110.75302301575877	11813.556061837957\\
111.46792169518339	11863.661728237941\\
112.18282037460801	11914.089780763932\\
112.89771905403263	11967.554020039843\\
113.61261773345726	12024.741810648002\\
114.32751641288188	12082.2905867773\\
115.0424150923065	12140.200348427748\\
115.75731377173112	12198.471095599341\\
116.47221245115574	12258.958909070006\\
117.18711113058036	12323.86779115772\\
117.90200981000498	12389.173860683764\\
118.6169084894296	12454.87711764813\\
119.33180716885423	12520.977562050828\\
120.04670584827885	12587.475193891853\\
120.76160452770347	12658.060807240001\\
121.47650320712809	12731.080005534815\\
122.19140188655271	12804.53019570718\\
122.90630056597733	12878.411377757096\\
123.62119924540195	12952.723551684563\\
124.33609792482657	13027.466717489582\\
125.0509966042512	13104.523521614072\\
125.76589528367582	13185.638120719117\\
126.48079396310044	13267.215118662982\\
127.19569264252506	13349.254515445658\\
127.91059132194968	13431.756311067158\\
128.6254900013743	13514.720505527468\\
129.3403886807989	13598.1470988266\\
130.0552873602235	13683.471739019442\\
130.7701860396481	13773.115077256713\\
131.48508471907272	13863.249823816106\\
132.19998339849732	13953.87597869762\\
132.91488207792193	14044.99354190126\\
133.62978075734654	14136.602513427017\\
134.34467943677114	14228.702893274898\\
135.05957811619575	14321.294681444902\\
135.77447679562036	14415.722740731551\\
136.48937547504497	14514.364837835818\\
137.20427415446957	14613.524955267549\\
137.91917283389418	14713.203093026748\\
138.6340715133188	14813.399251113413\\
139.3489701927434	14914.113429527551\\
140.063868872168	15015.345628269153\\
140.7787675515926	15117.095847338225\\
141.49366623101722	15219.36408673477\\
142.20856491044182	15322.626956439935\\
142.9234635898666	15430.760128691001\\
};

\addplot [
color=black,
densely dashed
]
table[row sep=crcr]{
74.36899179676334	13497.609523601452\\
75.06146120881489	13381.578967194095\\
75.75393062086644	13270.09235540855\\
76.44640003291799	13162.671937204073\\
77.13886944496954	13063.507271670405\\
77.8313388570211	12967.85398859152\\
78.52380826907265	12876.068508592723\\
79.2162776811242	12791.573483981623\\
79.90874709317575	12709.431588827287\\
80.6012165052273	12633.247422045742\\
81.29368591727885	12560.959647836087\\
81.9861553293304	12492.238815838873\\
82.67862474138195	12429.08606528271\\
83.3710941534335	12367.856692799669\\
84.06356356548505	12313.079379393543\\
84.7560329775366	12259.356094750423\\
85.44850238958816	12212.154142778614\\
86.14097180163971	12165.938077897084\\
86.83344121369126	12125.470922431618\\
87.52591062574281	12086.749712829254\\
88.21838003779436	12052.136299729875\\
88.91084944984591	12020.88408452017\\
89.60331886189746	11991.202870434368\\
90.29578827394901	11967.380292326727\\
90.98825768600057	11943.374318015309\\
91.68072709805212	11925.223449989457\\
92.37319651010367	11908.652968443199\\
93.06566592215522	11893.34468563256\\
93.75813533420677	11884.141097352009\\
94.45060474625832	11874.869282182559\\
95.14307415830987	11868.702350845473\\
95.83554357036142	11866.769543594608\\
96.52801298241297	11864.82272001127\\
97.22048239446453	11866.4547483704\\
97.91295180651608	11871.801052153072\\
98.60542121856763	11877.185300759005\\
99.29789063061918	11885.192918612489\\
99.99036004267073	11897.806418826407\\
100.68282945472228	11910.507575618652\\
101.37529886677383	11923.386434340096\\
102.06776827882538	11943.234971776848\\
102.76023769087693	11963.218628146304\\
103.45270710292849	11983.337403448457\\
104.14517651498004	12006.414571529827\\
104.83764592703159	12033.62607426126\\
105.53011533908314	12061.017908879086\\
106.22258475113469	12088.590075383305\\
106.91505416318624	12119.916062246028\\
107.60752357523779	12154.503808957486\\
108.29999298728934	12189.31485110835\\
108.9924623993409	12224.349188698621\\
109.68493181139245	12261.83953972324\\
110.377401223444	12303.789816291892\\
111.06987063549555	12346.004102452282\\
111.7623400475471	12388.48239820441\\
112.45480945959865	12431.224703548281\\
113.1472788716502	12479.189794225433\\
113.83974828370175	12528.76436806366\\
114.5322176957533	12578.64141624528\\
115.22468710780485	12628.82093877029\\
115.9171565198564	12679.302935638689\\
116.60962593190796	12735.058410629861\\
117.30209534395951	12792.262012700421\\
117.99456475601106	12849.804304465342\\
118.68703416806261	12907.685285924628\\
119.37950358011416	12965.904957078272\\
120.07197299216571	13026.564014983627\\
120.76444240421726	13091.36763523906\\
121.45691181626881	13156.543911139139\\
122.14938122832037	13222.09284268387\\
122.84185064037192	13288.014429873247\\
123.53432005242347	13354.308672707271\\
124.22678946447502	13422.828710614258\\
124.91925887652657	13495.573970191135\\
125.61172828857812	13568.723601962265\\
126.30419770062967	13642.27760592765\\
126.99666711268122	13716.23598208729\\
127.68913652473277	13790.598730441183\\
128.38160593678433	13865.36585098933\\
129.07407534883586	13943.920146571862\\
129.7665447608874	14025.003327043305\\
130.45901417293894	14106.520346857931\\
131.15148358499047	14188.471206015727\\
131.843952997042	14270.855904516715\\
132.53642240909355	14353.674442360878\\
133.22889182114508	14436.92681954822\\
133.92136123319662	14521.099457708593\\
134.61383064524816	14610.496947588781\\
135.3063000572997	14700.35549456039\\
135.99876946935123	14790.675098623422\\
136.69123888140277	14881.455759777878\\
137.3837082934543	14972.697478023762\\
138.07617770550584	15064.400253361066\\
138.76864711755738	15156.564085789796\\
139.46111652960892	15249.188975309946\\
140.15358594166045	15345.165345903695\\
140.846055353712	15443.778347170455\\
141.53852476576353	15542.87737387621\\
142.23099417781506	15642.462426020944\\
142.9234635898666	15742.533503604667\\
};

\addplot [
color=black,
dashdotted
]
table[row sep=crcr]{
76.52488227375132	14291.519711940688\\
77.19557501431814	14175.83067215681\\
77.86626775488496	14063.915735637034\\
78.53696049545178	13956.979277340994\\
79.2076532360186	13856.63706428305\\
79.87834597658542	13758.981409924221\\
80.54903871715224	13667.767028813803\\
81.21973145771906	13580.445263060803\\
81.89042419828588	13496.711855566948\\
82.5611169388527	13419.044107085465\\
83.23180967941953	13342.82712733654\\
83.90250241998635	13274.095542134515\\
84.57319516055317	13205.51586098957\\
85.24388790111999	13144.866524800625\\
85.91458064168681	13083.74150509919\\
86.58527338225363	13030.573368132813\\
87.25596612282045	12976.991787529689\\
87.92665886338727	12930.381741636473\\
88.5973516039541	12884.331796432594\\
89.26804434452092	12843.406671273353\\
89.93873708508774	12804.860511167524\\
90.60942982565456	12768.712539461563\\
91.28012256622138	12737.629653266682\\
91.9508153067882	12706.31753932504\\
92.62150804735502	12681.640300718625\\
93.29220078792184	12657.795473616277\\
93.96289352848866	12635.842887968282\\
94.63358626905548	12619.397404598649\\
95.3042790096223	12602.83495333732\\
95.97497175018913	12590.010462287528\\
96.64566449075595	12580.819715472486\\
97.31635723132277	12571.564965471815\\
97.98704997188959	12566.556715759853\\
98.65774271245641	12564.629149737824\\
99.32843545302323	12562.688435088563\\
99.99912819359005	12564.108608138606\\
100.66982093415687	12569.433675819135\\
101.3405136747237	12574.794339283184\\
102.01120641529052	12581.179151203944\\
102.68189915585734	12593.727314167714\\
103.35259189642416	12606.35770717811\\
104.02328463699098	12619.07033023513\\
104.6939773775578	12635.890137261682\\
105.36467011812462	12655.739619922586\\
106.03536285869144	12675.715856745564\\
106.70605559925826	12695.818847730616\\
107.37674833982508	12721.187210692666\\
108.0474410803919	12748.355319909257\\
108.71813382095873	12775.692597255718\\
109.38882656152555	12803.19904273205\\
110.05951930209237	12835.10291360021\\
110.73021204265919	12869.581634459217\\
111.40090478322601	12904.26982726824\\
112.07159752379283	12939.167492027284\\
112.74229026435965	12975.46721391306\\
113.41298300492647	13017.223209729393\\
114.0836757454933	13059.226871168245\\
114.75436848606012	13101.478198229599\\
115.42506122662694	13143.977190913463\\
116.09575396719376	13188.882117702167\\
116.76644670776058	13238.140479166277\\
117.4371394483274	13287.682589777736\\
118.10783218889422	13337.50844953655\\
118.77852492946104	13387.618058442718\\
119.44921767002786	13438.384827298336\\
120.11991041059468	13495.129520935874\\
120.7906031511615	13552.191937097954\\
121.46129589172833	13609.572075784576\\
122.13198863229515	13667.269936995748\\
122.80268137286197	13725.285520731464\\
123.47337411342879	13785.148611915474\\
124.14406685399561	13849.681537791404\\
124.81475959456243	13914.564049421417\\
125.48545233512925	13979.796146805511\\
126.15614507569607	14045.37782994369\\
126.8268378162629	14111.30909883596\\
127.49753055682972	14177.589953482307\\
128.16822329739654	14249.06282074705\\
128.83891603796337	14321.743485957226\\
129.5096087785302	14394.803490003373\\
130.18030151909704	14468.242832885497\\
130.85099425966388	14542.06151460359\\
131.5216870002307	14616.259535157655\\
132.19237974079755	14690.836894547692\\
132.86307248136438	14769.76112463321\\
133.53376522193122	14850.587000648256\\
134.20445796249805	14931.81985843351\\
134.8751507030649	15013.459697988977\\
135.54584344363172	15095.506519314651\\
136.21653618419856	15177.960322410534\\
136.8872289247654	15260.821107276626\\
137.55792166533223	15344.088873912928\\
138.22861440589907	15431.608027307342\\
138.8993071464659	15520.964787053996\\
139.56999988703274	15610.754061357444\\
140.24069262759957	15700.975850217686\\
140.9113853681664	15791.630153634722\\
141.58207810873324	15882.716971608552\\
142.25277084930008	15974.236304139169\\
142.9234635898666	16066.188151226543\\
};

\addplot [
color=black,
dashed
]
table[row sep=crcr]{
78.62187554523258	15085.505655068884\\
79.27138653558242	14970.345468906553\\
79.92089752593226	14858.155764949764\\
80.5704085162821	14751.889725870235\\
81.21991950663194	14650.453285802436\\
81.86943049698178	14551.684685558175\\
82.51894148733162	14460.356486735145\\
83.16845247768146	14370.241989722395\\
83.8179634680313	14287.225989517265\\
84.46747445838113	14205.872788791294\\
85.11698544873097	14130.374920700386\\
85.76649643908081	14057.041024213942\\
86.41600742943065	13989.068911618288\\
87.06551841978049	13922.976705910756\\
87.71502941013033	13862.526098386938\\
88.36454040048017	13802.86234858438\\
89.01405139083	13749.917121904518\\
89.66356238117984	13696.58415388261\\
90.31307337152968	13650.365127851386\\
90.96258436187952	13604.569109560118\\
91.61209535222936	13562.945766690123\\
92.2616063425792	13524.644847325313\\
92.91111733292904	13486.687193665497\\
93.56062832327888	13455.827648618506\\
94.21013931362872	13424.753126084233\\
94.85965030397855	13397.08629966221\\
95.5091612943284	13373.441183049448\\
96.15867228467823	13349.63471896617\\
96.80818327502807	13331.046929584943\\
97.45769426537791	13314.642071287599\\
98.10720525572775	13298.127516569097\\
98.75671624607759	13287.335731204965\\
99.40622723642743	13278.179150397551\\
100.05573822677727	13268.962545250932\\
100.7052492171271	13264.612488053484\\
101.35476020747694	13262.694393203834\\
102.00427119782678	13260.763967129518\\
102.65378218817662	13261.430119421651\\
103.30329317852646	13266.722908290923\\
103.9528041688763	13272.049080082674\\
104.60231515922614	13277.4086347969\\
105.25182614957598	13288.692940003248\\
105.90133713992581	13301.228317748137\\
106.55084813027565	13313.840813595225\\
107.20035912062549	13326.925868445174\\
107.84987011097533	13346.605249523598\\
108.49938110132517	13366.403504916545\\
109.14889209167501	13386.320634624011\\
109.79840308202485	13406.376580566699\\
110.44791407237469	13433.275603211814\\
111.09742506272453	13460.333277416365\\
111.74693605307436	13487.549603180343\\
112.3964470434242	13514.92458050375\\
113.04595803377404	13546.6225754258\\
113.69546902412388	13580.91246199659\\
114.34498001447372	13615.398798404314\\
114.99449100482356	13650.08158464897\\
115.6440019951734	13684.960820730557\\
116.29351298552324	13725.845904535023\\
116.94302397587307	13767.549318564825\\
117.59253496622291	13809.485001741648\\
118.24204595657275	13851.652954065503\\
118.89155694692259	13894.053175536375\\
119.54106793727243	13941.492281059554\\
120.19057892762227	13990.60220157057\\
120.84008991797211	14039.9782315713\\
121.48960090832195	14089.620371061737\\
122.13911189867179	14139.528620041883\\
122.78862288902162	14190.710573053306\\
123.43813387937146	14247.190294556623\\
124.0876448697213	14303.967986924928\\
124.73715586007114	14361.043650158217\\
125.38666685042098	14418.417284256491\\
126.03617784077082	14476.088889219749\\
126.68568883112066	14534.135935954504\\
127.3351998214705	14598.246921722934\\
127.98471081182034	14662.685760764209\\
128.63422180217017	14727.45245307834\\
129.28373279252	14792.546998665322\\
129.93324378286982	14857.969397525154\\
130.58275477321965	14923.719649657836\\
131.23226576356947	14991.012827177714\\
131.8817767539193	15063.0705662943\\
132.53128774426912	15135.484062124204\\
133.18079873461895	15208.253314667414\\
133.83030972496877	15281.378323923935\\
134.4798207153186	15354.859089893767\\
135.12933170566842	15428.695612576912\\
135.77884269601824	15502.887891973363\\
136.42835368636807	15580.990442128132\\
137.0778646767179	15661.352575681742\\
137.72737566706772	15742.09639042172\\
138.37688665741754	15823.22188634805\\
139.02639764776737	15904.729063460743\\
139.6759086381172	15986.617921759804\\
140.32541962846702	16068.888461245222\\
140.97493061881684	16151.540681917002\\
141.62444160916667	16235.476862063893\\
142.2739525995165	16324.12568265273\\
142.9234635898666	16413.180129933608\\
};

\addplot [
color=black,
densely dashdotted
]
table[row sep=crcr]{
80.66437269010765	15879.491598197079\\
81.29325239616583	15765.03297057226\\
81.922132102224	15652.710125094214\\
82.55101180828217	15547.266809860994\\
83.17989151434034	15444.832650935792\\
83.80877122039851	15346.914915682413\\
84.43765092645668	15253.697782495567\\
85.06653063251485	15163.330920164099\\
85.69541033857303	15078.62575752769\\
86.3242900446312	14995.823929602395\\
86.95316975068937	14918.892287955094\\
87.58204945674754	14843.65852446241\\
88.21092916280571	14773.728559869445\\
88.83980886886388	14706.054759378025\\
89.46868857492206	14642.321233531218\\
90.09756828098023	14582.188163151892\\
90.7264479870384	14523.812443369636\\
91.35532769309657	14471.189738755427\\
91.98420739915474	14418.203534269953\\
92.61308710521291	14372.14596332882\\
93.24196681127108	14326.684471617022\\
93.87084651732926	14284.09878818103\\
94.49972622338743	14246.107526737345\\
95.1286059294456	14207.862595806102\\
95.75748563550377	14175.458993650851\\
96.38636534156194	14144.670811351758\\
97.01524504762011	14113.681091892498\\
97.64412475367828	14090.270606215132\\
98.27300445973646	14066.709311808316\\
98.90188416579463	14043.548091295881\\
99.5307638718528	14027.32363457659\\
100.15964357791097	14010.996339623036\\
100.78852328396914	13994.566206435215\\
101.41740299002731	13985.307904317668\\
102.04628269608548	13976.205023191638\\
102.67516240214366	13967.045870429836\\
103.30404210820183	13962.813057900545\\
103.93292181426	13960.908307789596\\
104.56180152031817	13958.991997398403\\
105.19068122637634	13958.328554667121\\
105.81956093243451	13963.578955572098\\
106.44844063849268	13968.860652309395\\
107.07732034455086	13974.173644879007\\
107.70620005060903	13982.589545574068\\
108.3350797566672	13995.007717011014\\
108.96395946272537	14007.498185149867\\
109.59283916878354	14020.06094999063\\
110.22171887484171	14035.68889023121\\
110.85059858089988	14055.276749080787\\
111.47947828695806	14074.976050258902\\
112.10835799301623	14094.786793765543\\
112.7372376990744	14115.64815509272\\
113.36611740513257	14142.385355319995\\
113.99499711119074	14169.27128825945\\
114.62387681724891	14196.305953911102\\
115.25275652330708	14223.489352274933\\
115.88163622936526	14254.154735942288\\
116.51051593542343	14288.182836449561\\
117.1393956414816	14322.39510480971\\
117.76827534753977	14356.791541022738\\
118.39715505359794	14391.372145088637\\
119.02603475965611	14429.331528802335\\
119.65491446571428	14470.652817518874\\
120.28379417177246	14512.191853986009\\
120.91267387783063	14553.948638203741\\
121.5415535838888	14595.923170172066\\
122.17043328994697	14638.499559771162\\
122.79931299600514	14687.08849598171\\
123.42819270206331	14735.926904597603\\
124.05707240812148	14785.01478561885\\
124.68595211417966	14834.35213904544\\
125.31483182023783	14883.938964877381\\
125.943711526296	14934.504782846649\\
126.57259123235417	14990.58733900856\\
127.20147093841234	15046.949236987604\\
127.83035064447051	15103.590476783782\\
128.45923035052868	15160.511058397093\\
129.08811005658686	15217.710981827535\\
129.71698976264503	15275.190247075108\\
130.3458694687032	15336.432959584356\\
130.97474917476137	15400.291322016918\\
131.60362888081954	15464.457040435429\\
132.2325085868777	15528.930114839886\\
132.86138829293589	15593.710545230295\\
133.49026799899406	15658.798331606651\\
134.11914770505223	15724.193473968957\\
134.7480274111104	15792.12393453251\\
135.37690711716857	15863.75185704733\\
136.00578682322674	15935.71329447395\\
136.6346665292849	16008.008246812366\\
137.26354623534309	16080.636714062577\\
137.89242594140126	16153.598696224588\\
138.52130564745943	16226.89419329839\\
139.1501853535176	16300.523205283995\\
139.77906505957577	16376.563850918317\\
140.40794476563394	16456.273945819354\\
141.0368244716921	16536.34185931507\\
141.66570417775029	16616.767591405467\\
142.29458388380846	16697.551142090542\\
142.9234635898666	16778.692511370286\\
};

\addplot [
color=black,
densely dotted
]
table[row sep=crcr]{
72.14849432682922	23170.780012464817\\
72.86339300625384	23039.80295726744\\
73.57829168567847	22909.774296310457\\
74.29319036510309	22780.81916128622\\
75.00808904452771	22653.062683887074\\
75.72298772395233	22526.62999580536\\
76.43788640337695	22401.64341204361\\
77.15278508280157	22277.635722162137\\
77.86768376222619	22154.25065795189\\
78.58258244165081	22031.56432759951\\
79.29748112107544	21909.652839291655\\
80.01237980050006	21788.592301214976\\
80.72727847992468	21668.458821556134\\
81.4421771593493	21549.328508501774\\
82.15707583877392	21431.277470238558\\
82.87197451819854	21314.38181495313\\
83.58687319762316	21198.71765083215\\
84.30177187704778	21084.361086062272\\
85.0166705564724	20971.388228830143\\
85.73156923589703	20859.87518732242\\
86.44646791532165	20749.89806972576\\
87.16136659474627	20641.53298422682\\
87.87626527417089	20534.69427663608\\
88.59116395359551	20429.103959174015\\
89.30606263302013	20324.771155553597\\
90.02096131244475	20221.71351032659\\
90.73585999186938	20119.948668044774\\
91.450758671294	20019.494273259927\\
92.16565735071862	19920.36797052382\\
92.88055603014324	19822.58740438823\\
93.59545470956786	19726.17021940493\\
94.31035338899248	19631.1340601257\\
95.0252520684171	19537.496571102307\\
95.74015074784172	19445.275396886533\\
96.45504942726635	19354.48818203015\\
97.16994810669097	19265.152571084927\\
97.88484678611559	19177.286208602647\\
98.59974546554021	19091.004636709546\\
99.31464414496483	19006.748125650753\\
100.02954282438945	18924.437349560525\\
100.74444150381407	18843.91966076782\\
101.4593401832387	18765.042411601582\\
102.17423886266332	18687.65295439077\\
102.88913754208794	18611.59864146434\\
103.60403622151256	18536.72682515124\\
104.31893490093718	18462.884857780424\\
105.0338335803618	18389.920091680848\\
105.74873225978642	18317.67987918146\\
106.46363093921104	18246.01157261122\\
107.17852961863566	18174.762524299065\\
107.89342829806029	18103.78008657397\\
108.60832697748491	18032.911611764877\\
109.32322565690953	17962.03909569627\\
110.03812433633415	17891.657619075035\\
110.75302301575877	17821.963449383187\\
111.46792169518339	17752.941121615397\\
112.18282037460801	17684.575170766344\\
112.89771905403263	17616.850131830695\\
113.61261773345726	17549.750539803117\\
114.32751641288188	17483.260929678287\\
115.0424150923065	17417.36583645088\\
115.75731377173112	17352.049795115556\\
116.47221245115574	17287.297340666995\\
117.18711113058036	17223.093008099862\\
117.90200981000498	17159.421332408834\\
118.6169084894296	17096.266848588577\\
119.33180716885423	17033.614091633768\\
120.04670584827885	16971.44762387478\\
120.76160452770347	16909.83375635055\\
121.47650320712809	16848.832948696974\\
122.19140188655271	16788.42964785987\\
122.90630056597733	16728.608300785047\\
123.62119924540195	16669.35335441833\\
124.33609792482657	16610.649255705524\\
125.0509966042512	16552.480451592448\\
125.76589528367582	16494.831389024912\\
126.48079396310044	16437.686514948735\\
127.19569264252506	16381.030276309728\\
127.91059132194968	16324.847120053702\\
128.6254900013743	16269.121493126486\\
129.3403886807989	16213.837842473875\\
130.0552873602235	16158.980615041695\\
130.7701860396481	16104.534257775756\\
131.48508471907272	16050.493819933508\\
132.19998339849732	15996.882096326106\\
132.91488207792193	15943.709429877981\\
133.62978075734654	15890.985294675336\\
134.34467943677114	15838.71916480436\\
135.05957811619575	15786.920514351257\\
135.77447679562036	15735.598817402215\\
136.48937547504497	15684.763548043433\\
137.20427415446957	15634.42418036111\\
137.91917283389418	15584.590188441434\\
138.6340715133188	15535.27104637061\\
139.3489701927434	15486.476228234831\\
140.063868872168	15438.21520812029\\
140.7787675515926	15390.497460113183\\
141.49366623101722	15343.332458299714\\
142.20856491044182	15296.805177869872\\
142.9234635898666	15251.340694328073\\
};
\end{axis}
\end{tikzpicture}%
