%Drag_and_Thrust_curves_altitudes
\begin{tikzpicture}

\begin{axis}[
width=\figurewidth,
height=\figureheight,
scaled ticks=false, tick label style={/pgf/number format/fixed},
xmin=59.21372681087494,
xmax=142.9234635898666,
xlabel={Speed ((m/s))},
xmajorgrids,
ymin=13957.73283284923,
ymax=40969.739014577804,
ylabel={Forces ((N))},
ymajorgrids,
legend style={at={(1.03,0.5)},anchor=west,draw=black,fill=white,legend cell align=left}
]

\addplot [
color=black,
solid
]
table[row sep=crcr]{
80.6644003488891	15879.502487947988\\
81.29327977556564	15765.043871069234\\
81.92215920224217	15652.721024686833\\
82.5510386289187	15547.277721728733\\
83.17991805559524	15444.843549747613\\
83.80879748227177	15346.925827032135\\
84.4376769089483	15253.708668298008\\
85.06655633562484	15163.341818557428\\
85.69543576230137	15078.636617572272\\
86.3243151889779	14995.834802090958\\
86.95319461565444	14918.90310901299\\
87.58207404233097	14843.669357627377\\
88.2109534690075	14773.739328271058\\
88.83983289568404	14706.065539369687\\
89.46871232236057	14642.331935205733\\
90.09759174903711	14582.198875729197\\
90.72647117571364	14523.823063884567\\
91.35535060239017	14471.200369325568\\
91.98423002906671	14418.214175218278\\
92.61310945574324	14372.156496986783\\
93.24198888241978	14326.695014605526\\
93.87086830909631	14284.109209749151\\
94.49974773577284	14246.117956449463\\
95.12862716244938	14207.873033887596\\
95.75750658912591	14175.469294546823\\
96.38638601580244	14144.681119255229\\
97.01526544247898	14113.691406982534\\
97.64414486915551	14090.28076809972\\
98.27302429583204	14066.71947935544\\
98.90190372250858	14043.55809118654\\
99.53078314918511	14027.333638499827\\
100.15966257586165	14011.00634767021\\
100.78854200253818	13994.576218697712\\
101.41742142921471	13985.317730807872\\
102.04630085589125	13976.2148520884\\
102.67518028256778	13967.05570178316\\
103.30405970924431	13962.822687053336\\
103.93293913592085	13960.917937467599\\
104.56181856259738	13959.001627611888\\
105.19069798927391	13958.337966234423\\
105.81957741595045	13963.588365634141\\
106.44845684262698	13968.870060838366\\
107.07733626930352	13974.183051847103\\
107.70621569598005	13982.598715383114\\
108.33509512265658	13995.016883085797\\
108.96397454933312	14007.507347426157\\
109.59285397600965	14020.070108404187\\
110.22173340268618	14035.697792946134\\
110.85061282936272	14055.285645643444\\
111.47949225603925	14074.984940570268\\
112.10837168271578	14094.795677726606\\
112.73725110939232	14115.65676488778\\
113.36613053606885	14142.39395637553\\
113.99500996274539	14169.279880443319\\
114.62388938942192	14196.314537091146\\
115.25276881609845	14223.49792631901\\
115.88164824277499	14254.163015183836\\
116.51052766945152	14288.19110405125\\
117.13940709612805	14322.40336060791\\
117.76828652280459	14356.79978485381\\
118.39716594948112	14391.38037678895\\
119.02604537615765	14429.339445233332\\
119.65492480283419	14470.66071922033\\
120.28380422951072	14512.199740764456\\
120.91268365618726	14553.956509865708\\
121.54156308286379	14595.931026524086\\
122.17044250954032	14638.507080705158\\
122.79932193621686	14687.095998931865\\
123.42820136289339	14735.93438934226\\
124.05708078956992	14785.022251936349\\
124.68596021624646	14834.359586714128\\
125.31483964292299	14883.946393675596\\
125.94371906959952	14934.511854037011\\
126.57259849627606	14990.594388572692\\
127.20147792295259	15046.956264677307\\
127.83035734962912	15103.597482350859\\
128.45923677630566	15160.518041593345\\
129.0881162029822	15217.717942404768\\
129.71699562965875	15275.197184785127\\
130.3458750563353	15336.439515502227\\
130.97475448301185	15400.297852228132\\
131.6036339096884	15464.46354466689\\
132.23251333636495	15528.936592818514\\
132.8613927630415	15593.716996683\\
133.49027218971804	15658.804756260351\\
134.1191516163946	15724.199871550556\\
134.74803104307114	15792.129926872352\\
135.37691046974768	15863.757819418324\\
136.00578989642423	15935.71922657976\\
136.63466932310078	16008.014148356664\\
137.26354874977733	16080.642584749039\\
137.89242817645388	16153.604535756878\\
138.52130760313042	16226.900001380183\\
139.15018702980697	16300.528981618956\\
139.77906645648352	16376.569196942175\\
140.40794588316007	16456.279257147104\\
141.03682530983662	16536.34713562879\\
141.66570473651316	16616.77283238722\\
142.2945841631897	16697.556347422415\\
142.9234635898666	16778.6976807344\\
};

\addplot [
color=black,
densely dashed
]
table[row sep=crcr]{
74.34798723885135	15879.502487947988\\
75.04066881815453	15742.916407463961\\
75.73335039745771	15611.68765057284\\
76.4260319767609	15485.253998770777\\
77.11871355606408	15368.519081922797\\
77.81139513536726	15255.94557618537\\
78.50407671467045	15147.896216207262\\
79.19675829397363	15048.466526185928\\
79.88943987327681	14951.81604421591\\
80.58212145258	14862.131163281494\\
81.27480303188318	14777.089920846096\\
81.96748461118636	14696.190214804765\\
82.66016619048955	14621.912057737089\\
83.35284776979273	14549.830820912088\\
84.04552934909591	14485.421904662982\\
84.7382109283991	14422.176534583497\\
85.43089250770228	14366.695324221542\\
86.12357408700547	14312.28732162266\\
86.81625566630865	14264.744591834207\\
87.50893724561183	14219.159560656937\\
88.20161882491502	14178.518395746065\\
88.8943004042182	14141.726043137316\\
89.58698198352138	14106.901837025855\\
90.27966356282457	14078.855973338474\\
90.97234514212775	14050.594095691495\\
91.66502672143093	14029.354968358728\\
92.35770830073412	14009.846644246134\\
93.0503898800373	13991.965058120073\\
93.74307145934048	13981.129654840845\\
94.43575303864367	13970.213890244882\\
95.12843461794685	13963.105673427193\\
95.82111619725003	13960.830152292407\\
96.51379777655322	13958.538121963784\\
97.2064793558564	13960.623305351925\\
97.89916093515959	13966.917645386844\\
98.59184251446277	13973.256678885153\\
99.28452409376595	13982.859912612068\\
99.97720567306914	13997.710247650837\\
100.66988725237232	14012.663829344538\\
101.3625688316755	14028.01438277866\\
102.05525041097869	14051.383001464286\\
102.74793199028187	14074.910770530716\\
103.44061356958505	14098.597689977947\\
104.13329514888824	14125.96787806035\\
104.82597672819142	14158.005628485713\\
105.5186583074946	14190.255783552062\\
106.21133988679779	14222.718343259397\\
106.90402146610097	14259.813458104785\\
107.59670304540415	14300.536148119647\\
108.28938462470734	14341.521847570006\\
108.98206620401052	14382.770556455846\\
109.6747477833137	14427.13692223808\\
110.36742936261689	14476.528566104042\\
111.06011094192007	14526.231174734312\\
111.75279252122326	14576.2447481289\\
112.44547410052644	14626.569286287797\\
113.13815567982962	14683.282539471486\\
113.8308372591328	14741.651628489424\\
114.52351883843599	14800.376988134816\\
115.21620041773917	14859.458618407665\\
115.90888199704236	14918.896519307962\\
116.60156357634554	14984.796723574394\\
117.29424515564872	15052.148997624492\\
117.98692673495191	15119.900198699504\\
118.67960831425509	15188.05032679943\\
119.37228989355827	15256.59938192427\\
120.06497147286146	15328.288149043467\\
120.75765305216464	15404.58960602069\\
121.45033463146783	15481.329996954606\\
122.14301621077101	15558.509321845217\\
122.83569779007419	15636.127580692522\\
123.52837936937738	15714.184773496527\\
124.22106094868056	15795.144966337339\\
124.91374252798374	15880.798153574238\\
125.60642410728693	15966.927632233928\\
126.29910568659011	16053.533402316414\\
126.9917872658933	16140.615463821689\\
127.68446884519648	16228.17381674976\\
128.37715042449966	16316.208461100623\\
129.06983200380284	16408.999866802344\\
129.76251358310603	16504.471713647505\\
130.4551951624092	16600.45455991588\\
131.1478767417124	16696.94840560747\\
131.84055832101558	16793.95325072227\\
132.53323990031876	16891.469095260276\\
133.22592147962195	16989.4959392215\\
133.91860305892513	17088.919766793344\\
134.6112846382283	17194.182629859373\\
135.3039662175315	17299.988550883354\\
135.99664779683468	17406.337529865283\\
136.68932937613786	17513.229566805163\\
137.38201095544105	17620.664661702987\\
138.07469253474423	17728.642814558767\\
138.7673741140474	17837.164025372495\\
139.4600556933506	17946.228294144166\\
140.15273727265378	18059.568824043\\
140.84541885195696	18175.68435521721\\
141.53810043126015	18292.372353418436\\
142.23078201056333	18409.632818646664\\
142.9234635898666	18527.465750901905\\
};

\addplot [
color=black,
dashdotted
]
table[row sep=crcr]{
68.73022695707306	15879.50248794799\\
69.47965358972753	15719.783670496947\\
70.22908022238201	15568.725210472616\\
70.97850685503649	15425.727113646504\\
71.72793348769096	15290.167611530715\\
72.47736012034544	15163.973295066226\\
73.22678675299991	15046.279801629249\\
73.97621338565439	14934.6143921441\\
74.72564001830887	14829.399818661828\\
75.47506665096334	14734.041403640873\\
76.22449328361782	14643.166287213548\\
76.9739199162723	14558.954531414629\\
77.72334654892677	14482.635055945413\\
78.47277318158125	14409.119819111913\\
79.22219981423572	14345.80331014102\\
79.9716264468902	14284.900021468075\\
80.72105307954467	14231.701868493165\\
81.47047971219915	14182.328158318536\\
82.21990634485363	14139.274452657013\\
82.9693329775081	14100.282628540224\\
83.71875961016258	14067.377687250084\\
84.46818624281705	14037.554733972425\\
85.21761287547153	14014.781099852238\\
85.967039508126	13992.848679416755\\
86.71646614078048	13980.167121005692\\
87.46589277343496	13967.375489573113\\
88.21531940608944	13962.131084215023\\
88.96474603874391	13959.45798271329\\
89.71417267139839	13959.181225947143\\
90.46359930405286	13966.540245353368\\
91.21302593670734	13973.960482578785\\
91.96245256936182	13987.021642663201\\
92.71187920201629	14004.446019369769\\
93.46130583467077	14022.011815751035\\
94.21073246732524	14046.509372377772\\
94.96015909997972	14074.022294467502\\
95.7095857326342	14101.753209044185\\
96.45901236528867	14135.654996348534\\
97.20843899794315	14173.246990515121\\
97.95786563059762	14211.129920937692\\
98.7072922632521	14252.273127498454\\
99.45671889590658	14299.902059046477\\
100.20614552856105	14347.891241576277\\
100.95557216121553	14396.24067508786\\
101.70499879387	14451.573483260707\\
102.45442542652448	14509.590492769961\\
103.20385205917896	14568.033438943561\\
103.95327869183343	14626.902321781505\\
104.70270532448791	14693.585027994064\\
105.45213195714238	14762.00677126955\\
106.20155858979686	14830.916507848704\\
106.95098522245134	14900.314237731522\\
107.70041185510581	14975.289395817312\\
108.44983848776029	15054.088980145192\\
109.19926512041476	15133.43498537283\\
109.94869175306924	15213.327411500222\\
110.69811838572372	15293.766258527372\\
111.4475450183782	15382.42681684625\\
112.19697165103267	15472.135020446476\\
112.94639828368715	15562.444443499317\\
113.69582491634162	15653.355086004765\\
114.4452515489961	15744.866947962828\\
115.19467818165057	15843.214373849585\\
115.94410481430505	15943.819545989918\\
116.69353144695953	16045.07710709248\\
117.442958079614	16146.987057157276\\
118.19238471226848	16249.549396184291\\
118.94181134492295	16353.25854308255\\
119.69123797757743	16464.69459738222\\
120.4406646102319	16576.83058111049\\
121.19009124288638	16689.666494267374\\
121.93951787554086	16803.202336852875\\
122.68894450819533	16917.438108866987\\
123.43837114084981	17032.373810309706\\
124.18779777350429	17152.65811402621\\
124.93722440615876	17276.292210159416\\
125.68665103881324	17400.67014714438\\
126.43607767146771	17525.791924981106\\
127.18550430412219	17651.657543669593\\
127.93493093677667	17778.26700320984\\
128.68435756943114	17905.620303601845\\
129.43378420208563	18036.252847749307\\
130.18321083474012	18172.071157557875\\
130.9326374673946	18308.673590598115\\
131.6820641000491	18446.060146870026\\
132.4314907327036	18584.23082637361\\
133.18091736535808	18723.18562910887\\
133.93034399801257	18862.924555075795\\
134.67977063066706	19003.447604274395\\
135.42919726332156	19144.9812294212\\
136.17862389597605	19293.714491407347\\
136.92805052863054	19443.268529961846\\
137.67747716128503	19593.64334508469\\
138.42690379393952	19744.838936775883\\
139.176330426594	19896.855305035428\\
139.9257570592485	20049.692449863323\\
140.675183691903	20203.350371259567\\
141.42461032455748	20357.829069224157\\
142.17403695721197	20513.128543757106\\
142.9234635898666	20671.54932121142\\
};

\addplot [
color=black,
dashed
]
table[row sep=crcr]{
63.7127254935474	15879.502487947988\\
64.51283395916678	15695.635146250012\\
65.31294242478617	15523.805818009992\\
66.11305089040556	15363.393107115053\\
66.91315935602495	15213.746735531897\\
67.71326782164434	15074.18754330681\\
68.51337628726372	14944.007488565672\\
69.31348475288311	14822.84831165963\\
70.1135932185025	14713.786379636598\\
70.91370168412189	14612.495291637157\\
71.71381014974128	14518.165919065721\\
72.51391861536067	14433.16019183024\\
73.31402708098005	14357.215309433848\\
74.11413554659944	14286.373539028167\\
74.91424401221883	14225.077505512494\\
75.71435247783822	14170.50283877422\\
76.5144609434576	14120.75809959148\\
77.314569409077	14081.267097173024\\
78.11467787469638	14043.653427341673\\
78.91478634031577	14017.469733071484\\
79.71489480593516	13992.41799416646\\
80.51500327155455	13977.798637634854\\
81.31511173717394	13963.889521291812\\
82.11522020279332	13960.826174346697\\
82.91532866841271	13957.73283284923\\
83.7154371340321	13965.009179008912\\
84.51554559965149	13973.545832419053\\
85.31565406527088	13988.688959741727\\
86.11576253089027	14008.784702413153\\
86.91587099650965	14030.09129698369\\
87.71597946212904	14061.646341349666\\
88.51608792774843	14093.490536383903\\
89.31619639336782	14130.212120065047\\
90.1163048589872	14173.48370174008\\
90.9164133246066	14217.141188516778\\
91.71652179022598	14266.984484968942\\
92.51663025584537	14321.998934105453\\
93.31673872146476	14377.491229123625\\
94.11684718708415	14437.989670484709\\
94.91695565270354	14504.729994354495\\
95.71706411832292	14572.035291232532\\
96.51717258394231	14640.549018117932\\
97.3172810495617	14718.954901112154\\
98.11738951518109	14798.008070587823\\
98.91749798080048	14877.70852654494\\
99.71760644641986	14961.69173571962\\
100.51771491203925	15052.384325650055\\
101.31782337765864	15143.801701881728\\
102.11793184327803	15235.943864414641\\
102.91804030889742	15331.87887759603\\
103.7181487745168	15434.856585425363\\
104.5182572401362	15538.631765722317\\
105.31836570575558	15643.2044184869\\
106.11847417137497	15748.5745437191\\
106.91858263699436	15862.488211038331\\
107.71869110261375	15978.557028869009\\
108.51879956823313	16095.491191680301\\
109.31890803385252	16213.290699472196\\
110.11901649947191	16331.9555522447\\
110.9191249650913	16459.174147354533\\
111.71923343071069	16588.343076186742\\
112.51934189633008	16718.440408859133\\
113.31945036194946	16849.46614537171\\
114.11955882756885	16981.420285724467\\
114.91966729318824	17116.836853471417\\
115.71977575880763	17259.04268950427\\
116.51988422442702	17402.235174583482\\
117.3199926900464	17546.414308709056\\
118.1201011556658	17691.580091880995\\
118.92020962128518	17837.73252409929\\
119.72031808690457	17984.871605363955\\
120.52042655252396	18140.909198167574\\
121.32053501814335	18298.09669399742\\
122.12064348376273	18456.32427042641\\
122.92075194938212	18615.591927454523\\
123.72086041500151	18775.89966508177\\
124.5209688806209	18937.24748330816\\
125.32107734624029	19099.63538213369\\
126.12118581185968	19268.820073062376\\
126.92129427747906	19440.976086883737\\
127.72140274309845	19614.2207992036\\
128.52151120871784	19788.55421002197\\
129.32161967433723	19963.976319338846\\
130.12172813995662	20140.487127154225\\
130.921836605576	20318.086633468112\\
131.7219450711954	20496.774838280515\\
132.52205353681478	20679.146105104483\\
133.32216200243417	20867.28891113488\\
134.12227046805356	21056.564219909746\\
134.92237893367295	21246.97203142909\\
135.72248739929233	21438.512345692907\\
136.52259586491172	21631.185162701197\\
137.3227043305311	21824.990482453955\\
138.1228127961505	22019.928304951194\\
138.9229212617699	22215.998630192902\\
139.72302972738927	22413.20145817909\\
140.52313819300866	22614.633564028907\\
141.32324665862805	22820.96881487914\\
142.12335512424744	23028.475559066403\\
142.9234635898666	23237.15379659065\\
};

\addplot [
color=black,
densely dashdotted
]
table[row sep=crcr]{
59.21372681087494	15879.502487947988\\
60.05927970763243	15670.46021598934\\
60.90483260438992	15477.654345356348\\
61.750385501147406	15299.104471673201\\
62.595938397904895	15134.067514170116\\
63.441491294662384	14982.692741226094\\
64.28704419141988	14844.450235130469\\
65.13259708817738	14718.196354814801\\
65.97814998493487	14603.120189155474\\
66.82370288169237	14498.373483317726\\
67.66925577844987	14403.07063875564\\
68.51480867520736	14319.954027608084\\
69.36036157196486	14246.906372593186\\
70.20591446872236	14181.267924401267\\
71.05146736547985	14124.792313092428\\
71.89702026223735	14079.128185502297\\
72.74257315899484	14038.608324063627\\
73.58812605575234	14008.755548739824\\
74.43367895250984	13985.59926950892\\
75.27923184926733	13968.88669149381\\
76.12478474602483	13961.619864079696\\
76.97033764278233	13958.108916299578\\
77.81589053953982	13965.145379177766\\
78.66144343629732	13974.860150847779\\
79.50699633305481	13994.501711360306\\
80.35254922981231	14017.428947984423\\
81.19810212656981	14047.86538233983\\
82.0436550233273	14083.954485710865\\
82.8892079200848	14123.263538984203\\
83.7347608168423	14172.426567183802\\
84.58031371359979	14222.088562503468\\
85.42586661035729	14280.685620715278\\
86.27141950711479	14343.415132714528\\
87.11697240387228	14406.762489314387\\
87.96252530062978	14482.050875158988\\
88.80807819738727	14558.409548674568\\
89.65363109414477	14635.500124748409\\
90.49918399090227	14724.657694224148\\
91.34473688765976	14814.652191405987\\
92.19028978441726	14905.483616293921\\
93.03584268117476	15005.468376419116\\
93.88139557793225	15109.049343850395\\
94.72694847468975	15213.567444612721\\
95.57250137144725	15321.109126851768\\
96.41805426820474	15438.171195548925\\
97.26360716496224	15556.264379250222\\
98.10916006171973	15675.388677955674\\
98.95471295847723	15798.25184264224\\
99.80026585523473	15929.752500780347\\
100.64581875199222	16062.372031643832\\
101.49137164874972	16196.110435232697\\
102.33692454550722	16330.967711546946\\
103.18247744226471	16475.758711377286\\
104.02803033902221	16622.844032872792\\
104.8735832357797	16771.12976086305\\
105.7191361325372	16920.615895348066\\
106.5646890292947	17071.30243632784\\
107.4102419260522	17232.554615400066\\
108.25579482280969	17395.246199887366\\
109.10134771956719	17559.213500686936\\
109.94690061632468	17724.456517798775\\
110.79245351308218	17890.97525122288\\
111.63800640983968	18062.66179796767\\
112.48355930659717	18240.887885803248\\
113.32911220335467	18420.45877581675\\
114.17466510011216	18601.374468008173\\
115.02021799686966	18783.634962377513\\
115.86577089362716	18967.24025892477\\
116.71132379038465	19152.764381820518\\
117.55687668714215	19347.767518174664\\
118.40242958389965	19544.178318620532\\
119.24798248065714	19741.9967831581\\
120.09353537741464	19941.222911787387\\
120.93908827417214	20141.85670450838\\
121.78464117092963	20343.898161321085\\
122.63019406768713	20547.34728222551\\
123.47574696444462	20757.842334151926\\
124.32129986120212	20972.405920856458\\
125.16685275795962	21188.433809614635\\
126.01240565471711	21405.926000426454\\
126.85795855147461	21624.882493291916\\
127.7035114482321	21845.30328821102\\
128.5490643449896	22067.188385183767\\
129.39461724174708	22290.537784210155\\
130.24017013850457	22515.351485290183\\
131.08572303526205	22749.20518552984\\
131.93127593201953	22984.788361279792\\
132.776828828777	23221.886253093457\\
133.6223817255345	23460.49886097083\\
134.46793462229198	23700.626184911922\\
135.31348751904946	23942.268224916726\\
136.15904041580694	24185.424980985237\\
137.00459331256442	24430.096453117472\\
137.8501462093219	24676.282641313406\\
138.6956991060794	24923.98354557307\\
139.54125200283687	25176.698259129822\\
140.38680489959435	25434.743357950207\\
141.23235779635183	25694.34736289251\\
142.07791069310932	25955.510273956734\\
142.9234635898666	26218.232091142825\\
};

\addplot [
color=black,
densely dotted
]
table[row sep=crcr]{
80.6644003488891	21678.9859013181\\
81.29327977556564	21574.054226805194\\
81.92215920224217	21469.94546145809\\
82.5510386289187	21366.711413661513\\
83.17991805559524	21264.403891800175\\
83.80879748227177	21163.07470425883\\
84.4376769089483	21062.775659422176\\
85.06655633562484	20963.558565674964\\
85.69543576230137	20865.475231401906\\
86.3243151889779	20768.57746498773\\
86.95319461565444	20672.91707481717\\
87.58207404233097	20578.507331824992\\
88.2109534690075	20485.105501829676\\
88.83983289568404	20392.669512607303\\
89.46871232236057	20301.211375161794\\
90.09759174903711	20210.74310049704\\
90.72647117571364	20121.27669961694\\
91.35535060239017	20032.824183525398\\
91.98423002906671	19945.397563226306\\
92.61310945574324	19859.008849723567\\
93.24198888241978	19773.670054021084\\
93.87086830909631	19689.393187122754\\
94.49974773577284	19606.190260032476\\
95.12862716244938	19524.073283754144\\
95.75750658912591	19443.05426929167\\
96.38638601580244	19363.145227648944\\
97.01526544247898	19284.35816982987\\
97.64414486915551	19206.705106838344\\
98.27302429583204	19130.200771746695\\
98.90190372250858	19055.145686388412\\
99.53078314918511	18981.664467395774\\
100.15966257586165	18909.65320440623\\
100.78854200253818	18839.007987057204\\
101.41742142921471	18769.624904986144\\
102.04630085589125	18701.40004783048\\
102.67518028256778	18634.229505227646\\
103.30405970924431	18568.00936681509\\
103.93293913592085	18502.635722230232\\
104.56181856259738	18438.004661110514\\
105.19069798927391	18374.01227309338\\
105.81957741595045	18310.554647816258\\
106.44845684262698	18247.527874916592\\
107.07733626930352	18184.82804403181\\
107.70621569598005	18122.35124479935\\
108.33509512265658	18059.99356685665\\
108.96397454933312	17997.651099841154\\
109.59285397600965	17935.41259020239\\
110.22173340268618	17873.692931103007\\
110.85061282936272	17812.502057410442\\
111.47949225603925	17751.82944178221\\
112.10837168271578	17691.66455687586\\
112.73725110939232	17631.9968753489\\
113.36613053606885	17572.815869858863\\
113.99500996274539	17514.111013063284\\
114.62388938942192	17455.871777619683\\
115.25276881609845	17398.087636185588\\
115.88164824277499	17340.748061418533\\
116.51052766945152	17283.84252597603\\
117.13940709612805	17227.360502515625\\
117.76828652280459	17171.29146369483\\
118.39716594948112	17115.62488217118\\
119.02604537615765	17060.350230602206\\
119.65492480283419	17005.456981645428\\
120.28380422951072	16950.944288336133\\
120.91268365618726	16896.891924813863\\
121.54156308286379	16843.31142221464\\
122.17044250954032	16790.192193259354\\
122.79932193621686	16737.52365066889\\
123.42820136289339	16685.295207164134\\
124.05708078956992	16633.496275465972\\
124.68596021624646	16582.11626829529\\
125.31483964292299	16531.144598372975\\
125.94371906959952	16480.570678419914\\
126.57259849627606	16430.38392115699\\
127.20147792295259	16380.573739305093\\
127.83035734962912	16331.12954558511\\
128.45923677630566	16282.040752717923\\
129.0881162029822	16233.296773424425\\
129.71699562965875	16184.887020425494\\
130.3458750563353	16136.800906442024\\
130.97475448301185	16089.027870318298\\
131.6036339096884	16041.573605742315\\
132.23251333636495	15994.452981336308\\
132.8613927630415	15947.67244630271\\
133.49027218971804	15901.238449843953\\
134.1191516163946	15855.157441162473\\
134.74803104307114	15809.435869460702\\
135.37691046974768	15764.080183941074\\
136.00578989642423	15719.096833806021\\
136.63466932310078	15674.492268257978\\
137.26354874977733	15630.27293649938\\
137.89242817645388	15586.445287732655\\
138.52130760313042	15543.015771160244\\
139.15018702980697	15499.990835984576\\
139.77906645648352	15457.376931408084\\
140.40794588316007	15415.180506633205\\
141.03682530983662	15373.408010862366\\
141.66570473651316	15332.065893298008\\
142.2945841631897	15291.276556780072\\
142.9234635898666	15251.340694328073\\
};

\addplot [
color=black,
dashdotdotted
]
table[row sep=crcr]{
74.34798723885135	26611.397233903874\\
75.04066881815453	26463.346412454513\\
75.73335039745771	26317.614747120377\\
76.4260319767609	26174.511041015372\\
77.11871355606408	26034.344097253426\\
77.81139513536726	25897.422718948445\\
78.50407671467045	25763.61327671859\\
79.19675829397363	25632.359522953135\\
79.88943987327681	25503.516943049803\\
80.58212145258	25376.943420518557\\
81.27480303188318	25252.496838869367\\
81.96748461118636	25130.035081612175\\
82.66016619048955	25009.416032256948\\
83.35284776979273	24890.49757431365\\
84.04552934909591	24773.137591292227\\
84.7382109283991	24657.193966702653\\
85.43089250770228	24542.524584054867\\
86.12357408700547	24428.987326858853\\
86.81625566630865	24316.440078624542\\
87.50893724561183	24204.740722861916\\
88.20161882491502	24093.747143080924\\
88.8943004042182	23983.317222791524\\
89.58698198352138	23873.786267550167\\
90.27966356282457	23765.82015654285\\
90.97234514212775	23659.337859730917\\
91.66502672143093	23554.24745698147\\
92.35770830073412	23450.457028161592\\
93.0503898800373	23347.874653138384\\
93.74307145934048	23246.408411778935\\
94.43575303864367	23145.96638395035\\
95.12843461794685	23046.4566495197\\
95.82111619725003	22947.78728835409\\
96.51379777655322	22849.86638032062\\
97.2064793558564	22752.602005286364\\
97.89916093515959	22655.902243118435\\
98.59184251446277	22559.67517368391\\
99.28452409376595	22463.828876849897\\
99.97720567306914	22368.271432483478\\
100.66988725237232	22273.1035270266\\
101.3625688316755	22178.65997888011\\
102.05525041097869	22084.93706266386\\
102.74793199028187	21991.920903635644\\
103.44061356958505	21899.597627053274\\
104.13329514888824	21807.953358174538\\
104.82597672819142	21716.974222257235\\
105.5186583074946	21626.64634455918\\
106.21133988679779	21536.955850338167\\
106.90402146610097	21447.88886485199\\
107.59670304540415	21359.431513358457\\
108.28938462470734	21271.56992111537\\
108.98206620401052	21184.29021338053\\
109.6747477833137	21097.578515411726\\
110.36742936261689	21011.42095246677\\
111.06011094192007	20925.803649803467\\
111.75279252122326	20840.725826569254\\
112.44547410052644	20756.21567930954\\
113.13815567982962	20672.280584362135\\
113.8308372591328	20588.92669433501\\
114.52351883843599	20506.16016183614\\
115.21620041773917	20423.987139473513\\
115.90888199704236	20342.41377985509\\
116.60156357634554	20261.44623558885\\
117.29424515564872	20181.09065928277\\
117.98692673495191	20101.35320354483\\
118.67960831425509	20022.240020982994\\
119.37228989355827	19943.757264205244\\
120.06497147286146	19865.91108581956\\
120.75765305216464	19788.707638433913\\
121.45033463146783	19712.153074656268\\
122.14301621077101	19636.253547094617\\
122.83569779007419	19561.02426242315\\
123.52837936937738	19486.488545375927\\
124.22106094868056	19412.63442114814\\
124.91374252798374	19339.447828996075\\
125.60642410728693	19266.914708176046\\
126.29910568659011	19195.020997944343\\
126.9917872658933	19123.75263755727\\
127.68446884519648	19053.095566271128\\
128.37715042449966	18983.035723342215\\
129.06983200380284	18913.55904802683\\
129.76251358310603	18844.651479581276\\
130.4551951624092	18776.298957261854\\
131.1478767417124	18708.48742032487\\
131.84055832101558	18641.202808026603\\
132.53323990031876	18574.431059623374\\
133.22592147962195	18508.15811437148\\
133.91860305892513	18442.433529667334\\
134.6112846382283	18377.459667833704\\
135.3039662175315	18313.212102426187\\
135.99664779683468	18249.644722022833\\
136.68932937613786	18186.711415201677\\
137.38201095544105	18124.36607054078\\
138.07469253474423	18062.562576618155\\
138.7673741140474	18001.254822011877\\
139.4600556933506	17940.396695299965\\
140.15273727265378	17879.94208506049\\
140.84541885195696	17819.844879871467\\
141.53810043126015	17760.058968310954\\
142.23078201056333	17700.538238956993\\
142.9234635898666	17641.236580387616\\
};

\addplot [
color=black,
densely dashdotdetted
]
table[row sep=crcr]{
68.73022695707306	31594.952328595387\\
69.47965358972753	31406.27353711635\\
70.22908022238201	31218.506340538424\\
70.97850685503649	31031.779667748935\\
71.72793348769096	30846.222447635235\\
72.47736012034544	30661.963609084658\\
73.22678675299991	30479.13208098455\\
73.97621338565439	30297.85679222224\\
74.72564001830887	30118.266671685073\\
75.47506665096334	29940.490648260395\\
76.22449328361782	29764.657650835536\\
76.9739199162723	29590.89660829784\\
77.72334654892677	29419.336449534643\\
78.47277318158125	29250.106103433292\\
79.22219981423572	29083.334498881122\\
79.9716264468902	28919.1170664821\\
80.72105307954467	28757.379811244846\\
81.47047971219915	28597.996173123327\\
82.21990634485363	28440.839604276196\\
82.9693329775081	28285.783556862105\\
83.71875961016258	28132.7014830397\\
84.46818624281705	27981.466834967647\\
85.21761287547153	27831.95306480458\\
85.967039508126	27684.03362470916\\
86.71646614078048	27537.58196684004\\
87.46589277343496	27392.47154335587\\
88.21531940608944	27248.575806415294\\
88.96474603874391	27105.76820817697\\
89.71417267139839	26963.92220079955\\
90.46359930405286	26822.911236441683\\
91.21302593670734	26682.91889341993\\
91.96245256936182	26544.573943159867\\
92.71187920201629	26407.82240278149\\
93.46130583467077	26272.579644157577\\
94.21073246732524	26138.76103916092\\
94.96015909997972	26006.28195966429\\
95.7095857326342	25875.057777540478\\
96.45901236528867	25745.00386466227\\
97.20843899794315	25616.03559290245\\
97.95786563059762	25488.0683341338\\
98.7072922632521	25361.017460229104\\
99.45671889590658	25234.798343061157\\
100.20614552856105	25109.326354502722\\
100.95557216121553	24984.51686642659\\
101.70499879387	24860.285250705558\\
102.45442542652448	24736.58037062543\\
103.20385205917896	24613.50084834235\\
103.95327869183343	24491.112451420104\\
104.70270532448791	24369.4734977058\\
105.45213195714238	24248.642305046505\\
106.20155858979686	24128.677191289327\\
106.95098522245134	24009.636474281357\\
107.70041185510581	23891.578471869678\\
108.44983848776029	23774.56150190139\\
109.19926512041476	23658.643882223576\\
109.94869175306924	23543.88393068334\\
110.69811838572372	23430.339965127754\\
111.4475450183782	23318.070303403932\\
112.19697165103267	23207.133263358948\\
112.94639828368715	23097.587162839907\\
113.69582491634162	22989.48190658443\\
114.4452515489961	22882.787781944895\\
115.19467818165057	22777.452055099035\\
115.94410481430505	22673.424932060236\\
116.69353144695953	22570.656618841873\\
117.442958079614	22469.09732145735\\
118.19238471226848	22368.697245920026\\
118.94181134492295	22269.406598243306\\
119.69123797757743	22171.175584440563\\
120.4406646102319	22073.954410525195\\
121.19009124288638	21977.69328251057\\
121.93951787554086	21882.342406410084\\
122.68894450819533	21787.85198823711\\
123.43837114084981	21694.172234005047\\
124.18779777350429	21601.25334972727\\
124.93722440615876	21509.08481607609\\
125.68665103881324	21417.97609168789\\
126.43607767146771	21327.96704156761\\
127.18550430412219	21239.01163831967\\
127.93493093677667	21151.063854548516\\
128.68435756943114	21064.077662858555\\
129.43378420208563	20978.007035854225\\
130.18321083474012	20892.80594613995\\
130.9326374673946	20808.428366320157\\
131.6820641000491	20724.82826899928\\
132.4314907327036	20641.959626781743\\
133.18091736535808	20559.77641227197\\
133.93034399801257	20478.232598074388\\
134.67977063066706	20397.28215679343\\
135.42919726332156	20316.87906103352\\
136.17862389597605	20236.99816086312\\
136.92805052863054	20157.95402835416\\
137.67747716128503	20079.823234223106\\
138.42690379393952	20002.549058905035\\
139.176330426594	19926.07478283504\\
139.9257570592485	19850.343686448196\\
140.675183691903	19775.299050179598\\
141.42461032455748	19700.884154464322\\
142.17403695721197	19627.042279737456\\
142.9234635898666	19553.716706434072\\
};

\addplot [
color=black,
loosely dashed
]
table[row sep=crcr]{
63.7127254935474	37184.55448664457\\
64.51283395916678	36920.44253356426\\
65.31294242478617	36658.01153310799\\
66.11305089040556	36398.67800373453\\
66.91315935602495	36143.85846390269\\
67.71326782164434	35894.96943207122\\
68.51337628726372	35653.427426698894\\
69.31348475288311	35420.59609871145\\
70.1135932185025	35194.00944713127\\
70.91370168412189	34971.49070604936\\
71.71381014974128	34752.78296320539\\
72.51391861536067	34537.629306339106\\
73.31402708098005	34325.7728231902\\
74.11413554659944	34116.956601498394\\
74.91424401221883	33910.9237290034\\
75.71435247783822	33707.41729344492\\
76.5144609434576	33506.180382562685\\
77.314569409077	33306.95608409638\\
78.11467787469638	33109.487485785736\\
78.91478634031577	32913.517675370465\\
79.71489480593516	32718.78974059027\\
80.51500327155455	32525.046769184864\\
81.31511173717394	32332.624426727543\\
82.11522020279332	32142.881874135106\\
82.91532866841271	31955.681068000868\\
83.7154371340321	31770.79518661434\\
84.51554559965149	31587.99740826505\\
85.31565406527088	31407.06091124252\\
86.11576253089027	31227.758873836265\\
86.91587099650965	31049.864474335798\\
87.71597946212904	30873.15089103064\\
88.51608792774843	30697.39130221032\\
89.31619639336782	30522.358886164344\\
90.1163048589872	30347.826821182236\\
90.9164133246066	30173.56828555352\\
91.71652179022598	29999.356457567705\\
92.51663025584537	29825.04767915112\\
93.31673872146476	29651.710247286348\\
94.11684718708415	29479.61762321298\\
94.91695565270354	29308.616758816708\\
95.71706411832292	29138.554605983223\\
96.51717258394231	28969.278116598212\\
97.3172810495617	28800.634242547374\\
98.11738951518109	28632.469935716388\\
98.91749798080048	28464.63214799096\\
99.71760644641986	28296.96783125677\\
100.51771491203925	28129.32393739952\\
101.31782337765864	27961.5474183049\\
102.11793184327803	27793.4852258586\\
102.91804030889742	27624.984311946304\\
103.7181487745168	27455.891628453723\\
104.5182572401362	27285.76373191423\\
105.31836570575558	27114.29385198217\\
106.11847417137497	26941.804138774718\\
106.91858263699436	26768.622235732713\\
107.71869110261375	26595.075786296995\\
108.51879956823313	26421.492433908395\\
109.31890803385252	26248.19982200776\\
110.11901649947191	26075.525594035917\\
110.9191249650913	25903.797393433713\\
111.71923343071069	25733.34286364199\\
112.51934189633008	25564.489648101582\\
113.31945036194946	25397.565390253323\\
114.11955882756885	25232.897733538055\\
114.91966729318824	25070.81432139661\\
115.71977575880763	24911.4927295117\\
116.51988422442702	24754.114073516597\\
117.3199926900464	24598.442100007593\\
118.1201011556658	24444.407732904474\\
118.92020962128518	24291.941896127028\\
119.72031808690457	24140.97551359505\\
120.52042655252396	23991.439509228323\\
121.32053501814335	23843.26480694665\\
122.12064348376273	23696.382330669814\\
122.92075194938212	23550.723004317602\\
123.72086041500151	23406.21775180981\\
124.5209688806209	23262.79749706623\\
125.32107734624029	23120.39316400664\\
126.12118581185968	22978.93567655085\\
126.92129427747906	22838.356883729233\\
127.72140274309845	22698.89722992909\\
128.52151120871784	22560.74735680582\\
129.32161967433723	22423.855261611032\\
130.12172813995662	22288.168941596352\\
130.921836605576	22153.6363940134\\
131.7219450711954	22020.20561611381\\
132.52205353681478	21887.8246051492\\
133.32216200243417	21756.44135837119\\
134.12227046805356	21626.003873031408\\
134.92237893367295	21496.460146381476\\
135.72248739929233	21367.758175673014\\
136.52259586491172	21239.845958157646\\
137.3227043305311	21112.67149108701\\
138.1228127961505	20986.182771712705\\
138.9229212617699	20860.491295939075\\
139.72302972738927	20736.09229723778\\
140.52313819300866	20612.916213138655\\
141.32324665862805	20490.841242764738\\
142.12335512424744	20369.74558523907\\
142.9234635898666	20249.507439684727\\
};

\addplot [
color=black,
loosely dashdotted
]
table[row sep=crcr]{
59.21372681087494	40969.739014577804\\
60.05927970763243	40835.17228262402\\
60.90483260438992	40601.96811046121\\
61.750385501147406	40288.74647073338\\
62.595938397904895	39914.12733608459\\
63.441491294662384	39496.73067915886\\
64.28704419141988	39055.176472600266\\
65.13259708817738	38608.0846890528\\
65.97814998493487	38174.07530116053\\
66.82370288169237	37771.76828156749\\
67.66925577844987	37419.78360291771\\
68.51480867520736	37136.74123785526\\
69.36036157196486	36941.26115902414\\
70.20591446872236	36851.96333906842\\
71.05146736547985	36816.46784952335\\
71.89702026223735	36686.607422395115\\
72.74257315899484	36471.98981831702\\
73.58812605575234	36188.99313020992\\
74.43367895250984	35853.99545099465\\
75.27923184926733	35483.37487359207\\
76.12478474602483	35093.50949092302\\
76.97033764278233	34700.77739590835\\
77.81589053953982	34321.55668146892\\
78.66144343629732	33972.22544052558\\
79.50699633305481	33669.161765999175\\
80.35254922981231	33428.74375081055\\
81.19810212656981	33267.34948788056\\
82.0436550233273	33201.35707013005\\
82.8892079200848	33162.85141213547\\
83.7347608168423	33038.08300808443\\
84.58031371359979	32840.14583745519\\
85.42586661035729	32583.521117574583\\
86.27141950711479	32282.690065769457\\
87.11697240387228	31952.133899366654\\
87.96252530062978	31606.333835692996\\
88.80807819738727	31259.771092075352\\
89.65363109414477	30926.926885840545\\
90.49918399090227	30622.282434315424\\
91.34473688765976	30360.318954826824\\
92.19028978441726	30155.517664701594\\
93.03584268117476	30022.359781266565\\
93.88139557793225	29975.319658338427\\
94.72694847468975	29932.33150983695\\
95.57250137144725	29813.4147526629\\
96.41805426820474	29631.372888219394\\
97.26360716496224	29399.009417909554\\
98.10916006171973	29129.12784313649\\
98.95471295847723	28834.53166530332\\
99.80026585523473	28528.024385813154\\
100.64581875199222	28222.40950606911\\
101.49137164874972	27930.49052747431\\
102.33692454550722	27665.07095143186\\
103.18247744226471	27438.95427934487\\
104.02803033902221	27264.94401261647\\
104.8735832357797	27155.843652649768\\
105.7191361325372	27123.022387149682\\
106.5646890292947	27076.191404417485\\
107.4102419260522	26963.613104060925\\
108.25579482280969	26796.60773964584\\
109.10134771956719	26586.495564738056\\
109.94690061632468	26344.596832903397\\
110.79245351308218	26082.2317977077\\
111.63800640983968	25810.720712716797\\
112.48355930659717	25541.38383149651\\
113.32911220335467	25285.54140761267\\
114.17466510011216	25054.513694631114\\
115.02021799686966	24859.620946117662\\
115.86577089362716	24712.18341563815\\
116.71132379038465	24623.5213567584\\
117.55687668714215	24600.235513813393\\
118.40242958389965	24551.842575037437\\
119.24798248065714	24447.31264597103\\
120.09353537741464	24296.51931139904\\
120.93908827417214	24109.336156106325\\
121.78464117092963	23895.636764877727\\
122.63019406768713	23665.29472249811\\
123.47574696444462	23428.183613752328\\
124.32129986120212	23194.177023425236\\
125.16685275795962	22973.148536301676\\
126.01240565471711	22774.971737166525\\
126.85795855147461	22609.520210804618\\
127.7035114482321	22486.667542000825\\
128.5490643449896	22416.28731553999\\
129.39461724174708	22399.030546353846\\
130.24017013850457	22348.448771048723\\
131.08572303526205	22248.06835339356\\
131.93127593201953	22106.84071602826\\
132.776828828777	21933.717281592708\\
133.6223817255345	21737.649472726833\\
134.46793462229198	21527.58871207052\\
135.31348751904946	21312.48642226367\\
136.15904041580694	21101.29402594619\\
137.00459331256442	20902.962945757983\\
137.8501462093219	20726.444604338947\\
138.6956991060794	20580.690424328986\\
139.54125200283687	20474.651828368\\
140.38680489959435	20417.280239095893\\
141.23235779635183	20402.595019138527\\
142.07791069310932	20349.01402584669\\
142.9234635898666	20249.775695458793\\
};
\end{axis}
\end{tikzpicture}%
