%Power_needed_and_available_weights
\begin{tikzpicture}

\begin{axis}[
width=\figurewidth,
height=\figureheight,
scaled ticks=false, tick label style={/pgf/number format/fixed},
xmin=72.14849432682922,
xmax=142.9234635898666,
xlabel={Speed ((m/s))},
xmajorgrids,
ymin=916547.3138259483,
ymax=2398068.8482343983,
ylabel={Powers ((W))},
ymajorgrids,
legend style={at={(1.03,0.5)},anchor=west,draw=black,fill=white,legend cell align=left}
]

\addplot [
color=black,
solid
]
table[row sep=crcr]{
72.14849432682922	916547.3138259483\\
72.86339300625384	917164.7221757207\\
73.57829168567847	918004.3161363493\\
74.29319036510309	919043.043544996\\
75.00808904452771	920421.8078008334\\
75.72298772395233	922109.0689525015\\
76.43788640337695	923950.2632470995\\
77.15278508280157	926107.4888665077\\
77.86768376222619	928578.4406226983\\
78.58258244165081	931143.4653192499\\
79.29748112107544	934174.6238442541\\
80.01237980050006	937330.4287448948\\
80.72727847992468	940765.5414298873\\
81.4421771593493	944494.6374996315\\
82.15707583877392	948369.5976822649\\
82.87197451819854	952647.3405583102\\
83.58687319762316	956996.4613396813\\
84.30177187704778	961790.7633871651\\
85.0166705564724	966646.6542271406\\
85.73156923589703	971917.696594898\\
86.44646791532165	977311.1399074369\\
87.16136659474627	983011.084583757\\
87.87626527417089	988970.9123322376\\
88.59116395359551	995043.6142006207\\
89.30606263302013	1001596.584493163\\
90.02096131244475	1008113.9498146184\\
90.73585999186938	1015147.9770728698\\
91.450758671294	1022298.8563010786\\
92.16565735071862	1029573.7070961309\\
92.88055603014324	1037380.1937621691\\
93.59545470956786	1045182.5177939616\\
94.31035338899248	1053292.489295408\\
95.0252520684171	1061785.6445109805\\
95.74015074784172	1070290.328964972\\
96.45504942726635	1079158.913426062\\
97.16994810669097	1088386.741126389\\
97.88484678611559	1097641.8037113752\\
98.59974546554021	1107174.1638507913\\
99.31464414496483	1117181.538677506\\
100.02954282438945	1127231.8215319412\\
100.74444150381407	1137325.3212798492\\
101.4593401832387	1148142.3471928656\\
102.17423886266332	1159029.239224343\\
102.88913754208794	1169975.0458638382\\
103.60403622151256	1181214.3433578268\\
104.31893490093718	1192975.5025825598\\
105.0338335803618	1204811.1439313083\\
105.74873225978642	1216721.777830796\\
106.46363093921104	1228983.2580942751\\
107.17852961863566	1241742.2071412897\\
107.89342829806029	1254591.6328474337\\
108.60832697748491	1267532.138707123\\
109.32322565690953	1280646.361883397\\
110.03812433633415	1294463.49200212\\
110.75302301575877	1308387.0464146957\\
111.46792169518339	1322417.7165413708\\
112.18282037460801	1336556.1938023933\\
112.89771905403263	1351109.551518417\\
113.61261773345726	1366162.394676672\\
114.32751641288188	1381338.27536499\\
115.0424150923065	1396637.967787589\\
115.75731377173112	1412062.2461486857\\
116.47221245115574	1427828.0664871903\\
117.18711113058036	1444198.4644009797\\
117.90200981000498	1460708.4980601945\\
118.6169084894296	1477359.019311159\\
119.33180716885423	1494150.8800002\\
120.04670584827885	1511084.931973642\\
120.76160452770347	1528607.7332915398\\
121.47650320712809	1546527.0811225544\\
122.19140188655271	1564603.4951121556\\
122.90630056597733	1582837.899606916\\
123.62119924540195	1601231.2189534078\\
124.33609792482657	1619784.3774982037\\
125.0509966042512	1638733.7264016913\\
125.76589528367582	1658303.5831388044\\
126.48079396310044	1678047.9018877437\\
127.19569264252506	1697967.6743534657\\
127.91059132194968	1718063.8922409297\\
128.6254900013743	1738337.5472550914\\
129.3403886807989	1758789.6311009103\\
130.0552873602235	1779607.8491036708\\
130.7701860396481	1801112.8209983427\\
131.48508471907272	1822810.5775661306\\
132.19998339849732	1844702.1727285162\\
132.91488207792193	1866788.6604069811\\
133.62978075734654	1889071.0945230064\\
134.34467943677114	1911550.5289980744\\
135.05957811619575	1934228.0177536665\\
135.77447679562036	1957287.2127535527\\
136.48937547504497	1981056.592133163\\
137.20427415446957	2005038.0843257115\\
137.91917283389418	2029232.8003273425\\
138.6340715133188	2053641.8511341999\\
139.3489701927434	2078266.3477424288\\
140.063868872168	2103107.4011481716\\
140.7787675515926	2128166.1223475737\\
141.49366623101722	2153443.6223367797\\
142.20856491044182	2179008.7901333743\\
142.9234635898666	2205417.6834169338\\
};

\addplot [
color=black,
densely dashed
]
table[row sep=crcr]{
74.36899179676334	1003803.611936631\\
75.06146120881489	1004440.8705587328\\
75.75393062086644	1005261.6556241094\\
76.44640003291799	1006238.8844135662\\
77.13886944496954	1007704.1819227936\\
77.8313388570211	1009305.4380344391\\
78.52380826907265	1011077.9348281792\\
79.2162776811242	1013300.8370855935\\
79.90874709317575	1015594.7545296184\\
80.6012165052273	1018255.1106284135\\
81.29368591727885	1021126.7084308005\\
81.9861553293304	1024190.6319664563\\
82.67862474138195	1027619.7426698487\\
83.3710941534335	1031121.7448115739\\
84.06356356548505	1035081.3310965124\\
84.7560329775366	1039054.3894500312\\
85.44850238958816	1043510.2824512373\\
86.14097180163971	1047985.7289086275\\
86.83344121369126	1052896.3665312885\\
87.52591062574281	1057903.775120816\\
88.21838003779436	1063219.9403568667\\
88.91084944984591	1068787.0150928216\\
89.60331886189746	1074451.5743372308\\
90.29578827394901	1080604.0370697642\\
90.98825768600057	1086706.820087938\\
91.68072709805212	1093313.156701775\\
92.37319651010367	1100040.340824633\\
93.06566592215522	1106862.0432101202\\
93.75813533420677	1114234.9093363383\\
94.45060474625832	1121588.584984909\\
95.14307415830987	1129224.8279293976\\
95.83554357036142	1137258.309634599\\
96.52801298241297	1145287.7615512763\\
97.22048239446453	1153662.4549486544\\
97.91295180651608	1162403.0842760105\\
98.60542121856763	1171154.8594723216\\
99.29789063061918	1180174.5865561925\\
99.99036004267073	1189665.9475364513\\
100.68282945472228	1199183.6029551905\\
101.37529886677383	1208736.863285264\\
102.06776827882538	1219019.339598883\\
102.76023769087693	1229343.1897762408\\
103.45270710292849	1239708.6945145207\\
104.14517651498004	1250410.1648640023\\
104.83764592703159	1261577.029591697\\
105.53011533908314	1272800.6110307574\\
106.22258475113469	1284081.2838041289\\
106.91505416318624	1295801.4822483049\\
107.60752357523779	1307916.0551677102\\
108.29999298728934	1320102.712894896\\
108.9924623993409	1332361.919305648\\
109.68493181139245	1344939.0337967793\\
110.377401223444	1358060.3451217744\\
111.06987063549555	1371269.0785246722\\
111.7623400475471	1384565.7824611731\\
112.45480945959865	1397951.0053869777\\
113.1472788716502	1411986.367739476\\
113.83974828370175	1426271.3819661785\\
114.5322176957533	1440659.697002223\\
115.22468710780485	1455151.9412103011\\
115.9171565198564	1469748.7429531047\\
116.60962593190796	1485030.3974845463\\
117.30209534395951	1500559.1382786962\\
117.99456475601106	1516207.0661053055\\
118.68703416806261	1531974.8845611354\\
119.37950358011416	1547863.2972429455\\
120.07197299216571	1564125.2425878318\\
120.76444240421726	1580971.7127782614\\
121.45691181626881	1597953.1936220948\\
122.14938122832037	1615070.459277238\\
122.84185064037192	1632324.2839015962\\
123.53432005242347	1649715.4416530745\\
124.22678946447502	1667474.9162511881\\
124.91925887652657	1685857.0984696199\\
125.61172828857812	1704390.822312501\\
126.30419770062967	1723076.9278259587\\
126.99666711268122	1741916.2550561198\\
127.68913652473277	1760909.6440491106\\
128.38160593678433	1780057.9348510585\\
129.07407534883586	1799798.5996567667\\
129.7665447608874	1819976.2220103596\\
130.45901417293894	1840322.7378615902\\
131.15148358499047	1860839.0484718815\\
131.843952997042	1881526.0551026613\\
132.53642240909355	1902384.6590153517\\
133.22889182114508	1923415.761471378\\
133.92136123319662	1944685.4059789681\\
134.61383064524816	1966774.9617456314\\
135.3063000572997	1989050.7114959625\\
135.99876946935123	2011513.6130337606\\
136.69123888140277	2034164.624162825\\
137.3837082934543	2057004.7026869555\\
138.07617770550584	2080034.8064099497\\
138.76864711755738	2103255.8931356077\\
139.46111652960892	2126668.920667728\\
140.15358594166045	2150679.9500961034\\
140.846055353712	2175195.259956029\\
141.53852476576353	2199915.9341136036\\
142.23099417781506	2224842.9822420757\\
142.9234635898666	2249977.4140146966\\
};

\addplot [
color=black,
dashdotted
]
table[row sep=crcr]{
76.52488227375132	1093656.8634692575\\
77.19557501431814	1094311.400042753\\
77.86626775488496	1095104.6283532532\\
78.53696049545178	1096138.7301403687\\
79.2076532360186	1097551.7036050947\\
79.87834597658542	1099044.677347334\\
80.54903871715224	1100925.4955809398\\
81.21973145771906	1103000.1173420514\\
81.89042419828588	1105251.4591344115\\
82.5611169388527	1107891.2697327053\\
83.23180967941953	1110547.648047871\\
83.90250241998635	1113729.8333470712\\
84.57319516055317	1116832.6701072513\\
85.24388790111999	1120519.5285152893\\
85.91458064168681	1124084.1646348292\\
86.58527338225363	1128255.7574072932\\
87.25596612282045	1132319.9557888098\\
87.92665886338727	1136925.2643702414\\
88.5973516039541	1141517.674350544\\
89.26804434452092	1146505.7962659455\\
89.93873708508774	1151652.9829251182\\
90.60942982565456	1156965.762808298\\
91.28012256622138	1162692.3959533186\\
91.9508153067882	1168356.2572878804\\
92.62150804735502	1174592.649166672\\
93.29220078792184	1180873.5968570581\\
93.96289352848866	1187300.3599248743\\
94.63358626905548	1194218.832951581\\
95.3042790096223	1201104.0987050803\\
95.97497175018913	1208325.898452631\\
96.64566449075595	1215881.6812402415\\
97.31635723132277	1223418.907136637\\
97.98704997188959	1231359.8208817453\\
98.65774271245641	1239597.9499322642\\
99.32843545302323	1247832.1873411357\\
99.99912819359005	1256399.9073434407\\
100.66982093415687	1265362.6373884736\\
101.3405136747237	1274336.1176969656\\
102.01120641529052	1283421.263341215\\
102.68189915585734	1293147.8380697353\\
103.35259189642416	1302899.7434103205\\
104.02328463699098	1312677.1448162568\\
104.6939773775578	1322901.5961757803\\
105.36467011812462	1333467.8301540231\\
106.03536285869144	1344074.1303636848\\
106.70605559925826	1354720.751844054\\
107.37674833982508	1365959.7177063478\\
108.0474410803919	1377427.1702997962\\
108.71813382095873	1388949.457443879\\
109.38882656152555	1400526.9195181062\\
110.05951930209237	1412625.2568637244\\
110.73021204265919	1425051.5032839815\\
111.40090478322601	1437547.3343245655\\
112.07159752379283	1450113.1714594257\\
112.74229026435965	1462883.8909466683\\
113.41298300492647	1476322.114656374\\
114.0836757454933	1489844.603857191\\
114.75436848606012	1503451.8568717223\\
115.42506122662694	1517144.3720225745\\
116.09575396719376	1531173.2134390722\\
116.76644670776058	1545770.624770417\\
117.4371394483274	1560467.4332408402\\
118.10783218889422	1575264.2097758215\\
118.77852492946104	1590161.5253008413\\
119.44921767002786	1605204.5543695588\\
120.11991041059468	1621033.7490341887\\
120.7906031511615	1636977.4381023697\\
121.46129589172833	1653036.2608566736\\
122.13198863229515	1669210.856579674\\
122.80268137286197	1685501.8645539419\\
123.47337411342879	1702098.8117682529\\
124.14406685399561	1719355.7907341248\\
124.81475959456243	1736742.9666916754\\
125.48545233512925	1754261.0430347866\\
126.15614507569607	1771910.7231573416\\
126.8268378162629	1789692.7104532232\\
127.49753055682972	1807607.7083163124\\
128.16822329739654	1826277.0653881389\\
128.83891603796337	1845197.9065044918\\
129.5096087785302	1864265.3684341582\\
130.18030151909704	1883480.2144365488\\
130.85099425966388	1902843.2077710736\\
131.5216870002307	1922355.1116971427\\
132.19237974079755	1942016.6894741675\\
132.86307248136438	1962355.8428345802\\
133.53376522193122	1983054.797952428\\
134.20445796249805	2003916.7904947335\\
134.8751507030649	2024942.6393406545\\
135.54584344363172	2046133.1633693457\\
136.21653618419856	2067489.1814599645\\
136.8872289247654	2089011.5124916672\\
137.55792166533223	2110700.97534361\\
138.22861440589907	2133089.795669643\\
138.8993071464659	2155851.2551664948\\
139.56999988703274	2178792.942580154\\
140.24069262759957	2201915.7281637425\\
140.9113853681664	2225220.4821703793\\
141.58207810873324	2248708.074853185\\
142.25277084930008	2272379.3764652796\\
142.9234635898666	2296235.257259773\\
};

\addplot [
color=black,
dashed
]
table[row sep=crcr]{
78.62187554523258	1186050.7481497282\\
79.27138653558242	1186720.0422368962\\
79.92089752593226	1187477.1443148898\\
80.5704085162821	1188565.7816005095\\
81.21991950663194	1189908.6366085452\\
81.86943049698178	1191338.137978299\\
82.51894148733162	1193253.3108148535\\
83.16845247768146	1195150.7880150096\\
83.8179634680313	1197526.1860488653\\
84.46747445838113	1199934.1969462403\\
85.11698544873097	1202734.9165103678\\
85.76649643908081	1205623.158947258\\
86.41600742943065	1208879.4829972233\\
87.06551841978049	1212211.1848466475\\
87.71502941013033	1215951.8844187094\\
88.36454040048017	1219683.587643751\\
89.01405139083	1223935.829308862\\
89.66356238117984	1228084.5276907329\\
90.31307337152968	1232806.4273398125\\
90.96258436187952	1237506.7653353824\\
91.61209535222936	1242529.880835131\\
92.2616063425792	1247805.4588271203\\
92.91111733292904	1253063.1762831665\\
93.56062832327888	1258935.6894144956\\
94.21013931362872	1264747.8622594683\\
94.85965030397855	1270842.9214781793\\
95.5091612943284	1277286.1510120837\\
96.15867228467823	1283683.1500612306\\
96.80818327502807	1290554.4344072593\\
97.45769426537791	1297614.3162364848\\
98.10720525572775	1304642.1257848854\\
98.75671624607759	1312213.6444729767\\
99.40622723642743	1319933.6939104118\\
100.05573822677727	1327635.8429685393\\
100.7052492171271	1335816.1063780426\\
101.35476020747694	1344237.2099282234\\
102.00427119782678	1352654.5639934486\\
102.65378218817662	1361335.9589828353\\
103.30329317852646	1370496.1661134504\\
103.9528041688763	1379666.718941549\\
104.60231515922614	1388847.6825148559\\
105.25182614957598	1398659.1990763196\\
105.90133713992581	1408617.8644529737\\
106.55084813027565	1418601.0305600504\\
107.20035912062549	1428651.2390712765\\
107.84987011097533	1439429.6425835816\\
108.49938110132517	1450246.5078340287\\
109.14889209167501	1461102.0664531388\\
109.79840308202485	1471998.7396624803\\
110.44791407237469	1483677.2695340656\\
111.09742506272453	1495408.3676070618\\
111.74693605307436	1507192.3430192624\\
112.3964470434242	1519029.5049084618\\
113.04595803377404	1531390.9271609609\\
113.69546902412388	1544088.2121422712\\
114.34498001447372	1556852.5034926308\\
114.99449100482356	1569684.1840010236\\
115.6440019951734	1582583.6364564344\\
116.29351298552324	1596226.8389363347\\
116.94302397587307	1610018.8500499413\\
117.59253496622291	1623892.3479328356\\
118.24204595657275	1637847.78516911\\
118.89155694692259	1651885.6143428537\\
119.54106793727243	1666580.8759170994\\
120.19057892762227	1681538.5781528335\\
120.84008991797211	1696592.231949447\\
121.48960090832195	1711742.3558300536\\
122.13911189867179	1726989.4683177678\\
122.78862288902162	1742457.8090818943\\
123.43813387937146	1758646.5829843623\\
124.0876448697213	1774945.6997894028\\
124.73715586007114	1791355.7401030704\\
125.38666685042098	1807877.2845314203\\
126.03617784077082	1824510.9136805069\\
126.68568883112066	1841267.022611541\\
127.3351998214705	1858870.6888207563\\
127.98471081182034	1876599.596816003\\
128.63422180217017	1894454.3854301944\\
129.28373279252	1912435.6934962412\\
129.93324378286982	1930544.1598470553\\
130.58275477321965	1948780.4233155486\\
131.23226576356947	1967304.5794012647\\
131.8817767539193	1986544.5096525575\\
132.53128774426912	2005925.1933861822\\
133.18079873461895	2025447.3238058223\\
133.83030972496877	2045111.5941151644\\
134.4798207153186	2064918.697517894\\
135.12933170566842	2084869.3272176965\\
135.77884269601824	2104964.1764182574\\
136.42835368636807	2125688.874822577\\
137.0778646767179	2146824.769023669\\
137.72737566706772	2168117.6233508033\\
138.37688665741754	2189568.1815223526\\
139.02639764776737	2211177.187256696\\
139.6759086381172	2232945.3842722094\\
140.32541962846702	2254873.5162872677\\
140.97493061881684	2276962.327020247\\
141.62444160916667	2299340.344848344\\
142.2739525995165	2322497.8836022844\\
142.9234635898666	2345828.552694488\\
};

\addplot [
color=black,
densely dashdotted
]
table[row sep=crcr]{
80.66437269010765	1280909.2284064025\\
81.29325239616583	1281590.8043106066\\
81.922132102224	1282303.3866257872\\
82.55101180828217	1283442.6060073483\\
83.17989151434034	1284699.5043619808\\
83.80877122039851	1286206.081107349\\
84.43765092645668	1287986.408696027\\
85.06653063251485	1289891.954211099\\
85.69541033857303	1292169.0216331119\\
86.3242900446312	1294503.8543572184\\
86.95316975068937	1297244.9736068097\\
87.58204945674754	1300038.035008539\\
88.21092916280571	1303204.3234651634\\
88.83980886886388	1306483.0940381899\\
89.46868857492206	1310029.2784567731\\
90.09756828098023	1313819.6937156792\\
90.7264479870384	1317693.9142168763\\
91.35532769309657	1322020.2806929785\\
91.98420739915474	1326247.0242195132\\
92.61308710521291	1331048.805990606\\
93.24196681127108	1335848.238018067\\
93.87084651732926	1340860.4449837103\\
94.49972622338743	1346253.261025618\\
95.1286059294456	1351574.1619761486\\
95.75748563550377	1357406.310961194\\
96.38636534156194	1363353.4084590778\\
97.01524504762011	1369242.2296539133\\
97.64412475367828	1375832.1408863566\\
98.27300445973646	1382377.786933155\\
98.90188416579463	1388933.3666021114\\
99.5307638718528	1396150.2364271027\\
100.15964357791097	1403336.3995480586\\
100.78852328396914	1410491.6619463433\\
101.41740299002731	1418353.6076717991\\
102.04628269608548	1426219.7688150639\\
102.67516240214366	1434068.7030245734\\
103.30404210820183	1442415.0280823081\\
103.93292181426	1450997.991609549\\
104.56180152031817	1459577.3506556815\\
105.19068122637634	1468286.0894470157\\
105.81956093243451	1477619.794124022\\
106.44844063849268	1486963.4339347328\\
107.07732034455086	1496317.0679230893\\
107.70620005060903	1506011.586821155\\
108.3350797566672	1516150.2772175611\\
108.96395946272537	1526312.4644208692\\
109.59283916878354	1536498.2848288657\\
110.22171887484171	1547037.7550738035\\
110.85059858089988	1558035.8408558099\\
111.47947828695806	1569070.9869842918\\
112.10835799301623	1580143.4037107048\\
112.7372376990744	1591359.181337189\\
113.36611740513257	1603267.318579834\\
113.99499711119074	1615226.0395728138\\
114.62387681724891	1627235.6249210835\\
115.25275652330708	1639296.3552295938\\
115.88163622936526	1651794.7738675482\\
116.51051593542343	1664723.5540544002\\
117.1393956414816	1677716.706715924\\
117.76827534753977	1690774.5793103955\\
118.39715505359794	1703897.5192960897\\
119.02603475965611	1717466.1161058287\\
119.65491446571428	1731484.7251432682\\
120.28379417177246	1745581.497946126\\
120.91267387783063	1759756.8453258262\\
121.5415535838888	1774011.1780937922\\
122.17043328994697	1788391.8339319408\\
122.79931299600514	1803564.3772180844\\
123.42819270206331	1818828.8256241924\\
124.05707240812148	1834185.6498146644\\
124.68595211417966	1849635.3204538983\\
125.31483182023783	1865178.3082062937\\
125.943711526296	1880906.9621589263\\
126.57259123235417	1897397.4835932343\\
127.20147093841234	1913994.0760804445\\
127.83035064447051	1930697.2666377565\\
128.45923035052868	1947507.5822823695\\
129.08811005658686	1964425.5500314832\\
129.71698976264503	1981451.696902297\\
130.3458694687032	1999040.6886655\\
130.97474917476137	2017049.29311942\\
131.60362888081954	2035178.665192841\\
132.2325085868777	2053429.3847555893\\
132.86138829293589	2071802.0316774913\\
133.49026799899406	2090297.1858283728\\
134.11914770505223	2108915.427078061\\
134.7480274111104	2127957.548810039\\
135.37690711716857	2147585.6616813065\\
136.00578682322674	2167349.2252042843\\
136.6346665292849	2187248.8686012505\\
137.26354623534309	2207285.221094484\\
137.89242594140126	2227458.9119062647\\
138.52130564745943	2247770.570258871\\
139.1501853535176	2268220.825374583\\
139.77906505957577	2289100.7839698084\\
140.40794476563394	2310591.6032327446\\
141.0368244716921	2332233.1442161147\\
141.66570417775029	2354026.081994475\\
142.29458388380846	2375971.0916423844\\
142.9234635898666	2398068.8482343983\\
};

\addplot [
color=black,
densely dotted
]
table[row sep=crcr]{
72.14849432682922	1671736.8902775259\\
72.86339300625384	1678758.2176620269\\
73.57829168567847	1685662.05562699\\
74.29319036510309	1692459.7346224252\\
75.00808904452771	1699162.9429242695\\
75.72298772395233	1705783.7266343855\\
76.43788640337695	1712334.274378747\\
77.15278508280157	1718781.6410249183\\
77.86768376222619	1725100.1842224891\\
78.58258244165081	1731297.2200921217\\
79.29748112107544	1737380.282393047\\
80.01237980050006	1743357.1225230643\\
80.72727847992468	1749235.7095185425\\
81.4421771593493	1755024.2300544179\\
82.15707583877392	1760731.0884441962\\
82.87197451819854	1766364.9066399501\\
83.58687319762316	1771934.5242323228\\
84.30177187704778	1777448.998450525\\
85.0166705564724	1782917.6041623356\\
85.73156923589703	1788349.8338741027\\
86.44646791532165	1793755.3977307426\\
87.16136659474627	1799144.2235157406\\
87.87626527417089	1804512.241577671\\
88.59116395359551	1809838.0982722323\\
89.30606263302013	1815125.2858196704\\
90.02096131244475	1820378.0895844514\\
90.73585999186938	1825600.8453873093\\
91.450758671294	1830797.9395052458\\
92.16565735071862	1835973.8086715285\\
92.88055603014324	1841132.9400756925\\
93.59545470956786	1846279.8713635402\\
94.31035338899248	1851419.1906371415\\
95.0252520684171	1856555.5364548315\\
95.74015074784172	1861693.5978312145\\
96.45504942726635	1866838.1142371604\\
97.16994810669097	1871993.8755998064\\
97.88484678611559	1877165.7223025577\\
98.59974546554021	1882368.197861009\\
99.31464414496483	1887648.4264519818\\
100.02954282438945	1893002.8162853396\\
100.74444150381407	1898420.1619667956\\
101.4593401832387	1903888.8215915868\\
102.17423886266332	1909396.7167444783\\
102.88913754208794	1914931.3324997616\\
103.60403622151256	1920479.7174212525\\
104.31893490093718	1926028.4835622949\\
105.0338335803618	1931563.806465758\\
105.74873225978642	1937071.4251640374\\
106.46363093921104	1942536.6421790547\\
107.17852961863566	1947944.323522257\\
107.89342829806029	1953278.8986946202\\
108.60832697748491	1958524.3606866442\\
109.32322565690953	1963668.0533170344\\
110.03812433633415	1968764.445670899\\
110.75302301575877	1973836.3280955476\\
111.46792169518339	1978883.4508034263\\
112.18282037460801	1983905.5197833336\\
112.89771905403263	1988902.1968004196\\
113.61261773345726	1993873.0993961866\\
114.32751641288188	1998817.8008884909\\
115.0424150923065	2003735.8303715405\\
115.75731377173112	2008626.6727158942\\
116.47221245115574	2013489.768568466\\
117.18711113058036	2018324.5143525202\\
117.90200981000498	2023130.2622676753\\
118.6169084894296	2027906.3202899003\\
119.33180716885423	2032651.952171519\\
120.04670584827885	2037366.3807227667\\
120.76160452770347	2042058.6567136154\\
121.47650320712809	2046737.3097287535\\
122.19140188655271	2051401.754145762\\
122.90630056597733	2056051.3598667902\\
123.62119924540195	2060685.4523185578\\
124.33609792482657	2065303.3124523498\\
125.0509966042512	2069904.1767440215\\
125.76589528367582	2074487.237193996\\
126.48079396310044	2079051.6413272654\\
127.19569264252506	2083596.4921933895\\
127.91059132194968	2088120.8483664964\\
128.6254900013743	2092623.7239452843\\
129.3403886807989	2097104.0885530168\\
130.0552873602235	2101560.8673375286\\
130.7701860396481	2105992.940971222\\
131.48508471907272	2110400.5396969104\\
132.19998339849732	2114787.54756203\\
132.91488207792193	2119156.258756884\\
133.62978075734654	2123508.880945683\\
134.34467943677114	2127847.6488846852\\
135.05957811619575	2132174.824422197\\
135.77447679562036	2136492.696498568\\
136.48937547504497	2140803.581146199\\
137.20427415446957	2145109.821489534\\
137.91917283389418	2149413.7877450655\\
138.6340715133188	2153717.877221334\\
139.3489701927434	2158024.5143189244\\
140.063868872168	2162336.15053047\\
140.7787675515926	2166655.26444065\\
141.49366623101722	2170984.3617261928\\
142.20856491044182	2175336.7120594904\\
142.9234635898666	2179774.436422449\\
};
\end{axis}
\end{tikzpicture}%
