%Power_needed_and_available_weights_PHI_1.0
\begin{tikzpicture}

\begin{axis}[
width=\figurewidth,
height=\figureheight,
scaled ticks=false, tick label style={/pgf/number format/fixed},
xmin=72.14849495111972,
xmax=142.9234635898666,
xlabel={Speed ((m/s))},
xmajorgrids,
ymin=916547.3305458742,
ymax=2398068.8323211623,
ylabel={Powers ((W))},
ymajorgrids,
legend style={at={(1.03,0.5)},anchor=west,draw=black,fill=white,legend cell align=left}
]

\addplot [
color=black,
solid
]
table[row sep=crcr]{
72.14849495111972	916547.3305458742\\
72.86339362423837	917164.7388053853\\
73.57829229735702	918004.3326631056\\
74.29319097047568	919043.0599551384\\
75.00808964359433	920421.8241307143\\
75.72298831671299	922109.0851534468\\
76.43788698983164	923950.2793027674\\
77.1527856629503	926107.5048468001\\
77.86768433606895	928578.4564414134\\
78.5825830091876	931143.4809575257\\
79.29748168230626	934174.6394088074\\
80.01238035542491	937330.444108871\\
80.72727902854356	940765.5567197226\\
81.44217770166222	944494.6525664945\\
82.15707637478087	948369.6126735181\\
82.87197504789953	952647.3553019966\\
83.58687372101818	956996.476005232\\
84.30177239413683	961790.7777784192\\
85.01667106725549	966646.6685366743\\
85.73156974037414	971917.7106013463\\
86.4464684134928	977311.1538275243\\
87.16136708661145	983011.0981699935\\
87.8762657597301	988970.925826421\\
88.59116443284876	995043.6273283043\\
89.30606310596741	1001596.5975220602\\
90.02096177908606	1008113.9627430527\\
90.73586045220472	1015147.989594288\\
91.45075912532337	1022298.8687139765\\
92.16565779844203	1029573.7190651931\\
92.88055647156068	1037380.2056136379\\
93.59545514467933	1045182.5295255476\\
94.31035381779799	1053292.5005370341\\
95.02525249091664	1061785.6556223491\\
95.7401511640353	1070290.3399434662\\
96.45504983715395	1079158.9238654638\\
97.1699485102726	1088386.7514212572\\
97.88484718339126	1097641.813858755\\
98.59974585650991	1107174.1734071753\\
99.31464452962857	1117181.5480734825\\
100.02954320274722	1127231.8307642096\\
100.74444187586587	1137325.3303450816\\
101.45934054898453	1148142.3556018726\\
102.17423922210318	1159029.2474518414\\
102.88913789522184	1169975.053906145\\
103.60403656834049	1181214.350686445\\
104.31893524145914	1192975.5097103212\\
105.0338339145778	1204811.1508541694\\
105.74873258769645	1216721.7845446784\\
106.4636312608151	1228983.264022421\\
107.17852993393376	1241742.2128433161\\
107.89342860705241	1254591.638318896\\
108.60832728017107	1267532.1439435398\\
109.32322595328972	1280646.366258781\\
110.03812462640838	1294463.4961238946\\
110.75302329952703	1308387.0502780075\\
111.46792197264568	1322417.7201413265\\
112.18282064576434	1336556.1971340603\\
112.89771931888299	1351109.5538960898\\
113.61261799200165	1366162.3967657983\\
114.3275166651203	1381338.27716026\\
115.04241533823895	1396637.9692836506\\
115.75731401135761	1412062.2473401455\\
116.47221268447626	1427828.0666276237\\
117.18711135759492	1444198.464214934\\
117.90201003071357	1460708.4975418944\\
118.61690870383222	1477359.0184547869\\
119.33180737695088	1494150.8787998916\\
120.04670605006953	1511084.93042349\\
120.76160472318819	1528607.730572733\\
121.47650339630684	1546527.0780301609\\
122.1914020694255	1564603.4916398842\\
122.90630074254415	1582837.8957484274\\
123.6211994156628	1601231.2147023168\\
124.33609808878145	1619784.3728480784\\
125.05099676190011	1638733.7204610822\\
125.76589543501876	1658303.5767736663\\
126.48079410813742	1678047.8950912578\\
127.19569278125607	1697967.6671187659\\
127.91059145437472	1718063.8845610996\\
128.62549012749338	1738337.5391231687\\
129.34038880061203	1758789.6225098807\\
130.0552874737307	1779607.8390776126\\
130.77018614684934	1801112.8104857297\\
131.485084819968	1822810.566559564\\
132.19998349308665	1844702.1612205459\\
132.9148821662053	1866788.6483901057\\
133.62978083932396	1889071.0819896748\\
134.3446795124426	1911550.515940685\\
135.05957818556126	1934228.0041645668\\
135.77447685867992	1957287.1975603031\\
136.48937553179857	1981056.5763786337\\
137.20427420491723	2005038.0680018638\\
137.91917287803588	2029232.7834260853\\
138.63407155115453	2053641.8336473887\\
139.3489702242732	2078266.329661867\\
140.06386889739184	2103107.3824656117\\
140.7787675705105	2128166.1030547144\\
141.49366624362915	2153443.602425266\\
142.2085649167478	2179008.7684227005\\
142.9234635898666	2205417.6610557926\\
};

\addplot [
color=black,
densely dashed
]
table[row sep=crcr]{
74.36899244026748	1003803.6302483116\\
75.06146184581898	1004440.888777001\\
75.75393125137049	1005261.6737340929\\
76.446400656922	1006238.9023993335\\
77.1388700624735	1007704.1998253058\\
77.831339468025	1009305.4557980498\\
78.52380887357651	1011077.9525118562\\
79.21627827912802	1013300.8546132458\\
79.90874768467953	1015594.7718811102\\
80.60121709023103	1018255.1279028491\\
81.29368649578254	1021126.7255080317\\
81.98615590133404	1024190.6489669963\\
82.67862530688555	1027619.7594498347\\
83.37109471243706	1031121.7615141592\\
84.06356411798856	1035081.3475529496\\
84.75603352354007	1039054.405827281\\
85.44850292909157	1043510.2985545682\\
86.14097233464308	1047985.7449299044\\
86.83344174019459	1052896.3822487763\\
87.5259111457461	1057903.7907523073\\
88.2183805512976	1063219.9556526854\\
88.9108499568491	1068787.0302976312\\
89.60331936240061	1074451.5891725644\\
90.29578876795212	1080604.051808016\\
90.98825817350362	1086706.83472783\\
91.68072757905513	1093313.1709307313\\
92.37319698460664	1100040.3549478145\\
93.06566639015814	1106862.0568843076\\
93.75813579570965	1114234.9228963018\\
94.45060520126115	1121588.5984287625\\
95.14307460681266	1129224.840877066\\
95.83554401236417	1137258.322456389\\
96.52801341791567	1145287.7742449765\\
97.22048282346718	1153662.4670958994\\
97.91295222901869	1162403.0962840947\\
98.60542163457019	1171154.871338701\\
99.2978910401217	1180174.5978230028\\
99.9903604456732	1189665.9586492074\\
100.68282985122471	1199183.6139110057\\
101.37529925677622	1208736.8735858144\\
102.06776866232772	1219019.3497288951\\
102.76023806787923	1229343.1997324806\\
103.45270747343073	1239708.7042937283\\
104.14517687898224	1250410.1739184044\\
104.83764628453375	1261577.0384539303\\
105.53011569008525	1272800.6196972055\\
106.22258509563676	1284081.292271147\\
106.91505450118827	1295801.4899170725\\
107.60752390673977	1307916.0626204102\\
108.29999331229128	1320102.7201275206\\
108.99246271784278	1332361.926314157\\
109.68493212339429	1344939.0399301946\\
110.3774015289458	1358060.3510129878\\
111.0698709344973	1371269.0841692751\\
111.76234034004881	1384565.787854722\\
112.45480974560031	1397951.0105249954\\
113.14727915115182	1411986.371907723\\
113.83974855670333	1426271.3858590822\\
114.53221796225483	1440659.700614931\\
115.22468736780634	1455151.944537924\\
115.91715677335785	1469748.7459907164\\
116.60962617890935	1485030.3994533774\\
117.30209558446086	1500559.13993605\\
117.99456499001236	1516207.0674458765\\
118.68703439556387	1531974.8855795779\\
119.37950380111538	1547863.297933876\\
120.07197320666688	1564125.2421075813\\
120.76444261221839	1580971.7119474648\\
121.4569120177699	1597953.1924349885\\
122.1493814233214	1615070.457728014\\
122.84185082887291	1632324.281984406\\
123.53432023442441	1649715.4393620286\\
124.22678963997592	1667474.9126655995\\
124.91925904552743	1685857.0944853371\\
125.61172845107893	1704390.817923251\\
126.30419785663044	1723076.9230254244\\
126.99666726218194	1741916.2498379396\\
127.68913666773345	1760909.6384068804\\
128.38160607328496	1780057.9287783294\\
129.07407547883648	1799798.5921428103\\
129.766544884388	1819976.2140390489\\
130.45901428993952	1840322.7294260904\\
131.15148369549104	1860839.039565314\\
131.84395310104256	1881526.0457180992\\
132.53642250659408	1902384.6491458241\\
133.2288919121456	1923415.751109868\\
133.92136131769712	1944685.3940256524\\
134.61383072324864	1966774.9492716116\\
135.30630012880016	1989050.6984938364\\
135.99876953435168	2011513.599496079\\
136.6912389399032	2034164.6100820908\\
137.38370834545472	2057004.6880556224\\
138.07617775100624	2080034.791220426\\
138.76864715655776	2103255.877380254\\
139.46111656210928	2126668.9043388558\\
140.1535859676608	2150679.93197751\\
140.84605537321232	2175195.241232843\\
141.53852477876384	2199915.9147777525\\
142.23099418431536	2224842.962285438\\
142.9234635898666	2249977.39342909\\
};

\addplot [
color=black,
dashdotted
]
table[row sep=crcr]{
76.52488293591007	1093656.8834200676\\
77.19557566978843	1094311.4198972045\\
77.86626840366678	1095104.6480941046\\
78.53696113754513	1096138.7497923707\\
79.20765387142349	1097551.7231279076\\
79.87834660530184	1099044.6967210309\\
80.5490393391802	1100925.5148718045\\
81.21973207305855	1103000.1364641273\\
81.8904248069369	1105251.4781758876\\
82.56111754081526	1107891.2885833168\\
83.23181027469361	1110547.6668190232\\
83.90250300857197	1113729.8519029354\\
84.57319574245032	1116832.6884224124\\
85.24388847632868	1120519.5467497413\\
85.91458121020703	1124084.182600489\\
86.58527394408539	1128255.775290356\\
87.25596667796374	1132319.9735892478\\
87.9266594118421	1136925.2818687032\\
88.59735214572045	1141517.6917631296\\
89.2680448795988	1146505.8133434516\\
89.93873761347716	1151652.9999124093\\
90.60943034735551	1156965.7794254564\\
91.28012308123387	1162692.4124748444\\
91.95081581511222	1168356.2737129005\\
92.62150854899058	1174592.6651790517\\
93.29220128286893	1180873.6127661532\\
93.96289401674728	1187300.3753819463\\
94.63358675062564	1194218.8482975394\\
95.304279484504	1201104.1139384452\\
95.97497221838235	1208325.9131856253\\
96.6456649522607	1215881.6958514752\\
97.31635768613906	1223418.9216243096\\
97.98705042001741	1231359.8348175543\\
98.65774315389577	1239597.9637340244\\
99.32843588777412	1247832.2010067175\\
99.99912862165247	1256399.9204027574\\
100.66982135553083	1265362.6502998264\\
101.34051408940918	1274336.1304578874\\
102.01120682328754	1283421.2754388214\\
102.68189955716589	1293147.8500038583\\
103.35259229104425	1302899.755178148\\
104.0232850249226	1312677.1564149547\\
104.69397775880095	1322901.607040297\\
105.36467049267931	1333467.8408347988\\
106.03536322655766	1344074.1408575322\\
106.70605596043602	1354720.762147763\\
107.37674869431437	1365959.7272009766\\
108.04744142819273	1377427.1795881519\\
108.71813416207108	1388949.4665223907\\
109.38882689594944	1400526.9283831762\\
110.05951962982779	1412625.2648412788\\
110.73021236370614	1425051.5110304859\\
111.4009050975845	1437547.3418360562\\
112.07159783146285	1450113.178731909\\
112.74229056534121	1462883.8972502134\\
113.41298329921956	1476322.1207018888\\
114.08367603309792	1489844.6096403114\\
114.75436876697627	1503451.8623880541\\
115.42506150085462	1517144.3772676897\\
116.09575423473298	1531173.2176154978\\
116.76644696861133	1545770.6286549168\\
117.43713970248969	1560467.4368286121\\
118.10783243636804	1575264.2130620289\\
118.7785251702464	1590161.5282806123\\
119.44921790412475	1605204.5561771353\\
120.1199106380031	1621033.7505130142\\
120.79060337188146	1636977.4392471958\\
121.46129610575981	1653036.2616622157\\
122.13198883963817	1669210.857040608\\
122.80268157351652	1685501.86466491\\
123.47337430739488	1702098.810582298\\
124.14406704127323	1719355.789174037\\
124.81475977515159	1736742.964751716\\
125.48545250902994	1754261.040709176\\
126.1561452429083	1771910.7204402618\\
126.82683797678665	1789692.7073388167\\
127.497530710665	1807607.7047986833\\
128.16822344454334	1826277.0604250093\\
128.8389161784217	1845197.9011118952\\
129.50960891230005	1864265.3626058148\\
130.1803016461784	1883480.2081661376\\
130.85099438005676	1902843.2010522315\\
131.52168711393512	1922355.1045234676\\
132.19237984781347	1942016.6818392137\\
132.86307258169182	1962355.8336008168\\
133.53376531557018	1983054.7882292059\\
134.20445804944853	2003916.7802752245\\
134.8751507833269	2024942.6286179854\\
135.54584351720524	2046133.1521366022\\
136.2165362510836	2067489.1697101886\\
136.88722898496195	2089011.500217857\\
137.5579217188403	2110700.9625387224\\
138.22861445271866	2133089.7810872565\\
138.899307186597	2155851.240022743\\
139.56999992047537	2178792.9268676084\\
140.24069265435372	2201915.7118749293\\
140.91138538823208	2225220.4652977805\\
141.58207812211043	2248708.0573892384\\
142.25277085598879	2272379.3584023784\\
142.9234635898666	2296235.2385902554\\
};

\addplot [
color=black,
dashed
]
table[row sep=crcr]{
78.62187622553633	1186050.769786015\\
79.2713872090144	1186720.0637740777\\
79.92089819249249	1187477.165733213\\
80.57040917597057	1188565.8029274137\\
81.21992015944865	1189908.657798285\\
81.86943114292673	1191338.1590807468\\
82.51894212640481	1193253.3317593331\\
83.16845310988289	1195150.8087775363\\
83.81796409336097	1197526.206727858\\
84.46747507683905	1199934.217418513\\
85.11698606031713	1202734.9369001442\\
85.76649704379521	1205623.17910322\\
86.41600802727329	1208879.5030706155\\
87.06551901075137	1212211.2046568764\\
87.71502999422945	1215951.9041451819\\
88.36454097770753	1219683.6070755322\\
89.01405196118561	1223935.8486545957\\
89.6635629446637	1228084.5469505263\\
90.31307392814178	1232806.446267799\\
90.96258491161986	1237506.7841737517\\
91.61209589509794	1242529.8993052787\\
92.26160687857602	1247805.4772028779\\
92.9111178620541	1253063.1942524158\\
93.56062884553218	1258935.707283503\\
94.21013982901026	1264747.880027471\\
94.85965081248834	1270842.9387934771\\
95.50916179596642	1277286.1682191577\\
96.1586727794445	1283683.1671590125\\
96.80818376292258	1290554.4510027228\\
97.45769474640066	1297614.3327140808\\
98.10720572987874	1304642.1421432288\\
98.75671671335682	1312213.6602761853\\
99.4062276968349	1319933.7095844545\\
100.05573868031298	1327635.8585117045\\
100.70524966379107	1335816.1213102904\\
101.35476064726915	1344237.2247183651\\
102.00427163074723	1352654.5786394381\\
102.6537826142253	1361335.9729594153\\
103.30329359770339	1370496.1799333647\\
103.95280458118147	1379666.7326024086\\
104.60231556465955	1388847.696014256\\
105.25182654813763	1398659.2118340342\\
105.90133753161571	1408617.8770351352\\
106.55084851509379	1418601.0429639032\\
107.20035949857187	1428651.250669543\\
107.84987048204995	1439429.653988238\\
108.49938146552803	1450246.519041964\\
109.14889244900611	1461102.077461221\\
109.79840343248419	1471998.7497860014\\
110.44791441596227	1483677.279440937\\
111.09742539944035	1495408.3772937907\\
111.74693638291843	1507192.352482331\\
112.39644736639652	1519029.5141443275\\
113.0459583498746	1531390.9354154097\\
113.69546933335268	1544088.220150941\\
114.34498031683076	1556852.511251611\\
114.99449130030884	1569684.191506377\\
115.64400228378692	1582583.6437041943\\
116.293513267265	1596226.8451009435\\
116.94302425074308	1610018.8559366644\\
117.59253523422116	1623892.3535373341\\
118.24204621769924	1637847.7904870156\\
118.89155720117732	1651885.6193697695\\
119.5410681846554	1666580.8797551263\\
120.19057916813348	1681538.5816779367\\
120.84009015161156	1696592.2351568504\\
121.48960113508964	1711742.3587149514\\
122.13911211856772	1726989.470875321\\
122.7886231020458	1742457.8103417899\\
123.43813408552388	1758646.5838934295\\
124.08764506900197	1774945.7003424254\\
124.73715605248005	1791355.7402947969\\
125.38666703595813	1807877.2843565643\\
126.0361780194362	1824510.9131337483\\
126.68568900291429	1841267.020636775\\
127.33519998639237	1858870.6864488178\\
127.98471096987045	1876599.5940411922\\
128.63422195334854	1894454.3822467746\\
129.28373293682662	1912435.6898984385\\
129.9332439203047	1930544.15582906\\
130.58275490378279	1948780.4188715136\\
131.23226588726087	1967304.5733749259\\
131.88177687073895	1986544.503172908\\
132.53128785421703	2005925.186446993\\
133.1807988376951	2025447.3164008264\\
133.8303098211732	2045111.5862380567\\
134.47982080465127	2064918.689162329\\
135.12933178812935	2084869.3183772927\\
135.77884277160743	2104964.1670865924\\
136.4283537550855	2125688.8637280934\\
137.0778647385636	2146824.757408463\\
137.72737572204167	2168117.6112080696\\
138.37688670551975	2189568.168845248\\
139.02639768899783	2211177.174038335\\
139.6759086724759	2232945.370505666\\
140.325419655954	2254873.501965576\\
140.97493063943207	2276962.3121364005\\
141.62444162291015	2299340.328017452\\
142.27395260638824	2322497.866177773\\
142.9234635898666	2345828.5346689713\\
};

\addplot [
color=black,
densely dashdotted
]
table[row sep=crcr]{
80.66437338808483	1280909.2517731255\\
81.29325308709272	1281590.8275756713\\
81.92213278610062	1282303.4097667907\\
82.55101248510852	1283442.629054504\\
83.17989218411641	1284699.5272638765\\
83.80877188312431	1286206.1039194232\\
84.4376515821322	1287986.4313391568\\
85.0665312811401	1289891.9767673055\\
85.695410980148	1292169.0439942642\\
86.3242906791559	1294503.8766332138\\
86.95317037816379	1297244.9956592815\\
87.58205007717169	1300038.0569764876\\
88.21092977617958	1303204.345178836\\
88.83980947518748	1306483.1156668407\\
89.46868917419538	1310029.2997981939\\
90.09756887320327	1313819.7149704536\\
90.72644857221117	1317693.935149353\\
91.35532827121907	1322020.3015360672\\
91.98420797022696	1326247.0449734505\\
92.61308766923486	1331048.8263810782\\
93.24196736824275	1335848.2583152452\\
93.87084706725065	1340860.46487763\\
94.49972676625855	1346253.2808210063\\
95.12860646526644	1351574.1816726557\\
95.75748616427434	1357406.3302069062\\
96.38636586328224	1363353.4275992864\\
97.01524556229013	1369242.248687966\\
97.64412526129803	1375832.15941861\\
98.27300496030593	1382377.805351256\\
98.90188465931382	1388933.3844722218\\
99.53076435832172	1396150.2541740288\\
100.15964405732961	1403336.417170514\\
100.78852375633751	1410491.6794430362\\
101.41740345534541	1418353.6245551636\\
102.0462831543533	1426219.7855619835\\
102.6751628533612	1434068.7196334244\\
103.3040425523691	1442415.0440177957\\
103.932922251377	1450998.0073949827\\
104.56180195038489	1459577.3662890992\\
105.19068164939279	1468286.1043445535\\
105.81956134840068	1477619.8088562922\\
106.44844104740858	1486963.4484994265\\
107.07732074641648	1496317.082317884\\
107.70620044542437	1506011.6004032183\\
108.33508014443227	1516150.2906149141\\
108.96395984344016	1526312.4776308364\\
109.59283954244806	1536498.2978487546\\
110.22171924145596	1547037.7672002793\\
110.85059894046385	1558035.8527758792\\
111.47947863947175	1569070.9986949037\\
112.10835833847965	1580143.4152087874\\
112.73723803748754	1591359.1918578693\\
113.36611773649544	1603267.3288701926\\
113.99499743550334	1615226.049629417\\
114.62387713451123	1627235.6347404732\\
115.25275683351913	1639296.3648082896\\
115.88163653252703	1651794.7823663992\\
116.51051623153492	1664723.5622930217\\
117.13939593054282	1677716.7146904669\\
117.76827562955071	1690774.587016985\\
118.39715532855861	1703897.5267308252\\
119.02603502756651	1717466.1223539656\\
119.6549147265744	1731484.7310983436\\
120.2837944255823	1745581.5036038668\\
120.9126741245902	1759756.8506819315\\
121.5415538235981	1774011.1831439333\\
122.17043352260599	1788391.8376853482\\
122.79931322161389	1803564.380642733\\
123.42819292062178	1818828.8287153787\\
124.05707261962968	1834185.6525676541\\
124.68595231863758	1849635.3228639269\\
125.31483201764547	1865178.3102685662\\
125.94371171665337	1880906.9627924806\\
126.57259141566126	1897397.4838544072\\
127.20147111466916	1913994.075964064\\
127.83035081367706	1930697.2661386172\\
128.45923051268497	1947507.5813952356\\
129.08811021169288	1964425.5487510844\\
129.7169899107008	1981451.695223332\\
130.3458696097087	1999040.685401364\\
130.9747493087166	2017049.2894300332\\
131.60362900772452	2035178.661072521\\
132.23250870673243	2053429.3801986203\\
132.86138840574034	2071802.0266781223\\
133.49026810474825	2090297.1803808184\\
134.11914780375616	2108915.4211765015\\
134.74802750276407	2127957.5411625286\\
135.37690720177199	2147585.65355119\\
136.0057869007799	2167349.2165853605\\
136.6346665997878	2187248.8594872844\\
137.26354629879572	2207285.211479203\\
137.89242599780363	2227458.9017833597\\
138.52130569681154	2247770.559621997\\
139.15018539581945	2268220.814217358\\
139.77906509482736	2289100.7708797986\\
140.40794479383527	2310591.589591692\\
141.03682449284318	2332233.1300172564\\
141.6657041918511	2354026.067231011\\
142.294583890859	2375971.076307477\\
142.9234635898666	2398068.8323211623\\
};

\addplot [
color=black,
densely dotted
]
table[row sep=crcr]{
72.14849495111972	1671736.8964634703\\
72.86339362423837	1678758.223679131\\
73.57829229735702	1685662.0614869653\\
74.29319097047568	1692459.7403369918\\
75.00808964359433	1699162.9485051425\\
75.72298831671299	1705783.7320932632\\
76.43788698983164	1712334.2797225271\\
77.1527856629503	1718781.646203787\\
77.86768433606895	1725100.1892445672\\
78.5825830091876	1731297.2249655125\\
79.29748168230626	1737380.287125828\\
80.01238035542491	1743357.1271232804\\
80.72727902854356	1749235.7139941966\\
81.44217770166222	1755024.2344134648\\
82.15707637478087	1760731.0926945335\\
82.87197504789953	1766364.910789413\\
83.58687372101818	1771934.5282886734\\
84.30177239413683	1777449.0024214466\\
85.01667106725549	1782917.6080554242\\
85.73156974037414	1788349.8376968596\\
86.4464684134928	1793755.401490567\\
87.16136708661145	1799144.227219921\\
87.8762657597301	1804512.2452090865\\
88.59116443284876	1809838.1018291386\\
89.30606310596741	1815125.2893056048\\
90.02096177908606	1820378.093002873\\
90.73586045220472	1825600.848741595\\
91.45075912532337	1830797.9427986874\\
92.16565779844203	1835973.8119073357\\
92.88055647156068	1841132.943256986\\
93.59545514467933	1846279.8744933524\\
94.31035381779799	1851419.1937184138\\
95.02525249091664	1856555.5394904143\\
95.7401511640353	1861693.600823863\\
96.45504983715395	1866838.117189535\\
97.1699485102726	1871993.8785144698\\
97.88484718339126	1877165.725181973\\
98.59974585650991	1882368.200726442\\
99.31464452962857	1887648.4293140378\\
100.02954320274722	1893002.8191368\\
100.74444187586587	1898420.1648005038\\
101.45934054898453	1903888.8244004662\\
102.17423922210318	1909396.7195215463\\
102.88913789522184	1914931.335238145\\
103.60403656834049	1920479.7201142048\\
104.31893524145914	1926028.4862032079\\
105.0338339145778	1931563.8090481802\\
105.74873258769645	1937071.4276816903\\
106.4636312608151	1942536.644625844\\
107.17852993393376	1947944.325892294\\
107.89342860705241	1953278.9009822307\\
108.60832728017107	1958524.3628863879\\
109.32322595328972	1963668.0554349297\\
110.03812462640838	1968764.447733832\\
110.75302329952703	1973836.3301038586\\
111.46792197264568	1978883.4527574445\\
112.18282064576434	1983905.5216833784\\
112.89771931888299	1988902.1986468022\\
113.61261799200165	1993873.1011892122\\
114.3275166651203	1998817.802628459\\
115.04241533823895	2003735.8320587473\\
115.75731401135761	2008626.6743506351\\
116.47221268447626	2013489.7701510359\\
117.18711135759492	2018324.5158832148\\
117.90201003071357	2023130.2637467934\\
118.61690870383222	2027906.321717746\\
119.33180737695088	2032651.9535484004\\
120.04670605006953	2037366.3820491019\\
120.76160472318819	2042058.657994853\\
121.47650339630684	2046737.3109649802\\
122.1914020694255	2051401.7553370674\\
122.90630074254415	2056051.3610132707\\
123.6211994156628	2060685.4534203135\\
124.33609808878145	2065303.313509491\\
125.05099676190011	2069904.177756668\\
125.76589543501876	2074487.2381622791\\
126.48079410813742	2079051.6422513288\\
127.19569278125607	2083596.4930733917\\
127.91059145437472	2088120.8492026124\\
128.62549012749338	2092623.724737706\\
129.34038880061203	2097104.089301956\\
130.0552874737307	2101560.8680432173\\
130.77018614684934	2105992.9416339146\\
131.485084819968	2110400.540317453\\
132.19998349308665	2114787.5481412224\\
132.9148821662053	2119156.25929534\\
133.62978083932396	2123508.8814439606\\
134.3446795124426	2127847.649343287\\
135.05957818556126	2132174.8248415673\\
135.77447685867992	2136492.6968790954\\
136.48937553179857	2140803.581488211\\
137.20427420491723	2145109.8217933006\\
137.91917287803588	2149413.7880107947\\
138.63407155115453	2153717.877449172\\
139.3489702242732	2158024.514508956\\
140.06386889739184	2162336.1506827152\\
140.7787675705105	2166655.2645550654\\
141.49366624362915	2170984.3618026674\\
142.2085649167478	2175336.7120982283\\
142.9234635898666	2179774.436422449\\
};
\end{axis}
\end{tikzpicture}%
