%Power_needed_and_available_altitudes
\begin{tikzpicture}

\begin{axis}[
width=\figurewidth,
height=\figureheight,
scaled ticks=false, tick label style={/pgf/number format/fixed},
xmin=59.21372681087494,
xmax=142.9234635898666,
xlabel={Speed ((m/s))},
xmajorgrids,
ymin=940284.522213961,
ymax=3747200.5396691235,
ylabel={Powers ((W))},
ymajorgrids,
legend style={at={(1.03,0.5)},anchor=west,draw=black,fill=white,legend cell align=left}
]

\addplot [
color=black,
solid
]
table[row sep=crcr]{
80.6644003488891	1280910.546029017\\
81.29327977556564	1281592.1220848975\\
81.92215920224217	1282304.703732678\\
82.5510386289187	1283443.9237809558\\
83.17991805559524	1284700.820849495\\
83.80879748227177	1286207.3986131824\\
84.4376769089483	1287987.7241969714\\
85.06655633562484	1289893.2710446515\\
85.69543576230137	1292170.3356442498\\
86.3243151889779	1294505.1699775439\\
86.95319461565444	1297246.2854900986\\
87.58207404233097	1300039.3487396005\\
88.2109534690075	1303205.6324493645\\
88.83983289568404	1306484.4050705805\\
89.46871232236057	1310030.583639435\\
90.09759174903711	1313821.001108717\\
90.72647117571364	1317695.214566688\\
91.35535060239017	1322021.5833771755\\
91.98423002906671	1326248.3293016283\\
92.61310945574324	1331050.1027705083\\
93.24198888241978	1335849.5372736673\\
93.87086830909631	1340861.7345411123\\
94.49974773577284	1346254.553098538\\
95.12862716244938	1351575.4566121115\\
95.75750658912591	1357407.5943765196\\
96.38638601580244	1363354.694430967\\
97.01526544247898	1369243.5182216452\\
97.64414486915551	1375833.4165674048\\
98.27302429583204	1382379.065157351\\
98.90190372250858	1388934.6302559876\\
99.53078314918511	1396151.502534796\\
100.15966257586165	1403337.668130904\\
100.78854200253818	1410492.9330259361\\
101.41742142921471	1418354.8621268107\\
102.04630085589125	1426221.0256227884\\
102.67518028256778	1434069.962197252\\
103.30405970924431	1442416.2685729489\\
103.93293913592085	1450999.2342764055\\
104.56181856259738	1459578.5955013558\\
105.19069798927391	1468287.313438381\\
105.81957741595045	1477621.020061687\\
106.44845684262698	1486964.661811417\\
107.07733626930352	1496318.2977314342\\
107.70621569598005	1506012.7932293871\\
108.33509512265658	1516151.4852722846\\
108.96397454933312	1526313.6741045404\\
109.59285397600965	1536499.496123758\\
110.22173340268618	1547038.9402547795\\
110.85061282936272	1558037.0273113209\\
111.47949225603925	1569072.1746861723\\
112.10837168271578	1580144.5926305102\\
112.73725110939232	1591360.3412771462\\
113.36613053606885	1603268.4793509797\\
113.99500996274539	1615227.2011360638\\
114.62388938942192	1627236.787236978\\
115.25276881609845	1639297.5182583006\\
115.88164824277499	1651795.9045207063\\
116.51052766945152	1664724.6849749743\\
117.13940709612805	1677717.8378532026\\
117.76828652280459	1690775.7106132028\\
118.39716594948112	1703898.6507127874\\
119.02604537615765	1717467.211556324\\
119.65492480283419	1731485.8202056352\\
120.28380422951072	1745582.592557668\\
120.91268365618726	1759757.9394232994\\
121.54156308286379	1774012.271613406\\
122.17044250954032	1788392.8877287884\\
122.79932193621686	1803565.4298809567\\
123.42820136289339	1818829.8770781218\\
124.05708078956992	1834186.6999840566\\
124.68596021624646	1849636.369262532\\
125.31483964292299	1865179.3555773194\\
125.94371906959952	1880907.9653864412\\
126.57259849627606	1897398.48476534\\
127.20147792295259	1913995.0751089836\\
127.83035734962912	1930698.263433869\\
128.45923677630566	1947508.5767564932\\
129.0881162029822	1964426.542093354\\
129.71699562965875	1981452.686460948\\
130.3458750563353	1999041.6288966967\\
130.97475448301185	2017050.2301608343\\
131.6036339096884	2035179.5989420637\\
132.23251333636495	2053430.31510944\\
132.8613927630415	2071802.958532016\\
133.49027218971804	2090298.1090788457\\
134.1191516163946	2108916.3466189816\\
134.74803104307114	2127958.4136224086\\
135.37691046974768	2147586.522033154\\
136.00578989642423	2167350.0809786147\\
136.63466932310078	2187249.7196802315\\
137.26354874977733	2207286.067359445\\
137.89242817645388	2227459.753237695\\
138.52130760313042	2247771.4065364217\\
139.15018702980697	2268221.6564770667\\
139.77906645648352	2289101.554108581\\
140.40794588316007	2310592.3673756802\\
141.03682530983662	2332233.9022304947\\
141.66570473651316	2354026.8337466815\\
142.2945841631897	2375971.8369979016\\
142.9234635898666	2398069.5870578224\\
};

\addplot [
color=black,
densely dashed
]
table[row sep=crcr]{
74.34798723885135	1180609.0483332651\\
75.04066881815453	1181358.9763643942\\
75.73335039745771	1182325.411136496\\
76.4260319767609	1183476.51727832\\
77.11871355606408	1185200.4208597091\\
77.81139513536726	1187086.409392218\\
78.50407671467045	1189171.6066230012\\
79.19675829397363	1191789.7661692998\\
79.88943987327681	1194492.2088606826\\
80.58212145258	1197622.0584437235\\
81.27480303188318	1201005.0727011927\\
81.96748461118636	1204609.7452750772\\
82.66016619048955	1208649.6807152708\\
83.35284776979273	1212769.8334917238\\
84.04552934909591	1217434.9518223896\\
84.7382109283991	1222109.4372341444\\
85.43089250770228	1227359.6039344796\\
86.12357408700547	1232625.3374982781\\
86.81625566630865	1238411.7134992722\\
87.50893724561183	1244303.5416788694\\
88.20161882491502	1250568.27504364\\
88.8943004042182	1257118.8431128045\\
89.58698198352138	1263794.76071694\\
90.27966356282457	1271034.3806224605\\
90.97234514212775	1278215.495525189\\
91.66502672143093	1286001.1980590427\\
92.35770830073412	1293917.329707303\\
93.0503898800373	1301957.8038459315\\
93.74307145934048	1310634.0363160498\\
94.43575303864367	1319287.668836195\\
95.12843461794685	1328288.3851181015\\
95.82111619725003	1337742.3282328825\\
96.51379777655322	1347191.5255595215\\
97.2064793558564	1357063.0411265795\\
97.89916093515959	1367349.518333847\\
98.59184251446277	1377649.1218988101\\
99.28452409376595	1388281.591893487\\
99.97720567306914	1399451.9563814152\\
100.66988725237232	1410653.2878055105\\
101.3625688316755	1421915.5734461357\\
102.05525041097869	1434017.410835007\\
102.74793199028187	1446167.9746197758\\
103.44061356958505	1458367.5955220533\\
104.13329514888824	1470983.582309773\\
104.82597672819142	1484126.7685292466\\
105.5186583074946	1497336.751320579\\
106.21133988679779	1510613.9720701175\\
106.90402146610097	1524431.4040278294\\
107.59670304540415	1538690.5413192974\\
108.28938462470734	1553034.5754551517\\
108.98206620401052	1567464.0529807643\\
109.6747477833137	1582292.6031817943\\
110.36742936261689	1597737.2439353934\\
111.06011094192007	1613284.8458339707\\
111.75279252122326	1628936.0550762191\\
112.44547410052644	1644691.5178608298\\
113.13815567982962	1661239.505841649\\
113.8308372591328	1678054.5474534098\\
114.52351883843599	1694991.2528166121\\
115.21620041773917	1712050.3622775592\\
115.90888199704236	1729232.6161825524\\
116.60156357634554	1747250.7278424741\\
117.29424515564872	1765530.4546467194\\
117.98692673495191	1783950.5569837433\\
118.67960831425509	1802511.8638417504\\
119.37228989355827	1821215.204208946\\
120.06497147286146	1840390.4793427042\\
120.75765305216464	1860222.0870548282\\
121.45033463146783	1880212.7086703177\\
122.14301621077101	1900363.2563135722\\
122.83569779007419	1920674.6421089906\\
123.52837936937738	1941147.7781809724\\
124.22106094868056	1962089.6655566355\\
124.91374252798374	1983729.931694452\\
125.60642410728693	2005548.6838647334\\
126.29910568659011	2027546.9118223654\\
126.9917872658933	2049725.6053222315\\
127.68446884519648	2072085.754119218\\
128.37715042449966	2094628.3479682088\\
129.06983200380284	2117906.8561586016\\
129.76251358310603	2141661.7349241734\\
130.4551951624092	2165615.5393985324\\
131.1478767417124	2189769.3314613397\\
131.84055832101558	2214124.1729922583\\
132.53323990031876	2238681.1258709505\\
133.22592147962195	2263441.251977079\\
133.91860305892513	2288524.2629550174\\
134.6112846382283	2314531.012109681\\
135.3039662175315	2340757.066452403\\
135.99664779683468	2367203.5544819143\\
136.68932937613786	2393871.604696947\\
137.38201095544105	2420762.345596233\\
138.07469253474423	2447876.905678504\\
138.7673741140474	2475216.413442493\\
139.4600556933506	2502781.9973869296\\
140.15273727265378	2531098.0046535074\\
140.84541885195696	2559961.8759315293\\
141.53810043126015	2589067.635284145\\
142.23078201056333	2618416.472323446\\
142.9234635898666	2648009.576661529\\
};

\addplot [
color=black,
dashdotted
]
table[row sep=crcr]{
68.73022695707306	1091401.8099620717\\
69.47965358972753	1092205.1239315835\\
70.22908022238201	1093377.2517665026\\
70.97850685503649	1094895.0776798807\\
71.72793348769096	1096732.1254555217\\
72.47736012034544	1099044.753361816\\
73.22678675299991	1101790.7224598748\\
73.97621338565439	1104806.2211057171\\
74.72564001830887	1108136.3925368986\\
75.47506665096334	1112052.7569778482\\
76.22449328361782	1116167.930310608\\
76.9739199162723	1120659.8001657592\\
77.72334654892677	1125638.863394881\\
78.47277318158125	1130723.591311396\\
79.22219981423572	1136506.096331716\\
79.9716264468902	1142386.6883480186\\
80.72105307954467	1148797.9619388918\\
81.47047971219915	1155441.078494041\\
82.21990634485363	1162529.8212816413\\
82.9693329775081	1169891.044484327\\
83.71875961016258	1177703.4109442546\\
84.46818624281705	1185726.787662921\\
85.21761287547153	1194306.1903016833\\
85.967039508126	1202923.7752546489\\
86.71646614078048	1212310.6887911425\\
87.46589277343496	1221668.9668973056\\
88.21531940608944	1231673.8531837182\\
88.96474603874391	1241899.6342706042\\
89.71417267139839	1252336.3948559645\\
90.46359930405286	1263463.5004195753\\
91.21302593670734	1274607.219935982\\
91.96245256936182	1286280.814400052\\
92.71187920201629	1298378.5076389678\\
93.46130583467077	1310515.5347292747\\
94.21073246732524	1323331.936580859\\
94.96015909997972	1336471.3962592958\\
95.7095857326342	1349672.9577414638\\
96.45901236528867	1363511.3200842377\\
97.20843899794315	1377759.2154802706\\
97.95786563059762	1392091.95525418\\
98.7072922632521	1406803.289011684\\
99.45671889590658	1422221.3393255812\\
100.20614552856105	1437746.877781359\\
100.95557216121553	1453380.7143240585\\
101.70499879387	1469797.263684554\\
102.45442542652448	1486571.7571109086\\
103.20385205917896	1503477.1678259033\\
103.95327869183343	1520514.4534543783\\
104.70270532448791	1538458.10334637\\
105.45213195714238	1556685.085996146\\
106.20155858979686	1575066.4484486796\\
106.95098522245134	1593603.2878495052\\
107.70041185510581	1612844.835578923\\
108.44983848776029	1632613.518477118\\
109.19926512041476	1652559.9791502878\\
109.94869175306924	1672685.4461055568\\
110.69811838572372	1692991.14785005\\
111.4475450183782	1714333.7051623804\\
112.19697165103267	1735926.694269983\\
112.94639828368715	1757722.0483832278\\
113.69582491634162	1779721.1192117233\\
114.4452515489961	1801925.2584650803\\
115.19467818165057	1825053.9811585036\\
115.94410481430505	1848591.8845806206\\
116.69353144695953	1872356.7099653867\\
117.442958079614	1896349.9240657918\\
118.19238471226848	1920572.9936348237\\
118.94181134492295	1945086.1925060742\\
119.69123797757743	1970679.6792834084\\
120.4406646102319	1996524.4923201643\\
121.19009124288638	2022622.2052536067\\
121.93951787554086	2048974.3917210011\\
122.68894450819533	2075582.625359611\\
123.43837114084981	2102448.4798067\\
124.18779777350429	2130150.8371427446\\
124.93722440615876	2158451.9967670594\\
125.68665103881324	2187031.9566256306\\
126.43607767146771	2215892.389080893\\
127.18550430412219	2245034.96649528\\
127.93493093677667	2274461.3612312265\\
128.68435756943114	2304173.245651166\\
129.43378420208563	2334500.458909836\\
130.18321083474012	2365698.570808257\\
130.9326374673946	2397202.921746645\\
131.6820641000491	2429015.2746535\\
132.4314907327036	2461137.392457321\\
133.18091736535808	2493571.0380866085\\
133.93034399801257	2526317.9744698596\\
134.67977063066706	2559379.964535575\\
135.42919726332156	2592789.439521872\\
136.17862389597605	2627391.4892817037\\
136.92805052863054	2662328.8557123477\\
137.67747716128503	2697603.3841492618\\
138.42690379393952	2733216.9199279062\\
139.176330426594	2769171.3083837405\\
139.9257570592485	2805468.3948522243\\
140.675183691903	2842110.024668816\\
141.42461032455748	2879098.043168975\\
142.17403695721197	2916434.2956881626\\
142.9234635898666	2954449.426756292\\
};

\addplot [
color=black,
dashed
]
table[row sep=crcr]{
63.7127254935474	1011726.3829887331\\
64.51283395916678	1012569.9040736895\\
65.31294242478617	1013905.4356052473\\
66.11305089040556	1015720.7903400034\\
66.91315935602495	1017999.8597168501\\
67.71326782164434	1020722.498313629\\
68.51337628726372	1023864.4083037869\\
69.31348475288311	1027423.270444519\\
70.1135932185025	1031636.4329257831\\
70.91370168412189	1036226.131971793\\
71.71381014974128	1041152.9944423232\\
72.51391861536067	1046605.0035128414\\
73.31402708098005	1052585.2720032947\\
74.11413554659944	1058822.224940885\\
74.91424401221883	1065660.9273406882\\
75.71435247783822	1072910.4467231585\\
76.5144609434576	1080442.1941032049\\
77.314569409077	1088687.1023521358\\
78.11467787469638	1097015.4636606707\\
78.91478634031577	1106185.6290171794\\
79.71489480593516	1115404.1284856535\\
80.51500327155455	1125422.503038301\\
81.31511173717394	1135475.236709396\\
82.11522020279332	1146396.3155193997\\
82.91532866841271	1157310.0053015891\\
83.7154371340321	1169086.8480015018\\
84.51554559965149	1180981.8499886326\\
85.31565406527088	1193454.148115999\\
86.11576253089027	1206377.1767793794\\
86.91587099650965	1219437.6052378872\\
87.71597946212904	1233431.0816815493\\
88.51608792774843	1247500.647527448\\
89.31619639336782	1262056.800795676\\
90.1163048589872	1277261.9781798956\\
90.9164133246066	1292571.48458948\\
91.71652179022598	1308518.19339647\\
92.51663025584537	1325023.0799112457\\
93.31673872146476	1341660.5924982806\\
94.11684718708415	1358858.0675057087\\
94.91695565270354	1376744.8136285844\\
95.71706411832292	1394792.4363053688\\
96.51717258394231	1413064.3963053557\\
97.3172810495617	1432408.670867355\\
98.11738951518109	1451941.9219106587\\
98.91749798080048	1471665.703133447\\
99.71760644641986	1491944.0882751415\\
100.51771491203925	1513031.2763921404\\
101.31782337765864	1534337.0260975393\\
102.11793184327803	1555863.0771143043\\
102.91804030889742	1577926.928335561\\
103.7181487745168	1600874.7516404781\\
104.5182572401362	1624070.7120495168\\
105.31836570575558	1647516.723756095\\
106.11847417137497	1671214.7009536286\\
106.91858263699436	1695994.7566202506\\
107.71869110261375	1721189.2488582383\\
108.51879956823313	1746663.3825822165\\
109.31890803385252	1772419.2349017174\\
110.11901649947191	1798458.8829262762\\
110.9191249650913	1825637.1940726175\\
111.71923343071069	1853236.97235722\\
112.51934189633008	1881147.9123378412\\
113.31945036194946	1909372.2424857973\\
114.11955882756885	1937912.1912724045\\
114.91966729318824	1967061.1963127183\\
115.71977575880763	1997212.5498411222\\
116.51988422442702	2027706.4277887188\\
117.3199926900464	2058545.198434272\\
118.1201011556658	2089731.2300565462\\
118.92020962128518	2121266.890934304\\
119.72031808690457	2153154.5493463106\\
120.52042655252396	2186350.114613761\\
121.32053501814335	2219934.880729487\\
122.12064348376273	2253898.196249461\\
122.92075194938212	2288242.5577055574\\
123.72086041500151	2322970.4616296557\\
124.5209688806209	2358084.404553632\\
125.32107734624029	2393586.883009364\\
126.12118581185968	2430206.4368099915\\
126.92129427747906	2467473.846964804\\
127.72140274309845	2505155.794187141\\
128.52151120871784	2543254.8917076592\\
129.32161967433723	2581773.752757013\\
130.12172813995662	2620714.990565858\\
130.921836605576	2660081.21836485\\
131.7219450711954	2699875.0493846457\\
132.52205353681478	2740442.907236271\\
133.32216200243417	2782072.0727619226\\
134.12227046805356	2824154.201430674\\
134.92237893367295	2866692.0116176265\\
135.72248739929233	2909688.2216978786\\
136.52259586491172	2953145.55004653\\
137.3227043305311	2997066.71503868\\
138.1228127961505	3041454.4350494295\\
138.9229212617699	3086311.428453876\\
139.72302972738927	3131640.4136271216\\
140.52313819300866	3177879.2775022862\\
141.32324665862805	3225133.404814023\\
142.12335512424744	3272884.209851247\\
142.9234635898666	3321134.5045791543\\
};

\addplot [
color=black,
densely dashdotted
]
table[row sep=crcr]{
59.21372681087494	940284.522213961\\
60.05927970763243	941156.5532594299\\
60.90483260438992	942663.9470125366\\
61.750385501147406	944725.5989481483\\
62.595938397904895	947331.1578267262\\
63.441491294662384	950524.3711130965\\
64.28704419141988	954305.8282631657\\
65.13259708817738	958634.3530428334\\
65.97814998493487	963486.8540881304\\
66.82370288169237	968835.001917031\\
67.66925577844987	974645.0710490367\\
68.51480867520736	981128.910439333\\
69.36036157196486	988170.5772849937\\
70.20591446872236	995608.8829585512\\
71.05146736547985	1003587.2200778673\\
71.89702026223735	1012247.3644276956\\
72.74257315899484	1021204.4930636724\\
73.58812605575234	1030878.0692048862\\
74.43367895250984	1040999.6059850832\\
75.27923184926733	1051567.0599251073\\
76.12478474602483	1062825.3068588912\\
76.97033764278233	1074360.356142309\\
77.81589053953982	1086710.2241948573\\
78.66144343629732	1099282.671286078\\
79.50699633305481	1112660.7962480532\\
80.35254922981231	1126336.1496183146\\
81.19810212656981	1140660.0079755343\\
82.0436550233273	1155499.1031899054\\
82.8892079200848	1170666.1279930144\\
83.7347608168423	1186724.748797397\\
84.58031371359979	1202908.7122791428\\
85.42586661035729	1219939.9449396706\\
86.27141950711479	1237426.7840791135\\
87.11697240387228	1255073.530210744\\
87.96252530062978	1273877.76651118\\
88.80807819738727	1292904.3736282806\\
89.65363109414477	1312125.7290625037\\
90.49918399090227	1332569.5058726459\\
91.34473688765976	1353240.506506172\\
92.19028978441726	1374140.8539630203\\
93.03584268117476	1396046.3952258716\\
93.88139557793225	1418458.6382565165\\
94.72694847468975	1441134.8194420466\\
95.57250137144725	1464276.7230381335\\
96.41805426820474	1488518.4281342714\\
97.26360716496224	1513058.3875376887\\
98.10916006171973	1537899.2168352224\\
98.95471295847723	1563311.4763343967\\
99.80026585523473	1589793.5345859688\\
100.64581875199222	1616610.5842238942\\
101.49137164874972	1643765.4634463952\\
102.33692454550722	1671261.0104516945\\
103.18247744226471	1700009.6015808831\\
104.02803033902221	1729241.723372525\\
104.8735832357797	1758848.4729339331\\
105.7191361325372	1788832.895286675\\
106.5646890292947	1819198.035452317\\
107.4102419260522	1850952.8602440285\\
108.25579482280969	1883136.2035072667\\
109.10134771956719	1915733.857820564\\
109.94690061632468	1948749.0592407903\\
110.79245351308218	1982185.0438248147\\
111.63800640983968	2016479.553580281\\
112.48355930659717	2051799.9943077394\\
113.32911220335467	2087574.2394418058\\
114.17466510011216	2123805.70028661\\
115.02021799686966	2160497.7881462844\\
115.86577089362716	2197653.914324959\\
116.71132379038465	2235344.485247601\\
117.55687668714215	2274463.120305553\\
118.40242958389965	2314078.197145646\\
119.24798248065714	2354193.286531227\\
120.09353537741464	2394811.95922565\\
120.93908827417214	2435937.7859922647\\
121.78464117092963	2477574.3375944234\\
122.63019406768713	2519725.184795478\\
123.47574696444462	2563090.08757958\\
124.32129986120212	2607316.7652976466\\
125.16685275795962	2652089.5748198084\\
126.01240565471711	2697412.2305805944\\
126.85795855147461	2743288.447014535\\
127.7035114482321	2789721.9385561584\\
128.5490643449896	2836716.4196399953\\
129.39461724174708	2884275.604700574\\
130.24017013850457	2932403.2081724247\\
131.08572303526205	2982096.010222712\\
131.93127593201953	3032412.455531075\\
132.776828828777	3083328.41610832\\
133.6223817255345	3134847.7342721117\\
134.46793462229198	3186974.2523401175\\
135.31348751904946	3239711.812630004\\
136.15904041580694	3293064.2574594356\\
137.00459331256442	3347035.4291460817\\
137.8501462093219	3401629.170007605\\
138.6956991060794	3456849.3223616765\\
139.54125200283687	3513187.9963766187\\
140.38680489959435	3570702.353463809\\
141.23235779635183	3628873.260099784\\
142.07791069310932	3687704.6706973063\\
142.9234635898666	3747200.5396691235\\
};

\addplot [
color=black,
densely dotted
]
table[row sep=crcr]{
80.6644003488891	1748722.3979018459\\
81.29327977556564	1753825.626152899\\
81.92215920224217	1758864.2901570264\\
82.5510386289187	1763844.2192821298\\
83.17991805559524	1768771.373221019\\
83.80879748227177	1773651.8419914169\\
84.4376769089483	1778491.8459359503\\
85.06655633562484	1783297.73572216\\
85.69543576230137	1788075.9923424923\\
86.3243151889779	1792833.2271143047\\
86.95319461565444	1797576.1816798632\\
87.58207404233097	1802308.3528165473\\
88.2109534690075	1807010.6882296072\\
88.83983289568404	1811681.3517969432\\
89.46871232236057	1816323.2403197847\\
90.09759174903711	1820939.2808132507\\
90.72647117571364	1825532.430506355\\
91.35535060239017	1830105.6768420034\\
91.98423002906671	1834662.0374769953\\
92.61310945574324	1839204.5602820225\\
93.24198888241978	1843736.3233416707\\
93.87086830909631	1848260.434954418\\
94.49974773577284	1852780.0336326356\\
95.12862716244938	1857298.2881025865\\
95.75750658912591	1861818.39730443\\
96.38638601580244	1866343.590392214\\
97.01526544247898	1870877.1267338828\\
97.64414486915551	1875422.2959112723\\
98.27302429583204	1879982.6852260078\\
98.90190372250858	1884590.1840935615\\
99.53078314918511	1889259.929914961\\
100.15966257586165	1893984.484379889\\
100.78854200253818	1898756.1477896674\\
101.41742142921471	1903566.9590572638\\
102.04630085589125	1908408.695707288\\
102.67518028256778	1913272.8738759924\\
103.30405970924431	1918150.748311274\\
103.93293913592085	1923033.3123726696\\
104.56181856259738	1927911.2980313622\\
105.19069798927391	1932775.175870178\\
105.81957741595045	1937615.1550835837\\
106.44845684262698	1942421.1834776916\\
107.07733626930352	1947182.947470255\\
107.70621569598005	1951889.8720906712\\
108.33509512265658	1956531.1209799813\\
108.96397454933312	1961095.5963908688\\
109.59285397600965	1965593.0529975358\\
110.22173340268618	1970069.4171735123\\
110.85061282936272	1974526.7690882317\\
111.47949225603925	1978964.9327856896\\
112.10837168271578	1983383.7058281682\\
112.73725110939232	1987782.8592962297\\
113.36613053606885	1992162.1377887223\\
113.99500996274539	1996521.2594227777\\
114.62388938942192	2000859.9158338103\\
115.25276881609845	2005177.7721755183\\
115.88164824277499	2009474.4671198847\\
116.51052766945152	2013749.612857173\\
117.13940709612805	2018002.795095935\\
117.76828652280459	2022233.5730630013\\
118.39716594948112	2026441.4795034896\\
119.02604537615765	2030626.0206807998\\
119.65492480283419	2034786.6763766152\\
120.28380422951072	2038924.0642835663\\
120.91268365618726	2043048.5480778036\\
121.54156308286379	2047162.3977474207\\
122.17044250954032	2051265.2100707246\\
122.79932193621686	2055356.5551935325\\
123.42820136289339	2059435.9766291748\\
124.05708078956992	2063502.9912584925\\
124.68596021624646	2067557.0893298397\\
125.31483964292299	2071597.734459082\\
125.94371906959952	2075624.3636295968\\
126.57259849627606	2079636.3871922735\\
127.20147792295259	2083633.1888655138\\
127.83035734962912	2087614.125735231\\
128.45923677630566	2091578.5282548496\\
129.0881162029822	2095525.7002453082\\
129.71699562965875	2099454.9188950546\\
130.3458750563353	2103365.4347600504\\
130.97475448301185	2107256.475185274\\
131.6036339096884	2111129.3801454315\\
132.23251333636495	2114986.7171624154\\
132.8613927630415	2118829.972544559\\
133.49027218971804	2122660.6488232794\\
134.1191516163946	2126480.2647530767\\
134.74803104307114	2130290.355311533\\
135.37691046974768	2134092.471699314\\
136.00578989642423	2137888.181340169\\
136.63466932310078	2141679.0678809285\\
137.26354874977733	2145466.731191508\\
137.89242817645388	2149252.787364903\\
138.52130760313042	2153038.8687171955\\
139.15018702980697	2156826.623787548\\
139.77906645648352	2160617.717338206\\
140.40794588316007	2164413.830354499\\
141.03682530983662	2168216.660044838\\
141.66570473651316	2172027.9198407196\\
142.2945841631897	2175865.8389713517\\
142.9234635898666	2179774.436422449\\
};

\addplot [
color=black,
dashdotdotted
]
table[row sep=crcr]{
74.34798723885135	1978503.8219542892\\
75.04066881815453	1985827.213957097\\
75.73335039745771	1993121.139268968\\
76.4260319767609	2000414.017796722\\
77.11871355606408	2007735.1250560947\\
77.81139513536726	2015114.5921717347\\
78.50407671467045	2022548.6731226183\\
79.19675829397363	2029999.7816435527\\
79.88943987327681	2037461.6833788736\\
80.58212145258	2044927.9368074771\\
81.27480303188318	2052391.7066423604\\
81.96748461118636	2059845.7638306194\\
82.66016619048955	2067282.485553453\\
83.35284776979273	2074693.855226161\\
84.04552934909591	2082071.4624981422\\
84.7382109283991	2089406.503252899\\
85.43089250770228	2096689.779608032\\
86.12357408700547	2103911.699915246\\
86.81625566630865	2111062.278760343\\
87.50893724561183	2118131.1369632287\\
88.20161882491502	2125107.5015779086\\
88.8943004042182	2131980.2058924898\\
89.58698198352138	2138780.460229457\\
90.27966356282457	2145570.248027283\\
90.97234514212775	2152345.449609651\\
91.66502672143093	2159100.722547403\\
92.35770830073412	2165830.4697258486\\
93.0503898800373	2172528.8393447674\\
93.74307145934048	2179189.7249184065\\
94.43575303864367	2185806.7652754835\\
95.12843461794685	2192373.344559181\\
95.82111619725003	2198882.592227155\\
96.51379777655322	2205327.3830515263\\
97.2064793558564	2211700.337118886\\
97.89916093515959	2217993.8198302947\\
98.59184251446277	2224199.9419012796\\
99.28452409376595	2230310.5593618387\\
99.97720567306914	2236317.2735564373\\
100.66988725237232	2242230.820826184\\
101.3625688316755	2248085.948703562\\
102.05525041097869	2253883.7822408644\\
102.74793199028187	2259624.3933424135\\
103.44061356958505	2265307.8154694196\\
104.13329514888824	2270934.0436399775\\
104.82597672819142	2276503.03442907\\
105.5186583074946	2282014.705968567\\
106.21133988679779	2287468.9379472253\\
106.90402146610097	2292865.571610685\\
107.59670304540415	2298204.4097614773\\
108.28938462470734	2303485.2167590177\\
108.98206620401052	2308707.718519609\\
109.6747477833137	2313871.602516439\\
110.36742936261689	2318976.517779585\\
111.06011094192007	2324022.074896009\\
111.75279252122326	2329009.309288293\\
112.44547410052644	2333942.5125927413\\
113.13815567982962	2338823.6990106828\\
113.8308372591328	2343654.7638830636\\
114.52351883843599	2348437.6195980264\\
115.21620041773917	2353174.1955909077\\
115.90888199704236	2357866.4383442323\\
116.60156357634554	2362516.3113877205\\
117.29424515564872	2367125.795298286\\
117.98692673495191	2371696.887700035\\
118.67960831425509	2376231.6032642643\\
119.37228989355827	2380731.973709467\\
120.06497147286146	2385200.047801328\\
120.75765305216464	2389637.891352723\\
121.45033463146783	2394047.587223721\\
122.14301621077101	2398431.2353215874\\
122.83569779007419	2402792.064763319\\
123.52837936937738	2407134.3496102244\\
124.22106094868056	2411458.0436038976\\
124.91374252798374	2415762.80674459\\
125.60642410728693	2420048.2600740846\\
126.29910568659011	2424313.985675689\\
126.9917872658933	2428559.5266742385\\
127.68446884519648	2432784.387236097\\
128.37715042449966	2436988.032569154\\
129.06983200380284	2441169.8889228282\\
129.76251358310603	2445329.3435880644\\
130.4551951624092	2449465.744897336\\
131.1478767417124	2453578.4022246427\\
131.84055832101558	2457666.5859855106\\
132.53323990031876	2461729.5276369965\\
133.22592147962195	2465766.4196776827\\
133.91860305892513	2469784.9353001313\\
134.6112846382283	2473813.4542743233\\
135.3039662175315	2477850.2316411617\\
135.99664779683468	2481890.505678302\\
136.68932937613786	2485929.3869012683\\
137.38201095544105	2489961.858063457\\
138.07469253474423	2493982.7741561295\\
138.7673741140474	2497986.862408422\\
139.4600556933506	2501968.7222873364\\
140.15273727265378	2505922.8254977483\\
140.84541885195696	2509843.5159823974\\
141.53810043126015	2513725.009921898\\
142.23078201056333	2517561.3957347325\\
142.9234635898666	2521346.6340772524\\
};

\addplot [
color=black,
densely dashdotdetted
]
table[row sep=crcr]{
68.73022695707306	2171528.244242265\\
69.47965358972753	2182097.005903071\\
70.22908022238201	2192446.9862126145\\
70.97850685503649	2202589.3858712995\\
71.72793348769096	2212535.7920705\\
72.47736012034544	2222298.1784925554\\
73.22678675299991	2231888.905310774\\
73.97621338565439	2241320.7191894306\\
74.72564001830887	2250606.7532837684\\
75.47506665096334	2259760.527239998\\
76.22449328361782	2268795.947195297\\
76.9739199162723	2277727.3057778114\\
77.72334654892677	2286569.282106654\\
78.47277318158125	2295336.941791906\\
79.22219981423572	2304045.7369346153\\
79.9716264468902	2312708.8272145935\\
80.72105307954467	2321325.9821721218\\
81.47047971219915	2329892.467031993\\
82.21990634485363	2338403.1686325925\\
82.9693329775081	2346852.5944590154\\
83.71875961016258	2355234.8726430647\\
84.46818624281705	2363543.751963256\\
85.21761287547153	2371772.60184481\\
85.967039508126	2379914.4123596614\\
86.71646614078048	2387961.7942264513\\
87.46589277343496	2395906.978810533\\
88.21531940608944	2403741.818123966\\
88.96474603874391	2411457.784825523\\
89.71417267139839	2419045.972220683\\
90.46359930405286	2426497.0942616374\\
91.21302593670734	2433829.7730925702\\
91.96245256936182	2441104.1222217567\\
92.71187920201629	2448318.840594977\\
93.46130583467077	2455469.601188357\\
94.21073246732524	2462551.823287734\\
94.96015909997972	2469560.6724886536\\
95.7095857326342	2476491.0606963737\\
96.45901236528867	2483337.6461258624\\
97.20843899794315	2490094.8333017984\\
97.95786563059762	2496756.773058569\\
98.7072922632521	2503317.362540274\\
99.45671889590658	2509770.2452007225\\
100.20614552856105	2516108.810803433\\
100.95557216121553	2522326.195421636\\
101.70499879387	2528415.281438273\\
102.45442542652448	2534372.128889472\\
103.20385205917896	2540208.1002108\\
103.95327869183343	2545931.438135506\\
104.70270532448791	2551549.802543208\\
105.45213195714238	2557071.0281333094\\
106.20155858979686	2562503.1244250084\\
106.95098522245134	2567854.275757294\\
107.70041185510581	2573132.841288944\\
108.44983848776029	2578347.3549985294\\
109.19926512041476	2583506.525684411\\
109.94869175306924	2588619.2369647427\\
110.69811838572372	2593694.547277466\\
111.4475450183782	2598741.6898803175\\
112.19697165103267	2603770.072850821\\
112.94639828368715	2608789.2790862955\\
113.69582491634162	2613808.109768427\\
114.4452515489961	2618826.4038469777\\
115.19467818165057	2623841.2592851087\\
115.94410481430505	2628849.9568220694\\
116.69353144695953	2633849.6279293494\\
117.442958079614	2638837.254810683\\
118.19238471226848	2643809.6704020402\\
118.94181134492295	2648763.5583716375\\
119.69123797757743	2653695.45311993\\
120.4406646102319	2658601.7397796144\\
121.19009124288638	2663478.654215627\\
121.93951787554086	2668322.2830251483\\
122.68894450819533	2673128.5635375963\\
123.43837114084981	2677893.2838146337\\
124.18779777350429	2682612.0826501623\\
124.93722440615876	2687285.3564372007\\
125.68665103881324	2691953.686993621\\
126.43607767146771	2696624.4974421454\\
127.18550430412219	2701294.4061408076\\
127.93493093677667	2705959.8934710175\\
128.68435756943114	2710617.301837558\\
129.43378420208563	2715262.83566859\\
130.18321083474012	2719892.561415649\\
130.9326374673946	2724502.4075536476\\
131.6820641000491	2729088.164580873\\
132.4314907327036	2733645.485018988\\
133.18091736535808	2738169.8834130317\\
133.93034399801257	2742656.7363314177\\
134.67977063066706	2747101.2823659373\\
135.42919726332156	2751498.6221317556\\
136.17862389597605	2755846.561331738\\
136.92805052863054	2760189.34774829\\
137.67747716128503	2764539.404732392\\
138.42690379393952	2768890.9342106027\\
139.176330426594	2773237.9680808717\\
139.9257570592485	2777574.3682125374\\
140.675183691903	2781893.8264463297\\
141.42461032455748	2786189.864594366\\
142.17403695721197	2790455.834440155\\
142.9234635898666	2794684.9177385964\\
};

\addplot [
color=black,
loosely dashed
]
table[row sep=crcr]{
63.7127254935474	2369129.312607442\\
64.51283395916678	2381842.37886679\\
65.31294242478617	2394242.5966690294\\
66.11305089040556	2406427.6512043863\\
66.91315935602495	2418499.7611367316\\
67.71326782164434	2430565.6786035756\\
68.51337628726372	2442736.6892160703\\
69.31348475288311	2455124.9476260673\\
70.1135932185025	2467578.462104296\\
70.91370168412189	2479957.859377825\\
71.71381014974128	2492254.4795984747\\
72.51391861536067	2504458.8406873695\\
73.31402708098005	2516560.6383349355\\
74.11413554659944	2528548.7460009027\\
74.91424401221883	2540411.2149143023\\
75.71435247783822	2552135.2740734685\\
76.5144609434576	2563707.330246038\\
77.314569409077	2575112.967968949\\
78.11467787469638	2586336.949548444\\
78.91478634031577	2597363.215060067\\
79.71489480593516	2608174.8823486636\\
80.51500327155455	2618754.247028384\\
81.31511173717394	2629130.9680154296\\
82.11522020279332	2639419.8230469786\\
82.91532866841271	2649615.7985762656\\
83.7154371340321	2659706.0071432227\\
84.51554559965149	2669676.835359898\\
85.31565406527088	2679513.9439104577\\
86.11576253089027	2689202.267551185\\
86.91587099650965	2698726.0151104783\\
87.71597946212904	2708068.6694888547\\
88.51608792774843	2717212.9876589486\\
89.31619639336782	2726141.00066551\\
90.1163048589872	2734834.013625407\\
90.9164133246066	2743272.605727625\\
91.71652179022598	2751436.630233265\\
92.51663025584537	2759312.9084949833\\
93.31673872146476	2767000.897790599\\
94.11684718708415	2774528.666977609\\
94.91695565270354	2781884.677138689\\
95.71706411832292	2789056.89953615\\
96.51717258394231	2796032.815611933\\
97.3172810495617	2802799.4169876133\\
98.11738951518109	2809343.205464397\\
98.91749798080048	2815650.1930231242\\
99.71760644641986	2821705.9018242657\\
100.51771491203925	2827495.3642079267\\
101.31782337765864	2833003.1226938427\\
102.11793184327803	2838213.2299813833\\
102.91804030889742	2843109.2489495487\\
103.7181487745168	2847674.252656974\\
104.5182572401362	2851860.47272579\\
105.31836570575558	2855633.1157563785\\
106.11847417137497	2859023.1466308082\\
106.91858263699436	2862063.148589673\\
107.71869110261375	2864786.753474728\\
108.51879956823313	2867228.6417288934\\
109.31890803385252	2869424.54239625\\
110.11901649947191	2871411.2331220433\\
110.9191249650913	2873226.54015268\\
111.71923343071069	2874909.3383357325\\
112.51934189633008	2876499.551119933\\
113.31945036194946	2878038.150555177\\
114.11955882756885	2879567.157292525\\
114.91966729318824	2881129.6405841974\\
115.71977575880763	2882752.3524762606\\
116.51988422442702	2884346.5059244134\\
117.3199926900464	2885889.0473594205\\
118.1201011556658	2887375.914101016\\
118.92020962128518	2888802.822395506\\
119.72031808690457	2890165.267415774\\
120.52042655252396	2891458.5232612737\\
121.32053501814335	2892677.6429580357\\
122.12064348376273	2893817.458458663\\
122.92075194938212	2894872.5806423314\\
123.72086041500151	2895837.399314792\\
124.5209688806209	2896706.0832083696\\
125.32107734624029	2897472.5799819613\\
126.12118581185968	2898130.616221041\\
126.92129427747906	2898673.8148538875\\
127.72140274309845	2899134.9949279753\\
128.52151120871784	2899541.3442947706\\
129.32161967433723	2899889.2817744478\\
130.12172813995662	2900175.059755825\\
130.921836605576	2900394.764196364\\
131.7219450711954	2900544.3146221717\\
132.52205353681478	2900619.464127994\\
133.32216200243417	2900615.7993772225\\
134.12227046805356	2900528.740601892\\
134.92237893367295	2900353.54160268\\
135.72248739929233	2900085.2897489066\\
136.52259586491172	2899718.905978535\\
137.3227043305311	2899249.144798175\\
138.1228127961505	2898670.5942830727\\
138.9229212617699	2898000.3897875804\\
139.72302972738927	2897309.6404768424\\
140.52313819300866	2896591.673579792\\
141.32324665862805	2895832.2111940295\\
142.12335512424744	2895016.585601504\\
142.9234635898666	2894129.739268513\\
};

\addplot [
color=black,
loosely dashdotted
]
table[row sep=crcr]{
59.21372681087494	2425970.933522055\\
60.05927970763243	2452531.034031475\\
60.90483260438992	2472856.0711764176\\
61.750385501147406	2487845.625925778\\
62.595938397904895	2498462.255935683\\
63.441491294662384	2505731.495549482\\
64.28704419141988	2510741.855797755\\
65.13259708817738	2514644.8243983057\\
65.97814998493487	2518654.865756167\\
66.82370288169237	2524049.420963598\\
67.66925577844987	2532168.907800083\\
68.51480867520736	2544416.720732337\\
69.36036157196486	2562259.230914296\\
70.20591446872236	2587225.786187129\\
71.05146736547985	2615864.0639226465\\
71.89702026223735	2637657.7572006886\\
72.74257315899484	2653066.387613041\\
73.58812605575234	2663080.188296643\\
74.43367895250984	2668744.786564084\\
75.27923184926733	2671161.2039036043\\
76.12478474602483	2671485.8559790943\\
76.97033764278233	2670930.5526300943\\
77.81589053953982	2670762.4978717975\\
78.66144343629732	2672304.2898950437\\
79.50699633305481	2676933.9210663256\\
80.35254922981231	2686084.777927785\\
81.19810212656981	2701245.6411972153\\
82.0436550233273	2723960.6857680585\\
82.8892079200848	2748842.4859233745\\
83.7347608168423	2766435.9785289317\\
84.58031371359979	2777629.8373323283\\
85.42586661035729	2783475.528685686\\
86.27141950711479	2785073.497482164\\
87.11697240387228	2783573.167155957\\
87.96252530062978	2780172.939682296\\
88.80807819738727	2776120.1955774543\\
89.65363109414477	2772711.2938987357\\
90.49918399090227	2771291.5722444863\\
91.34473688765976	2773255.3467540857\\
92.19028978441726	2780045.912107954\\
93.03584268117476	2793155.541527544\\
93.88139557793225	2814124.842419439\\
94.72694847468975	2835398.4246596573\\
95.57250137144725	2849342.6223364\\
96.41805426820474	2856999.319177748\\
97.26360716496224	2859453.70306258\\
98.10916006171973	2857834.266020575\\
98.95471295847723	2853312.8042322122\\
99.80026585523473	2847104.4180287723\\
100.64581875199222	2840467.511892334\\
101.49137164874972	2834703.794455779\\
102.33692454550722	2831158.2785027856\\
103.18247744226471	2831219.280967835\\
104.02803033902221	2836318.422936208\\
104.8735832357797	2847930.6296439855\\
105.7191361325372	2867422.496072931\\
106.5646890292947	2885365.917109411\\
107.4102419260522	2896168.206707655\\
108.25579482280969	2900888.069410414\\
109.10134771956719	2900622.4972532173\\
109.94690061632468	2896506.7697643717\\
110.79245351308218	2889714.453964964\\
111.63800640983968	2881457.4043688593\\
112.48355930659717	2872985.7629827\\
113.32911220335467	2865587.9593059067\\
114.17466510011216	2860590.7103306814\\
115.02021799686966	2859359.020542001\\
115.86577089362716	2863296.181917622\\
116.71132379038465	2873843.773928081\\
117.55687668714215	2891926.852772016\\
118.40242958389965	2906997.8116458594\\
119.24798248065714	2915292.710105901\\
120.09353537741464	2917854.9014715385\\
120.93908827417214	2915761.133615033\\
121.78464117092963	2910121.5489615076\\
122.63019406768713	2902079.6844889554\\
123.47574696444462	2892812.4717282304\\
124.32129986120212	2883530.236763053\\
125.16685275795962	2875476.7002300075\\
126.01240565471711	2869928.9773185453\\
126.85795855147461	2868197.5777709796\\
127.7035114482321	2871626.4058824917\\
128.5490643449896	2881592.7605011244\\
129.39461724174708	2898313.984131657\\
130.24017013850457	2910665.770273039\\
131.08572303526205	2916404.126242527\\
131.93127593201953	2916583.7024915284\\
132.776828828777	2912289.425076823\\
133.6223817255345	2904636.4956605686\\
134.46793462229198	2894770.391510289\\
135.31348751904946	2883866.8654988864\\
136.15904041580694	2873131.9461046327\\
137.00459331256442	2863801.937411176\\
137.8501462093219	2857143.419107535\\
138.6956991060794	2854453.2464881022\\
139.54125200283687	2857058.550452644\\
140.38680489959435	2866316.7375062983\\
141.23235779635183	2881506.599717038\\
142.07791069310932	2891145.397457075\\
142.9234635898666	2894168.0793128703\\
};
\end{axis}
\end{tikzpicture}%
