%Power_needed_and_available_altitudes
\begin{tikzpicture}

\begin{axis}[
width=\figurewidth,
height=\figureheight,
scaled ticks=false, tick label style={/pgf/number format/fixed},
xmin=59.21372681087494,
xmax=146.32640319914915,
xlabel={Speed ((m/s))},
xmajorgrids,
ymin=940284.522213961,
ymax=3993440.8791059186,
ylabel={Powers ((W))},
ymajorgrids,
legend style={at={(1.03,0.5)},anchor=west,draw=black,fill=white,legend cell align=left}
]

\addplot [
color=black,
solid
]
table[row sep=crcr]{
80.6644003488891	1280910.546029017\\
81.22409558538733	1281514.0383889568\\
81.78379082188556	1282071.3637669354\\
82.34348605838379	1283089.943475334\\
82.90318129488202	1283994.7141499766\\
83.46287653138025	1285401.5491416864\\
84.02257176787847	1286677.3675278833\\
84.5822670043767	1288440.92483349\\
85.14196224087493	1290110.2915675072\\
85.70165747737316	1292194.1991382432\\
86.26135271387139	1294278.4538598205\\
86.82104795036962	1296641.3623924786\\
87.38074318686785	1299160.6245269394\\
87.94043842336607	1301756.0692887835\\
88.5001336598643	1304729.1788291403\\
89.05982889636253	1307601.1877903647\\
89.61952413286076	1310949.8997718764\\
90.17921936935899	1314304.6610078863\\
90.73891460585722	1317781.7807127996\\
91.29860984235545	1321635.3144922068\\
91.85830507885368	1325409.9880956602\\
92.4180003153519	1329543.6826697234\\
92.97769555185013	1333842.9737732545\\
93.53739078834836	1338074.2921055765\\
94.09708602484659	1342809.866906108\\
94.65678126134482	1347589.9578236178\\
95.21647649784305	1352312.9916956068\\
95.77617173434128	1357584.9398985386\\
96.3358669708395	1362879.100535704\\
96.89556220733773	1368127.125967269\\
97.45525744383596	1373858.7288463563\\
98.01495268033419	1379698.3232844134\\
98.57464791683242	1385502.6882643113\\
99.13434315333065	1391605.6154703486\\
99.69403838982888	1398019.9687258268\\
100.2537336263271	1404409.9599713997\\
100.81342886282533	1410783.86981143\\
101.37312409932356	1417800.1345958929\\
101.93281933582179	1424802.8443128054\\
102.49251457232002	1431791.9241227375\\
103.05220980881825	1438978.0075091152\\
103.61190504531648	1446618.2001510907\\
104.1716002818147	1454255.5465804674\\
104.73129551831293	1461890.0314224518\\
105.29099075481116	1469775.1757857965\\
105.85068599130939	1478082.984909407\\
106.41038122780762	1486398.6657504968\\
106.97007646430585	1494722.2599314956\\
107.52977170080408	1503172.3942055844\\
108.0894669373023	1512188.718620538\\
108.64916217380053	1521223.6121492297\\
109.20885741029876	1530277.1709439007\\
109.76855264679699	1539349.4911567923\\
110.32824788329522	1548899.1088665607\\
110.88794311979345	1558691.037063805\\
111.44763835629168	1568512.3298429183\\
112.0073335927899	1578363.1354185408\\
112.56702882928813	1588243.6020053125\\
113.12672406578636	1598729.2535983059\\
113.68641930228459	1609352.726957169\\
114.24611453878282	1620016.379804291\\
114.80580977528105	1630720.4099492987\\
115.36550501177928	1641465.015201818\\
115.9252002482775	1652689.198416788\\
116.48489548477573	1664196.4711881895\\
117.04459072127396	1675754.720781313\\
117.60428595777219	1687364.1921333615\\
118.16398119427042	1699025.1301815347\\
118.72367643076865	1710754.6862304632\\
119.28337166726688	1723193.9554250713\\
119.8430669037651	1735694.9441907567\\
120.40276214026333	1748257.9421248815\\
120.96245737676156	1760883.238824811\\
121.52215261325979	1773571.123887907\\
122.08184784975802	1786321.8869115347\\
122.64154308625625	1799750.1898528582\\
123.20123832275448	1813310.2983696382\\
123.7609335592527	1826943.4411917825\\
124.32062879575093	1840649.9501094047\\
124.88032403224916	1854430.1569126179\\
125.44001926874739	1868284.3933915354\\
125.99971450524562	1882371.993339694\\
126.55940974174385	1897051.5612570294\\
127.11910497824208	1911815.1369934382\\
127.6788002147403	1926663.0920643704\\
128.23849545123855	1941595.7979852788\\
128.7981906877368	1956613.626271613\\
129.35788592423503	1971716.9484388237\\
129.91758116073328	1986906.136002362\\
130.47727639723152	2002794.4877382785\\
131.03697163372976	2018838.4370028947\\
131.596666870228	2034978.0891104096\\
132.15636210672625	2051213.8528341993\\
132.7160573432245	2067546.1369476414\\
133.27575257972273	2083975.3502241096\\
133.83544781622098	2100501.9014369817\\
134.39514305271922	2117126.1993596335\\
134.95483828921746	2134398.215956924\\
135.5145335257157	2151899.9510650723\\
136.07422876221423	2169509.0827519502\\
};

\addplot [
color=black,
densely dashed
]
table[row sep=crcr]{
74.34798723885135	1180609.0483332651\\
74.99807306982746	1181313.9925659806\\
75.64815890080357	1182166.1380444278\\
76.29824473177968	1183281.1983241967\\
76.94833056275579	1184798.8951715513\\
77.5984163937319	1186400.2499781167\\
78.248502224708	1188428.393031537\\
78.89858805568412	1190653.743782596\\
79.54867388666023	1193081.5730770074\\
80.19875971763634	1195912.882657795\\
80.84884554861245	1198777.4140366318\\
81.49893137958856	1202189.8112952022\\
82.14901721056466	1205526.5678204207\\
82.79910304154077	1209488.0927013496\\
83.44918887251688	1213330.9954250166\\
84.099274703493	1217802.3441031105\\
84.7493605344691	1222183.60283899\\
85.39944636544521	1227117.8728529906\\
86.04953219642132	1232067.8769481347\\
86.69961802739743	1237410.3123344237\\
87.34970385837354	1242957.52144076\\
87.99978968934965	1248645.2578670655\\
88.64987552032576	1254816.0927129823\\
89.29996135130187	1260919.5079626045\\
89.95004718227798	1267596.6357740243\\
90.6001330132541	1274364.0262491652\\
91.2502188442302	1281241.3201515046\\
91.90030467520631	1288694.5555632042\\
92.55039050618242	1296112.1274352514\\
93.20047633715853	1303839.6319401555\\
93.85056216813464	1311978.3974109543\\
94.50064799911075	1320097.2341665311\\
95.15073383008686	1328592.8055860247\\
95.80081966106297	1337465.381840928\\
96.45090549203908	1346333.7789216714\\
97.1009913230152	1355497.665988694\\
97.7510771539913	1365149.340904451\\
98.40116298496741	1374812.559943084\\
99.05124881594352	1384526.6665197113\\
99.70133464691963	1394999.4893608845\\
100.35142047789574	1405499.5124172925\\
101.00150630887185	1416026.9130433772\\
101.65159213984796	1426959.195857996\\
102.30167797082407	1438334.4796552972\\
102.95176380180018	1449752.7849792806\\
103.6018496327763	1461214.3852143656\\
104.2519354637524	1473229.984272944\\
104.90202129472851	1485573.7262400805\\
105.55210712570462	1497976.3448769473\\
106.20219295668073	1510438.2050467606\\
106.85227878765684	1523369.6521015612\\
107.50236461863295	1536743.564071182\\
108.15245044960906	1550192.1870709793\\
108.80253628058517	1563715.9728917794\\
109.45262211156128	1577361.5894246483\\
110.10270794253739	1591822.6609346992\\
110.7527937735135	1606374.2024385633\\
111.40287960448961	1621016.7481034945\\
112.05296543546572	1635750.832096746\\
112.70305126644183	1650739.104689233\\
113.35313709741794	1666445.2650157432\\
114.00322292839405	1682258.136281186\\
114.65330875937016	1698178.3304780573\\
115.30339459034627	1714206.4595988542\\
115.95348042132238	1730343.1356360747\\
116.60356625229849	1747303.3765116916\\
117.2536520832746	1764455.3475905645\\
117.90373791425071	1781730.9177429427\\
118.55382374522682	1799130.7722353826\\
119.20390957620293	1816655.596334441\\
119.85399540717904	1834381.6463727506\\
120.50408123815515	1852943.8744638492\\
121.15416706913126	1871645.8668744862\\
121.80425290010737	1890488.3775940943\\
122.45433873108348	1909472.1606121056\\
123.10442456205959	1928597.9699179528\\
123.7545103930357	1947866.5595010677\\
124.40459622401181	1967806.219297301\\
125.05468205498792	1988154.8850334573\\
125.70476788596403	2008660.9374936335\\
126.35485371694014	2029325.1948389544\\
127.00493954791625	2050148.475230544\\
127.65502537889236	2071131.5968295266\\
128.30511120986847	2092275.3777970257\\
128.95519704084458	2113994.666116936\\
129.6052828718207	2136252.237928356\\
130.2553687027968	2158684.8099187524\\
130.9054545337729	2181293.259869758\\
131.55554036474902	2204078.4655630044\\
132.20562619572513	2227041.3047801247\\
132.85571202670124	2250182.655302751\\
133.50579785767735	2273503.3949125158\\
134.15588368865346	2297408.346069355\\
134.80596951962957	2321879.8935924615\\
135.45605535060568	2346544.8830760727\\
136.1061411815818	2371404.247371144\\
136.7562270125579	2396458.9193286323\\
137.406312843534	2421709.831799495\\
138.05639867451012	2447157.9176346883\\
138.70648450548597	2472804.109685158\\
};

\addplot [
color=black,
dashdotted
]
table[row sep=crcr]{
68.73022695707306	1091401.8099620717\\
69.46316321714309	1092188.973250079\\
70.19609947721312	1093320.2861221505\\
70.92903573728316	1094771.4729327222\\
71.66197199735319	1096515.0200997258\\
72.39490825742322	1098804.227283511\\
73.12784451749326	1101418.4447419078\\
73.86078077756329	1104272.3041659752\\
74.59371703763333	1107567.3501536343\\
75.32665329770336	1111277.4328415\\
76.05958955777339	1115154.1858734065\\
76.79252581784343	1119589.9526134804\\
77.52546207791346	1124280.5942352635\\
78.2583983379835	1129253.4667302328\\
78.99133459805353	1134739.9432084102\\
79.72427085812356	1140300.104301689\\
80.4572071181936	1146554.4328632217\\
81.19014337826363	1152764.5982956523\\
81.92307963833366	1159733.7511428527\\
82.6560158984037	1166610.2320665065\\
83.38895215847373	1174274.4632815646\\
84.12188841854376	1181875.1145527868\\
84.8548246786138	1190159.4012230597\\
85.58776093868383	1198524.683916272\\
86.32069719875386	1207357.0530388097\\
87.0536334588239	1216524.5398499328\\
87.78656971889393	1225820.9523463869\\
88.51950597896396	1235825.1444183409\\
89.252442239034	1245823.5927589675\\
89.98537849910403	1256361.2114759982\\
90.71831475917406	1267249.162070375\\
91.4512510192441	1278153.0482586275\\
92.18418727931413	1289856.1103615083\\
92.91712353938416	1301698.5323962113\\
93.6500597994542	1313578.659610664\\
94.38299605952423	1326346.7083787362\\
95.11593231959426	1339210.2981799322\\
95.8488685796643	1352133.384316985\\
96.58180483973433	1365840.032715774\\
97.31474109980437	1379787.0578752663\\
98.0476773598744	1393815.3234065194\\
98.78061361994443	1408307.0176598558\\
99.51354988001447	1423394.9048924576\\
100.2464861400845	1438585.6607220813\\
100.97942240015453	1453880.042795549\\
101.71235866022457	1469961.3668851296\\
102.4452949202946	1486366.6022072406\\
103.17823118036463	1502897.0456414788\\
103.91116744043467	1519553.5929787683\\
104.6441037005047	1537039.3151931837\\
105.37703996057473	1554851.8145058386\\
106.10997622064477	1572811.8692778721\\
106.8429124807148	1590920.5058120405\\
107.57584874078483	1609576.2027085559\\
108.30878500085487	1628879.2076007358\\
109.0417212609249	1648352.0315444407\\
109.77465752099494	1667995.8237219886\\
110.50759378106497	1687811.7333156958\\
111.240530041135	1708404.538617826\\
111.97346630120504	1729465.7909697716\\
112.70640256127507	1750720.215052641\\
113.4393388213451	1772169.075296042\\
114.17227508141514	1793813.6361295814\\
114.90521134148517	1816022.8800445045\\
115.6381476015552	1838955.0894120762\\
116.37108386162524	1862103.771490404\\
117.10402012169527	1885470.2983241149\\
117.8369563817653	1909056.0419578343\\
118.56989264183534	1932862.3744361904\\
119.30282890190537	1957383.9409497424\\
120.0357651619754	1982529.776387374\\
120.76870142204544	2007916.6913593386\\
121.50163768211547	2033546.157893012\\
122.2345739421855	2059419.6480157676\\
122.96751020225554	2085538.6337549814\\
123.70044646232557	2111904.587138027\\
124.4333827223956	2139394.4368453096\\
125.16631898246564	2167159.030077503\\
125.89925524253567	2195190.778078721\\
126.6321915026057	2223491.2452268163\\
127.36512776267574	2252061.99589964\\
128.09806402274577	2280904.594475045\\
128.8310002828158	2310020.6053308845\\
129.56393654288584	2339896.713852793\\
130.29687280295587	2370456.9413370932\\
131.0298090630259	2401310.3349139094\\
131.76274532309594	2432458.5436792993\\
132.49568158316598	2463903.2167293234\\
133.228617843236	2495646.003160039\\
133.96155410330604	2527688.552067506\\
134.69449036337608	2560032.512547783\\
135.4274266234461	2592708.0822608597\\
136.16036288351614	2626544.3751934683\\
136.89329914358618	2660701.3475351897\\
137.6262354036562	2695180.725468018\\
138.35917166372624	2729984.2351739486\\
139.09210792379628	2765113.602834976\\
139.8250441838663	2800570.554633095\\
140.55798044393634	2836356.8167502997\\
141.29091670400675	2872474.115368603\\
};

\addplot [
color=black,
dashed
]
table[row sep=crcr]{
63.7127254935474	1011726.3829887331\\
64.52199194506049	1012578.1330331026\\
65.33125839657359	1013934.3173425823\\
66.14052484808668	1015783.7015807761\\
66.94979129959978	1018111.0585384081\\
67.75905775111288	1020897.0485768855\\
68.56832420262597	1024118.1000718672\\
69.37759065413907	1027746.2898568307\\
70.18685710565217	1032011.5577626589\\
70.99612355716526	1036721.7238246942\\
71.80539000867836	1041787.353519667\\
72.61465646019145	1047276.9443358064\\
73.42392291170455	1053424.8694510728\\
74.23318936321765	1059849.1098037134\\
75.04245581473074	1066743.072085539\\
75.85172226624384	1074212.0451135433\\
76.66098871775694	1081848.666829824\\
77.47025516927003	1090307.1089915845\\
78.27952162078313	1098909.898327235\\
79.08878807229623	1108171.5489487452\\
79.89805452380932	1117700.6151293726\\
80.70732097532242	1127825.3211013807\\
81.51658742683551	1138225.9708109894\\
82.32585387834861	1149270.1337198257\\
83.1351203298617	1160472.201584787\\
83.9443867813748	1172488.4907769267\\
84.7536532328879	1184525.699829702\\
85.562919684401	1197442.735496574\\
86.37218613591409	1210529.0600422851\\
87.18145258742719	1224074.0939022345\\
87.99071903894028	1238253.646910882\\
88.79998549045338	1252511.284928494\\
89.60925194196648	1267613.9480270296\\
90.41851839347957	1283032.3081296906\\
91.22778484499267	1298557.757143752\\
92.03705129650577	1315114.3260918567\\
92.84631774801886	1331862.4944227852\\
93.65558419953196	1348746.8257593247\\
94.46485065104505	1366618.142513078\\
95.27411710255815	1384781.1560040563\\
96.08338355407125	1403109.3691858393\\
96.89265000558434	1422118.9042321928\\
97.70191645709744	1441775.1900077912\\
98.51118290861054	1461625.5671495819\\
99.32044936012363	1481671.6433192857\\
100.12971581163673	1502778.2124649743\\
100.93898226314982	1524221.6726687928\\
101.74824871466292	1545889.6634511724\\
102.55751516617602	1567783.9849596939\\
103.36678161768911	1590766.784029963\\
104.17604806920221	1614119.227742525\\
104.9853145207153	1637726.6420950617\\
105.7945809722284	1661591.0077653662\\
106.6038474237415	1686160.2899013674\\
107.4131138752546	1711534.0818689466\\
108.22238032676769	1737193.1419192336\\
109.03164677828079	1763139.6193045941\\
109.84091322979388	1789375.6632773927\\
110.65017968130698	1816429.399469783\\
111.45944613282008	1844241.5918016818\\
112.26871258433317	1872371.3694439174\\
113.07797903584627	1900821.0382677838\\
113.88724548735937	1929592.9041445728\\
114.69651193887246	1958712.5590486673\\
115.50577839038556	1989114.7987363834\\
116.31504484189865	2019866.8007345165\\
117.12431129341175	2050971.0155776439\\
117.93357774492485	2082429.8938003427\\
118.74284419643794	2114245.88593719\\
119.55211064795104	2146421.4425227637\\
120.36137709946414	2179718.8576239026\\
121.17064355097723	2213614.4058956187\\
121.97991000249033	2247896.740400069\\
122.78917645400342	2282568.4443794717\\
123.59844290551652	2317632.1010760437\\
124.40770935702962	2353090.2937320066\\
125.21697580854271	2388945.6055895775\\
126.02624226005581	2425811.552266865\\
126.8355087115689	2463458.337408303\\
127.644775163082	2501528.916815934\\
128.4540416145951	2540025.994483973\\
129.26330806610818	2578952.274406637\\
130.07257451762126	2618310.460578142\\
130.88184096913434	2658103.256992705\\
131.69110742064743	2698333.3676445424\\
132.5003738721605	2739321.204679065\\
133.3096403236736	2781417.095423421\\
134.11890677518667	2823976.3343006307\\
134.92817322669976	2867001.734101265\\
135.73743967821284	2910496.1076158937\\
136.54670612972592	2954462.267635088\\
137.355972581239	2998903.026949418\\
138.16523903275208	3043821.198349455\\
138.97450548426517	3089219.59462577\\
139.78377193577825	3135101.0285689337\\
140.59303838729133	3181987.8297859295\\
141.4023048388044	3229829.470343269\\
142.2115712903175	3278179.5078182286\\
143.02083774183058	3327040.851842091\\
143.83010419334371	3376416.412046141\\
};

\addplot [
color=black,
densely dashdotted
]
table[row sep=crcr]{
59.21372681087494	940284.522213961\\
60.09365283499892	941221.8940242206\\
60.9735788591229	942843.9959560743\\
61.853504883246885	945062.961002365\\
62.73343090737087	947876.4989113021\\
63.61335693149485	951277.3487639278\\
64.49328295561882	955253.1010460746\\
65.3732089797428	959860.352933503\\
66.25313500386677	965121.8749847631\\
67.13306102799075	970947.6122880942\\
68.01298705211472	977306.2829707685\\
68.8929130762387	984160.638095849\\
69.77283910036267	991664.020823327\\
70.65276512448665	999843.0585788847\\
71.53269114861062	1008444.454087689\\
72.4126171727346	1017594.4745891422\\
73.29254319685857	1027505.0576444635\\
74.17246922098255	1037726.5439661504\\
75.05239524510652	1048736.2920892155\\
75.9323212692305	1060198.4753421268\\
76.81224729335447	1072204.362167037\\
77.69217331747845	1084872.7461648353\\
78.57209934160242	1097953.0562590172\\
79.4520253657264	1111773.7454686123\\
80.33195138985037	1126002.3229578962\\
81.21187741397435	1140901.0261024009\\
82.09180343809832	1156346.8476437149\\
82.9717294622223	1172227.8813054014\\
83.85165548634627	1188954.6290594703\\
84.73158151047025	1205817.3068976135\\
85.61150753459422	1223765.5558867657\\
86.4914335587182	1242003.0380690356\\
87.37135958284217	1260689.9833214656\\
88.25128560696615	1280353.6745861047\\
89.13121163109012	1300226.8118961214\\
90.0111376552141	1320741.932399653\\
90.89106367933807	1342121.3014933073\\
91.77098970346205	1363747.8095084082\\
92.65091572758602	1385930.2953625007\\
93.53084175171	1409134.9576551798\\
94.41076777583397	1432624.3860190618\\
95.29069379995795	1456401.2594963973\\
96.17061982408192	1481393.8170182763\\
97.0505458482059	1506846.5886295578\\
97.93047187232987	1532624.4753138395\\
98.81039789645385	1558824.9023717216\\
99.69032392057782	1586331.3525725098\\
100.5702499447018	1614200.184016249\\
101.45017596882577	1642434.5952950765\\
102.33010199294975	1671037.785001131\\
103.21002801707372	1700956.1963070193\\
104.0899540411977	1731397.210725479\\
104.96988006532168	1762244.171987752\\
105.84980608944565	1793500.511771714\\
106.72973211356963	1825350.0714348194\\
107.6096581376936	1858505.8564894532\\
108.48958416181758	1892107.644129611\\
109.36951018594155	1926159.081326101\\
110.24943621006553	1960663.8150497295\\
111.1293622341895	1995625.492271305\\
112.00928825831348	2031933.0757763821\\
112.88921428243745	2068905.8871026882\\
113.76914030656143	2106371.920917433\\
114.6490663306854	2144335.021691553\\
115.52899235480938	2182799.0338959834\\
116.40891837893335	2221767.8020016598\\
117.28884440305733	2262009.310370537\\
118.1687704271813	2303081.1671352834\\
119.04869645130528	2344693.4468263593\\
119.92862247542925	2386850.1736220256\\
120.80854849955323	2429555.37170054\\
121.6884745236772	2472813.0652401657\\
122.56840054780118	2516627.27841916\\
123.44832657192515	2561664.963144633\\
124.32825259604913	2607682.68708284\\
125.2081786201731	2654291.880742547\\
126.08810464429708	2701496.7302165325\\
126.96803066842105	2749301.421597575\\
127.84795669254503	2797710.1409784537\\
128.727882716669	2846727.074451948\\
129.607808740793	2896356.4081108384\\
130.48773476491698	2946871.256045609\\
131.36766078904097	2998806.937318809\\
132.24758681316496	3051389.0935606207\\
133.12751283728895	3104622.0549855405\\
134.00743886141294	3158510.1518080616\\
134.88736488553693	3213057.7142426786\\
135.76729090966091	3268269.0725038857\\
136.6472169337849	3324148.5568061774\\
137.5271429579089	3380700.497364047\\
138.40706898203288	3437929.224391989\\
139.28699500615687	3496021.282310304\\
140.16692103028086	3555682.884184704\\
141.04684705440485	3616054.3866080223\\
141.92677307852884	3677140.246123664\\
142.80669910265283	3738944.9192750338\\
143.68662512677682	3801472.8626055354\\
144.5665511509008	3864728.532658576\\
145.4464771750248	3928716.3859775593\\
146.32640319914915	3993440.8791059186\\
};

\addplot [
color=black,
densely dotted
]
table[row sep=crcr]{
80.6644003488891	1748722.3979018459\\
81.22409558538733	1753267.475626492\\
81.78379082188556	1757760.9099275214\\
82.34348605838379	1762206.795004018\\
82.90318129488202	1766609.306819479\\
83.46287653138025	1770972.7031018145\\
84.02257176787847	1775301.3233433492\\
84.5822670043767	1779599.5888008182\\
85.14196224087493	1783872.0024953734\\
85.70165747737316	1788123.1492125762\\
86.26135271387139	1792357.695502404\\
86.82104795036962	1796580.3896792461\\
87.38074318686785	1800795.7746123096\\
87.94043842336607	1804992.0094124195\\
88.5001336598643	1809162.1775718443\\
89.05982889636253	1813308.3108306408\\
89.61952413286076	1817432.4598847292\\
90.17921936935899	1821536.6943858939\\
90.73891460585722	1825623.1029417838\\
91.29860984235545	1829693.7931159094\\
91.85830507885368	1833750.8914276473\\
92.4180003153519	1837796.5433522372\\
92.97769555185013	1841832.913320782\\
93.53739078834836	1845862.1847202487\\
94.09708602484659	1849886.5598934689\\
94.65678126134482	1853908.2601391373\\
95.21647649784305	1857929.5257118118\\
95.77617173434128	1861952.6158219157\\
96.3358669708395	1865979.8086357352\\
96.89556220733773	1870013.4012754199\\
97.45525744383596	1874055.7098189841\\
98.01495268033419	1878109.0693003056\\
98.57464791683242	1882184.3093243868\\
99.13434315333065	1886309.3019278154\\
99.69403838982888	1890481.4491022315\\
100.2537336263271	1894695.4493091386\\
100.81342886282533	1898945.8370178652\\
101.37312409932356	1903226.9827055605\\
101.93281933582179	1907533.0928571972\\
102.49251457232002	1911858.209965571\\
103.05220980881825	1916196.2125312998\\
103.61190504531648	1920540.8150628232\\
104.1716002818147	1924885.568076405\\
104.73129551831293	1929223.8580961302\\
105.29099075481116	1933548.9076539078\\
105.85068599130939	1937853.7752894673\\
106.41038122780762	1942131.3555503634\\
106.97007646430585	1946374.378991971\\
107.52977170080408	1950575.41217749\\
108.0894669373023	1954726.8576779403\\
108.64916217380053	1958820.9540721662\\
109.20885741029876	1962850.4815207843\\
109.76855264679699	1966845.5809883738\\
110.32824788329522	1970825.7090375067\\
110.88794311979345	1974790.7561089592\\
111.44763835629168	1978740.59602917\\
112.0073335927899	1982675.086010243\\
112.56702882928813	1986594.0666499427\\
113.12672406578636	1990497.3619316958\\
113.68641930228459	1994384.7792245934\\
114.24611453878282	1998256.109283387\\
114.80580977528105	2002111.1262484938\\
115.36550501177928	2005949.5876459912\\
115.9252002482775	2009771.2343876194\\
116.48489548477573	2013575.7907707836\\
117.04459072127396	2017362.9644785488\\
117.60428595777219	2021132.4465796445\\
118.16398119427042	2024883.9115284628\\
118.72367643076865	2028617.0171650574\\
119.28337166726688	2032331.4047151448\\
119.8430669037651	2036026.698790106\\
120.40276214026333	2039705.0433130085\\
120.96245737676156	2043374.538271854\\
121.52215261325979	2047035.586021023\\
122.08184784975802	2050687.901859852\\
122.64154308625625	2054331.1843787464\\
123.20123832275448	2057965.1154591804\\
123.7609335592527	2061589.3602737002\\
124.32062879575093	2065203.5672859205\\
124.88032403224916	2068807.3682505281\\
125.44001926874739	2072400.3782132785\\
125.99971450524562	2075982.1955109981\\
126.55940974174385	2079552.4017715834\\
127.11910497824208	2083110.5619140004\\
127.6788002147403	2086656.2241482867\\
128.23849545123855	2090188.9199755492\\
128.7981906877368	2093708.1641879643\\
129.35788592423503	2097213.4548687804\\
129.91758116073328	2100704.273392314\\
130.47727639723152	2104180.084423953\\
131.03697163372976	2107640.3702165573\\
131.596666870228	2111086.562183951\\
132.15636210672625	2114520.4099188717\\
132.7160573432245	2117942.9604249983\\
133.27575257972273	2121355.270884195\\
133.83544781622098	2124758.4086565073\\
134.39514305271922	2128153.4512801655\\
134.95483828921746	2131541.486471583\\
135.5145335257157	2134923.6121253585\\
136.07422876221423	2138300.9363142727\\
};

\addplot [
color=black,
dashdotdotted
]
table[row sep=crcr]{
74.34798723885135	1978503.8219542892\\
74.99807306982746	1985378.0053932336\\
75.64815890080357	1992224.712549255\\
76.29824473177968	1999067.3709317276\\
76.94833056275579	2005930.0718290869\\
77.5984163937319	2012837.5703088276\\
78.248502224708	2019803.4274270243\\
78.89858805568412	2026790.7077569175\\
79.54867388666023	2033789.8336135964\\
80.19875971763634	2040795.630363779\\
80.84884554861245	2047802.6178916728\\
81.49893137958856	2054805.0105989757\\
82.14901721056466	2061796.717404874\\
82.79910304154077	2068771.3417460448\\
83.44918887251688	2075722.1815766564\\
84.099274703493	2082642.2293683647\\
84.7493605344691	2089524.1721103163\\
85.39944636544521	2096360.3913091489\\
86.04953219642132	2103142.9629889876\\
86.69961802739743	2109863.6576914503\\
87.34970385837354	2116513.9404756427\\
87.99978968934965	2123084.970918161\\
88.64987552032576	2129567.6031130916\\
89.29996135130187	2135963.967479917\\
89.95004718227798	2142340.7906907448\\
90.6001330132541	2148706.9290893953\\
91.2502188442302	2155058.0731188133\\
91.90030467520631	2161389.715637601\\
92.55039050618242	2167697.1519200224\\
93.20047633715853	2173975.4796560006\\
93.85056216813464	2180219.598951117\\
94.50064799911075	2186424.212326615\\
95.15073383008686	2192583.824719397\\
95.80081966106297	2198692.7434820235\\
96.45090549203908	2204745.0783827174\\
97.1009913230152	2210734.741605358\\
97.7510771539913	2216655.4477494876\\
98.40116298496741	2222500.713830306\\
99.05124881594352	2228263.859278674\\
99.70133464691963	2233938.005941111\\
100.35142047789574	2239519.6163984505\\
101.00150630887185	2245041.099217195\\
101.65159213984796	2250512.0714498977\\
102.30167797082407	2255932.610076422\\
102.95176380180018	2261302.762252572\\
103.6018496327763	2266622.545310087\\
104.2519354637524	2271891.9467566465\\
104.90202129472851	2277110.9242758653\\
105.55210712570462	2282279.405727296\\
106.20219295668073	2287397.289146431\\
106.85227878765684	2292464.442744697\\
107.50236461863295	2297480.704909459\\
108.15245044960906	2302445.8842040235\\
108.80253628058517	2307359.759367628\\
109.45262211156128	2312222.079315454\\
110.10270794253739	2317032.5631386153\\
110.7527937735135	2321790.9001041665\\
111.40287960448961	2326496.895103968\\
112.05296543546572	2331153.6157190916\\
112.70305126644183	2335763.5807424975\\
113.35313709741794	2340328.348501591\\
114.00322292839405	2344849.490548947\\
114.65330875937016	2349328.591662302\\
115.30339459034627	2353767.2498445613\\
115.95348042132238	2358167.0763237947\\
116.60356625229849	2362529.6955532366\\
117.2536520832746	2366856.7452112893\\
117.90373791425071	2371149.8762015197\\
118.55382374522682	2375410.75265266\\
119.20390957620293	2379641.0519186086\\
119.85399540717904	2383842.4645784297\\
120.50408123815515	2388016.694436352\\
121.15416706913126	2392165.4585217726\\
121.80425290010737	2396290.4870892507\\
122.45433873108348	2400393.575334941\\
123.10442456205959	2404478.8472317746\\
123.7545103930357	2408547.9111277023\\
124.40459622401181	2412600.506669467\\
125.05468205498792	2416636.3432799326\\
125.70476788596403	2420655.1001580874\\
126.35485371694014	2424656.426279042\\
127.00493954791625	2428639.9403940304\\
127.65502537889236	2432605.231030411\\
128.30511120986847	2436551.856491664\\
128.95519704084458	2440479.344857393\\
129.6052828718207	2444387.193983326\\
130.2553687027968	2448274.8715013135\\
130.9054545337729	2452141.814819329\\
131.55554036474902	2455987.43112147\\
132.20562619572513	2459811.097367956\\
132.85571202670124	2463612.1602951307\\
133.50579785767735	2467389.969572828\\
134.15588368865346	2471163.698435932\\
134.80596951962957	2474947.398435621\\
135.45605535060568	2478737.2060706234\\
136.1061411815818	2482529.158722156\\
136.7562270125579	2486319.1946539236\\
137.406312843534	2490103.15301212\\
138.05639867451012	2493876.773825424\\
138.70648450548597	2497635.6980050025\\
};

\addplot [
color=black,
densely dashdotdetted
]
table[row sep=crcr]{
68.73022695707306	2171528.244242265\\
69.46316321714309	2181866.84543437\\
70.19609947721312	2191995.954552569\\
70.92903573728316	2201926.0371342837\\
71.66197199735319	2211667.9122969336\\
72.39490825742322	2221232.7527379356\\
73.12784451749326	2230632.084734706\\
73.86078077756329	2239877.788144659\\
74.59371703763333	2248982.0964052044\\
75.32665329770336	2257957.596533753\\
76.05958955777339	2266817.229127712\\
76.79252581784343	2275574.2883644872\\
77.52546207791346	2284242.422001482\\
78.2583983379835	2292835.6313760984\\
78.99133459805353	2301368.2714057355\\
79.72427085812356	2309854.3467492475\\
80.4572071181936	2318297.722089689\\
81.19014337826363	2326694.2694538394\\
81.92307963833366	2335039.334674295\\
82.6560158984037	2343327.9165335363\\
83.38895215847373	2351554.666763926\\
84.12188841854376	2359713.8900477076\\
84.8548246786138	2367799.544017009\\
85.58776093868383	2375805.2392538404\\
86.32069719875386	2383724.239290094\\
87.0536334588239	2391549.460607544\\
87.78656971889393	2399273.4726378494\\
88.51950597896396	2406888.4977625487\\
89.252442239034	2414386.4113130667\\
89.98537849910403	2421758.7415707074\\
90.71831475917406	2428997.148508214\\
91.4512510192441	2436148.3296205667\\
92.18418727931413	2443245.1601058734\\
92.91712353938416	2450283.7568218177\\
93.6500597994542	2457260.004538351\\
94.38299605952423	2464169.555937695\\
95.11593231959426	2471007.831614335\\
95.8488685796643	2477770.02007503\\
96.58180483973433	2484451.077738802\\
97.31474109980437	2491045.728936944\\
98.0476773598744	2497548.4659130154\\
98.78061361994443	2503953.548822845\\
99.51354988001447	2510255.0057345275\\
100.2464861400845	2516446.6326284274\\
100.97942240015453	2522521.993397178\\
101.71235866022457	2528474.4198456774\\
102.4452949202946	2534300.301752031\\
103.17823118036463	2540010.4866471263\\
103.91116744043467	2545612.6922549196\\
104.6441037005047	2551114.076466079\\
105.37703996057473	2556521.9571045856\\
106.10997622064477	2561843.8119277353\\
106.8429124807148	2567087.2786261383\\
107.57584874078483	2572260.1548237195\\
108.30878500085487	2577370.398077716\\
109.0417212609249	2582426.125878683\\
109.77465752099494	2587435.6156504857\\
110.50759378106497	2592407.304750307\\
111.240530041135	2597349.7904686416\\
111.97346630120504	2602271.8300293\\
112.70640256127507	2607182.340589407\\
113.4393388213451	2612090.3087012214\\
114.17227508141514	2616998.7644611686\\
114.90521134148517	2621904.8436613264\\
115.6381476015552	2626806.0550196907\\
116.37108386162524	2631699.770697134\\
117.10402012169527	2636583.22629741\\
117.8369563817653	2641453.52086715\\
118.56989264183534	2646307.6168958633\\
119.30282890190537	2651142.3403159403\\
120.0357651619754	2655954.3805026477\\
120.76870142204544	2660740.290274133\\
121.50163768211547	2665496.485891422\\
122.2345739421855	2670219.24705842\\
122.96751020225554	2674904.716921908\\
123.70044646232557	2679548.902071551\\
124.4333827223956	2684147.6725398875\\
125.16631898246564	2688711.9727577274\\
125.89925524253567	2693278.637713824\\
126.6321915026057	2697846.7709340653\\
127.36512776267574	2702413.1739343493\\
128.09806402274577	2706974.5220031105\\
128.8310002828158	2711527.364201319\\
129.56393654288584	2716068.1233624825\\
130.29687280295587	2720593.0960926455\\
131.0298090630259	2725098.4527703878\\
131.76274532309594	2729580.237546824\\
132.49568158316598	2734034.36834561\\
133.228617843236	2738456.6368629313\\
133.96155410330604	2742842.7085675164\\
134.69449036337608	2747188.122700625\\
135.4274266234461	2751488.292276057\\
136.16036288351614	2755740.8806821196\\
136.89329914358618	2759987.765209925\\
137.6262354036562	2764241.8576654987\\
138.35917166372624	2768497.7434825953\\
139.09210792379628	2772749.852544849\\
139.8250441838663	2776992.4591857754\\
140.55798044393634	2781219.682188773\\
141.29091670400675	2785425.4847871233\\
};

\addplot [
color=black,
loosely dashed
]
table[row sep=crcr]{
63.7127254935474	2369129.312607442\\
64.52199194506049	2381985.8987994203\\
65.33125839657359	2394523.5603641565\\
66.14052484808668	2406843.4558631866\\
66.94979129959978	2419051.4884818164\\
67.75905775111288	2431258.3060291265\\
68.56832420262597	2443579.300937971\\
69.37759065413907	2456125.28327814\\
70.18685710565217	2468715.2196266577\\
70.99612355716526	2481228.5545345456\\
71.80539000867836	2493656.2446034383\\
72.61465646019145	2505988.385908225\\
73.42392291170455	2518214.2139970493\\
74.23318936321765	2530322.1038913126\\
75.04245581473074	2542299.5700856703\\
75.85172226624384	2554133.266548033\\
76.66098871775694	2565808.9867195683\\
77.47025516927003	2577311.663514697\\
78.27952162078313	2588625.3693210986\\
79.08878807229623	2599733.315999706\\
79.89805452380932	2610617.8548847074\\
80.70732097532242	2621260.476783548\\
81.51658742683551	2631729.878725496\\
82.32585387834861	2642113.49937238\\
83.1351203298617	2652398.7019417635\\
83.9443867813748	2662571.949320761\\
84.7536532328879	2672618.9446579395\\
85.562919684401	2682524.631363313\\
86.37218613591409	2692273.1931083486\\
87.18145258742719	2701848.0538259605\\
87.99071903894028	2711231.877710515\\
88.79998549045338	2720406.5692178276\\
89.60925194196648	2729353.2730651647\\
90.41851839347957	2738052.3742312402\\
91.22778484499267	2746483.4979562224\\
92.03705129650577	2754625.509741726\\
92.84631774801886	2762499.4597471827\\
93.65558419953196	2770209.1196210957\\
94.46485065104505	2777749.931637781\\
95.27411710255815	2785109.738562501\\
96.08338355407125	2792275.8705263766\\
96.89265000558434	2799235.14502639\\
97.70191645709744	2805973.866925383\\
98.51118290861054	2812477.8284520577\\
99.32044936012363	2818732.309200977\\
100.12971581163673	2824722.0761325634\\
100.93898226314982	2830431.3835730995\\
101.74824871466292	2835843.9732147288\\
102.55751516617602	2840943.0741154547\\
103.36678161768911	2845711.4026991394\\
104.17604806920221	2850122.253823286\\
104.9853145207153	2854111.0420564557\\
105.7945809722284	2857694.852288134\\
106.6038474237415	2860906.9540115697\\
107.4131138752546	2863781.7141606077\\
108.22238032676769	2866354.597109685\\
109.03164677828079	2868662.164673834\\
109.84091322979388	2870742.0761086782\\
110.65017968130698	2872633.0881104385\\
111.45944613282008	2874375.054815927\\
112.26871258433317	2876008.9278025506\\
113.07797903584627	2877576.756088309\\
113.88724548735937	2879121.6861317977\\
114.69651193887246	2880687.961832204\\
115.50577839038556	2882317.7286944995\\
116.31504484189865	2883943.1377797974\\
117.12431129341175	2885516.7738504014\\
117.93357774492485	2887034.4903743872\\
118.74284419643794	2888491.9094497324\\
119.55211064795104	2889884.421804319\\
120.36137709946414	2891207.1867959327\\
121.17064355097723	2892455.1324122627\\
121.97991000249033	2893622.9552709013\\
122.78917645400342	2894705.120619346\\
123.59844290551652	2895695.8623349955\\
124.40770935702962	2896589.1829251545\\
125.21697580854271	2897378.85352703\\
126.02624226005581	2898058.413907733\\
126.8355087115689	2898621.172464277\\
127.644775163082	2899093.145916758\\
128.4540416145951	2899509.2827017256\\
129.26330806610818	2899865.977974576\\
130.07257451762126	2900159.367497203\\
130.88184096913434	2900385.4128484707\\
131.69110742064743	2900539.9014242147\\
132.5003738721605	2900618.4464372406\\
133.3096403236736	2900616.4869173258\\
134.11890677518667	2900529.287711218\\
134.92817322669976	2900351.9394826335\\
135.73743967821284	2900079.358712263\\
136.54670612972592	2899706.287697765\\
137.355972581239	2899227.294553769\\
138.16523903275208	2898636.773211877\\
138.97450548426517	2897956.4046943416\\
139.78377193577825	2897256.266216618\\
140.59303838729133	2896527.187851232\\
141.4023048388044	2895754.3628610573\\
142.2115712903175	2894922.576537345\\
143.02083774183058	2894016.2061997177\\
143.83010419334371	2893019.2211961807\\
};

\addplot [
color=black,
loosely dashdotted
]
table[row sep=crcr]{
59.21372681087494	2425970.933522055\\
60.09365283499892	2453472.9852504474\\
60.9735788591229	2474261.4831787567\\
61.853504883246885	2489354.5646936237\\
62.73343090737087	2499844.2258263645\\
63.61335693149485	2506896.3212529738\\
64.49328295561882	2511750.5642941217\\
65.3732089797428	2515720.5269151567\\
66.25313500386677	2520193.6397261033\\
67.13306102799075	2526631.1919816625\\
68.01298705211472	2536568.331581212\\
68.8929130762387	2551614.065068807\\
69.77283910036267	2573451.2576331785\\
70.65276512448665	2603103.2373954295\\
71.53269114861062	2629106.1801385684\\
72.4126171727346	2647751.225822107\\
73.29254319685857	2660128.717290532\\
74.17246922098255	2667393.963313288\\
75.05239524510652	2670767.2385847806\\
75.9323212692305	2671533.783724371\\
76.81224729335447	2671043.805276381\\
77.69217331747845	2670712.47571009\\
78.57209934160242	2672019.933419737\\
79.4520253657264	2676511.282724519\\
80.33195138985037	2685796.5938685914\\
81.21187741397435	2701550.9030210692\\
82.09180343809832	2725514.2122760257\\
82.9717294622223	2750869.6957095335\\
83.85165548634627	2768341.4490020336\\
84.73158151047025	2779037.3084736415\\
85.61150753459422	2784151.0083349496\\
86.4914335587182	2784933.7245074194\\
87.37135958284217	2782694.0746233836\\
88.25128560696615	2778798.1180260438\\
89.13121163109012	2774669.3557694736\\
90.0111376552141	2771788.730618614\\
90.89106367933807	2771694.627049279\\
91.77098970346205	2775982.871248152\\
92.65091572758602	2786306.7311127866\\
93.53084175171	2804376.9162516054\\
94.41076777583397	2828355.922638778\\
95.29069379995795	2845446.165545042\\
96.17061982408192	2855346.3895704313\\
97.0505458482059	2859264.3063909533\\
97.93047187232987	2858458.4145059255\\
98.81039789645385	2854237.999237982\\
99.69032392057782	2847963.1327330656\\
100.5702499447018	2841044.673960434\\
101.45017596882577	2834944.2687126547\\
102.33010199294975	2831174.3496056087\\
103.21002801707372	2831298.136078489\\
104.0899540411977	2836929.6343938014\\
104.96988006532168	2849733.6376373623\\
105.84980608944565	2870703.4013614147\\
106.72973211356963	2888002.7247717795\\
107.6096581376936	2897789.3385349433\\
108.48958416181758	2901265.6806348907\\
109.36951018594155	2899679.092375381\\
110.24943621006553	2894321.818379942\\
111.1293622341895	2886531.0065918765\\
112.00928825831348	2877688.708274254\\
112.88921428243745	2869221.8780099205\\
113.76914030656143	2862602.3737014877\\
114.6490663306854	2859346.9565713448\\
115.52899235480938	2861017.291161646\\
116.40891837893335	2869219.9453343246\\
117.28884440305733	2885606.390271078\\
118.1687704271813	2903554.218469728\\
119.04869645130528	2913893.3037883905\\
119.92862247542925	2917754.8086152687\\
120.80854849955323	2916344.100955862\\
121.6884745236772	2910905.713727686\\
122.56840054780118	2902723.344760269\\
123.44832657192515	2893119.856795153\\
124.32825259604913	2883457.2774858978\\
125.2081786201731	2875136.7993980725\\
126.08810464429708	2869598.780009264\\
126.96803066842105	2868322.741709072\\
127.84795669254503	2872827.371799111\\
128.727882716669	2884670.5224930085\\
129.607808740793	2902108.582548013\\
130.48773476491698	2912984.0887722303\\
131.36766078904097	2917028.77477257\\
132.24758681316496	2915441.893648087\\
133.12751283728895	2909458.2055287417\\
134.00743886141294	2900347.977575398\\
134.88736488553693	2889416.983979823\\
135.76729090966091	2878006.505964691\\
136.6472169337849	2867493.3317835787\\
137.5271429579089	2859289.756720969\\
138.40706898203288	2854843.583092247\\
139.28699500615687	2855638.120243704\\
140.16692103028086	2863192.1845525354\\
141.04684705440485	2878401.2146916473\\
141.92677307852884	2889939.131043454\\
142.80669910265283	2894104.4202713626\\
143.68662512677682	2892121.1367841354\\
144.5665511509008	2885246.621358871\\
145.4464771750248	2874771.501141012\\
146.32640319914915	2862019.6896443353\\
};
\end{axis}
\end{tikzpicture}%
