%Power_needed_and_available_altitudes
\begin{tikzpicture}

\begin{axis}[
width=\figurewidth,
height=\figureheight,
scaled ticks=false, tick label style={/pgf/number format/fixed},
xmin=59.21372732324277,
xmax=142.9234635898666,
xlabel={Speed ((m/s))},
xmajorgrids,
ymin=940284.539366908,
ymax=3747200.4883420216,
ylabel={Powers ((W))},
ymajorgrids,
legend style={at={(1.03,0.5)},anchor=west,draw=black,fill=white,legend cell align=left}
]

\addplot [
color=black,
solid
]
table[row sep=crcr]{
80.6644010468665	1280910.5693957638\\
81.29328046649276	1281592.1453499864\\
81.92215988611902	1282304.7268737059\\
82.55103930574528	1283443.946828136\\
83.17991872537154	1284700.843751415\\
83.8087981449978	1286207.42142528\\
84.43767756462405	1287987.7468401243\\
85.06655698425031	1289893.2936008817\\
85.69543640387657	1292170.3580054254\\
86.32431582350283	1294505.1922535629\\
86.95319524312909	1297246.3075425941\\
87.58207466275535	1300039.3707075722\\
88.2109540823816	1303205.6541630605\\
88.83983350200786	1306484.4266992542\\
89.46871292163412	1310030.604980878\\
90.09759234126038	1313821.0223635144\\
90.72647176088664	1317695.2354991871\\
91.3553511805129	1322021.604220286\\
91.98423060013916	1326248.3500555875\\
92.61311001976541	1331050.1231610016\\
93.24198943939167	1335849.5575708668\\
93.87086885901793	1340861.754435054\\
94.49974827864419	1346254.5728939471\\
95.12862769827045	1351575.4763086403\\
95.75750711789671	1357407.6136222524\\
96.38638653752297	1363354.7135711962\\
97.01526595714923	1369243.5372557186\\
97.64414537677548	1375833.4350996783\\
98.27302479640174	1382379.0835754727\\
98.901904216028	1388934.6481261177\\
99.53078363565426	1396151.520281742\\
100.15966305528052	1403337.6857533795\\
100.78854247490678	1410492.9505226496\\
101.41742189453304	1418354.8790101947\\
102.0463013141593	1426221.0423697273\\
102.67518073378555	1434069.9788061222\\
103.30406015341181	1442416.2845084553\\
103.93293957303807	1450999.2500618577\\
104.56181899266433	1459578.6111347917\\
105.19069841229059	1468287.3283359376\\
105.81957783191685	1477621.0347939748\\
106.4484572515431	1486964.6763761286\\
107.07733667116936	1496318.3121262474\\
107.70621609079562	1506012.8068114684\\
108.33509551042188	1516151.4986696555\\
108.96397493004814	1526313.6873145257\\
109.5928543496744	1536499.5091436647\\
110.22173376930066	1547038.9523812733\\
110.85061318892691	1558037.0392314072\\
111.47949260855317	1569072.1863968007\\
112.10837202817943	1580144.6041286096\\
112.73725144780569	1591360.3517978427\\
113.36613086743195	1603268.4896413551\\
113.99501028705821	1615227.2111926835\\
114.62388970668447	1627236.7970563846\\
115.25276912631072	1639297.5278370131\\
115.88164854593698	1651795.913019573\\
116.51052796556324	1664724.6932136128\\
117.1394073851895	1677717.8458277618\\
117.76828680481576	1690775.7183198088\\
118.39716622444202	1703898.65814754\\
119.02604564406828	1717467.217804477\\
119.65492506369453	1731485.8261607266\\
120.2838044833208	1745582.598215425\\
120.91268390294705	1759757.9447794212\\
121.54156332257331	1774012.2766635625\\
122.17044274219957	1788392.891482211\\
122.79932216182583	1803565.4333056204\\
123.42820158145209	1818829.8801693239\\
124.05708100107834	1834186.7027370618\\
124.6859604207046	1849636.371672576\\
125.31483984033086	1865179.3576396077\\
125.94371925995712	1880907.9660200113\\
126.57259867958338	1897398.4850265288\\
127.20147809920964	1913995.0749926185\\
127.8303575188359	1930698.2629347453\\
128.45923693846217	1947508.5758693751\\
129.08811635808843	1964426.5408129704\\
129.7169957777147	1981452.684781998\\
130.34587519734094	1999041.6256325736\\
130.9747546169672	2017050.226471459\\
131.60363403659346	2035179.5948217553\\
132.23251345621972	2053430.310552482\\
132.86139287584598	2071802.9535326571\\
133.49027229547224	2090298.1036313002\\
134.1191517150985	2108916.3407174316\\
134.74803113472476	2127958.4059749045\\
135.376910554351	2147586.5139030432\\
136.00578997397727	2167350.0723596974\\
136.63466939360353	2187249.7105662706\\
137.2635488132298	2207286.0577441677\\
137.89242823285605	2227459.743114793\\
138.5213076524823	2247771.39589955\\
139.15018707210857	2268221.645319844\\
139.77906649173482	2289101.541018571\\
140.40794591136108	2310592.353734625\\
141.03682533098734	2332233.888031633\\
141.6657047506136	2354026.8189832144\\
142.29458417023986	2375971.821662989\\
142.9234635898666	2398069.5711445953\\
};

\addplot [
color=black,
densely dashed
]
table[row sep=crcr]{
74.34798788217374	1180609.0698702827\\
75.04066945497871	1181358.9977914873\\
75.73335102778368	1182325.4324361838\\
76.42603260058866	1183476.5384318752\\
77.11871417339363	1185200.4419152956\\
77.8113957461986	1187086.4302844126\\
78.50407731900357	1189171.627421137\\
79.19675889180854	1191789.786783915\\
79.88944046461351	1194492.2292681013\\
80.58212203741849	1197622.0787604724\\
81.27480361022346	1201005.0927860015\\
81.96748518302843	1204609.7652696457\\
82.6601667558334	1208649.7004504418\\
83.35284832863837	1212769.8531358212\\
84.04552990144335	1217434.9711769884\\
84.73821147424832	1222109.456495567\\
85.43089304705329	1227359.6228737417\\
86.12357461985826	1232625.356340991\\
86.81625619266323	1238411.7319846896\\
87.5089377654682	1244303.5600630976\\
88.20161933827318	1250568.2930330688\\
88.89430091107815	1257118.8609951446\\
89.58698248388312	1263794.7781647155\\
90.27966405668809	1271034.3979560002\\
90.97234562949306	1278215.5127429878\\
91.66502720229803	1286001.2147935\\
92.357708775103	1293917.3463172917\\
93.05039034790798	1301957.8199278042\\
93.74307192071295	1310634.0522635102\\
94.43575349351792	1319287.68464702\\
95.1284350663229	1328288.4003452875\\
95.82111663912787	1337742.343311935\\
96.51379821193284	1347191.5404878377\\
97.20647978473781	1357063.0554121062\\
97.89916135754278	1367349.5324556055\\
98.59184293034775	1377649.1358538046\\
99.28452450315272	1388281.6051431932\\
99.9772060759577	1399451.9694498205\\
100.66988764876267	1410653.3006892167\\
101.36256922156764	1421915.585559015\\
102.05525079437261	1434017.422747181\\
102.74793236717758	1446167.986327436\\
103.44061393998255	1458367.607021362\\
104.13329551278753	1470983.5929564177\\
104.8259770855925	1484126.7789497213\\
105.51865865839747	1497336.7615106252\\
106.21134023120244	1510613.9820254436\\
106.90402180400741	1524431.4130440562\\
107.59670337681239	1538690.5500812202\\
108.28938494961736	1553034.5839580498\\
108.98206652242233	1567464.0612198808\\
109.6747480952273	1582292.6103913744\\
110.36742966803227	1597737.250859902\\
111.06011124083724	1613284.852468216\\
111.75279281364222	1628936.0614149685\\
112.44547438644719	1644691.5238988115\\
113.13815595925216	1661239.5107386617\\
113.83083753205713	1678054.5520263326\\
114.5235191048621	1694991.257059731\\
115.21620067766708	1712050.3661851163\\
115.90888225047205	1729232.6197487484\\
116.60156382327702	1747250.7301511653\\
117.29424539608199	1765530.4565887777\\
117.98692696888696	1783950.558552922\\
118.67960854169193	1802511.8650317567\\
119.3722901144969	1821215.2050134395\\
120.06497168730188	1840390.4787691624\\
120.75765326010685	1860222.0860686572\\
121.45033483291182	1880212.7072647295\\
122.14301640571679	1900363.2544817291\\
122.83569797852176	1920674.6398440062\\
123.52837955132674	1941147.7754759102\\
124.22106112413171	1962089.661328329\\
124.91374269693668	1983729.9269968276\\
125.60642426974165	2005548.6786904044\\
126.29910584254662	2027546.9061638932\\
126.9917874153516	2049725.5991721263\\
127.68446898815657	2072085.7474699372\\
128.37715056096155	2094628.3408121606\\
129.06983213376654	2117906.847306639\\
129.76251370657153	2141661.725533825\\
130.4551952793765	2165615.5294617508\\
131.1478768521815	2189769.320970025\\
131.84055842498648	2214124.1619382547\\
132.53323999779147	2238681.114246049\\
133.22592157059646	2263441.2397730174\\
133.91860314340144	2288524.24887778\\
134.61128471620643	2314530.9974194705\\
135.3039662890114	2340757.0511405016\\
135.9966478618164	2367203.5385395507\\
136.68932943462138	2393871.588115292\\
137.38201100742637	2420762.328366404\\
138.07469258023136	2447876.88779156\\
138.76737415303634	2475216.394889437\\
139.46005572584133	2502781.978158711\\
140.15273729864631	2531097.9833191168\\
140.8454188714513	2559961.853885391\\
141.5381004442563	2589067.612516752\\
142.23078201706127	2618416.448825234\\
142.9234635898666	2648009.5524228886\\
};

\addplot [
color=black,
dashdotted
]
table[row sep=crcr]{
68.7302275517858	1091401.8298717444\\
69.47965417843308	1092205.143723894\\
70.22908080508036	1093377.271428186\\
70.97850743172764	1094895.0971962388\\
71.72793405837491	1096732.1448104407\\
72.47736068502219	1099044.7726160733\\
73.22678731166947	1101790.7415379253\\
73.97621393831675	1104806.239987923\\
74.72564056496402	1108136.411323338\\
75.4750671916113	1112052.7755483729\\
76.22449381825858	1116167.9486421896\\
76.97392044490586	1120659.8184022005\\
77.72334707155314	1125638.881367166\\
78.47277369820041	1130723.6089932816\\
79.22220032484769	1136506.113914801\\
79.97162695149497	1142386.7056105668\\
80.72105357814225	1148797.9790985077\\
81.47048020478952	1155441.0953000938\\
82.2199068314368	1162529.8379792229\\
82.96933345808408	1169891.0607925195\\
83.71876008473136	1177703.4271370263\\
84.46818671137864	1185726.8034277793\\
85.21761333802591	1194306.2059427665\\
85.96703996467319	1202923.790426714\\
86.71646659132047	1212310.7038296787\\
87.46589321796775	1221668.98179941\\
88.21531984461502	1231673.86756501\\
88.9647464712623	1241899.6485039277\\
89.71417309790958	1252336.4085216415\\
90.46359972455686	1263463.513924374\\
91.21302635120414	1274607.2332761614\\
91.96245297785141	1286280.8271131127\\
92.71187960449869	1298378.520172738\\
93.46130623114597	1310515.5470795562\\
94.21073285779325	1323331.9482404229\\
94.96015948444052	1336471.407718956\\
95.7095861110878	1349672.9689965546\\
96.45901273773508	1363511.330581196\\
97.20843936438236	1377759.2257545292\\
97.95786599102964	1392091.965300593\\
98.70729261767691	1406803.298229083\\
99.45671924432419	1422221.3482953296\\
100.20614587097147	1437746.8864978205\\
100.95557249761875	1453380.722781544\\
101.70499912426602	1469797.2712233253\\
102.4544257509133	1486571.76436883\\
103.20385237756058	1503477.1747967827\\
103.95327900420786	1520514.4601319681\\
104.70270563085514	1538458.1090103777\\
105.45213225750241	1556685.0913429745\\
106.20155888414969	1575066.4534715693\\
106.95098551079697	1593603.2925416373\\
107.70041213744425	1612844.839158137\\
108.44983876409152	1632613.521699739\\
109.1992653907388	1652559.982008978\\
109.94869201738608	1672685.448592916\\
110.69811864403336	1692991.149958613\\
111.44754527068064	1714333.706034775\\
112.19697189732791	1735926.6947354302\\
112.94639852397519	1757722.0484337362\\
113.69582515062247	1779721.1188392357\\
114.44525177726975	1801925.2576614711\\
115.19467840391702	1825053.9789899443\\
115.9441050305643	1848591.8819505768\\
116.69353165721158	1872356.7068652022\\
117.44295828385886	1896349.92048674\\
118.19238491050614	1920572.9895681096\\
118.94181153715341	1945086.186941438\\
119.69123816380069	1970679.6731986622\\
120.44066479044797	1996524.4857059803\\
121.19009141709525	2022622.1981005836\\
121.93951804374252	2048974.3840196612\\
122.6889446703898	2075582.6171004064\\
123.43837129703708	2102448.4709800086\\
124.18779792368436	2130150.82663242\\
124.93722455033163	2158451.9856539546\\
125.68665117697891	2187031.9448995865\\
126.43607780362619	2215892.376731674\\
127.18550443027347	2245034.9535125755\\
127.93493105692075	2274461.347604648\\
128.68435768356804	2304173.231370251\\
129.43378431021532	2334500.442752771\\
130.1832109368626	2365698.55395891\\
130.93263756350987	2397202.9041940165\\
131.68206419015715	2429015.2563865096\\
132.43149081680443	2461137.3734648107\\
133.1809174434517	2493571.0183573407\\
133.93034407009898	2526317.953992519\\
134.67977069674626	2559379.943298767\\
135.42919732339354	2592789.41618378\\
136.17862395004082	2627391.4651433355\\
136.9280505766881	2662328.830761773\\
137.67747720333537	2697603.3583744713\\
138.42690382998265	2733216.8933168063\\
139.17633045662993	2769171.280924157\\
139.9257570832772	2805468.3665319025\\
140.67518370992448	2842109.9954754193\\
141.42461033657176	2879098.0130900885\\
142.17403696321904	2916434.264711284\\
142.9234635898666	2954449.393387716\\
};

\addplot [
color=black,
dashed
]
table[row sep=crcr]{
63.71272604484442	1011726.4014449435\\
64.51283450489515	1012569.9224058064\\
65.31294296494588	1013905.4538036117\\
66.1130514249966	1015720.8083933657\\
66.91315988504732	1017999.8776123873\\
67.71326834509804	1020722.5160369574\\
68.51337680514877	1023864.425838981\\
69.31348526519949	1027423.2878792296\\
70.11359372525021	1031636.4501565115\\
70.91370218530093	1036226.1489787695\\
71.71381064535166	1041153.0112043141\\
72.51391910540238	1046605.0201752973\\
73.3140275654531	1052585.2883968828\\
74.11413602550383	1058822.2410407308\\
74.91424448555455	1065660.9433356915\\
75.71435294560527	1072910.4623950026\\
76.514461405656	1080442.2096645809\\
77.31456986570672	1088687.117557673\\
78.11467832575744	1097015.4784800296\\
78.91478678580816	1106185.6437133637\\
79.71489524585888	1115404.142757863\\
80.5150037059096	1125422.517177429\\
81.31511216596033	1135475.2503837617\\
82.11522062601105	1146396.3290492168\\
82.91532908606177	1157310.0186827641\\
83.7154375461125	1169086.8608653317\\
84.51554600616322	1180981.8626903472\\
85.31565446621394	1193454.1602528945\\
86.11576292626467	1206377.1887391356\\
86.91587138631539	1219437.616582808\\
87.71597984636611	1233431.0928327763\\
88.51608830641683	1247500.6584794503\\
89.31619676646756	1262056.8110679374\\
90.11630522651828	1277261.988234395\\
90.916413686569	1292571.4944201421\\
91.71652214661972	1308518.2024779245\\
92.51663060667045	1325023.0887483638\\
93.31673906672117	1341660.601084425\\
94.11684752677189	1358858.075268974\\
94.91695598682261	1376744.8211184505\\
95.71706444687334	1394792.4435146248\\
96.51717290692406	1413064.4026142573\\
97.31728136697478	1432408.6768713403\\
98.1173898270255	1451941.927601932\\
98.91749828707623	1471665.7085041313\\
99.71760674712695	1491944.0926463944\\
100.51771520717767	1513031.280416166\\
101.3178236672284	1534337.029765864\\
102.11793212727912	1555863.080418369\\
102.91804058732984	1577926.9305355349\\
103.71814904738056	1600874.7534472893\\
104.51825750743129	1624070.7134539995\\
105.31836596748201	1647516.7247489933\\
106.11847442753273	1671214.7015256\\
106.91858288758345	1695994.755956987\\
107.71869134763418	1721189.2477424452\\
108.5187998076849	1746663.3810039307\\
109.31890826773562	1772419.2328508857\\
110.11901672778635	1798458.8803927496\\
110.91912518783707	1825637.190165758\\
111.71923364788779	1853236.9679334715\\
112.51934210793851	1881147.9073864308\\
113.31945056798924	1909372.2369958581\\
114.11955902803996	1937912.1852329702\\
114.91966748809068	1967061.1887563646\\
115.7197759481414	1997212.5416986246\\
116.51988440819213	2027706.4190484849\\
117.31999286824285	2058545.189084609\\
118.12010132829357	2089731.220085661\\
118.9202097883443	2121266.8803303028\\
119.72031824839502	2153154.538097198\\
120.52042670844574	2186350.1016458143\\
121.32053516849646	2219934.867076442\\
122.12064362854719	2253898.1818986917\\
122.92075208859791	2288242.5426443354\\
123.72086054864863	2322970.4458451457\\
124.52096900869935	2358084.3880328964\\
125.32107746875008	2393586.86573936\\
126.1211859288008	2430206.417610621\\
126.92129438885152	2467473.8269730625\\
127.72140284890224	2505155.773389355\\
128.52151130895297	2543254.870090047\\
129.3216197690037	2581773.7303056875\\
130.1217282290544	2620714.967266825\\
130.92183668910513	2660081.194204009\\
131.72194514915586	2699875.0243477877\\
132.52205360920658	2740442.880022751\\
133.3221620692573	2782072.0446259193\\
134.12227052930803	2824154.17235735\\
134.92237898935875	2866691.981592034\\
135.72248744940947	2909688.1907049604\\
136.5225959094602	2953145.51807112\\
137.32270436951092	2997066.682065503\\
138.12281282956164	3041454.4010630986\\
138.92292128961236	3086311.3934388985\\
139.72302974966308	3131640.3775678924\\
140.5231382097138	3177879.238946492\\
141.32324666976453	3225133.365163469\\
142.12335512981525	3272884.169089702\\
142.9234635898666	3321134.462690327\\
};

\addplot [
color=black,
densely dashdotted
]
table[row sep=crcr]{
59.21372732324277	940284.539366908\\
60.05928021482483	941156.5702821615\\
60.90483310640689	942663.9638695027\\
61.75038599798895	944725.6156452252\\
62.59593888957101	947331.1743530725\\
63.44149178115307	950524.3875319483\\
64.28704467273512	954305.8445017783\\
65.13259756431718	958634.3690861262\\
65.97815045589924	963486.8699193622\\
66.8237033474813	968835.0175178216\\
67.66925623906336	974645.0863993908\\
68.51480913064542	981128.9256860048\\
69.36036202222748	988170.5922578747\\
70.20591491380954	995608.8976336196\\
71.0514678053916	1003587.2346416486\\
71.89702069697366	1012247.3786642104\\
72.74257358855571	1021204.5069450485\\
73.58812648013777	1030878.0829622669\\
74.43367937171983	1040999.6193519875\\
75.27923226330189	1051567.0731575133\\
76.12478515488395	1062825.3196620198\\
76.97033804646601	1074360.3687987018\\
77.81589093804807	1086710.2363798087\\
78.66144382963013	1099282.683310313\\
79.50699672121219	1112660.8077554398\\
80.35254961279425	1126336.1609492605\\
81.19810250437631	1140660.0187411227\\
82.04365539595837	1155499.113761593\\
82.88920828754043	1170666.137947894\\
83.73476117912249	1186724.7585391956\\
84.58031407070455	1202908.721800803\\
85.4258669622866	1219939.9537764967\\
86.27141985386866	1237426.792674379\\
87.11697274545072	1255073.5385567509\\
87.96252563703278	1273877.7740990783\\
88.80807852861484	1292904.38094327\\
89.6536314201969	1312125.7355581496\\
90.49918431177896	1332569.5120701066\\
91.34473720336102	1353240.512396518\\
92.19029009494308	1374140.8595372194\\
93.03584298652514	1396046.3998811976\\
93.8813958781072	1418458.6425676935\\
94.72694876968926	1441134.823399354\\
95.57250166127132	1464276.7259899867\\
96.41805455285338	1488518.4307021622\\
97.26360744443544	1513058.3897111963\\
98.1091603360175	1537899.218603811\\
98.95471322759956	1563311.4769859521\\
99.80026611918161	1589793.5347999097\\
100.64581901076367	1616610.5839889736\\
101.49137190234573	1643765.4627512468\\
102.33692479392779	1671261.00928483\\
103.18247768550985	1700009.5991559734\\
104.02803057709191	1729241.7204400946\\
104.87358346867397	1758848.4694817709\\
105.71913636025603	1788832.891302445\\
106.56468925183809	1819198.0309235586\\
107.41024214342015	1850952.8543079593\\
108.25579503500221	1883136.196987869\\
109.10134792658427	1915733.8507046457\\
109.94690081816633	1948749.051515029\\
110.79245370974839	1982185.03547576\\
111.63800660133045	2016479.5436680207\\
112.4835594929125	2051799.983730545\\
113.32911238449456	2087574.2281854893\\
114.17466527607662	2123805.6883368543\\
115.02021816765868	2160497.775488637\\
115.86577105924074	2197653.900944834\\
116.7113239508228	2235344.470113896\\
117.55687684240486	2274463.104404478\\
118.40242973398692	2314078.180461875\\
119.24798262556898	2354193.2690493027\\
120.09353551715104	2394811.9409299754\\
120.9390884087331	2435937.766867109\\
121.78464130031516	2477574.317623914\\
122.63019419189722	2519725.1639636094\\
123.47574708347928	2563090.0647332696\\
124.32129997506134	2607316.7415408758\\
125.1668528666434	2652089.5501358304\\
126.01240575822546	2697412.2049525217\\
126.85795864980751	2743288.4204253396\\
127.70351154138957	2789721.9109886726\\
128.54906443297162	2836716.3910769112\\
129.39461732455368	2884275.575124444\\
130.24017021613574	2932403.1775656636\\
131.0857231077178	2982095.9772944828\\
131.93127599929986	3032412.421518639\\
132.77682889088192	3083328.38099335\\
133.62238178246398	3134847.6980361356\\
134.46793467404603	3186974.2149645216\\
135.3134875656281	3239711.7740960326\\
136.15904045721015	3293064.217748188\\
137.0045933487922	3347035.3882385143\\
137.85014624037427	3401629.1278845337\\
138.69569913195633	3456849.2790037696\\
139.5412520235384	3513187.950342586\\
140.38680491512045	3570702.3061367464\\
141.2323578067025	3628873.211459629\\
142.07791069828457	3687704.620723849\\
142.9234635898666	3747200.4883420216\\
};

\addplot [
color=black,
densely dotted
]
table[row sep=crcr]{
80.6644010468665	1748722.4036037393\\
81.29328046649276	1753825.631723109\\
81.92215988611902	1758864.2956033326\\
82.55103930574528	1763844.2246122588\\
83.17991872537154	1768771.3784426393\\
83.8087981449978	1773651.8471121292\\
84.43767756462405	1778491.8509632864\\
85.06655698425031	1783297.740663573\\
85.69543640387657	1788075.9972053536\\
86.32431582350283	1792833.231905897\\
86.95319524312909	1797576.1864073733\\
87.58207466275535	1802308.35747223\\
88.2109540823816	1807010.6928000902\\
88.83983350200786	1811681.3562857478\\
89.46871292163412	1816323.2447303634\\
90.09759234126038	1820939.2851489864\\
90.72647176088664	1825532.43477056\\
91.3553511805129	1830105.681037918\\
91.98423060013916	1834662.0416077857\\
92.61311001976541	1839204.5643507806\\
93.24198943939167	1843736.3273514123\\
93.87086885901793	1848260.43890808\\
94.49974827864419	1852780.0375330772\\
95.12862769827045	1857298.2919525872\\
95.75750711789671	1861818.4011066852\\
96.38638653752297	1866343.5941493376\\
97.01526595714923	1870877.1304484047\\
97.64414537677548	1875422.299585636\\
98.27302479640174	1879982.688866748\\
98.901904216028	1884590.1877347222\\
99.53078363565426	1889259.933549414\\
100.15966305528052	1893984.4880005491\\
100.78854247490678	1898756.1513895106\\
101.41742189453304	1903566.9626293348\\
102.0463013141593	1908408.6992447125\\
102.67518073378555	1913272.8773719908\\
103.30406015341181	1918150.7517591699\\
103.93293957303807	1923033.3157659064\\
104.56181899266433	1927911.30136351\\
105.19069841229059	1932775.1791349472\\
105.81957783191685	1937615.1582748373\\
106.4484572515431	1942421.186589455\\
107.07733667116936	1947182.950496731\\
107.70621609079562	1951889.8750262482\\
108.33509551042188	1956531.1238192474\\
108.96397493004814	1961095.5991286219\\
109.5928543496744	1965593.055662899\\
110.22173376930066	1970069.4197775482\\
110.85061318892691	1974526.771631272\\
111.47949260855317	1978964.9352680563\\
112.10837202817943	1983383.7082501748\\
112.73725144780569	1987782.8616581846\\
113.36613086743195	1992162.1400909247\\
113.99501028705821	1996521.2616655256\\
114.62388970668447	2000859.9180173955\\
115.25276912631072	2005177.7743002332\\
115.88164854593698	2009474.4691860168\\
116.51052796556324	2013749.6148650143\\
117.1394073851895	2018002.7970457757\\
117.76828680481576	2022233.5749551356\\
118.39716622444202	2026441.4813382146\\
119.02604564406828	2030626.0224584173\\
119.65492506369453	2034786.678097434\\
120.2838044833208	2038924.0659502652\\
120.91268390294705	2043048.549694108\\
121.54156332257331	2047162.399313417\\
122.17044274219957	2051265.2115865005\\
122.79932216182583	2055356.556659182\\
123.42820158145209	2059435.9780447967\\
124.05708100107834	2063502.9926241918\\
124.6859604207046	2067557.0906457307\\
125.31483984033086	2071597.7357252876\\
125.94371925995712	2075624.36484625\\
126.57259867958338	2079636.38835952\\
127.20147809920964	2083633.1899835116\\
127.8303575188359	2087614.126804151\\
128.45923693846217	2091578.5292748797\\
129.08811635808843	2095525.701216651\\
129.7169957777147	2099454.9198179315\\
130.34587519734094	2103365.435634701\\
130.9747546169672	2107256.4760119906\\
131.60363403659346	2111129.3809253466\\
132.23251345621972	2114986.717896175\\
132.86139287584598	2118829.9732327648\\
133.49027229547224	2122660.6494664843\\
134.1191517150985	2126480.265351785\\
134.74803113472476	2130290.355866201\\
135.376910554351	2134092.4722103477\\
136.00578997397727	2137888.1818079236\\
136.63466939360353	2141679.068305709\\
137.2635488132298	2145466.7315735654\\
137.89242823285605	2149252.787704439\\
138.5213076524823	2153038.869014356\\
139.15018707210857	2156826.624042425\\
139.77906649173482	2160617.7175508374\\
140.40794591136108	2164413.830524867\\
141.03682533098734	2168216.6601728685\\
141.6657047506136	2172027.919926281\\
142.29458417023986	2175865.839014776\\
142.9234635898666	2179774.436422449\\
};

\addplot [
color=black,
dashdotdotted
]
table[row sep=crcr]{
74.34798788217374	1978503.828778113\\
75.04066945497871	1985827.220672101\\
75.73335102778368	1993121.145901438\\
76.42603260058866	2000414.0243729278\\
77.11871417339363	2007735.1316022556\\
77.8113957461986	2015114.5987139894\\
78.50407731900357	2022548.679616876\\
79.19675889180854	2029999.7880799607\\
79.88944046461351	2037461.6897518414\\
80.58212203741849	2044927.9431112567\\
81.27480361022346	2052391.7128710607\\
81.96748518302843	2059845.7699782234\\
82.6601667558334	2067282.4916138316\\
83.35284832863837	2074693.8611930863\\
84.04552990144335	2082071.4683653049\\
84.73821147424832	2089406.5090139199\\
85.43089304705329	2096689.7852564808\\
86.12357461985826	2103911.7054446517\\
86.81625619266323	2111062.284164212\\
87.5089377654682	2118131.142235059\\
88.20161933827318	2125107.5067112027\\
88.89430091107815	2131980.210880772\\
89.58698248388312	2138780.4651381196\\
90.27966405668809	2145570.252863641\\
90.97234562949306	2152345.4543702607\\
91.66502720229803	2159100.7272287896\\
92.357708775103	2165830.474324518\\
93.05039034790798	2172528.8438572134\\
93.74307192071295	2179189.7293411223\\
94.43575349351792	2185806.76960497\\
95.1284350663229	2192373.3487919583\\
95.82111663912787	2198882.5963597684\\
96.51379821193284	2205327.387080559\\
97.20647978473781	2211700.341040969\\
97.89916135754278	2217993.8236421123\\
98.59184293034775	2224199.9455995834\\
99.28452450315272	2230310.5629434544\\
99.9772060759577	2236317.2770182765\\
100.66988764876267	2242230.8241932215\\
101.36256922156764	2248085.9519831254\\
102.05525079437261	2253883.78543408\\
102.74793236717758	2259624.396450384\\
103.44061393998255	2265307.8184932256\\
104.13329551278753	2270934.0465806792\\
104.8259770855925	2276503.0372877093\\
105.51865865839747	2282014.7087461664\\
106.21134023120244	2287468.940644791\\
106.90402180400741	2292865.5742292115\\
107.59670337681239	2298204.4123019422\\
108.28938494961736	2303485.219222388\\
108.98206652242233	2308707.7209068406\\
109.6747480952273	2313871.60482848\\
110.36742966803227	2318976.5200173757\\
111.06011124083724	2324022.077060482\\
111.75279281364222	2329009.311382114\\
112.44547438644719	2333942.514618173\\
113.13815595925216	2338823.7009694786\\
113.83083753205713	2343654.7657769336\\
114.5235191048621	2348437.621428632\\
115.21620067766708	2353174.197359861\\
115.90888225047205	2357866.4400530993\\
116.60156382327702	2362516.313038019\\
117.29424539608199	2367125.7968914816\\
117.98692696888696	2371696.8892375445\\
118.67960854169193	2376231.604747454\\
119.3722901144969	2380731.9751396514\\
120.06497168730188	2385200.049179768\\
120.75765326010685	2389637.892680628\\
121.45033483291182	2394047.588502249\\
122.14301640571679	2398431.2365518385\\
122.83569797852176	2402792.065947161\\
123.52837955132674	2407134.3507484016\\
124.22106112413171	2411458.0446966747\\
124.91374269693668	2415762.8077922324\\
125.60642426974165	2420048.2610768564\\
126.29910584254662	2424313.9866338577\\
126.9917874153516	2428559.5275880764\\
127.68446898815657	2432784.3881058805\\
128.37715056096155	2436988.0333951674\\
129.06983213376654	2441169.8897053627\\
129.76251370657153	2445329.344327423\\
130.4551952793765	2449465.745593831\\
131.1478768521815	2453578.4028785983\\
131.84055842498648	2457666.58659727\\
132.53323999779147	2461729.5282069123\\
133.22592157059646	2465766.4202061277\\
133.91860314340144	2469784.935790738\\
134.61128471620643	2473813.4547283836\\
135.3039662890114	2477850.2320579924\\
135.9966478618164	2481890.506057339\\
136.68932943462138	2485929.3872420746\\
137.38201100742637	2489961.858365722\\
138.07469258023136	2493982.774419681\\
138.76737415303634	2497986.862633225\\
139.46005572584133	2501968.7224735017\\
140.15273729864631	2505922.8256455325\\
140.8454188714513	2509843.5160922143\\
141.5381004442563	2513725.0099943187\\
142.23078201706127	2517561.3957704916\\
142.9234635898666	2521346.6340772524\\
};

\addplot [
color=black,
densely dashdotdetted
]
table[row sep=crcr]{
68.7302275517858	2171528.2527188733\\
69.47965417843308	2182097.014117897\\
70.22908080508036	2192446.994177812\\
70.97850743172764	2202589.3935990552\\
71.72793405837491	2212535.79957302\\
72.47736068502219	2222298.185782055\\
73.22678731166947	2231888.912399463\\
73.97621393831675	2241320.726089502\\
74.72564056496402	2250606.7600073866\\
75.4750671916113	2259760.5337992855\\
76.22449381825858	2268795.9536023224\\
76.97392044490586	2277727.312044576\\
77.72334707155314	2286569.2882450814\\
78.47277369820041	2295336.947813828\\
79.22220032484769	2304045.7428517602\\
79.97162695149497	2312708.833032681\\
80.72105357814225	2321325.9878888517\\
81.47048020478952	2329892.4726449028\\
82.2199068314368	2338403.1741390917\\
82.96933345808408	2346852.5998563976\\
83.71876008473136	2355234.877928519\\
84.46818671137864	2363543.757133882\\
85.21761333802591	2371772.6068976265\\
85.96703996467319	2379914.4172916207\\
86.71646659132047	2387961.799034451\\
87.46589321796775	2395906.9834914273\\
88.21531984461502	2403741.822674579\\
88.9647464712623	2411457.7892426597\\
89.71417309790958	2419045.976501143\\
90.46359972455686	2426497.098402226\\
91.21302635120414	2433829.777131633\\
91.96245297785141	2441104.126170913\\
92.71187960449869	2448318.844452893\\
93.46130623114597	2455469.6049536667\\
94.21073285779325	2462551.8269590456\\
94.96015948444052	2469560.6760645593\\
95.7095861110878	2476491.0641754568\\
96.45901273773508	2483337.6495067053\\
97.20843936438236	2490094.83658299\\
97.95786599102964	2496756.7762387143\\
98.70729261767691	2503317.3656180026\\
99.45671924432419	2509770.248174695\\
100.20614587097147	2516108.8136723503\\
100.95557249761875	2522326.1981842476\\
101.70499912426602	2528415.284093383\\
102.4544257509133	2534372.131441032\\
103.20385237756058	2540208.1026656553\\
103.95327900420786	2545931.44049868\\
104.70270563085514	2551549.8048196123\\
105.45213225750241	2557071.0303277397\\
106.20155888414969	2562503.126542139\\
106.95098551079697	2567854.27780167\\
107.70041213744425	2573132.84326498\\
108.44983876409152	2578347.3569104993\\
109.1992653907388	2583506.5275364458\\
109.94869201738608	2588619.2387608225\\
110.69811864403336	2593694.549021416\\
111.44754527068064	2598741.6915758015\\
112.19697189732791	2603770.074501336\\
112.94639852397519	2608789.280695166\\
113.69582515062247	2613808.1113374797\\
114.44525177726975	2618826.4053751496\\
115.19467840391702	2623841.26077165\\
115.9441050305643	2628849.9582662494\\
116.69353165721158	2633849.629330465\\
117.44295828385886	2638837.256168059\\
118.19238491050614	2643809.6717150384\\
118.94181153715341	2648763.559639658\\
119.69123816380069	2653695.454342416\\
120.44066479044797	2658601.7409560606\\
121.19009141709525	2663478.655345582\\
121.93951804374252	2668322.284108218\\
122.6889446703898	2673128.5645734514\\
123.43837129703708	2677893.284803013\\
124.18779792368436	2682612.0835908777\\
124.93722455033163	2687285.357334834\\
125.68665117697891	2691953.687854613\\
126.43607780362619	2696624.498265847\\
127.18550443027347	2701294.4069266245\\
127.93493105692075	2705959.894218416\\
128.68435768356804	2710617.302546071\\
129.43378431021532	2715262.8363378183\\
130.1832109368626	2719892.56204527\\
130.93263756350987	2724502.4081434156\\
131.68206419015715	2729088.1651306255\\
132.43149081680443	2733645.4855286493\\
133.1809174434517	2738169.8838826194\\
133.93034407009898	2742656.736761045\\
134.67977069674626	2747101.2827558173\\
135.42919732339354	2751498.622482209\\
136.17862395004082	2755846.5616446347\\
136.9280505766881	2760189.348027069\\
137.67747720333537	2764539.404976571\\
138.42690382998265	2768890.9344198266\\
139.17633045662993	2773237.968254923\\
139.9257570832772	2777574.368351337\\
140.67518370992448	2781893.826549944\\
141.42461033657176	2786189.8646630133\\
142.17403696321904	2790455.8344742106\\
142.9234635898666	2794684.9177385964\\
};

\addplot [
color=black,
loosely dashed
]
table[row sep=crcr]{
63.71272604484442	2369129.321496534\\
64.51283450489515	2381842.387420426\\
65.31294296494588	2394242.604956641\\
66.1130514249966	2406427.6592964423\\
66.91315988504732	2418499.769104609\\
67.71326834509804	2430565.6865194375\\
68.51337680514877	2442736.6971527385\\
69.31348526519949	2455124.955622172\\
70.11359372525021	2467578.469969114\\
70.91370218530093	2479957.8671071636\\
71.71381064535166	2492254.487187805\\
72.51391910540238	2504458.848131848\\
73.3140275654531	2516560.6456294297\\
74.11413602550383	2528548.753140009\\
74.91424448555455	2540411.2218923722\\
75.71435294560527	2552135.280884632\\
76.514461405656	2563707.336884224\\
77.31456986570672	2575112.97442791\\
78.11467832575744	2586336.9558217786\\
78.91478678580816	2597363.2211412434\\
79.71489524585888	2608174.8882310404\\
80.5150037059096	2618754.252705236\\
81.31511216596033	2629130.9735520156\\
82.11522062601105	2639419.828465813\\
82.91532908606177	2649615.8038720163\\
83.7154375461125	2659706.0123104467\\
84.51554600616322	2669676.8403930604\\
85.31565446621394	2679513.9488039496\\
86.11576292626467	2689202.2722993474\\
86.91587138631539	2698726.01970762\\
87.71597984636611	2708068.673929275\\
88.51608830641683	2717212.9919369523\\
89.31619676646756	2726141.0047754343\\
90.11630522651828	2734834.017561636\\
90.916413686569	2743272.609484614\\
91.71652214661972	2751436.633805558\\
92.51663060667045	2759312.9118994437\\
93.31673906672117	2767000.9010743024\\
94.11684752677189	2774528.670137913\\
94.91695598682261	2781884.6801729817\\
95.71706444687334	2789056.902441865\\
96.51717290692406	2796032.818386562\\
97.31728136697478	2802799.4196287207\\
98.1173898270255	2809343.207969633\\
98.91749828707623	2815650.1953902394\\
99.71760674712695	2821705.9040511213\\
100.51771520717767	2827495.366292512\\
101.3178236672284	2833003.124634288\\
102.11793212727912	2838213.231775971\\
102.91804058732984	2843109.2505967314\\
103.71814904738056	2847674.2541553825\\
104.51825750743129	2851860.4740535812\\
105.31836596748201	2855633.116926135\\
106.11847442753273	2859023.1476583416\\
106.91858288758345	2862063.1494904533\\
107.71869134763418	2864786.754263856\\
108.5187998076849	2867228.64242107\\
109.31890826773562	2869424.5430057487\\
110.11901672778635	2871411.2336626784\\
110.91912518783707	2873226.540637779\\
111.71923364788779	2874909.338778106\\
112.51934210793851	2876499.551531849\\
113.31945056798924	2878038.1509483275\\
114.11955902803996	2879567.1576779988\\
114.91966748809068	2881129.6409724494\\
115.7197759481414	2882752.3528592936\\
116.51988440819213	2884346.5062847757\\
117.31999286824285	2885889.0476969234\\
118.12010132829357	2887375.914415505\\
118.9202097883443	2888802.8226868687\\
119.72031824839502	2890165.2676839437\\
120.52042670844574	2891458.523506239\\
121.32053516849646	2892677.643179842\\
122.12064362854719	2893817.4586574226\\
122.92075208859791	2894872.5808182284\\
123.72086054864863	2895837.3994680885\\
124.52096900869935	2896706.0833394113\\
125.32107746875008	2897472.580091184\\
126.1211859288008	2898130.616308978\\
126.92129438885152	2898673.8149217376\\
127.72140284890224	2899134.994985412\\
128.52151130895297	2899541.344342095\\
129.3216197690037	2899889.2818120127\\
130.1217282290544	2900175.0597840436\\
130.92183668910513	2900394.7642157115\\
131.72194514915586	2900544.314633189\\
132.52205360920658	2900619.464131295\\
133.3221620692573	2900615.7993734987\\
134.12227052930803	2900528.740591915\\
134.92237898935875	2900353.541587306\\
135.72248744940947	2900085.289729084\\
136.5225959094602	2899718.9059553077\\
137.32270436951092	2899249.1447726837\\
138.12281282956164	2898670.5942565654\\
138.92292128961236	2898000.389763854\\
139.72302974966308	2897309.6404572995\\
140.5231382097138	2896591.673564419\\
141.32324666976453	2895832.2111831033\\
142.12335512981525	2895016.585595598\\
142.9234635898666	2894129.739268513\\
};

\addplot [
color=black,
loosely dashdotted
]
table[row sep=crcr]{
59.21372732324277	2425970.9516775543\\
60.05928021482483	2452531.0480063674\\
60.90483310640689	2472856.0815676763\\
61.75038599798895	2487845.6333514443\\
62.59593888957101	2498462.2610333185\\
63.44149178115307	2505731.4989746297\\
64.28704467273512	2510741.8582223966\\
65.13259756431718	2514644.8265093206\\
65.97815045589924	2518654.86825379\\
66.8237033474813	2524049.4245598754\\
67.66925623906336	2532168.913217335\\
68.51480913064542	2544416.7287016106\\
69.36036202222748	2562259.242173829\\
70.20591491380954	2587225.8014808036\\
71.0514678053916	2615864.0770866317\\
71.89702069697366	2637657.766681891\\
72.74257358855571	2653066.3939844496\\
73.58812648013777	2663080.192141375\\
74.43367937171983	2668744.7884740285\\
75.27923226330189	2671161.204478066\\
76.12478515488395	2671485.855823437\\
76.97033804646601	2670930.5523543865\\
77.81589093804807	2670762.498089453\\
78.66144382963013	2672304.2912214673\\
79.50699672121219	2676933.9241175572\\
80.35254961279425	2686084.7833191426\\
81.19810250437631	2701245.6495419396\\
82.04365539595837	2723960.6976759555\\
82.88920828754043	2748842.495106606\\
83.73476117912249	2766435.9846226177\\
84.58031407070455	2777629.8408547733\\
85.4258669622866	2783475.5301567214\\
86.27141985386866	2785073.497421949\\
87.11697274545072	2783573.16608378\\
87.96252563703278	2780172.938115379\\
88.80807852861484	2776120.1940297466\\
89.6536314201969	2772711.292879721\\
90.49918431177896	2771291.5722579807\\
91.34473720336102	2773255.3482970386\\
92.19029009494308	2780045.915669249\\
93.03584298652514	2793155.5475868015\\
93.8813958781072	2814124.851392082\\
94.72694876968926	2835398.430743785\\
95.57250166127132	2849342.625977635\\
96.41805455285338	2856999.320817554\\
97.26360744443544	2859453.703137206\\
98.1091603360175	2857834.264959994\\
98.95471322759956	2853312.80245906\\
99.80026611918161	2847104.415957289\\
100.64581901076367	2840467.5099273026\\
101.49137190234573	2834703.7929914636\\
102.33692479392779	2831158.277921876\\
103.18247768550985	2831219.281640381\\
104.02803057709191	2836318.4252185626\\
104.87358346867397	2847930.6338777435\\
105.71913636025603	2867422.501959402\\
106.56468925183809	2885365.920846641\\
107.41024214342015	2896168.208656629\\
108.25579503500221	2900888.069922636\\
109.10134792658427	2900622.4966697725\\
109.94690081816633	2896506.768414992\\
110.79245370974839	2889714.4521670877\\
111.63800660133045	2881457.402426693\\
112.4835594929125	2872985.7611862854\\
113.32911238449456	2865587.9579301793\\
114.17466527607662	2860590.709634534\\
115.02021816765868	2859359.020767348\\
115.86577105924074	2863296.183288461\\
116.7113239508228	2873843.7766495547\\
117.55687684240486	2891926.8562238333\\
118.40242973398692	2906997.813689229\\
119.24798262556898	2915292.7110059727\\
120.09353551715104	2917854.9014801276\\
120.9390884087331	2915761.1329698036\\
121.78464130031516	2910121.547885159\\
122.63019419189722	2902079.6831883965\\
123.47574708347928	2892812.4703937704\\
124.32129997506134	2883530.2355675776\\
125.1668528666434	2875476.699328167\\
126.01240575822546	2869928.97684593\\
126.85795864980751	2868197.5778433094\\
127.70351154138957	2871626.406594791\\
128.54906443297162	2881592.7619269127\\
129.39461732455368	2898313.985698811\\
130.24017021613574	2910665.771087571\\
131.0857231077178	2916404.1264808034\\
131.93127599929986	2916583.7023132374\\
132.77682889088192	2912289.424624232\\
133.62238178246398	2904636.495057783\\
134.46793467404603	2894770.390862514\\
135.3134875656281	2883866.86489168\\
136.15904045721015	2873131.945603172\\
137.0045933487922	2863801.9370595086\\
137.85014624037427	2857143.4189278423\\
138.69569913195633	2854453.246479958\\
139.5412520235384	2857058.5505922693\\
140.38680491512045	2866316.737745825\\
141.2323578067025	2881506.599879889\\
142.07791069828457	2891145.3974947245\\
142.9234635898666	2894168.0793128703\\
};
\end{axis}
\end{tikzpicture}%
