%Power_needed_and_available_altitudes
\begin{tikzpicture}

\begin{axis}[
width=\figurewidth,
height=\figureheight,
scaled ticks=false, tick label style={/pgf/number format/fixed},
xmin=59.21372681087494,
xmax=146.32640319914915,
xlabel={Speed ((m/s))},
xmajorgrids,
ymin=940284.522213961,
ymax=3993440.8791059186,
ylabel={Powers ((W))},
ymajorgrids,
legend style={at={(1.03,0.5)},anchor=west,draw=black,fill=white,legend cell align=left}
]

\addplot [
color=black,
solid
]
table[row sep=crcr]{
80.6644003488891	1280910.546029017\\
81.32765290293213	1281629.9543805548\\
81.99090545697516	1282438.9131052683\\
82.65415801101818	1283611.7089703989\\
83.31741056506121	1285045.9735400614\\
83.98066311910424	1286586.9252052186\\
84.64391567314726	1288631.4212337057\\
85.30716822719029	1290651.0339682857\\
85.97042078123332	1293210.4865181013\\
86.63367333527634	1295772.9379824495\\
87.29692588931937	1298790.5010646835\\
87.9601784433624	1301862.641438305\\
88.62343099740542	1305370.5694008416\\
89.28668355144845	1308912.3172445036\\
89.94993610549147	1312941.240426334\\
90.6131886595345	1316905.3527435602\\
91.27644121357753	1321484.178929709\\
91.93969376762055	1325952.290000571\\
92.60294632166358	1330971.8371047205\\
93.2661988757066	1336032.5846996405\\
93.92945142974963	1341367.1260667476\\
94.59270398379266	1347045.590099646\\
95.25595653783569	1352643.9841326373\\
95.91920909187871	1358942.3049285472\\
96.58246164592174	1365197.0158094296\\
97.24571419996477	1371663.4313236882\\
97.90896675400779	1378595.2142638594\\
98.57221930805082	1385477.5785699822\\
99.23547186209385	1392766.3920071959\\
99.89872441613687	1400359.6838720222\\
100.5619769701799	1407918.6943399464\\
101.22522952422293	1415947.4625488385\\
101.88848207826595	1424248.60826943\\
102.55173463230898	1432530.622068603\\
103.214987186352	1441200.3138891063\\
103.87823974039503	1450252.8380574433\\
104.54149229443806	1459301.35506378\\
105.20474484848108	1468495.6861477827\\
105.86799740252411	1478340.0712902995\\
106.53124995656714	1488195.5123597642\\
107.19450251061016	1498062.078620468\\
107.85775506465319	1508453.7448430208\\
108.52100761869622	1519153.2300852095\\
109.18426017273924	1529878.8957263026\\
109.84751272678227	1540630.9017741808\\
110.5107652808253	1552089.0528310463\\
111.17401783486832	1563707.275804018\\
111.83727038891135	1575366.8413436648\\
112.50052294295438	1587067.9960954122\\
113.1637754969974	1599431.282121123\\
113.82702805104043	1612027.9032046525\\
114.49028060508346	1624681.0174459042\\
115.15353315912648	1637390.9540218047\\
115.81678571316951	1650466.080261901\\
116.48003826721254	1664096.388404127\\
117.14329082125556	1677798.2794458622\\
117.80654337529859	1691572.1609894892\\
118.46979592934161	1705418.4406373878\\
119.13304848338464	1719846.9610098822\\
119.79630103742767	1734648.0420665087\\
120.4595535914707	1749536.167564426\\
121.12280614551372	1764511.819425426\\
121.78605869955675	1779575.4795713\\
122.44931125359977	1795109.6514722824\\
123.1125638076428	1811157.0615737464\\
123.77581636168583	1827306.9586906794\\
124.43906891572885	1843559.8949582384\\
125.10232146977188	1859916.4225115795\\
125.7655740238149	1876377.0934858613\\
126.42882657785793	1893619.1538626482\\
127.09207913190096	1911100.3165195722\\
127.75533168594399	1928699.946450344\\
128.418584239987	1946418.661897444\\
129.08183679403004	1964257.0811033477\\
129.74508934807307	1982215.8223105345\\
130.4083419021161	2000825.0447546884\\
131.07159445615912	2019834.056866083\\
131.73484701020215	2038977.4983633119\\
132.39809956424517	2058256.0494901282\\
133.0613521182882	2077670.3904902881\\
133.72460467233122	2097221.2016075444\\
134.38785722637425	2116909.163085652\\
135.05110978041728	2137401.008182832\\
135.7143623344603	2158174.6150925453\\
136.37761488850333	2179099.259583862\\
137.04086744254636	2200175.679795769\\
137.70411999658938	2221404.6138672526\\
138.3673725506324	2242786.7999372967\\
139.03062510467544	2264322.976144888\\
139.69387765871846	2286201.9358894383\\
140.3571302127615	2308850.245708971\\
141.02038276680452	2331666.1429202454\\
141.68363532084754	2354650.4194514332\\
142.34688787489057	2377803.867230707\\
143.0101404289336	2401127.278186238\\
143.67339298297662	2424621.4442461994\\
144.33664553701965	2448287.1573387645\\
144.99989809106268	2472125.209392104\\
145.6631506451057	2496707.087536551\\
146.32640319914915	2521699.0397892036\\
};

\addplot [
color=black,
densely dashed
]
table[row sep=crcr]{
74.34798723885135	1180609.0483332651\\
75.07504194552102	1181394.4992152567\\
75.8020966521907	1182451.0533358597\\
76.52915135886037	1183748.506653368\\
77.25620606553005	1185513.6891611633\\
77.98326077219973	1187624.709055831\\
78.7103154788694	1189916.8889264662\\
79.43737018553908	1192678.7481892088\\
80.16442489220876	1195757.01658833\\
80.89147959887843	1198959.5111553571\\
81.61853430554811	1202814.8419607028\\
82.34558901221779	1206729.2100337693\\
83.07264371888746	1211121.1918657508\\
83.79969842555714	1215744.4645519326\\
84.52675313222682	1220696.3816013744\\
85.25380783889649	1225995.3043627883\\
85.98086254556617	1231549.7056061965\\
86.70791725223584	1237481.6542768537\\
87.43497195890552	1243678.9281245442\\
88.1620266655752	1250191.552375838\\
88.88908137224487	1257069.7738714332\\
89.61613607891455	1264100.6406776311\\
90.34319078558423	1271695.4186975549\\
91.0702454922539	1279225.6958729345\\
91.79730019892358	1287515.9802542578\\
92.52435490559326	1295815.7462462396\\
93.25140961226293	1304478.0086585346\\
93.97846431893261	1313577.3297039545\\
94.70551902560229	1322651.689659358\\
95.43257373227196	1332439.9567248595\\
96.15962843894164	1342360.7290149436\\
96.88668314561131	1352318.3987828428\\
97.61373785228099	1363109.3366356436\\
98.34079255895067	1373914.6937530604\\
99.06784726562034	1384793.7290854643\\
99.79490197229002	1396509.0853993432\\
100.5219566789597	1408258.496056077\\
101.24901138562937	1420042.2091582217\\
101.97606609229905	1432631.5213918076\\
102.70312079896873	1445380.4456280235\\
103.4301755056384	1458183.3929616627\\
104.15723021230808	1471436.6253506034\\
104.88428491897776	1485236.1707335098\\
105.61133962564743	1499109.3474356397\\
106.33839433231711	1513056.6658670811\\
107.06544903898678	1527746.899192053\\
107.79250374565646	1542736.5468253882\\
108.51955845232614	1557819.8962831679\\
109.24661315899581	1572997.5795792139\\
109.97366786566549	1588945.0021242346\\
110.70072257233517	1605205.2933983724\\
111.42777727900484	1621579.3604456757\\
112.15483198567452	1638067.9505170167\\
112.8818866923442	1655049.1874716934\\
113.60894139901387	1672654.7535193781\\
114.33599610568355	1690394.0963322022\\
115.06305081235323	1708268.072031396\\
115.7901055190229	1726277.53673819\\
116.51716022569258	1745032.8949111882\\
117.24421493236225	1764205.47380563\\
117.97126963903193	1783532.6397250849\\
118.69832434570161	1803015.351294455\\
119.42537905237128	1822654.567138643\\
120.15243375904096	1842885.8015025659\\
120.87948846571064	1863726.67677252\\
121.60654317238031	1884742.9158440745\\
122.33359787904999	1905935.5734791155\\
123.06065258571967	1927305.7044395306\\
123.78770729238934	1948854.3634872055\\
124.51476199905902	1971243.533388625\\
125.2418167057287	1994041.619132119\\
125.96887141239837	2017036.8610023817\\
126.69592611906805	2040230.403531597\\
127.42298082573772	2063623.3912519477\\
128.1500355324074	2087216.9686956166\\
128.87709023907706	2111332.1878484422\\
129.60414494574673	2136213.125094378\\
130.3311996524164	2161312.953115552\\
131.05825435908605	2186632.899847757\\
131.7853090657557	2212174.193226784\\
132.51236377242537	2237938.0611884263\\
133.23941847909504	2263925.731668476\\
133.9664731857647	2290314.517342459\\
134.69352789243436	2317633.3803928136\\
135.42058259910402	2345194.0015625125\\
136.14763730577369	2372997.6858242676\\
136.87469201244335	2401045.738150792\\
137.601746719113	2429339.4635147993\\
138.32880142578267	2457880.1668890025\\
139.05585613245233	2486669.1532461154\\
139.782910839122	2515786.0649350462\\
140.50996554579166	2545953.4864243455\\
141.23702025246132	2576386.7634830493\\
141.96407495913098	2607087.2717541056\\
142.69112966580064	2638056.3868804607\\
143.4181843724703	2669295.4845050597\\
144.14523907913997	2700805.94027085\\
144.87229378580963	2732589.129820779\\
145.5993484924793	2764646.4287977936\\
146.32640319914915	2796979.2128448472\\
};

\addplot [
color=black,
dashdotted
]
table[row sep=crcr]{
68.73022695707306	1091401.8099620717\\
69.51402671709403	1092238.232373649\\
70.297826477115	1093493.923717217\\
71.08162623713596	1095148.4195942688\\
71.86542599715693	1097177.636502245\\
72.6492257571779	1099553.7784939418\\
73.43302551719887	1102552.1269960513\\
74.21682527721984	1105901.1766793607\\
75.00062503724081	1109544.9922877043\\
75.78442479726178	1113642.0067882654\\
76.56822455728275	1118251.6683585509\\
77.35202431730372	1123080.643788839\\
78.13582407732468	1128432.895088773\\
78.91962383734565	1134188.588613501\\
79.70342359736662	1140143.8501926449\\
80.48722335738759	1146810.4155530287\\
81.27102311740856	1153538.1697421132\\
82.05482287742953	1160976.6350451042\\
82.8386226374505	1168520.8985906288\\
83.62242239747147	1176703.2960456847\\
84.40622215749244	1185015.1377759397\\
85.1900219175134	1193991.2393043037\\
85.97382167753437	1203008.8527119127\\
86.75762143755534	1212825.350639366\\
87.54142119757631	1222610.511251573\\
88.32522095759728	1233173.8142134543\\
89.10902071761825	1243867.543082867\\
89.89282047763922	1254987.3658086238\\
90.67662023766019	1266629.3533119224\\
91.46041999768116	1278289.5565393486\\
92.24421975770213	1290824.674963528\\
93.0280195177231	1303493.6115611205\\
93.81181927774406	1316363.0752151373\\
94.59561903776503	1330072.3041893656\\
95.379418797786	1343849.2015485456\\
96.16321855780697	1357910.9773382868\\
96.94701831782794	1372779.5539137935\\
97.73081807784891	1387740.686699528\\
98.51461783786988	1402856.6446149263\\
99.29841759789085	1418955.6592456126\\
100.08221735791182	1435172.0610813652\\
100.86601711793278	1451506.7767035482\\
101.64981687795375	1468567.2697789008\\
102.43361663797472	1486104.2292074629\\
103.21741639799569	1503784.3615267908\\
104.00121615801666	1521608.7622647118\\
104.78501591803763	1540452.485841469\\
105.5688156780586	1559536.8401033334\\
106.35261543807957	1578790.2473229785\\
107.13641519810054	1598213.9626406361\\
107.9202149581215	1618624.540085658\\
108.70401471814247	1639358.5943487296\\
109.48781447816344	1660287.564009207\\
110.27161423818441	1681412.8544856664\\
111.05541399820538	1703115.551602545\\
111.83921375822635	1725593.570097567\\
112.62301351824732	1748292.2367935237\\
113.40681327826829	1771213.0980532784\\
114.19061303828926	1794357.7002396968\\
114.97441279831023	1818178.8474445697\\
115.7582125583312	1842732.2967551453\\
116.54201231835216	1867533.5633984774\\
117.32581207837313	1892584.3253476582\\
118.1096118383941	1917886.2605757809\\
118.89341159841507	1943441.9070468592\\
119.67721135843604	1970198.356580197\\
120.46101111845701	1997229.6834769468\\
121.24481087847798	2024537.6879863704\\
122.02861063849895	2052124.1703577312\\
122.81241039851992	2079990.9308402913\\
123.59621015854088	2108139.7696833126\\
124.38000991856185	2137382.997859575\\
125.16380967858282	2167063.5194719164\\
125.94760943860379	2197049.5557490257\\
126.73140919862476	2227343.0198822743\\
127.51520895864573	2257945.8250630377\\
128.2990087186667	2288859.8844826873\\
129.08280847868767	2320087.111332597\\
129.86660823870864	2352481.366639367\\
130.6504079987296	2385302.516612874\\
131.43420775875057	2418459.843861783\\
132.21800751877154	2451955.36518552\\
133.0018072787925	2485791.0973835103\\
133.78560703881348	2519969.0572551787\\
134.56940679883445	2554491.2615999514\\
135.35320655885542	2589359.7272172547\\
136.1370063188764	2625461.172551811\\
136.92080607889736	2661989.5173076093\\
137.70460583891833	2698886.6423169095\\
138.4884055989393	2736154.6586531317\\
139.27220535896026	2773795.677389694\\
140.05600511898123	2811811.809600015\\
140.8398048790022	2850205.166357515\\
141.62360463902317	2888977.8587356107\\
142.40740439904414	2928131.9978077225\\
143.1912041590651	2968321.599553876\\
143.97500391908608	3009201.2658492406\\
144.75880367910705	3050484.3145482442\\
145.54260343912802	3092172.94166424\\
146.32640319914915	3134269.3432105887\\
};

\addplot [
color=black,
dashed
]
table[row sep=crcr]{
63.7127254935474	1011726.3829887331\\
64.54720708653328	1012600.4920399864\\
65.38168867951916	1014012.7283689618\\
66.21617027250504	1015954.6044007905\\
67.05065186549092	1018413.4418100928\\
67.8851334584768	1021372.2404373\\
68.71961505146268	1024809.5472049717\\
69.55409664444856	1028699.3250341198\\
70.38857823743444	1033033.0218296167\\
71.22305983042033	1038073.4900149585\\
72.0575414234062	1043520.2025276868\\
72.89202301639209	1049330.4503925613\\
73.72650460937797	1055719.420019395\\
74.56098620236385	1062659.6988720193\\
75.39546779534973	1069875.4824007258\\
76.22994938833561	1077777.6581252574\\
77.0644309813215	1086077.042972181\\
77.89891257430737	1094749.6889611136\\
78.73339416729326	1104112.1798602343\\
79.56787576027914	1113623.9906919976\\
80.40235735326502	1124014.157997854\\
81.2368389462509	1134430.5524644526\\
82.07132053923678	1145797.2980835347\\
82.90580213222266	1157180.1045897163\\
83.74028372520854	1169455.9279118578\\
84.57476531819442	1181863.0698742822\\
85.4092469111803	1194963.3337040546\\
86.24372850416619	1208448.5149504617\\
87.07821009715207	1222270.7114385655\\
87.91269169013795	1236883.1016069436\\
88.74717328312383	1251578.444914253\\
89.58165487610971	1267090.038119357\\
90.41613646909559	1282986.7704074963\\
91.25061806208147	1298997.3659289253\\
92.08509965506735	1316104.929817661\\
92.91958124805323	1333385.4223809305\\
93.75406284103912	1350810.8095233764\\
94.588544434025	1369383.6614272934\\
95.42302602701088	1388141.1917981831\\
96.25750761999676	1407074.6513703498\\
97.09198921298264	1426942.7284303068\\
97.92647080596852	1447263.7256665549\\
98.7609523989544	1467791.5720270819\\
99.59543399194028	1488743.307637631\\
100.42991558492616	1510706.6444703508\\
101.26439717791204	1532907.517675944\\
102.09887877089793	1555347.9009664224\\
102.9333603638838	1578364.00291153\\
103.76784195686969	1602308.1608650873\\
104.60232354985557	1626522.36343876\\
105.43680514284145	1651008.7822809159\\
106.27128673582733	1675815.3612490892\\
107.10576832881321	1701864.0692697759\\
107.9402499217991	1728215.2311887627\\
108.77473151478497	1754871.203482407\\
109.60921310777086	1781834.342627068\\
110.44369470075674	1809383.6726379509\\
111.27817629374262	1837984.3420546623\\
112.1126578867285	1866922.1465743657\\
112.94713947971438	1896199.6143930403\\
113.78162107270026	1925819.273706665\\
114.61610266568614	1955783.6527112173\\
115.45058425867202	1987030.1986963754\\
116.2850658516579	2018721.336648444\\
117.11954744464379	2050786.8813680455\\
117.95402903762967	2083229.519662412\\
118.78851063061555	2116051.9383387747\\
119.62299222360143	2149256.8242043643\\
120.45747381658731	2183723.6472383966\\
121.29195540957319	2218728.7395504643\\
122.12643700255907	2254145.5083274734\\
122.96091859554495	2289976.785879542\\
123.79540018853083	2326225.404516783\\
124.62988178151672	2362894.196549314\\
125.4643633745026	2399985.994287249\\
126.29884496748848	2438445.7657654937\\
127.13332656047436	2477419.2512065656\\
127.96780815346024	2516844.409596864\\
128.80228974644612	2556724.2056410224\\
129.636771339432	2597061.604043669\\
130.47125293241785	2637859.5695094406\\
131.30573452540372	2679121.066742968\\
132.1402161183896	2720849.060448882\\
132.97469771137546	2763938.2309617368\\
133.80917930436132	2807632.8872992597\\
134.6436608973472	2851822.06176499\\
135.47814249033306	2896508.838349711\\
136.31262408331892	2941696.301044202\\
137.1471056763048	2987387.5338392463\\
137.98158726929066	3033585.620725621\\
138.81606886227652	3080293.6456941105\\
139.6505504552624	3127514.692735495\\
140.48503204824826	3175641.0847224137\\
141.31951364123412	3224911.783039818\\
142.15399523422	3274722.7366167274\\
142.98847682720586	3325077.1356217023\\
143.82295842019172	3375978.1702233017\\
144.6574400131776	3427429.0305900914\\
145.49192160616346	3479432.90689063\\
146.32640319914915	3531992.9892934714\\
};

\addplot [
color=black,
densely dashdotted
]
table[row sep=crcr]{
59.21372681087494	940284.522213961\\
60.09365283499892	941221.8940242206\\
60.9735788591229	942843.9959560743\\
61.853504883246885	945062.961002365\\
62.73343090737087	947876.4989113021\\
63.61335693149485	951277.3487639278\\
64.49328295561882	955253.1010460746\\
65.3732089797428	959860.352933503\\
66.25313500386677	965121.8749847631\\
67.13306102799075	970947.6122880942\\
68.01298705211472	977306.2829707685\\
68.8929130762387	984160.638095849\\
69.77283910036267	991664.020823327\\
70.65276512448665	999843.0585788847\\
71.53269114861062	1008444.454087689\\
72.4126171727346	1017594.4745891422\\
73.29254319685857	1027505.0576444635\\
74.17246922098255	1037726.5439661504\\
75.05239524510652	1048736.2920892155\\
75.9323212692305	1060198.4753421268\\
76.81224729335447	1072204.362167037\\
77.69217331747845	1084872.7461648353\\
78.57209934160242	1097953.0562590172\\
79.4520253657264	1111773.7454686123\\
80.33195138985037	1126002.3229578962\\
81.21187741397435	1140901.0261024009\\
82.09180343809832	1156346.8476437149\\
82.9717294622223	1172227.8813054014\\
83.85165548634627	1188954.6290594703\\
84.73158151047025	1205817.3068976135\\
85.61150753459422	1223765.5558867657\\
86.4914335587182	1242003.0380690356\\
87.37135958284217	1260689.9833214656\\
88.25128560696615	1280353.6745861047\\
89.13121163109012	1300226.8118961214\\
90.0111376552141	1320741.932399653\\
90.89106367933807	1342121.3014933073\\
91.77098970346205	1363747.8095084082\\
92.65091572758602	1385930.2953625007\\
93.53084175171	1409134.9576551798\\
94.41076777583397	1432624.3860190618\\
95.29069379995795	1456401.2594963973\\
96.17061982408192	1481393.8170182763\\
97.0505458482059	1506846.5886295578\\
97.93047187232987	1532624.4753138395\\
98.81039789645385	1558824.9023717216\\
99.69032392057782	1586331.3525725098\\
100.5702499447018	1614200.184016249\\
101.45017596882577	1642434.5952950765\\
102.33010199294975	1671037.785001131\\
103.21002801707372	1700956.1963070193\\
104.0899540411977	1731397.210725479\\
104.96988006532168	1762244.171987752\\
105.84980608944565	1793500.511771714\\
106.72973211356963	1825350.0714348194\\
107.6096581376936	1858505.8564894532\\
108.48958416181758	1892107.644129611\\
109.36951018594155	1926159.081326101\\
110.24943621006553	1960663.8150497295\\
111.1293622341895	1995625.492271305\\
112.00928825831348	2031933.0757763821\\
112.88921428243745	2068905.8871026882\\
113.76914030656143	2106371.920917433\\
114.6490663306854	2144335.021691553\\
115.52899235480938	2182799.0338959834\\
116.40891837893335	2221767.8020016598\\
117.28884440305733	2262009.310370537\\
118.1687704271813	2303081.1671352834\\
119.04869645130528	2344693.4468263593\\
119.92862247542925	2386850.1736220256\\
120.80854849955323	2429555.37170054\\
121.6884745236772	2472813.0652401657\\
122.56840054780118	2516627.27841916\\
123.44832657192515	2561664.963144633\\
124.32825259604913	2607682.68708284\\
125.2081786201731	2654291.880742547\\
126.08810464429708	2701496.7302165325\\
126.96803066842105	2749301.421597575\\
127.84795669254503	2797710.1409784537\\
128.727882716669	2846727.074451948\\
129.607808740793	2896356.4081108384\\
130.48773476491698	2946871.256045609\\
131.36766078904097	2998806.937318809\\
132.24758681316496	3051389.0935606207\\
133.12751283728895	3104622.0549855405\\
134.00743886141294	3158510.1518080616\\
134.88736488553693	3213057.7142426786\\
135.76729090966091	3268269.0725038857\\
136.6472169337849	3324148.5568061774\\
137.5271429579089	3380700.497364047\\
138.40706898203288	3437929.224391989\\
139.28699500615687	3496021.282310304\\
140.16692103028086	3555682.884184704\\
141.04684705440485	3616054.3866080223\\
141.92677307852884	3677140.246123664\\
142.80669910265283	3738944.9192750338\\
143.68662512677682	3801472.8626055354\\
144.5665511509008	3864728.532658576\\
145.4464771750248	3928716.3859775593\\
146.32640319914915	3993440.8791059186\\
};

\addplot [
color=black,
densely dotted
]
table[row sep=crcr]{
80.6644003488891	1748722.3979018459\\
81.32765290293213	1754102.6437903515\\
81.99090545697516	1759411.4266903955\\
82.65415801101818	1764655.5975615473\\
83.31741056506121	1769842.1686036817\\
83.98066311910424	1774978.3132569739\\
84.64391567314726	1780071.3662019025\\
85.30716822719029	1785128.823359252\\
85.97042078123332	1790158.3418901055\\
86.63367333527634	1795167.740195853\\
87.29692588931937	1800164.997918184\\
87.9601784433624	1805139.5196214693\\
88.62343099740542	1810077.537456461\\
89.28668355144845	1814982.436492034\\
89.94993610549147	1819857.639178581\\
90.6131886595345	1824706.605347662\\
91.27644121357753	1829532.8322120071\\
91.93969376762055	1834339.8543655095\\
92.60294632166358	1839131.2437832346\\
93.2661988757066	1843910.6098214127\\
93.92945142974963	1848681.5992174414\\
94.59270398379266	1853447.896089888\\
95.25595653783569	1858213.2219384846\\
95.91920909187871	1862981.3356441315\\
96.58246164592174	1867756.0334688993\\
97.24571419996477	1872541.1490560218\\
97.90896675400779	1877340.553429904\\
98.57221930805082	1882166.5205980437\\
99.23547186209385	1887059.8095736157\\
99.89872441613687	1892017.9810223945\\
100.5619769701799	1897032.1380466847\\
101.22522952422293	1902093.0603544516\\
101.88848207826595	1907191.2042593216\\
102.55173463230898	1912316.7026805822\\
103.214987186352	1917459.3651431813\\
103.87823974039503	1922608.677777728\\
104.54149229443806	1927753.8033204917\\
105.20474484848108	1932883.5811134023\\
105.86799740252411	1937986.5271040522\\
106.53124995656714	1943050.8338456934\\
107.19450251061016	1948064.3704972365\\
107.85775506465319	1953014.6828232578\\
108.52100761869622	1957888.9931939906\\
109.18426017273924	1962674.5647428313\\
109.84751272678227	1967407.9946157457\\
110.5107652808253	1972120.3793026728\\
111.17401783486832	1976811.530026751\\
111.83727038891135	1981481.2252474667\\
112.50052294295438	1986129.2106606544\\
113.1637754969974	1990755.1991984954\\
113.82702805104043	1995358.87102952\\
114.49028060508346	1999939.8735586077\\
115.15353315912648	2004497.8214269828\\
115.81678571316951	2009032.2965122212\\
116.48003826721254	2013542.8479282432\\
117.14329082125556	2018028.992025319\\
117.80654337529859	2022490.2123900675\\
118.46979592934161	2026925.9598454544\\
119.13304848338464	2031335.6524507927\\
119.79630103742767	2035718.675501745\\
120.4595535914707	2040077.7587745278\\
121.12280614551372	2044424.278365366\\
121.78605869955675	2048758.8227508971\\
122.44931125359977	2053080.9076195462\\
123.1125638076428	2057390.0157095478\\
123.77581636168583	2061685.5968089474\\
124.43906891572885	2065967.0677556014\\
125.10232146977188	2070233.8124371758\\
125.7655740238149	2074485.1817911486\\
126.42882657785793	2078720.4938048068\\
127.09207913190096	2082939.0335152487\\
127.75533168594399	2087140.0530093824\\
128.418584239987	2091322.771423928\\
129.08183679403004	2095486.3749454152\\
129.74508934807307	2099630.0168101843\\
130.4083419021161	2103752.8173043854\\
131.07159445615912	2107853.929790464\\
131.73484701020215	2111935.4336558823\\
132.39809956424517	2115999.9648700063\\
133.0613521182882	2120049.271510424\\
133.72460467233122	2124085.1217262107\\
134.38785722637425	2128109.303737929\\
135.05110978041728	2132123.6258376297\\
135.7143623344603	2136129.9163888507\\
136.37761488850333	2140130.0238266177\\
137.04086744254636	2144125.816657444\\
137.70411999658938	2148119.1834593304\\
138.3673725506324	2152112.032881766\\
139.03062510467544	2156106.2936457274\\
139.69387765871846	2160103.9145436776\\
140.3571302127615	2164106.86443957\\
141.02038276680452	2168117.132268842\\
141.68363532084754	2172136.727038421\\
142.34688787489057	2176188.2523369812\\
143.0101404289336	2180318.301468378\\
143.67339298297662	2184515.819445291\\
144.33664553701965	2188766.6785311806\\
144.99989809106268	2193056.459946982\\
145.6631506451057	2197370.4538711063\\
146.32640319914915	2201693.6594394413\\
};

\addplot [
color=black,
dashdotdotted
]
table[row sep=crcr]{
74.34798723885135	1978503.8219542892\\
75.07504194552102	1986189.6262157473\\
75.8020966521907	1993844.506247892\\
76.52915135886037	2001501.3998927295\\
77.25620606553005	2009194.2834984993\\
77.98326077219973	2016957.0834784799\\
78.7103154788694	2024765.6687740043\\
79.43737018553908	2032590.8657945965\\
80.16442489220876	2040425.534169182\\
80.89147959887843	2048262.0555883027\\
81.61853430554811	2056092.333804117\\
82.34558901221779	2063907.794630402\\
83.07264371888746	2071699.3859425515\\
83.79969842555714	2079457.5776775752\\
84.52675313222682	2087172.3618341004\\
85.25380783889649	2094833.2524723734\\
85.98086254556617	2102429.2857142556\\
86.70791725223584	2109949.019743227\\
87.43497195890552	2117380.5348043824\\
88.1620266655752	2124711.433204436\\
88.88908137224487	2131928.839311719\\
89.61613607891455	2139066.460077191\\
90.34319078558423	2146192.3020652113\\
91.0702454922539	2153301.543797832\\
91.79730019892358	2160387.97308216\\
92.52435490559326	2167445.068597489\\
93.25140961226293	2174465.9998953003\\
93.97846431893261	2181443.6273992625\\
94.70551902560229	2188370.502405234\\
95.43257373227196	2195238.867081257\\
96.15962843894164	2202040.654467565\\
96.88668314561131	2208767.488476577\\
97.61373785228099	2215410.6838929\\
98.34079255895067	2221961.246373329\\
99.06784726562034	2228409.8724468453\\
99.79490197229002	2234746.94951462\\
100.5219566789597	2240972.952734244\\
101.24901138562937	2247129.9944952913\\
101.97606609229905	2253223.8971786825\\
102.70312079896873	2259254.7501179753\\
103.4301755056384	2265222.5959859067\\
104.15723021230808	2271127.430794395\\
104.88428491897776	2276969.20389454\\
105.61133962564743	2282747.817976621\\
106.33839433231711	2288463.129070099\\
107.06544903898678	2294114.946543615\\
107.79250374565646	2299703.033104993\\
108.51955845232614	2305227.1048012334\\
109.24661315899581	2310686.8310185233\\
109.97366786566549	2316081.8344822247\\
110.70072257233517	2321411.691256884\\
111.42777727900484	2326676.1228183266\\
112.15483198567452	2331879.033439755\\
112.8818866923442	2337023.766189547\\
113.60894139901387	2342112.5050187027\\
114.33599610568355	2347147.454569476\\
115.06305081235323	2352130.8401753646\\
115.7901055190229	2357064.9078611154\\
116.51716022569258	2361951.9243427217\\
117.24421493236225	2366794.1770274267\\
117.97126963903193	2371593.974013719\\
118.69832434570161	2376353.6440913375\\
119.42537905237128	2381075.536741267\\
120.15243375904096	2385762.0221357406\\
120.87948846571064	2390415.491138239\\
121.60654317238031	2395038.3553034905\\
122.33359787904999	2399633.046877472\\
123.06065258571967	2404204.2813971266\\
123.78770729238934	2408755.2599309115\\
124.51476199905902	2413285.6211802354\\
125.2418167057287	2417794.953992378\\
125.96887141239837	2422282.799928275\\
126.69592611906805	2426748.65326252\\
127.42298082573772	2431191.960983364\\
128.1500355324074	2435612.122792714\\
128.87709023907706	2440008.491106133\\
129.60414494574673	2444380.3710528426\\
130.3311996524164	2448727.020475721\\
131.05825435908605	2453047.6499313028\\
131.7853090657557	2457341.4226897797\\
132.51236377242537	2461607.4547349997\\
133.23941847909504	2465844.81476447\\
133.9664731857647	2470062.977579968\\
134.69352789243436	2474292.4073422193\\
135.42058259910402	2478530.318750794\\
136.14763730577369	2482771.1842406457\\
136.87469201244335	2487009.321173812\\
137.601746719113	2491238.891839416\\
138.32880142578267	2495453.9034536644\\
139.05585613245233	2499648.208159848\\
139.782910839122	2503815.5030283425\\
140.50996554579166	2507949.330056611\\
141.23702025246132	2512043.0761691956\\
141.96407495913098	2516089.973217728\\
142.69112966580064	2520083.0979809216\\
143.4181843724703	2524015.3721645754\\
144.14523907913997	2527879.5624015736\\
144.87229378580963	2531674.1319512823\\
145.5993484924793	2535453.597700234\\
146.32640319914915	2539227.0218584463\\
};

\addplot [
color=black,
densely dashdotdetted
]
table[row sep=crcr]{
68.73022695707306	2171528.244242265\\
69.51402671709403	2182576.420247653\\
70.297826477115	2193385.8414399996\\
71.08162623713596	2203969.351898414\\
71.86542599715693	2214340.2581291967\\
72.6492257571779	2224512.329065838\\
73.43302551719887	2234499.796069019\\
74.21682527721984	2244317.3529266114\\
75.00062503724081	2253980.155853678\\
75.78442479726178	2263503.8234924725\\
76.56822455728275	2272904.436912437\\
77.35202431730372	2282198.5396102075\\
78.13582407732468	2291403.1375096077\\
78.91962383734565	2300535.6989616537\\
79.70342359736662	2309613.5462490516\\
80.48722335738759	2318642.53950583\\
81.27102311740856	2327617.7649016823\\
82.05482287742953	2336533.498407898\\
82.8386226374505	2345383.562108638\\
83.62242239747147	2354161.324200933\\
84.40622215749244	2362859.698994681\\
85.1900219175134	2371471.1469126507\\
85.97382167753437	2379987.6744904793\\
86.75762143755534	2388400.8343766723\\
87.54142119757631	2396701.725332607\\
88.32522095759728	2404880.992232528\\
89.10902071761825	2412928.826063548\\
89.89282047763922	2420834.9639256527\\
90.67662023766019	2428588.782013728\\
91.46041999768116	2436237.4540082742\\
92.24421975770213	2443823.9130065683\\
93.0280195177231	2451343.3966321666\\
93.81181927774406	2458790.838974269\\
94.59561903776503	2466160.8705877154\\
95.379418797786	2473447.8184929867\\
96.16321855780697	2480645.7061762065\\
96.94701831782794	2487748.25358914\\
97.73081807784891	2494748.877149191\\
98.51461783786988	2501640.6897394103\\
99.29841759789085	2508416.5007084846\\
100.08221735791182	2515068.8158707446\\
100.86601711793278	2521589.8375061634\\
101.64981687795375	2527971.464360352\\
102.43361663797472	2534208.405962126\\
103.21741639799569	2540312.6684879595\\
104.00121615801666	2546293.8800545745\\
104.78501591803763	2552160.8118106215\\
105.5688156780586	2557922.4440724435\\
106.35261543807957	2563587.9663240807\\
107.13641519810054	2569166.777217267\\
107.9202149581215	2574668.484571432\\
108.70401471814247	2580102.9053737014\\
109.48781447816344	2585480.065778892\\
110.27161423818441	2590810.2011095206\\
111.05541399820538	2596103.755855796\\
111.83921375822635	2601371.383675623\\
112.62301351824732	2606623.9473946015\\
113.40681327826829	2611872.4685821566\\
114.19061303828926	2617121.552925303\\
114.97441279831023	2622367.8481644983\\
115.7582125583312	2627608.2975566215\\
116.54201231835216	2632839.665763251\\
117.32581207837313	2638058.5388506665\\
118.1096118383941	2643261.324289847\\
118.89341159841507	2648444.250956471\\
119.67721135843604	2653603.369130917\\
120.46101111845701	2658734.550498263\\
121.24481087847798	2663833.4881482874\\
122.02861063849895	2668895.696575468\\
122.81241039851992	2673916.5116789816\\
123.59621015854088	2678891.0907627065\\
124.38000991856185	2683814.412535219\\
125.16380967858282	2688696.344260587\\
125.94760943860379	2693580.001474612\\
126.73140919862476	2698465.099211695\\
127.51520895864573	2703347.710272198\\
128.2990087186667	2708223.742370754\\
129.08280847868767	2713088.9381362675\\
129.86660823870864	2717938.8751119147\\
130.6504079987296	2722768.965755145\\
131.43420775875057	2727574.4574376796\\
132.21800751877154	2732350.4324455108\\
133.0018072787925	2737091.807978905\\
133.78560703881348	2741793.336152397\\
134.56940679883445	2746449.603994798\\
135.35320655885542	2751055.0334491883\\
136.1370063188764	2755605.72221021\\
136.92080607889736	2760147.323520125\\
137.70460583891833	2764696.936580144\\
138.4884055989393	2769247.925783445\\
139.27220535896026	2773793.4520880454\\
140.05600511898123	2778326.4730168\\
140.8398048790022	2782839.742657399\\
141.62360463902317	2787325.811662375\\
142.40740439904414	2791777.027249098\\
143.1912041590651	2796185.5331997736\\
143.97500391908608	2800543.269861448\\
144.75880367910705	2804841.974146005\\
145.54260343912802	2809073.179530167\\
146.32640319914915	2813228.2160554947\\
};

\addplot [
color=black,
loosely dashed
]
table[row sep=crcr]{
63.7127254935474	2369129.312607442\\
64.54720708653328	2382380.848557227\\
65.38168867951916	2395296.5779750682\\
66.21617027250504	2407987.6559353163\\
67.05065186549092	2420570.6016841196\\
67.8851334584768	2433167.2986394293\\
68.71961505146268	2445904.994390995\\
69.55409664444856	2458877.329771082\\
70.38857823743444	2471841.8506426956\\
71.22305983042033	2484722.6061383695\\
72.0575414234062	2497509.431045909\\
72.89202301639209	2510191.1872596946\\
73.72650460937797	2522755.763780671\\
74.56098620236385	2535190.0767163583\\
75.39546779534973	2547480.069280842\\
76.22994938833561	2559610.7117947806\\
77.0644309813215	2571566.001685403\\
77.89891257430737	2583328.963486506\\
78.73339416729326	2594881.648838458\\
79.56787576027914	2606205.1364881974\\
80.40235735326502	2617279.532289232\\
81.2368389462509	2628119.9080178603\\
82.07132053923678	2638857.5971119097\\
82.90580213222266	2649494.995500012\\
83.74028372520854	2660017.509882266\\
84.57476531819442	2670409.6880143527\\
85.4092469111803	2680655.218707535\\
86.24372850416619	2690736.9318286576\\
87.07821009715207	2700636.798300148\\
87.91269169013795	2710335.930100015\\
88.74717328312383	2719814.5802618493\\
89.58165487610971	2729052.142874823\\
90.41613646909559	2738027.153083692\\
91.25061806208147	2746717.2870887932\\
92.08509965506735	2755099.362146046\\
92.91958124805323	2763204.0633064145\\
93.75406284103912	2771136.013169625\\
94.588544434025	2778886.882552924\\
95.42302602701088	2786443.264907321\\
96.25750761999676	2793791.1741104517\\
97.09198921298264	2800916.0444665817\\
97.92647080596852	2807802.7307066056\\
98.7609523989544	2814435.5079880464\\
99.59543399194028	2820798.071895054\\
100.42991558492616	2826873.538438409\\
101.26439717791204	2832644.44405552\\
102.09887877089793	2838092.7456104215\\
102.9333603638838	2843199.8203937807\\
103.76784195686969	2847946.46612289\\
104.60232354985557	2852275.7926373854\\
105.43680514284145	2856158.2917228327\\
106.27128673582733	2859629.781025876\\
107.10576832881321	2862727.427818404\\
107.9402499217991	2865489.640115549\\
108.77473151478497	2867956.066675686\\
109.60921310777086	2870167.597000432\\
110.44369470075674	2872166.3613346484\\
111.27817629374262	2873995.730666438\\
112.1126578867285	2875700.316727147\\
112.94713947971438	2877325.9719913634\\
113.78162107270026	2878919.7896769205\\
114.61610266568614	2880530.103744891\\
115.45058425867202	2882205.0851890147\\
116.2850658516579	2883883.8236663765\\
117.11954744464379	2885507.669882368\\
117.95402903762967	2887072.082955166\\
118.78851063061555	2888572.2604207895\\
119.62299222360143	2890003.1382330894\\
120.45747381658731	2891359.390763757\\
121.29195540957319	2892635.4308023215\\
122.12643700255907	2893825.409556149\\
122.96091859554495	2894923.2166504427\\
123.79540018853083	2895922.480128245\\
124.62988178151672	2896816.5664504333\\
125.4643633745026	2897598.580495725\\
126.29884496748848	2898261.365560674\\
127.13332656047436	2898801.174203223\\
127.96780815346024	2899266.1422534552\\
128.80228974644612	2899670.2855751864\\
129.636771339432	2900009.479122955\\
130.47125293241785	2900279.4009236316\\
131.30573452540372	2900475.532076421\\
132.1402161183896	2900593.1567528574\\
132.97469771137546	2900627.36219681\\
133.80917930436132	2900573.0387244774\\
134.6436608973472	2900424.879724393\\
135.47814249033306	2900177.3816574207\\
136.31262408331892	2899824.8440567576\\
137.1471056763048	2899361.3695279337\\
137.98158726929066	2898780.86374881\\
138.81606886227652	2898091.329570794\\
139.6505504552624	2897373.1236106763\\
140.48503204824826	2896626.694123782\\
141.31951364123412	2895835.8734221547\\
142.15399523422	2894984.032573704\\
142.98847682720586	2894054.081402208\\
143.82295842019172	2893028.4684873065\\
144.6574400131776	2891889.181164509\\
145.49192160616346	2890617.7455251897\\
146.32640319914915	2889195.2264165916\\
};

\addplot [
color=black,
loosely dashdotted
]
table[row sep=crcr]{
59.21372681087494	2425970.933522055\\
60.09365283499892	2453472.9852504474\\
60.9735788591229	2474261.4831787567\\
61.853504883246885	2489354.5646936237\\
62.73343090737087	2499844.2258263645\\
63.61335693149485	2506896.3212529738\\
64.49328295561882	2511750.5642941217\\
65.3732089797428	2515720.5269151567\\
66.25313500386677	2520193.6397261033\\
67.13306102799075	2526631.1919816625\\
68.01298705211472	2536568.331581212\\
68.8929130762387	2551614.065068807\\
69.77283910036267	2573451.2576331785\\
70.65276512448665	2603103.2373954295\\
71.53269114861062	2629106.1801385684\\
72.4126171727346	2647751.225822107\\
73.29254319685857	2660128.717290532\\
74.17246922098255	2667393.963313288\\
75.05239524510652	2670767.2385847806\\
75.9323212692305	2671533.783724371\\
76.81224729335447	2671043.805276381\\
77.69217331747845	2670712.47571009\\
78.57209934160242	2672019.933419737\\
79.4520253657264	2676511.282724519\\
80.33195138985037	2685796.5938685914\\
81.21187741397435	2701550.9030210692\\
82.09180343809832	2725514.2122760257\\
82.9717294622223	2750869.6957095335\\
83.85165548634627	2768341.4490020336\\
84.73158151047025	2779037.3084736415\\
85.61150753459422	2784151.0083349496\\
86.4914335587182	2784933.7245074194\\
87.37135958284217	2782694.0746233836\\
88.25128560696615	2778798.1180260438\\
89.13121163109012	2774669.3557694736\\
90.0111376552141	2771788.730618614\\
90.89106367933807	2771694.627049279\\
91.77098970346205	2775982.871248152\\
92.65091572758602	2786306.7311127866\\
93.53084175171	2804376.9162516054\\
94.41076777583397	2828355.922638778\\
95.29069379995795	2845446.165545042\\
96.17061982408192	2855346.3895704313\\
97.0505458482059	2859264.3063909533\\
97.93047187232987	2858458.4145059255\\
98.81039789645385	2854237.999237982\\
99.69032392057782	2847963.1327330656\\
100.5702499447018	2841044.673960434\\
101.45017596882577	2834944.2687126547\\
102.33010199294975	2831174.3496056087\\
103.21002801707372	2831298.136078489\\
104.0899540411977	2836929.6343938014\\
104.96988006532168	2849733.6376373623\\
105.84980608944565	2870703.4013614147\\
106.72973211356963	2888002.7247717795\\
107.6096581376936	2897789.3385349433\\
108.48958416181758	2901265.6806348907\\
109.36951018594155	2899679.092375381\\
110.24943621006553	2894321.818379942\\
111.1293622341895	2886531.0065918765\\
112.00928825831348	2877688.708274254\\
112.88921428243745	2869221.8780099205\\
113.76914030656143	2862602.3737014877\\
114.6490663306854	2859346.9565713448\\
115.52899235480938	2861017.291161646\\
116.40891837893335	2869219.9453343246\\
117.28884440305733	2885606.390271078\\
118.1687704271813	2903554.218469728\\
119.04869645130528	2913893.3037883905\\
119.92862247542925	2917754.8086152687\\
120.80854849955323	2916344.100955862\\
121.6884745236772	2910905.713727686\\
122.56840054780118	2902723.344760269\\
123.44832657192515	2893119.856795153\\
124.32825259604913	2883457.2774858978\\
125.2081786201731	2875136.7993980725\\
126.08810464429708	2869598.780009264\\
126.96803066842105	2868322.741709072\\
127.84795669254503	2872827.371799111\\
128.727882716669	2884670.5224930085\\
129.607808740793	2902108.582548013\\
130.48773476491698	2912984.0887722303\\
131.36766078904097	2917028.77477257\\
132.24758681316496	2915441.893648087\\
133.12751283728895	2909458.2055287417\\
134.00743886141294	2900347.977575398\\
134.88736488553693	2889416.983979823\\
135.76729090966091	2878006.505964691\\
136.6472169337849	2867493.3317835787\\
137.5271429579089	2859289.756720969\\
138.40706898203288	2854843.583092247\\
139.28699500615687	2855638.120243704\\
140.16692103028086	2863192.1845525354\\
141.04684705440485	2878401.2146916473\\
141.92677307852884	2889939.131043454\\
142.80669910265283	2894104.4202713626\\
143.68662512677682	2892121.1367841354\\
144.5665511509008	2885246.621358871\\
145.4464771750248	2874771.501141012\\
146.32640319914915	2862019.6896443353\\
};
\end{axis}
\end{tikzpicture}%
