%Power_needed_and_available_weights
\begin{tikzpicture}

\begin{axis}[
width=\figurewidth,
height=\figureheight,
scaled ticks=false, tick label style={/pgf/number format/fixed},
xmin=74.02279331486532,
xmax=146.32640319914915,
xlabel={Speed ((m/s))},
xmajorgrids,
ymin=989850.2133128642,
ymax=2578376.537948242,
ylabel={Powers ((W))},
ymajorgrids,
legend style={at={(1.03,0.5)},anchor=west,draw=black,fill=white,legend cell align=left}
]

\addplot [
color=black,
solid
]
table[row sep=crcr]{
74.02279331486532	989850.2133128642\\
74.75313280864597	990514.3145111826\\
75.48347230242662	991414.2501566623\\
76.21381179620727	992524.982661378\\
76.94415128998791	994011.0900967792\\
77.67449078376856	995816.2670241125\\
78.40483027754921	997783.0051249793\\
79.13516977132986	1000108.192574691\\
79.8655092651105	1002748.1876666395\\
80.59584875889115	1005484.7900210916\\
81.3261882526718	1008750.8133467147\\
82.05652774645245	1012117.8211556864\\
82.7868672402331	1015818.7549379171\\
83.51720673401374	1019796.8064086683\\
84.24754622779439	1023970.9529618236\\
84.97788572157503	1028533.0145567154\\
85.70822521535568	1033216.9771064415\\
86.43856470913633	1038328.0365352314\\
87.16890420291698	1043556.5876437742\\
87.89924369669762	1049173.3468559121\\
88.62958319047827	1054979.296847387\\
89.35992268425892	1061049.8650243105\\
90.09026217803957	1067463.9304099719\\
90.82060167182021	1073927.516957403\\
91.55094116560086	1080978.188860914\\
92.28128065938151	1087990.7670702392\\
93.01162015316216	1095478.2089838577\\
93.7419596469428	1103170.4446651011\\
94.47229914072345	1110908.1252342712\\
95.2026386345041	1119303.5052780434\\
95.93297812828474	1127694.4323185438\\
96.66331762206539	1136318.9894484596\\
97.39365711584604	1145450.5878089988\\
98.12399660962669	1154594.5187184454\\
98.85433610340733	1164023.0156301728\\
99.58467559718798	1173942.0213887205\\
100.31501509096863	1183890.157561827\\
101.04535458474928	1194020.0290362479\\
101.77569407852992	1204774.273456451\\
102.50603357231057	1215574.4091298094\\
103.23637306609122	1226420.765370654\\
103.96671255987187	1237916.2338629598\\
104.69705205365251	1249612.4600718995\\
105.42739154743316	1261371.6915131807\\
106.15773104121381	1273307.7346548284\\
106.88807053499445	1285940.1431902722\\
107.6184100287751	1298652.2004325313\\
108.34874952255575	1311444.4506013293\\
109.0790890163364	1324462.4572240564\\
109.80942851011704	1338162.9462397601\\
110.53976800389769	1351960.1803548466\\
111.27010749767834	1365854.8030183162\\
112.00044699145899	1379847.4576791672\\
112.73078648523963	1394604.9107329322\\
113.46112597902028	1409551.6378563591\\
114.19146547280093	1424612.8912902924\\
114.92180496658158	1439789.4082307266\\
115.65214446036222	1455231.8742317567\\
116.38248395414287	1471386.8544961186\\
117.11282344792352	1487673.3751860277\\
117.84316294170416	1504092.2617621915\\
118.57350243548481	1520644.3396853204\\
119.30384192926546	1537367.6467152413\\
120.0341814230461	1554931.923057433\\
120.76452091682675	1572645.472748903\\
121.4948604106074	1590509.2040327978\\
122.22519990438805	1608524.0251522604\\
122.9555393981687	1626690.844350435\\
123.68587889194934	1645275.4692909527\\
124.41621838572999	1664496.1410533248\\
125.14655787951064	1683884.7040105022\\
125.87689737329129	1703442.143705783\\
126.60723686707193	1723169.4456824656\\
127.33757636085258	1743067.5954838472\\
128.0679158546332	1763157.6337452936\\
128.79825534841385	1784142.9683992937\\
129.52859484219448	1805314.7728736573\\
130.2589343359751	1826674.104529558\\
130.98927382975575	1848222.0207281664\\
131.71961332353638	1869959.5788306552\\
132.449952817317	1891887.8361981958\\
133.18029231109765	1914007.8501919606\\
133.91063180487828	1937007.4102699948\\
134.6409712986589	1960267.3189950106\\
135.37131079243954	1983734.385658467\\
136.10165028622018	2007409.7339571295\\
136.8319897800008	2031294.4875877618\\
137.56232927378144	2055389.77024713\\
138.29266876756208	2079696.705631999\\
139.0230082613427	2104216.417439134\\
139.75334775512334	2129606.47211048\\
140.48368724890398	2155307.112524975\\
141.2140267426846	2181235.605827176\\
141.94436623646524	2207393.1365671605\\
142.67470573024588	2233780.8892950066\\
143.4050452240265	2260400.0485607926\\
144.13538471780714	2287251.798914596\\
144.86572421158778	2314337.324906494\\
145.5960637053684	2341657.8110865657\\
146.32640319914915	2369716.8468443723\\
};

\addplot [
color=black,
densely dashed
]
table[row sep=crcr]{
76.30084717892507	1084079.5509982868\\
77.0081760276142	1084764.8479734838\\
77.71550487630333	1085643.8482818766\\
78.42283372499246	1086695.4778454667\\
79.13016257368159	1088266.1095996904\\
79.83749142237072	1089976.906395256\\
80.54482027105985	1091887.688906961\\
81.25214911974898	1094262.7659177224\\
81.95947796843811	1096709.323461853\\
82.66680681712724	1099576.1499303856\\
83.37413566581637	1102638.753748598\\
84.0814645145055	1105940.2298597812\\
84.78879336319463	1109596.6270375187\\
85.49612221188376	1113369.56267942\\
86.20345106057289	1117590.1360453032\\
86.91077990926202	1121869.6924899195\\
87.61810875795115	1126617.1817218363\\
88.32543760664028	1131436.7520991322\\
89.03276645532941	1136665.9748303308\\
89.74009530401854	1142057.0646022768\\
90.44742415270767	1147714.6375274549\\
91.1547530013968	1153706.7449620687\\
91.86208185008593	1159730.804943465\\
92.56941069877506	1166351.3015888494\\
93.27673954746419	1172918.6583444525\\
93.98406839615332	1179945.2379207183\\
94.69139724484245	1187182.568372857\\
95.39872609353158	1194431.6540036595\\
96.10605494222071	1202361.5659255139\\
96.81338379090984	1210270.9535108393\\
97.52071263959897	1218384.4340571375\\
98.2280414882881	1227022.7415176835\\
98.93537033697723	1235656.7394206855\\
99.64269918566636	1244552.1047885974\\
100.35002803435549	1253948.4083099354\\
101.05735688304462	1263356.6306397489\\
101.76468573173375	1272932.8193830978\\
102.47201458042288	1283133.556300796\\
103.17934342911201	1293362.4091577898\\
103.88667227780114	1303619.5720286774\\
104.59400112649027	1314547.1772075484\\
105.3013299751794	1325639.5897499132\\
106.00865882386853	1336776.5384627974\\
106.71598767255766	1348130.9197991705\\
107.42331652124679	1360126.0753095062\\
108.13064536993592	1372181.8672870682\\
108.83797421862505	1384298.6949926869\\
109.54530306731418	1396730.8121811806\\
110.25263191600331	1409740.4452148632\\
110.95996076469244	1422827.1387138986\\
111.66728961338157	1435991.3870618623\\
112.3746184620707	1449326.5888103042\\
113.08194731075983	1463413.596844912\\
113.78927615944896	1477594.0541236012\\
114.49660500813809	1491868.545172443\\
115.20393385682722	1506237.6545175065\\
115.91126270551635	1521118.0311573914\\
116.61859155420548	1536449.976541974\\
117.32592040289461	1551892.3346553054\\
118.03324925158374	1567445.775185703\\
118.74057810027287	1583110.9678214837\\
119.447906948962	1599307.7945684562\\
120.15523579765113	1615969.9683111245\\
120.86256464634026	1632759.5238858475\\
121.56989349502939	1649677.2111629392\\
122.27722234371852	1666723.7800127177\\
122.98455119240765	1683950.5190514158\\
123.69188004109678	1702021.7598638644\\
124.39920888978591	1720237.2825265843\\
125.10653773847504	1738597.9121116423\\
125.81386658716417	1757104.473691105\\
126.5211954358533	1775757.7923370376\\
127.22852428454243	1794565.4842739676\\
127.93585313323156	1814278.4696138948\\
128.6431819819207	1834153.3883270666\\
129.35051083060984	1854191.1357070522\\
130.05783967929898	1874392.6070474184\\
130.76516852798812	1894758.6976417345\\
131.47249737667727	1915290.3027835684\\
132.1798262253664	1936193.3760817675\\
132.88715507405556	1957825.3318510086\\
133.5944839227447	1979637.7450412577\\
134.30181277143384	2001631.5761873377\\
135.009141620123	2023807.7858240695\\
135.71647046881213	2046167.3344862761\\
136.42379931750128	2068711.1827087784\\
137.13112816619042	2091440.2910263992\\
137.83845701487957	2114898.089028442\\
138.5457858635687	2138772.0688776714\\
139.25311471225785	2162845.9938590094\\
139.960443560947	2187120.884768283\\
140.66777240963614	2211597.762401319\\
141.3751012583253	2236277.6475539445\\
142.08243010701443	2261161.561021988\\
142.78975895570358	2286250.523601275\\
143.49708780439272	2311663.1484627426\\
144.20441665308186	2337929.864175814\\
144.911745501771	2364415.961575901\\
145.61907435046015	2391122.5167395864\\
146.32640319914915	2418050.605743449\\
};

\addplot [
color=black,
dashdotted
]
table[row sep=crcr]{
78.51302867296727	1181131.5344498046\\
79.19801225403981	1181835.2506478694\\
79.88299583511235	1182683.8574173606\\
80.5679794161849	1183798.218369877\\
81.25296299725744	1185309.3983323392\\
81.93794657832998	1186901.7239450605\\
82.62293015940253	1188928.6681688821\\
83.30791374047507	1191141.590552175\\
83.99289732154762	1193568.1157338202\\
84.67788090262016	1196383.3371812836\\
85.3628644836927	1199246.2488456042\\
86.04784806476525	1202638.659251803\\
86.73283164583779	1205973.2724936518\\
87.41781522691034	1209910.6960656578\\
88.10279880798288	1213750.7269976907\\
88.78778238905542	1218193.6689666272\\
89.47276597012797	1222571.1261671067\\
90.15774955120051	1227472.5194996863\\
90.84273313227305	1232417.5954602878\\
91.5277167133456	1237722.5475703573\\
92.21270029441814	1243263.5101439694\\
92.89768387549069	1248909.0496040515\\
93.58266745656323	1255072.1334525822\\
94.26765103763577	1261168.0903422541\\
94.95263461870832	1267796.2547475945\\
95.63761819978086	1274554.4343311028\\
96.3226017808534	1281377.827676858\\
97.00758536192595	1288819.9268448446\\
97.69256894299849	1296226.5196061318\\
98.37755252407104	1303892.9379914438\\
99.06253610514358	1312018.5646664463\\
99.74751968621612	1320124.3511709683\\
100.43250326728867	1328551.4423558456\\
101.11748684836121	1337408.5825063605\\
101.80247042943375	1346261.5621997863\\
102.4874540105063	1355349.434030288\\
103.17243759157884	1364983.088969656\\
103.85742117265139	1374628.2359354272\\
104.54240475372393	1384284.9512255888\\
105.22738833479647	1394710.665760304\\
105.91237191586902	1405189.6844771917\\
106.59735549694156	1415695.9560234693\\
107.2823390780141	1426534.1464689663\\
107.96732265908665	1437885.2275686297\\
108.65230624015919	1449279.1328356268\\
109.33728982123174	1460716.1339618994\\
110.02227340230428	1472626.971385332\\
110.70725698337682	1484942.7890410258\\
111.39224056444937	1497317.210932274\\
112.07722414552191	1509750.5996634834\\
112.76220772659445	1522566.5529960191\\
113.447191307667	1535908.4321769401\\
114.13217488873954	1549324.6738593476\\
114.81715846981209	1562815.7270371008\\
115.50214205088463	1576382.0407040638\\
116.18712563195717	1590759.7566642733\\
116.87210921302972	1605274.3601887247\\
117.55709279410226	1619879.5392625146\\
118.2420763751748	1634575.8247459522\\
118.92705995624735	1649423.9851541384\\
119.61204353731989	1665088.2972467176\\
120.29702711839244	1680858.8140651302\\
120.98201069946498	1696736.1438131256\\
121.66699428053752	1712720.8946944547\\
122.35197786161007	1728813.6749128671\\
123.03696144268261	1745616.188990761\\
123.72194502375515	1762719.8973656131\\
124.4069286048277	1779946.6125375645\\
125.09191218590024	1797297.0155307974\\
125.77689576697279	1814771.7873694932\\
126.46187934804533	1832371.6090778343\\
127.14686292911787	1850834.1048044204\\
127.83184651019042	1869480.7831657764\\
128.51683009126296	1888267.3001555009\\
129.2018136723355	1907194.4050952003\\
129.88679725340805	1926262.847306479\\
130.5717808344806	1945473.3761109433\\
131.25676441555314	1965220.55237104\\
131.94174799662568	1985506.2419611947\\
132.62673157769822	2005948.5503568428\\
133.31171515877077	2026548.2906540062\\
133.9966987398433	2047306.2759487059\\
134.68168232091585	2068223.3193369627\\
135.3666659019884	2089300.233914795\\
136.05164948306094	2110806.29370193\\
136.73663306413349	2132991.7922458025\\
137.42161664520603	2155351.4290514304\\
138.10660022627857	2177886.0764662432\\
138.79158380735112	2200596.6068376685\\
139.47656738842366	2223483.892513132\\
140.1615509694962	2246548.8058400652\\
140.84653455056875	2269792.219165893\\
141.5315181316413	2293459.586130556\\
142.21650171271384	2317848.284058262\\
142.90148529378638	2342429.461754172\\
143.58646887485892	2367204.046294113\\
144.27145245593147	2392172.9647539123\\
144.956436037004	2417337.1442093966\\
145.64141961807655	2442697.511736392\\
146.32640319914915	2468254.994410729\\
};

\addplot [
color=black,
dashed
]
table[row sep=crcr]{
80.66437269010765	1280909.2284064025\\
81.32762552353232	1281628.6365710062\\
81.99087835695698	1282437.5958718155\\
82.65413119038165	1283610.3910034362\\
83.31738402380631	1285044.6566875477\\
83.98063685723098	1286585.6072370876\\
84.64388969065564	1288630.1050247916\\
85.3071425240803	1290649.720478149\\
85.97039535750497	1293209.1713592848\\
86.63364819092963	1295771.6263636914\\
87.2969010243543	1298789.1875054787\\
87.96015385777896	1301861.3323427096\\
88.62340669120363	1305369.258132539\\
89.28665952462829	1308911.0114637401\\
89.94991235805296	1312939.9322803474\\
90.61316519147762	1316904.0512072379\\
91.27641802490228	1321482.8748755064\\
91.93967085832695	1325950.9833633422\\
92.60292369175161	1330970.5382473406\\
93.26617652517628	1336031.28315471\\
93.92942935860094	1341365.8336438995\\
94.5926821920256	1347044.2949247037\\
95.25593502545027	1352642.6861565907\\
95.91918785887493	1358941.0175303486\\
96.5824406922996	1365195.7255942165\\
97.24569352572426	1371662.1532341996\\
97.90894635914893	1378593.9333809235\\
98.57219919257359	1385476.29486226\\
99.23545202599826	1392765.122148351\\
99.89870485942292	1400358.4112603182\\
100.56195769284759	1407917.4189532145\\
101.22521052627225	1415946.2028788726\\
101.88846335969691	1424247.3459444314\\
102.55171619312158	1432529.3570759688\\
103.21496902654624	1441199.0666186379\\
103.8782218599709	1450251.5882868764\\
104.54147469339557	1459300.1027904286\\
105.20472752682024	1468494.4537314428\\
105.8679803602449	1478338.836585493\\
106.53123319366956	1488194.2753740249\\
107.19448602709423	1498060.8393614178\\
107.8577388605189	1508452.5279488496\\
108.52099169394356	1519152.0111882223\\
109.18424452736822	1529877.6748447134\\
109.84749736079289	1540629.6789264055\\
110.51075019421755	1552087.8550450283\\
111.17400302764221	1563706.076377559\\
111.83725586106688	1575365.6403060874\\
112.50050869449154	1587066.793476351\\
113.16376152791621	1599430.1074340607\\
113.82701436134087	1612026.727315801\\
114.49026719476554	1624679.840396063\\
115.1535200281902	1637389.775852189\\
115.81677286161487	1650464.9330504138\\
116.48002569503953	1664095.2405048346\\
117.1432785284642	1677797.1309113456\\
117.80653136188886	1691571.0118728424\\
118.46978419531352	1705417.2909922206\\
119.13303702873819	1719845.8459141538\\
119.79628986216285	1734646.9269354513\\
120.45954269558752	1749535.0524632516\\
121.12279552901218	1764510.704419955\\
121.78604836243684	1779574.3647279614\\
122.44930119586151	1795108.574966726\\
123.11255402928617	1811155.9857823888\\
123.77580686271084	1827305.8836917211\\
124.4390596961355	1843558.820830578\\
125.10231252956017	1859915.349334814\\
125.76556536298483	1876376.0213402843\\
126.4288181964095	1893618.1245357736\\
127.09207102983416	1911099.2888431095\\
127.75532386325882	1928698.9205165457\\
128.4185766966835	1946417.637799341\\
129.08182953010814	1964256.0589347554\\
129.7450823635328	1982214.8021660487\\
130.40833519695744	2000824.0721274642\\
131.0715880303821	2019833.0869458888\\
131.73484086380674	2038976.531256808\\
132.3980936972314	2058255.0853048363\\
133.06134653065604	2077669.4293345874\\
133.7245993640807	2097220.243590675\\
134.38785219750534	2116908.2083177124\\
135.05110503093	2137400.1064287242\\
135.71435786435464	2158173.717341025\\
136.3776106977793	2179098.3659571987\\
137.04086353120394	2200174.7904171636\\
137.7041163646286	2221403.7288608374\\
138.36736919805324	2242785.9194281404\\
139.0306220314779	2264322.100258989\\
139.69387486490254	2286201.1187114087\\
140.3571276983272	2308849.4339734665\\
141.02038053175184	2331665.336765448\\
141.6836333651765	2354649.6190165277\\
142.34688619860114	2377803.0726558776\\
143.0101390320258	2401126.489612671\\
143.67339186545044	2424620.661816081\\
144.3366446988751	2448286.3811952816\\
144.99989753229974	2472124.4396794443\\
145.6631503657244	2496706.3838231205\\
146.32640319914915	2521698.3434076402\\
};

\addplot [
color=black,
densely dashdotted
]
table[row sep=crcr]{
82.75999886822794	1383357.727818895\\
83.40208376045946	1384090.1539154192\\
84.04416865269098	1384850.3926421376\\
84.68625354492251	1386077.3499562354\\
85.32833843715403	1387417.5807246694\\
85.97042332938555	1389041.0931963015\\
86.61250822161708	1390938.2379309856\\
87.2545931138486	1392991.9814523542\\
87.89667800608012	1395416.7442596585\\
88.53876289831165	1397933.0045965684\\
89.18084779054317	1400849.6631464656\\
89.82293268277469	1403859.2465305119\\
90.46501757500621	1407225.4434383379\\
91.10710246723774	1410757.587159088\\
91.74918735946926	1414524.1213673078\\
92.39127225170078	1418606.4043644886\\
93.0333571439323	1422717.022524458\\
93.67544203616383	1427375.2759801375\\
94.31752692839535	1431927.0413526734\\
94.95961182062688	1437024.681764642\\
95.6016967128584	1442191.5353366982\\
96.24378160508992	1447505.70537574\\
96.88586649732144	1453309.6047210381\\
97.52795138955297	1459036.644194434\\
98.17003628178449	1465220.6007034522\\
98.81212117401601	1471619.591505709\\
99.45420606624754	1477956.3040646436\\
100.09629095847906	1484942.3682529987\\
100.73837585071058	1491983.59431423\\
101.3804607429421	1498977.1673745508\\
102.02254563517363	1506682.573873548\\
102.66463052740515	1514410.7115877639\\
103.30671541963667	1522105.8316293836\\
103.9488003118682	1530432.1249895163\\
104.59088520409972	1538889.182175137\\
105.23297009633124	1547327.833574448\\
105.87505498856277	1556160.26476264\\
106.51713988079429	1565385.3794949125\\
107.15922477302581	1574606.6433572\\
107.80130966525734	1583824.0331364744\\
108.44339455748886	1593842.805697463\\
109.08547944972038	1603882.6586893238\\
109.7275643419519	1613933.188071629\\
110.36964923418343	1624181.0858270512\\
111.01173412641495	1635072.1990088052\\
111.65381901864647	1645988.4113033146\\
112.295903910878	1656929.8678822713\\
112.93798880310952	1668066.4996420061\\
113.58007369534104	1679877.3978561016\\
114.22215858757257	1691727.880402248\\
114.86424347980409	1703618.1710565067\\
115.50632837203561	1715548.4935949398\\
116.14841326426713	1728246.1231564335\\
116.79049815649866	1741084.719177869\\
117.43258304873018	1753977.6383568398\\
118.0746679409617	1766925.179348453\\
118.71675283319323	1780122.4793761119\\
119.35883772542475	1793998.606739892\\
120.00092261765627	1807943.4788324798\\
120.6430075098878	1821957.4654627016\\
121.28509240211932	1836040.9364393847\\
121.92717729435084	1850362.863907585\\
122.56926218658236	1865404.185610925\\
123.21134707881389	1880528.972669508\\
123.85343197104541	1895737.6623205538\\
124.49551686327693	1911030.6918012847\\
125.13760175550846	1926408.4983489213\\
125.77968664773998	1942473.863939311\\
126.4217715399715	1958846.706690916\\
127.06385643220302	1975318.180884659\\
127.70594132443455	1991888.7874608287\\
128.34802621666609	2008559.0273597164\\
128.99011110889762	2025329.4015216108\\
129.63219600112916	2042827.7403939937\\
130.2742808933607	2060623.9678057584\\
130.91636578559223	2078534.001342327\\
131.55845067782377	2096558.4019217326\\
132.2005355700553	2114697.730462008\\
132.84262046228685	2132952.5478811874\\
133.48470535451838	2151500.3077740083\\
134.12679024674992	2170804.890610655\\
134.76887513898146	2190238.395794683\\
135.410960031213	2209801.4404965416\\
136.05304492344453	2229494.6418866827\\
136.69512981567607	2249318.617135556\\
137.3372147079076	2269273.983413611\\
137.97929960013914	2289361.357891299\\
138.62138449237068	2310379.4710856876\\
139.26346938460222	2331558.1783999847\\
139.90555427683375	2352882.1381633724\\
140.5476391690653	2374352.020073392\\
141.18972406129683	2395968.4938275865\\
141.83180895352837	2417732.2291234965\\
142.4738938457599	2439643.8956586644\\
143.11597873799144	2461704.1631306335\\
143.75806363022298	2484669.084869418\\
144.40014852245451	2507852.8518607398\\
145.04223341468605	2531198.204038112\\
145.6843183069176	2554705.859900843\\
146.32640319914915	2578376.537948242\\
};

\addplot [
color=black,
densely dotted
]
table[row sep=crcr]{
74.02279331486532	1689900.3874127984\\
74.75313280864597	1696782.4483008692\\
75.48347230242662	1703573.9605348883\\
76.21381179620727	1710288.0173085856\\
76.94415128998791	1716913.6935700893\\
77.67449078376856	1723404.9626579199\\
78.40483027754921	1729767.3339632228\\
79.13516977132986	1736008.7798185623\\
79.8655092651105	1742137.5096158173\\
80.59584875889115	1748161.9698061827\\
81.3261882526718	1754090.8439001688\\
82.05652774645245	1759933.0524676023\\
82.7868672402331	1765697.753137623\\
83.51720673401374	1771394.3405986885\\
84.24754622779439	1777032.44659857\\
84.97788572157503	1782621.9399443571\\
85.70822521535568	1788172.9265024518\\
86.43856470913633	1793695.749198573\\
87.16890420291698	1799200.9880177546\\
87.89924369669762	1804684.0711975773\\
88.62958319047827	1810123.1811971993\\
89.35992268425892	1815522.1728186181\\
90.09026217803957	1820885.6186125763\\
90.82060167182021	1826218.1460884956\\
91.55094116560086	1831524.43771448\\
92.28128065938151	1836809.2309173064\\
93.01162015316216	1842077.318082433\\
93.7419596469428	1847333.5465539973\\
94.47229914072345	1852582.8186348141\\
95.2026386345041	1857830.0915863765\\
95.93297812828474	1863080.3776288573\\
96.66331762206539	1868338.743941108\\
97.39365711584604	1873610.3126606569\\
98.12399660962669	1878900.2608837124\\
98.85433610340733	1884239.4112830923\\
99.58467559718798	1889662.7655116462\\
100.31501509096863	1895159.1537132617\\
101.04535458474928	1900716.4478154958\\
101.77569407852992	1906322.044283882\\
102.50603357231057	1911962.8641219318\\
103.23637306609122	1917625.3528711302\\
103.96671255987187	1923295.4806109432\\
104.69705205365251	1928958.7419588107\\
105.42739154743316	1934600.15607015\\
106.15773104121381	1940204.2666383565\\
106.88807053499445	1945755.1418948013\\
107.6184100287751	1951236.374608831\\
108.34874952255575	1956631.0820877717\\
109.0790890163364	1961921.906176924\\
109.80942851011704	1967136.767129883\\
110.53976800389769	1972325.9595037808\\
111.27010749767834	1977489.3934877065\\
112.00044699145899	1982626.7691614663\\
112.73078648523963	1987737.7384349683\\
113.46112597902028	1992821.905048224\\
114.19146547280093	1997878.8245713462\\
114.92180496658158	2002908.0044045504\\
115.65214446036222	2007908.9037781544\\
116.38248395414287	2012880.9337525768\\
117.11282344792352	2017823.4572183408\\
117.84316294170416	2022735.7888960682\\
118.57350243548481	2027617.1953364864\\
119.30384192926546	2032466.8949204232\\
120.0341814230461	2037284.05787013\\
120.76452091682675	2042077.771073354\\
121.4948604106074	2046857.2639032728\\
122.22519990438805	2051621.911260557\\
122.9555393981687	2056371.0396017286\\
123.68587889194934	2061103.9269391585\\
124.41621838572999	2065819.8028410694\\
125.14655787951064	2070517.848431534\\
125.87689737329129	2075197.1963904744\\
126.60723686707193	2079856.9309536638\\
127.33757636085258	2084496.0879127276\\
128.0679158546332	2089113.6546151384\\
128.79825534841385	2093708.5699642214\\
129.52859484219448	2098279.724419151\\
130.2589343359751	2102825.959994954\\
130.98927382975575	2107346.077971234\\
131.71961332353638	2111841.886135096\\
132.449952817317	2116317.0665209657\\
133.18029231109765	2120773.953854779\\
133.91063180487828	2125214.91237205\\
134.6409712986589	2129642.335817871\\
135.37131079243954	2134058.64744691\\
136.10165028622018	2138466.3000234114\\
136.8319897800008	2142867.775821198\\
137.56232927378144	2147265.586623668\\
138.29266876756208	2151662.273723798\\
139.0230082613427	2156060.4079241403\\
139.75334775512334	2160462.5895368247\\
140.48368724890398	2164871.448383558\\
141.2140267426846	2169289.6437956234\\
141.94436623646524	2173720.537860689\\
142.67470573024588	2178220.2546986947\\
143.4050452240265	2182810.3022694\\
144.13538471780714	2187471.99447403\\
144.86572421158778	2192186.2173161926\\
145.5960637053684	2196933.4289018726\\
146.32640319914915	2201693.6594394413\\
};
\end{axis}
\end{tikzpicture}%
