%Power_needed_and_available_altitudes_PHI_0.95
\begin{tikzpicture}

\begin{axis}[
width=\figurewidth,
height=\figureheight,
scaled ticks=false, tick label style={/pgf/number format/fixed},
xmin=59.21372732324278,
xmax=142.9234635898666,
xlabel={Speed ((m/s))},
xmajorgrids,
ymin=940284.5393669083,
ymax=3747200.4883420216,
ylabel={Powers ((W))},
ymajorgrids,
legend style={at={(1.03,0.5)},anchor=west,draw=black,fill=white,legend cell align=left}
]

\addplot [
color=black,
solid
]
table[row sep=crcr]{
59.21372732324278	940284.5393669083\\
60.05928021482484	941156.5702821614\\
60.9048331064069	942663.9638695027\\
61.75038599798896	944725.6156452254\\
62.595938889571016	947331.1743530729\\
63.441491781153076	950524.3875319483\\
64.28704467273514	954305.8445017786\\
65.1325975643172	958634.3690861262\\
65.97815045589925	963486.8699193626\\
66.82370334748131	968835.017517822\\
67.66925623906337	974645.0863993913\\
68.51480913064543	981128.925686005\\
69.36036202222749	988170.5922578748\\
70.20591491380955	995608.8976336202\\
71.05146780539161	1003587.2346416487\\
71.89702069697367	1012247.3786642108\\
72.74257358855573	1021204.5069450486\\
73.58812648013779	1030878.0829622672\\
74.43367937171985	1040999.619351988\\
75.2792322633019	1051567.073157514\\
76.12478515488397	1062825.31966202\\
76.97033804646603	1074360.368798702\\
77.81589093804808	1086710.2363798092\\
78.66144382963014	1099282.683310313\\
79.5069967212122	1112660.80775544\\
80.35254961279426	1126336.160949261\\
81.19810250437632	1140660.0187411231\\
82.04365539595838	1155499.1137615931\\
82.88920828754044	1170666.137947894\\
83.7347611791225	1186724.7585391963\\
84.58031407070456	1202908.7218008034\\
85.42586696228662	1219939.9537764972\\
86.27141985386868	1237426.7926743794\\
87.11697274545074	1255073.5385567509\\
87.9625256370328	1273877.7740990787\\
88.80807852861486	1292904.3809432706\\
89.65363142019692	1312125.73555815\\
90.49918431177898	1332569.512070107\\
91.34473720336103	1353240.5123965186\\
92.1902900949431	1374140.8595372196\\
93.03584298652515	1396046.3998811978\\
93.88139587810721	1418458.6425676944\\
94.72694876968927	1441134.8233993542\\
95.57250166127133	1464276.725989987\\
96.41805455285339	1488518.4307021624\\
97.26360744443545	1513058.389711197\\
98.10916033601751	1537899.2186038112\\
98.95471322759957	1563311.4769859524\\
99.80026611918163	1589793.5347999102\\
100.64581901076369	1616610.5839889743\\
101.49137190234575	1643765.462751247\\
102.3369247939278	1671261.009284831\\
103.18247768550987	1700009.599155974\\
104.02803057709193	1729241.720440095\\
104.87358346867398	1758848.4694817713\\
105.71913636025604	1788832.8913024457\\
106.5646892518381	1819198.0309235593\\
107.41024214342016	1850952.8543079596\\
108.25579503500222	1883136.1969878695\\
109.10134792658428	1915733.850704646\\
109.94690081816634	1948749.0515150297\\
110.7924537097484	1982185.0354757612\\
111.63800660133046	2016479.543668022\\
112.48355949291252	2051799.9837305453\\
113.32911238449458	2087574.2281854905\\
114.17466527607664	2123805.6883368553\\
115.0202181676587	2160497.7754886374\\
115.86577105924076	2197653.900944835\\
116.71132395082282	2235344.4701138968\\
117.55687684240488	2274463.1044044783\\
118.40242973398693	2314078.1804618756\\
119.247982625569	2354193.2690493045\\
120.09353551715105	2394811.9409299768\\
120.93908840873311	2435937.7668671086\\
121.78464130031517	2477574.317623915\\
122.63019419189723	2519725.16396361\\
123.47574708347929	2563090.0647332706\\
124.32129997506135	2607316.741540877\\
125.16685286664341	2652089.5501358313\\
126.01240575822547	2697412.2049525226\\
126.85795864980753	2743288.42042534\\
127.70351154138959	2789721.910988673\\
128.54906443297165	2836716.391076912\\
129.3946173245537	2884275.575124446\\
130.24017021613577	2932403.177565665\\
131.08572310771783	2982095.9772944837\\
131.93127599929988	3032412.421518641\\
132.77682889088194	3083328.3809933513\\
133.622381782464	3134847.698036137\\
134.46793467404606	3186974.214964524\\
135.31348756562812	3239711.774096033\\
136.15904045721018	3293064.21774819\\
137.00459334879224	3347035.3882385166\\
137.8501462403743	3401629.127884535\\
138.69569913195636	3456849.279003771\\
139.54125202353842	3513187.950342587\\
140.38680491512048	3570702.3061367474\\
141.23235780670254	3628873.211459631\\
142.0779106982846	3687704.6207238506\\
142.9234635898666	3747200.4883420216\\
};

\addplot [
color=black,
densely dashed
]
table[row sep=crcr]{
63.71272604484442	1011726.4014449437\\
64.51283450489515	1012569.9224058066\\
65.31294296494588	1013905.4538036119\\
66.1130514249966	1015720.8083933659\\
66.91315988504732	1017999.8776123874\\
67.71326834509804	1020722.5160369575\\
68.51337680514877	1023864.4258389814\\
69.31348526519949	1027423.2878792299\\
70.11359372525021	1031636.4501565116\\
70.91370218530093	1036226.1489787697\\
71.71381064535166	1041153.0112043143\\
72.51391910540238	1046605.0201752977\\
73.3140275654531	1052585.2883968828\\
74.11413602550383	1058822.2410407308\\
74.91424448555455	1065660.943335692\\
75.71435294560527	1072910.4623950028\\
76.514461405656	1080442.2096645809\\
77.31456986570672	1088687.117557673\\
78.11467832575744	1097015.4784800299\\
78.91478678580816	1106185.643713364\\
79.71489524585888	1115404.1427578635\\
80.5150037059096	1125422.517177429\\
81.31511216596033	1135475.250383762\\
82.11522062601105	1146396.329049217\\
82.91532908606177	1157310.0186827644\\
83.7154375461125	1169086.860865332\\
84.51554600616322	1180981.8626903475\\
85.31565446621394	1193454.1602528947\\
86.11576292626467	1206377.1887391359\\
86.91587138631539	1219437.6165828083\\
87.71597984636611	1233431.0928327763\\
88.51608830641683	1247500.6584794505\\
89.31619676646756	1262056.8110679374\\
90.11630522651828	1277261.9882343952\\
90.916413686569	1292571.4944201421\\
91.71652214661972	1308518.2024779248\\
92.51663060667045	1325023.0887483638\\
93.31673906672117	1341660.6010844253\\
94.11684752677189	1358858.0752689743\\
94.91695598682261	1376744.8211184507\\
95.71706444687334	1394792.4435146248\\
96.51717290692406	1413064.4026142573\\
97.31728136697478	1432408.6768713405\\
98.1173898270255	1451941.927601932\\
98.91749828707623	1471665.7085041313\\
99.71760674712695	1491944.0926463944\\
100.51771520717767	1513031.2804161662\\
101.3178236672284	1534337.029765864\\
102.11793212727912	1555863.080418369\\
102.91804058732984	1577926.9305355349\\
103.71814904738056	1600874.7534472893\\
104.51825750743129	1624070.7134539995\\
105.31836596748201	1647516.7247489933\\
106.11847442753273	1671214.7015256\\
106.91858288758345	1695994.7559569872\\
107.71869134763418	1721189.2477424452\\
108.5187998076849	1746663.3810039312\\
109.31890826773562	1772419.232850886\\
110.11901672778635	1798458.8803927498\\
110.91912518783707	1825637.1901657584\\
111.71923364788779	1853236.9679334715\\
112.51934210793851	1881147.9073864312\\
113.31945056798924	1909372.2369958581\\
114.11955902803996	1937912.1852329702\\
114.91966748809068	1967061.1887563646\\
115.7197759481414	1997212.5416986246\\
116.51988440819213	2027706.4190484849\\
117.31999286824285	2058545.1890846095\\
118.12010132829357	2089731.220085661\\
118.9202097883443	2121266.8803303028\\
119.72031824839502	2153154.538097198\\
120.52042670844574	2186350.1016458143\\
121.32053516849646	2219934.8670764426\\
122.12064362854719	2253898.1818986917\\
122.92075208859791	2288242.5426443354\\
123.72086054864863	2322970.4458451457\\
124.52096900869935	2358084.3880328964\\
125.32107746875008	2393586.86573936\\
126.1211859288008	2430206.417610621\\
126.92129438885152	2467473.8269730625\\
127.72140284890224	2505155.7733893553\\
128.52151130895297	2543254.870090047\\
129.3216197690037	2581773.7303056875\\
130.1217282290544	2620714.967266825\\
130.92183668910513	2660081.194204009\\
131.72194514915586	2699875.024347788\\
132.52205360920658	2740442.880022751\\
133.3221620692573	2782072.0446259193\\
134.12227052930803	2824154.1723573506\\
134.92237898935875	2866691.981592034\\
135.72248744940947	2909688.1907049604\\
136.5225959094602	2953145.51807112\\
137.32270436951092	2997066.682065503\\
138.12281282956164	3041454.401063099\\
138.92292128961236	3086311.3934388985\\
139.72302974966308	3131640.3775678924\\
140.5231382097138	3177879.238946492\\
141.32324666976453	3225133.365163469\\
142.12335512981525	3272884.169089702\\
142.9234635898666	3321134.462690327\\
};

\addplot [
color=black,
dashdotted
]
table[row sep=crcr]{
68.7302275517858	1091401.8298717446\\
69.47965417843308	1092205.1437238941\\
70.22908080508036	1093377.2714281862\\
70.97850743172764	1094895.097196239\\
71.72793405837491	1096732.1448104407\\
72.47736068502219	1099044.7726160737\\
73.22678731166947	1101790.7415379258\\
73.97621393831675	1104806.239987923\\
74.72564056496402	1108136.411323338\\
75.4750671916113	1112052.7755483733\\
76.22449381825858	1116167.9486421898\\
76.97392044490586	1120659.8184022007\\
77.72334707155314	1125638.8813671663\\
78.47277369820041	1130723.6089932818\\
79.22220032484769	1136506.1139148013\\
79.97162695149497	1142386.705610567\\
80.72105357814225	1148797.979098508\\
81.47048020478952	1155441.095300094\\
82.2199068314368	1162529.8379792229\\
82.96933345808408	1169891.0607925195\\
83.71876008473136	1177703.4271370266\\
84.46818671137864	1185726.8034277796\\
85.21761333802591	1194306.2059427665\\
85.96703996467319	1202923.790426714\\
86.71646659132047	1212310.7038296787\\
87.46589321796775	1221668.98179941\\
88.21531984461502	1231673.86756501\\
88.9647464712623	1241899.6485039277\\
89.71417309790958	1252336.4085216415\\
90.46359972455686	1263463.5139243742\\
91.21302635120414	1274607.2332761616\\
91.96245297785141	1286280.827113113\\
92.71187960449869	1298378.520172738\\
93.46130623114597	1310515.5470795564\\
94.21073285779325	1323331.9482404229\\
94.96015948444052	1336471.407718956\\
95.7095861110878	1349672.9689965548\\
96.45901273773508	1363511.3305811961\\
97.20843936438236	1377759.2257545295\\
97.95786599102964	1392091.965300593\\
98.70729261767691	1406803.298229083\\
99.45671924432419	1422221.3482953298\\
100.20614587097147	1437746.8864978207\\
100.95557249761875	1453380.7227815443\\
101.70499912426602	1469797.2712233253\\
102.4544257509133	1486571.7643688302\\
103.20385237756058	1503477.174796783\\
103.95327900420786	1520514.4601319684\\
104.70270563085514	1538458.1090103777\\
105.45213225750241	1556685.0913429745\\
106.20155888414969	1575066.4534715693\\
106.95098551079697	1593603.2925416376\\
107.70041213744425	1612844.8391581373\\
108.44983876409152	1632613.5216997392\\
109.1992653907388	1652559.982008978\\
109.94869201738608	1672685.448592916\\
110.69811864403336	1692991.149958613\\
111.44754527068064	1714333.706034775\\
112.19697189732791	1735926.6947354304\\
112.94639852397519	1757722.0484337362\\
113.69582515062247	1779721.1188392357\\
114.44525177726975	1801925.2576614711\\
115.19467840391702	1825053.9789899448\\
115.9441050305643	1848591.8819505768\\
116.69353165721158	1872356.7068652026\\
117.44295828385886	1896349.9204867405\\
118.19238491050614	1920572.9895681096\\
118.94181153715341	1945086.186941438\\
119.69123816380069	1970679.6731986622\\
120.44066479044797	1996524.4857059803\\
121.19009141709525	2022622.1981005836\\
121.93951804374252	2048974.3840196617\\
122.6889446703898	2075582.6171004064\\
123.43837129703708	2102448.470980009\\
124.18779792368436	2130150.82663242\\
124.93722455033163	2158451.9856539546\\
125.68665117697891	2187031.9448995865\\
126.43607780362619	2215892.3767316747\\
127.18550443027347	2245034.9535125755\\
127.93493105692075	2274461.3476046487\\
128.68435768356804	2304173.231370251\\
129.43378431021532	2334500.4427527715\\
130.1832109368626	2365698.55395891\\
130.93263756350987	2397202.9041940165\\
131.68206419015715	2429015.25638651\\
132.43149081680443	2461137.3734648107\\
133.1809174434517	2493571.0183573407\\
133.93034407009898	2526317.953992519\\
134.67977069674626	2559379.943298767\\
135.42919732339354	2592789.41618378\\
136.17862395004082	2627391.465143336\\
136.9280505766881	2662328.830761773\\
137.67747720333537	2697603.3583744713\\
138.42690382998265	2733216.8933168063\\
139.17633045662993	2769171.2809241577\\
139.9257570832772	2805468.366531903\\
140.67518370992448	2842109.9954754203\\
141.42461033657176	2879098.0130900885\\
142.17403696321904	2916434.264711284\\
142.9234635898666	2954449.393387716\\
};

\addplot [
color=black,
dashed
]
table[row sep=crcr]{
74.34798788217375	1180609.0698702831\\
75.04066945497873	1181358.9977914873\\
75.7333510277837	1182325.4324361845\\
76.42603260058867	1183476.5384318754\\
77.11871417339364	1185200.4419152958\\
77.81139574619861	1187086.4302844135\\
78.50407731900358	1189171.627421137\\
79.19675889180856	1191789.786783915\\
79.88944046461353	1194492.229268102\\
80.5821220374185	1197622.0787604724\\
81.27480361022347	1201005.092786002\\
81.96748518302844	1204609.765269646\\
82.66016675583342	1208649.7004504423\\
83.35284832863839	1212769.8531358214\\
84.04552990144336	1217434.971176989\\
84.73821147424833	1222109.4564955675\\
85.4308930470533	1227359.622873742\\
86.12357461985827	1232625.3563409913\\
86.81625619266325	1238411.7319846903\\
87.50893776546822	1244303.5600630979\\
88.20161933827319	1250568.2930330688\\
88.89430091107816	1257118.8609951448\\
89.58698248388313	1263794.778164716\\
90.2796640566881	1271034.3979560006\\
90.97234562949308	1278215.5127429878\\
91.66502720229805	1286001.2147935003\\
92.35770877510302	1293917.3463172924\\
93.05039034790799	1301957.8199278049\\
93.74307192071296	1310634.0522635104\\
94.43575349351794	1319287.6846470204\\
95.12843506632291	1328288.4003452878\\
95.82111663912788	1337742.3433119357\\
96.51379821193285	1347191.5404878384\\
97.20647978473782	1357063.0554121064\\
97.8991613575428	1367349.5324556057\\
98.59184293034777	1377649.1358538046\\
99.28452450315274	1388281.6051431934\\
99.97720607595771	1399451.9694498207\\
100.66988764876268	1410653.3006892172\\
101.36256922156765	1421915.5855590156\\
102.05525079437263	1434017.4227471813\\
102.7479323671776	1446167.9863274365\\
103.44061393998257	1458367.6070213625\\
104.13329551278754	1470983.592956418\\
104.82597708559251	1484126.778949722\\
105.51865865839748	1497336.7615106262\\
106.21134023120246	1510613.9820254438\\
106.90402180400743	1524431.413044057\\
107.5967033768124	1538690.550081221\\
108.28938494961737	1553034.5839580502\\
108.98206652242234	1567464.0612198808\\
109.67474809522732	1582292.610391375\\
110.36742966803229	1597737.250859902\\
111.06011124083726	1613284.8524682163\\
111.75279281364223	1628936.0614149694\\
112.4454743864472	1644691.5238988118\\
113.13815595925217	1661239.5107386624\\
113.83083753205715	1678054.5520263328\\
114.52351910486212	1694991.2570597315\\
115.21620067766709	1712050.3661851173\\
115.90888225047206	1729232.6197487486\\
116.60156382327703	1747250.730151166\\
117.294245396082	1765530.4565887786\\
117.98692696888698	1783950.5585529227\\
118.67960854169195	1802511.865031757\\
119.37229011449692	1821215.20501344\\
120.06497168730189	1840390.4787691627\\
120.75765326010686	1860222.0860686577\\
121.45033483291184	1880212.7072647302\\
122.1430164057168	1900363.2544817296\\
122.83569797852178	1920674.6398440069\\
123.52837955132675	1941147.7754759109\\
124.22106112413172	1962089.6613283295\\
124.9137426969367	1983729.9269968285\\
125.60642426974167	2005548.6786904053\\
126.29910584254664	2027546.9061638939\\
126.99178741535161	2049725.5991721267\\
127.68446898815658	2072085.747469938\\
128.37715056096155	2094628.3408121606\\
129.06983213376654	2117906.847306639\\
129.76251370657153	2141661.7255338253\\
130.4551952793765	2165615.529461751\\
131.1478768521815	2189769.3209700254\\
131.84055842498648	2214124.1619382547\\
132.53323999779147	2238681.1142460494\\
133.22592157059646	2263441.2397730174\\
133.91860314340144	2288524.24887778\\
134.61128471620643	2314530.9974194705\\
135.3039662890114	2340757.0511405016\\
135.9966478618164	2367203.5385395507\\
136.68932943462138	2393871.5881152926\\
137.38201100742637	2420762.3283664044\\
138.07469258023136	2447876.88779156\\
138.76737415303634	2475216.394889437\\
139.46005572584133	2502781.978158711\\
140.15273729864631	2531097.9833191168\\
140.8454188714513	2559961.853885391\\
141.5381004442563	2589067.612516752\\
142.23078201706127	2618416.448825234\\
142.9234635898666	2648009.552422889\\
};

\addplot [
color=black,
densely dashdotted
]
table[row sep=crcr]{
80.66440104686652	1280910.5693957643\\
81.29328046649277	1281592.1453499864\\
81.92215988611903	1282304.7268737063\\
82.55103930574529	1283443.9468281358\\
83.17991872537155	1284700.8437514151\\
83.80879814499781	1286207.4214252804\\
84.43767756462407	1287987.7468401254\\
85.06655698425033	1289893.293600882\\
85.69543640387658	1292170.358005426\\
86.32431582350284	1294505.1922535629\\
86.9531952431291	1297246.3075425944\\
87.58207466275536	1300039.3707075727\\
88.21095408238162	1303205.6541630605\\
88.83983350200788	1306484.4266992547\\
89.46871292163414	1310030.604980878\\
90.0975923412604	1313821.0223635144\\
90.72647176088665	1317695.2354991876\\
91.35535118051291	1322021.6042202867\\
91.98423060013917	1326248.3500555877\\
92.61311001976543	1331050.1231610016\\
93.24198943939169	1335849.5575708672\\
93.87086885901795	1340861.754435054\\
94.4997482786442	1346254.5728939474\\
95.12862769827046	1351575.4763086408\\
95.75750711789672	1357407.613622253\\
96.38638653752298	1363354.7135711964\\
97.01526595714924	1369243.5372557184\\
97.6441453767755	1375833.4350996788\\
98.27302479640176	1382379.0835754727\\
98.90190421602802	1388934.6481261184\\
99.53078363565427	1396151.5202817423\\
100.15966305528053	1403337.68575338\\
100.78854247490679	1410492.9505226498\\
101.41742189453305	1418354.8790101947\\
102.04630131415931	1426221.0423697275\\
102.67518073378557	1434069.9788061222\\
103.30406015341183	1442416.2845084555\\
103.93293957303808	1450999.2500618582\\
104.56181899266434	1459578.6111347922\\
105.1906984122906	1468287.328335938\\
105.81957783191686	1477621.0347939755\\
106.44845725154312	1486964.6763761295\\
107.07733667116938	1496318.3121262481\\
107.70621609079564	1506012.806811469\\
108.3350955104219	1516151.4986696555\\
108.96397493004815	1526313.6873145257\\
109.59285434967441	1536499.5091436647\\
110.22173376930067	1547038.952381274\\
110.85061318892693	1558037.039231408\\
111.47949260855319	1569072.1863968016\\
112.10837202817945	1580144.6041286108\\
112.7372514478057	1591360.3517978436\\
113.36613086743196	1603268.4896413556\\
113.99501028705822	1615227.2111926835\\
114.62388970668448	1627236.7970563844\\
115.25276912631074	1639297.5278370136\\
115.881648545937	1651795.913019574\\
116.51052796556326	1664724.6932136132\\
117.13940738518951	1677717.8458277623\\
117.76828680481577	1690775.7183198093\\
118.39716622444203	1703898.6581475402\\
119.02604564406829	1717467.2178044776\\
119.65492506369455	1731485.826160727\\
120.28380448332081	1745582.5982154256\\
120.91268390294707	1759757.9447794214\\
121.54156332257332	1774012.276663563\\
122.17044274219958	1788392.8914822114\\
122.79932216182584	1803565.4333056214\\
123.4282015814521	1818829.8801693243\\
124.05708100107836	1834186.7027370625\\
124.68596042070462	1849636.3716725765\\
125.31483984033088	1865179.357639608\\
125.94371925995713	1880907.9660200118\\
126.5725986795834	1897398.485026529\\
127.20147809920965	1913995.0749926192\\
127.83035751883591	1930698.262934746\\
128.45923693846217	1947508.5758693751\\
129.08811635808843	1964426.5408129708\\
129.7169957777147	1981452.684781998\\
130.34587519734094	1999041.6256325739\\
130.9747546169672	2017050.2264714593\\
131.60363403659346	2035179.5948217555\\
132.23251345621972	2053430.3105524823\\
132.86139287584598	2071802.9535326571\\
133.49027229547224	2090298.1036313006\\
134.1191517150985	2108916.3407174316\\
134.74803113472476	2127958.405974905\\
135.376910554351	2147586.5139030437\\
136.00578997397727	2167350.0723596974\\
136.63466939360353	2187249.7105662706\\
137.2635488132298	2207286.0577441677\\
137.89242823285605	2227459.743114793\\
138.5213076524823	2247771.39589955\\
139.15018707210857	2268221.645319844\\
139.77906649173482	2289101.5410185712\\
140.40794591136108	2310592.3537346255\\
141.03682533098734	2332233.888031633\\
141.6657047506136	2354026.8189832144\\
142.29458417023986	2375971.82166299\\
142.9234635898666	2398069.5711445953\\
};

\addplot [
color=black,
densely dotted
]
table[row sep=crcr]{
59.21372732324278	2304672.4040936767\\
60.05928021482484	2329904.4956060485\\
60.9048331064069	2349213.277489293\\
61.75038599798896	2363453.3516838723\\
62.595938889571016	2373539.147981652\\
63.441491781153076	2380444.9240258983\\
64.28704467273514	2385204.7653112765\\
65.1325975643172	2388912.585183854\\
65.97815045589925	2392722.1248411\\
66.82370334748131	2397846.953331882\\
67.66925623906337	2405560.467556468\\
68.51480913064543	2417195.89226653\\
69.36036202222749	2434146.280065138\\
70.20591491380955	2457864.511406763\\
71.05146780539161	2485070.8732323004\\
71.89702069697367	2505774.8783477973\\
72.74257358855573	2520413.074285228\\
73.58812648013779	2529926.1825343063\\
74.43367937171985	2535307.549050327\\
75.2792322633019	2537603.1442541624\\
76.12478515488397	2537911.563032265\\
76.97033804646603	2537384.024736667\\
77.81589093804808	2537224.3731849794\\
78.66144382963014	2538689.0766603937\\
79.5069967212122	2543087.227911679\\
80.35254961279426	2551780.544153186\\
81.19810250437632	2566183.367064842\\
82.04365539595838	2587762.662792158\\
82.88920828754044	2611400.370351276\\
83.7347611791225	2628114.1853914866\\
84.58031407070456	2638748.3488120344\\
85.42586696228662	2644301.7536488846\\
86.27141985386868	2645819.822550851\\
87.11697274545074	2644394.5077795917\\
87.9625256370328	2641164.2912096106\\
88.80807852861486	2637314.18432826\\
89.65363142019692	2634075.7282357346\\
90.49918431177898	2632726.9936450818\\
91.34473720336103	2634592.580882187\\
92.1902900949431	2641043.6198857864\\
93.03584298652515	2653497.770207462\\
93.88139587810721	2673418.608822478\\
94.72694876968927	2693628.509206596\\
95.57250166127133	2706875.494678753\\
96.41805455285339	2714149.3547766767\\
97.26360744443545	2716481.017980346\\
98.10916033601751	2714942.5517119947\\
98.95471322759957	2710647.1623361064\\
99.80026611918163	2704749.195159424\\
100.64581901076369	2698444.134430937\\
101.49137190234575	2692968.60334189\\
102.3369247939278	2689600.364025782\\
103.18247768550987	2689658.317558362\\
104.02803057709193	2694502.503957635\\
104.87358346867398	2705534.1021838565\\
105.71913636025604	2724051.3768614326\\
106.5646892518381	2741097.6248043096\\
107.41024214342016	2751359.7982237977\\
108.25579503500222	2755843.666426504\\
109.10134792658428	2755591.3718362837\\
109.94690081816634	2751681.4299942423\\
110.7924537097484	2745228.729558733\\
111.63800660133046	2737384.532305358\\
112.48355949291252	2729336.4731269707\\
113.32911238449458	2722308.56003367\\
114.17466527607664	2717561.174152807\\
115.0202181676587	2716391.069728981\\
115.86577105924076	2720131.374124038\\
116.71132395082282	2730151.587817077\\
117.55687684240488	2747330.513412642\\
118.40242973398693	2761647.9230047674\\
119.247982625569	2769528.075455674\\
120.09353551715105	2771962.156406121\\
120.93908840873311	2769973.076321313\\
121.78464130031517	2764615.470490901\\
122.63019419189723	2756975.6990289763\\
123.47574708347929	2748171.846874081\\
124.32129997506135	2739353.7237891993\\
125.16685286664341	2731702.864361759\\
126.01240575822547	2726432.528003634\\
126.85795864980753	2724787.698951143\\
127.70351154138959	2728045.0862650517\\
128.54906443297165	2737513.1238305666\\
129.3946173245537	2753398.2864138708\\
130.24017021613577	2765132.4825331923\\
131.08572310771783	2770583.9201567634\\
131.93127599929988	2770754.517197575\\
132.77682889088194	2766674.9533930207\\
133.622381782464	2759404.6703048935\\
134.46793467404606	2750031.871319388\\
135.31348756562812	2739673.521647095\\
136.15904045721018	2729475.348323013\\
137.00459334879224	2720611.840206533\\
137.8501462403743	2714286.2479814496\\
138.69569913195636	2711730.5841559595\\
139.54125202353842	2714205.6230626553\\
140.38680491512048	2723000.9008585345\\
141.23235780670254	2737431.2698858944\\
142.0779106982846	2746588.1276199883\\
142.9234635898666	2749459.6753472267\\
};

\addplot [
color=black,
dashdotdotted
]
table[row sep=crcr]{
63.71272604484442	2250672.8554217075\\
64.51283450489515	2262750.2680494045\\
65.31294296494588	2274530.474708809\\
66.1130514249966	2286106.27633162\\
66.91315988504732	2297574.7806493784\\
67.71326834509804	2309037.4021934657\\
68.51337680514877	2320599.862295102\\
69.31348526519949	2332368.7078410634\\
70.11359372525021	2344199.5464706584\\
70.91370218530093	2355959.9737518053\\
71.71381064535166	2367641.762828415\\
72.51391910540238	2379235.9057252556\\
73.3140275654531	2390732.6133479583\\
74.11413602550383	2402121.315483008\\
74.91424448555455	2413390.6607977534\\
75.71435294560527	2424528.5168404\\
76.514461405656	2435521.9700400126\\
77.31456986570672	2446357.3257065145\\
78.11467832575744	2457020.1080306894\\
78.91478678580816	2467495.060084181\\
79.71489524585888	2477766.1438194886\\
80.5150037059096	2487816.5400699736\\
81.31511216596033	2497674.4248744147\\
82.11522062601105	2507448.837042522\\
82.91532908606177	2517135.013678415\\
83.7154375461125	2526720.711694924\\
84.51554600616322	2536192.998373407\\
85.31565446621394	2545538.251363752\\
86.11576292626467	2554742.15868438\\
86.91587138631539	2563789.718722239\\
87.71597984636611	2572665.2402328113\\
88.51608830641683	2581352.3423401047\\
89.31619676646756	2589833.9545366624\\
90.11630522651828	2598092.316683554\\
90.916413686569	2606108.979010383\\
91.71652214661972	2613864.80211528\\
92.51663060667045	2621347.266304471\\
93.31673906672117	2628650.856020587\\
94.11684752677189	2635802.236631017\\
94.91695598682261	2642790.4461643323\\
95.71706444687334	2649604.0573197715\\
96.51717290692406	2656231.177467234\\
97.31728136697478	2662659.4486472844\\
98.1173898270255	2668876.047571151\\
98.91749828707623	2674867.685620727\\
99.71760674712695	2680620.608848565\\
100.51771520717767	2686120.5979778864\\
101.3178236672284	2691352.9684025734\\
102.11793212727912	2696302.570187173\\
102.91804058732984	2700953.7880668943\\
103.71814904738056	2705290.5414476134\\
104.51825750743129	2709267.450350902\\
105.31836596748201	2712851.461079828\\
106.11847442753273	2716071.9902754244\\
106.91858288758345	2718959.9920159304\\
107.71869134763418	2721547.4165506633\\
108.5187998076849	2723867.210300016\\
109.31890826773562	2725953.315855461\\
110.11901672778635	2727840.671979544\\
110.91912518783707	2729565.21360589\\
111.71923364788779	2731163.8718392006\\
112.51934210793851	2732674.573955256\\
113.31945056798924	2734136.243400911\\
114.11955902803996	2735588.799794099\\
114.91966748809068	2737073.1589238266\\
115.7197759481414	2738614.7352163284\\
116.51988440819213	2740129.1809705365\\
117.31999286824285	2741594.5953120766\\
118.12010132829357	2743007.118694729\\
118.9202097883443	2744362.681552525\\
119.72031824839502	2745657.0042997464\\
120.52042670844574	2746885.597330927\\
121.32053516849646	2748043.76102085\\
122.12064362854719	2749126.5857245517\\
122.92075208859791	2750128.951777317\\
123.72086054864863	2751045.529494684\\
124.52096900869935	2751870.77917244\\
125.32107746875008	2752598.951086625\\
126.1211859288008	2753224.0854935287\\
126.92129438885152	2753740.1241756505\\
127.72140284890224	2754178.245236141\\
128.52151130895297	2754564.27712499\\
129.3216197690037	2754894.8177214116\\
130.1217282290544	2755166.306794841\\
130.92183668910513	2755375.0260049254\\
131.72194514915586	2755517.0989015293\\
132.52205360920658	2755588.4909247304\\
133.3221620692573	2755585.0094048236\\
134.12227052930803	2755502.303562319\\
134.92237898935875	2755335.864507941\\
135.72248744940947	2755081.0252426295\\
136.5225959094602	2754732.960657542\\
137.32270436951092	2754286.6875340496\\
138.12281282956164	2753737.0645437366\\
138.92292128961236	2753100.370275661\\
139.72302974966308	2752444.158434435\\
140.5231382097138	2751762.0898861983\\
141.32324666976453	2751040.600623948\\
142.12335512981525	2750265.756315818\\
142.9234635898666	2749423.252305087\\
};

\addplot [
color=black,
densely dashdotdetted
]
table[row sep=crcr]{
68.7302275517858	2062951.8400829295\\
69.47965417843308	2072992.1634120024\\
70.22908080508036	2082824.644468921\\
70.97850743172764	2092459.9239191026\\
71.72793405837491	2101909.0095943687\\
72.47736068502219	2111183.276492952\\
73.22678731166947	2120294.46677949\\
73.97621393831675	2129254.689785027\\
74.72564056496402	2138076.4220070173\\
75.4750671916113	2146772.507109321\\
76.22449381825858	2155356.155922206\\
76.97392044490586	2163840.946442347\\
77.72334707155314	2172240.823832827\\
78.47277369820041	2180570.1004231363\\
79.22220032484769	2188843.455709172\\
79.97162695149497	2197073.3913810467\\
80.72105357814225	2205259.688494409\\
81.47048020478952	2213397.8490126575\\
82.2199068314368	2221483.0154321366\\
82.96933345808408	2229509.9698635773\\
83.71876008473136	2237473.1340320935\\
84.46818671137864	2245366.569277188\\
85.21761333802591	2253183.976552745\\
85.96703996467319	2260918.69642704\\
86.71646659132047	2268563.7090827283\\
87.46589321796775	2276111.6343168556\\
88.21531984461502	2283554.7315408494\\
88.9647464712623	2290884.8997805263\\
89.71417309790958	2298093.6776760863\\
90.46359972455686	2305172.2434821143\\
91.21302635120414	2312138.2882750514\\
91.96245297785141	2319048.919862367\\
92.71187960449869	2325902.9022302483\\
93.46130623114597	2332696.1247059833\\
94.21073285779325	2339424.235611093\\
94.96015948444052	2346082.642261331\\
95.7095861110878	2352666.510966684\\
96.45901273773508	2359170.76703137\\
97.20843936438236	2365590.0947538405\\
97.95786599102964	2371918.9374267785\\
98.70729261767691	2378151.4973371024\\
99.45671924432419	2384281.73576596\\
100.20614587097147	2390303.3729887325\\
100.95557249761875	2396209.888275035\\
101.70499912426602	2401994.519888714\\
102.4544257509133	2407653.5248689805\\
103.20385237756058	2413197.6975323725\\
103.95327900420786	2418634.868473746\\
104.70270563085514	2423972.3145786314\\
105.45213225750241	2429217.478811353\\
106.20155888414969	2434377.970215032\\
106.95098551079697	2439461.5639115865\\
107.70041213744425	2444476.201101731\\
108.44983876409152	2449429.9890649742\\
109.1992653907388	2454331.2011596235\\
109.94869201738608	2459188.276822781\\
110.69811864403336	2464009.8215703447\\
111.44754527068064	2468804.606997011\\
112.19697189732791	2473581.5707762693\\
112.94639852397519	2478349.816660408\\
113.69582515062247	2483117.7057706052\\
114.44525177726975	2487885.085106392\\
115.19467840391702	2492649.1977330674\\
115.9441050305643	2497407.460352937\\
116.69353165721158	2502157.1478639417\\
117.44295828385886	2506895.393359656\\
118.19238491050614	2511619.1881292863\\
118.94181153715341	2516325.3816576744\\
119.69123816380069	2521010.681625295\\
120.44066479044797	2525671.653908258\\
121.19009141709525	2530304.722578303\\
121.93951804374252	2534906.1699028066\\
122.6889446703898	2539472.136344779\\
123.43837129703708	2543998.620562862\\
124.18779792368436	2548481.479411334\\
124.93722455033163	2552921.0894680927\\
125.68665117697891	2557356.0034618825\\
126.43607780362619	2561793.2733525545\\
127.18550443027347	2566229.686580293\\
127.93493105692075	2570661.899507495\\
128.68435768356804	2575086.437418767\\
129.43378431021532	2579499.694520927\\
130.1832109368626	2583897.933943006\\
130.93263756350987	2588277.2877362445\\
131.68206419015715	2592633.756874094\\
132.43149081680443	2596963.2112522167\\
133.1809174434517	2601261.3896884886\\
133.93034407009898	2605523.899922993\\
134.67977069674626	2609746.218618026\\
135.42919732339354	2613923.6913580983\\
136.17862395004082	2618054.2335624024\\
136.9280505766881	2622179.880625715\\
137.67747720333537	2626312.4347277423\\
138.42690382998265	2630446.387698835\\
139.17633045662993	2634576.0698421765\\
139.9257570832772	2638695.64993377\\
140.67518370992448	2642799.1352224466\\
141.42461033657176	2646880.3714298625\\
142.17403696321904	2650933.0427505\\
142.9234635898666	2654950.6718516666\\
};

\addplot [
color=black,
loosely dashed
]
table[row sep=crcr]{
74.34798788217375	1879578.6373392076\\
75.04066945497873	1886535.859638496\\
75.7333510277837	1893465.0886063662\\
76.42603260058867	1900393.3231542816\\
77.11871417339364	1907348.3750221431\\
77.81139574619861	1914358.8687782905\\
78.50407731900358	1921421.245636032\\
79.19675889180856	1928499.7986759625\\
79.88944046461353	1935588.6052642495\\
80.5821220374185	1942681.5459556938\\
81.27480361022347	1949772.1272275075\\
81.96748518302844	1956853.4814793123\\
82.66016675583342	1963918.3670331398\\
83.35284832863839	1970959.1681334316\\
84.04552990144336	1977967.8949470394\\
84.73821147424833	1984936.1835632238\\
85.4308930470533	1991855.2959936569\\
86.12357461985827	1998716.1201724191\\
86.81625619266325	2005509.1699560017\\
87.50893776546822	2012224.585123306\\
88.20161933827319	2018852.131375643\\
88.89430091107816	2025381.2003367338\\
89.58698248388313	2031841.4418812133\\
90.2796640566881	2038291.7402204587\\
90.97234562949308	2044728.1816517476\\
91.66502720229805	2051145.69086735\\
92.35770877510302	2057538.950608292\\
93.05039034790799	2063902.4016643527\\
93.74307192071296	2070230.242874066\\
94.43575349351794	2076516.431124721\\
95.12843506632291	2082754.6813523604\\
95.82111663912788	2088938.4665417797\\
96.51379821193285	2095061.0177265315\\
97.20647978473782	2101115.3239889205\\
97.8991613575428	2107094.132460007\\
98.59184293034777	2112989.9483196046\\
99.28452450315274	2118795.034796282\\
99.97720607595771	2124501.4131673626\\
100.66988764876268	2130119.28298356\\
101.36256922156765	2135681.654383969\\
102.05525079437263	2141189.596162376\\
102.7479323671776	2146643.1766278646\\
103.44061393998257	2152042.427568564\\
104.13329551278754	2157387.3442516453\\
104.82597708559251	2162677.8854233236\\
105.51865865839748	2167913.973308858\\
106.21134023120246	2173095.4936125516\\
106.90402180400743	2178222.295517751\\
107.5967033768124	2183294.1916868454\\
108.28938494961737	2188310.9582612687\\
108.98206652242234	2193272.334861499\\
109.67474809522732	2198178.024587056\\
110.36742966803229	2203027.6940165064\\
111.06011124083726	2207820.973207458\\
111.75279281364223	2212558.845813008\\
112.4454743864472	2217245.388887264\\
113.13815595925217	2221882.5159210046\\
113.83083753205715	2226472.027488087\\
114.52351910486212	2231015.740357201\\
115.21620067766709	2235515.4874918684\\
115.90888225047206	2239973.1180504444\\
116.60156382327703	2244390.497386118\\
117.294245396082	2248769.5070469077\\
117.98692696888698	2253112.044775667\\
118.67960854169195	2257420.0245100814\\
119.37229011449692	2261695.376382669\\
120.06497168730189	2265940.0467207795\\
120.75765326010686	2270155.9980465965\\
121.45033483291184	2274345.2090771366\\
122.1430164057168	2278509.6747242464\\
122.83569797852178	2282652.4626498027\\
123.52837955132675	2286777.6332109817\\
124.22106112413172	2290885.1424618405\\
124.9137426969367	2294974.6674026204\\
125.60642426974167	2299045.8480230137\\
126.29910584254664	2303098.287302165\\
126.99178741535161	2307131.5512086726\\
127.68446898815658	2311145.168700587\\
128.37715056096155	2315138.631725409\\
129.06983213376654	2319111.3952200944\\
129.76251370657153	2323062.8771110517\\
130.4551952793765	2326992.4583141394\\
131.1478768521815	2330899.4827346685\\
131.84055842498648	2334783.257267406\\
132.53323999779147	2338643.051796566\\
133.22592157059646	2342478.099195821\\
133.91860314340144	2346295.689001201\\
134.61128471620643	2350122.7819919647\\
135.3039662890114	2353957.7204550924\\
135.9966478618164	2357795.980754472\\
136.68932943462138	2361632.9178799707\\
137.38201100742637	2365463.765447436\\
138.07469258023136	2369283.635698697\\
138.76737415303634	2373087.5195015636\\
139.46005572584133	2376870.2863498265\\
140.15273729864631	2380626.684363256\\
140.8454188714513	2384351.3402876034\\
141.5381004442563	2388038.7594946027\\
142.23078201706127	2391683.3259819667\\
142.9234635898666	2395279.3023733897\\
};

\addplot [
color=black,
loosely dashdotted
]
table[row sep=crcr]{
80.66440104686652	1661286.283423552\\
81.29328046649277	1666134.3501369539\\
81.92215988611903	1670921.0808231658\\
82.55103930574529	1675652.0133816462\\
83.17991872537155	1680332.8095205077\\
83.80879814499781	1684969.2547565226\\
84.43767756462407	1689567.2584151225\\
85.06655698425033	1694132.8536303944\\
85.69543640387658	1698672.1973450861\\
86.32431582350284	1703191.570310602\\
86.9531952431291	1707697.3770870047\\
87.58207466275536	1712192.9395986185\\
88.21095408238162	1716660.1581600856\\
88.83983350200788	1721097.2884714608\\
89.46871292163414	1725507.0824938451\\
90.0975923412604	1729892.3208915372\\
90.72647176088665	1734255.8130320322\\
91.35535118051291	1738600.3969860221\\
91.98423060013917	1742928.9395273966\\
92.61311001976543	1747244.336133242\\
93.24198943939169	1751549.5109838417\\
93.87086885901795	1755847.4169626762\\
94.4997482786442	1760141.0356564235\\
95.12862769827046	1764433.3773549579\\
95.75750711789672	1768727.4810513505\\
96.38638653752298	1773026.4144418708\\
97.01526595714924	1777333.2739259845\\
97.6441453767755	1781651.184606354\\
98.27302479640176	1785983.5544234104\\
98.90190421602802	1790360.6783479862\\
99.53078363565427	1794796.936871943\\
100.15966305528053	1799285.2636005215\\
100.78854247490679	1803818.343820035\\
101.41742189453305	1808388.6144978674\\
102.04630131415931	1812988.2642824766\\
102.67518073378557	1817609.2335033906\\
103.30406015341183	1822243.214171211\\
103.93293957303808	1826881.6499776104\\
104.56181899266434	1831515.736295335\\
105.1906984122906	1836136.4201781997\\
105.81957783191686	1840734.400361095\\
106.44845725154312	1845300.1272599818\\
107.07733667116938	1849823.802971894\\
107.70621609079564	1854295.3812749356\\
108.3350955104219	1858704.5676282847\\
108.96397493004815	1863040.8191721905\\
109.59285434967441	1867313.4028797538\\
110.22173376930067	1871565.948788671\\
110.85061318892693	1875800.433049708\\
111.47949260855319	1880016.6885046535\\
112.10837202817945	1884214.5228376656\\
112.7372514478057	1888393.7185752753\\
113.36613086743196	1892554.0330863788\\
113.99501028705822	1896695.198582249\\
114.62388970668448	1900816.922116526\\
115.25276912631074	1904918.8855852217\\
115.881648545937	1909000.745726716\\
116.51052796556326	1913062.1341217638\\
117.13940738518951	1917102.657193487\\
117.76828680481577	1921121.896207379\\
118.39716622444203	1925119.407271304\\
119.02604564406829	1929094.7213354968\\
119.65492506369455	1933047.3441925626\\
120.28380448332081	1936977.8626527516\\
120.91268390294707	1940896.1222094025\\
121.54156332257332	1944804.2793477464\\
122.17044274219958	1948701.9510071757\\
122.79932216182584	1952588.7288262232\\
123.4282015814521	1956464.1791425569\\
124.05708100107836	1960327.8429929824\\
124.68596042070462	1964179.2361134442\\
125.31483984033088	1968017.8489390232\\
125.94371925995713	1971843.1466039377\\
126.5725986795834	1975654.568941544\\
127.20147809920965	1979451.5304843362\\
127.83035751883591	1983233.4204639436\\
128.45923693846217	1986999.6028111358\\
129.08811635808843	1990749.4161558184\\
129.7169957777147	1994482.173827035\\
130.34587519734094	1998197.1638529662\\
130.9747546169672	2001893.652211391\\
131.60363403659346	2005572.9118790792\\
132.23251345621972	2009237.3820013665\\
132.86139287584598	2012888.4745711265\\
133.49027229547224	2016527.61699316\\
134.1191517150985	2020156.2520841956\\
134.74803113472476	2023775.838072891\\
135.376910554351	2027387.84859983\\
136.00578997397727	2030993.772717527\\
136.63466939360353	2034595.1148904234\\
137.2635488132298	2038193.394994887\\
137.89242823285605	2041790.148319217\\
138.5213076524823	2045386.9255636379\\
139.15018707210857	2048985.2928403034\\
139.77906649173482	2052586.8316732955\\
140.40794591136108	2056193.1389986235\\
141.03682533098734	2059805.8271642253\\
141.6657047506136	2063426.523929967\\
142.29458417023986	2067072.547064037\\
142.9234635898666	2070785.7146013265\\
};
\end{axis}
\end{tikzpicture}%
