%Power_needed_and_available_altitudes_PHI_0.75
\begin{tikzpicture}

\begin{axis}[
width=\figurewidth,
height=\figureheight,
scaled ticks=false, tick label style={/pgf/number format/fixed},
xmin=59.21372732324278,
xmax=142.9234635898666,
xlabel={Speed ((m/s))},
xmajorgrids,
ymin=940284.5393669083,
ymax=3747200.4883420216,
ylabel={Powers ((W))},
ymajorgrids,
legend style={at={(1.03,0.5)},anchor=west,draw=black,fill=white,legend cell align=left}
]

\addplot [
color=black,
solid
]
table[row sep=crcr]{
59.21372732324278	940284.5393669083\\
60.05928021482484	941156.5702821614\\
60.9048331064069	942663.9638695027\\
61.75038599798896	944725.6156452254\\
62.595938889571016	947331.1743530729\\
63.441491781153076	950524.3875319483\\
64.28704467273514	954305.8445017786\\
65.1325975643172	958634.3690861262\\
65.97815045589925	963486.8699193626\\
66.82370334748131	968835.017517822\\
67.66925623906337	974645.0863993913\\
68.51480913064543	981128.925686005\\
69.36036202222749	988170.5922578748\\
70.20591491380955	995608.8976336202\\
71.05146780539161	1003587.2346416487\\
71.89702069697367	1012247.3786642108\\
72.74257358855573	1021204.5069450486\\
73.58812648013779	1030878.0829622672\\
74.43367937171985	1040999.619351988\\
75.2792322633019	1051567.073157514\\
76.12478515488397	1062825.31966202\\
76.97033804646603	1074360.368798702\\
77.81589093804808	1086710.2363798092\\
78.66144382963014	1099282.683310313\\
79.5069967212122	1112660.80775544\\
80.35254961279426	1126336.160949261\\
81.19810250437632	1140660.0187411231\\
82.04365539595838	1155499.1137615931\\
82.88920828754044	1170666.137947894\\
83.7347611791225	1186724.7585391963\\
84.58031407070456	1202908.7218008034\\
85.42586696228662	1219939.9537764972\\
86.27141985386868	1237426.7926743794\\
87.11697274545074	1255073.5385567509\\
87.9625256370328	1273877.7740990787\\
88.80807852861486	1292904.3809432706\\
89.65363142019692	1312125.73555815\\
90.49918431177898	1332569.512070107\\
91.34473720336103	1353240.5123965186\\
92.1902900949431	1374140.8595372196\\
93.03584298652515	1396046.3998811978\\
93.88139587810721	1418458.6425676944\\
94.72694876968927	1441134.8233993542\\
95.57250166127133	1464276.725989987\\
96.41805455285339	1488518.4307021624\\
97.26360744443545	1513058.389711197\\
98.10916033601751	1537899.2186038112\\
98.95471322759957	1563311.4769859524\\
99.80026611918163	1589793.5347999102\\
100.64581901076369	1616610.5839889743\\
101.49137190234575	1643765.462751247\\
102.3369247939278	1671261.009284831\\
103.18247768550987	1700009.599155974\\
104.02803057709193	1729241.720440095\\
104.87358346867398	1758848.4694817713\\
105.71913636025604	1788832.8913024457\\
106.5646892518381	1819198.0309235593\\
107.41024214342016	1850952.8543079596\\
108.25579503500222	1883136.1969878695\\
109.10134792658428	1915733.850704646\\
109.94690081816634	1948749.0515150297\\
110.7924537097484	1982185.0354757612\\
111.63800660133046	2016479.543668022\\
112.48355949291252	2051799.9837305453\\
113.32911238449458	2087574.2281854905\\
114.17466527607664	2123805.6883368553\\
115.0202181676587	2160497.7754886374\\
115.86577105924076	2197653.900944835\\
116.71132395082282	2235344.4701138968\\
117.55687684240488	2274463.1044044783\\
118.40242973398693	2314078.1804618756\\
119.247982625569	2354193.2690493045\\
120.09353551715105	2394811.9409299768\\
120.93908840873311	2435937.7668671086\\
121.78464130031517	2477574.317623915\\
122.63019419189723	2519725.16396361\\
123.47574708347929	2563090.0647332706\\
124.32129997506135	2607316.741540877\\
125.16685286664341	2652089.5501358313\\
126.01240575822547	2697412.2049525226\\
126.85795864980753	2743288.42042534\\
127.70351154138959	2789721.910988673\\
128.54906443297165	2836716.391076912\\
129.3946173245537	2884275.575124446\\
130.24017021613577	2932403.177565665\\
131.08572310771783	2982095.9772944837\\
131.93127599929988	3032412.421518641\\
132.77682889088194	3083328.3809933513\\
133.622381782464	3134847.698036137\\
134.46793467404606	3186974.214964524\\
135.31348756562812	3239711.774096033\\
136.15904045721018	3293064.21774819\\
137.00459334879224	3347035.3882385166\\
137.8501462403743	3401629.127884535\\
138.69569913195636	3456849.279003771\\
139.54125202353842	3513187.950342587\\
140.38680491512048	3570702.3061367474\\
141.23235780670254	3628873.211459631\\
142.0779106982846	3687704.6207238506\\
142.9234635898666	3747200.4883420216\\
};

\addplot [
color=black,
densely dashed
]
table[row sep=crcr]{
63.71272604484442	1011726.4014449437\\
64.51283450489515	1012569.9224058066\\
65.31294296494588	1013905.4538036119\\
66.1130514249966	1015720.8083933659\\
66.91315988504732	1017999.8776123874\\
67.71326834509804	1020722.5160369575\\
68.51337680514877	1023864.4258389814\\
69.31348526519949	1027423.2878792299\\
70.11359372525021	1031636.4501565116\\
70.91370218530093	1036226.1489787697\\
71.71381064535166	1041153.0112043143\\
72.51391910540238	1046605.0201752977\\
73.3140275654531	1052585.2883968828\\
74.11413602550383	1058822.2410407308\\
74.91424448555455	1065660.943335692\\
75.71435294560527	1072910.4623950028\\
76.514461405656	1080442.2096645809\\
77.31456986570672	1088687.117557673\\
78.11467832575744	1097015.4784800299\\
78.91478678580816	1106185.643713364\\
79.71489524585888	1115404.1427578635\\
80.5150037059096	1125422.517177429\\
81.31511216596033	1135475.250383762\\
82.11522062601105	1146396.329049217\\
82.91532908606177	1157310.0186827644\\
83.7154375461125	1169086.860865332\\
84.51554600616322	1180981.8626903475\\
85.31565446621394	1193454.1602528947\\
86.11576292626467	1206377.1887391359\\
86.91587138631539	1219437.6165828083\\
87.71597984636611	1233431.0928327763\\
88.51608830641683	1247500.6584794505\\
89.31619676646756	1262056.8110679374\\
90.11630522651828	1277261.9882343952\\
90.916413686569	1292571.4944201421\\
91.71652214661972	1308518.2024779248\\
92.51663060667045	1325023.0887483638\\
93.31673906672117	1341660.6010844253\\
94.11684752677189	1358858.0752689743\\
94.91695598682261	1376744.8211184507\\
95.71706444687334	1394792.4435146248\\
96.51717290692406	1413064.4026142573\\
97.31728136697478	1432408.6768713405\\
98.1173898270255	1451941.927601932\\
98.91749828707623	1471665.7085041313\\
99.71760674712695	1491944.0926463944\\
100.51771520717767	1513031.2804161662\\
101.3178236672284	1534337.029765864\\
102.11793212727912	1555863.080418369\\
102.91804058732984	1577926.9305355349\\
103.71814904738056	1600874.7534472893\\
104.51825750743129	1624070.7134539995\\
105.31836596748201	1647516.7247489933\\
106.11847442753273	1671214.7015256\\
106.91858288758345	1695994.7559569872\\
107.71869134763418	1721189.2477424452\\
108.5187998076849	1746663.3810039312\\
109.31890826773562	1772419.232850886\\
110.11901672778635	1798458.8803927498\\
110.91912518783707	1825637.1901657584\\
111.71923364788779	1853236.9679334715\\
112.51934210793851	1881147.9073864312\\
113.31945056798924	1909372.2369958581\\
114.11955902803996	1937912.1852329702\\
114.91966748809068	1967061.1887563646\\
115.7197759481414	1997212.5416986246\\
116.51988440819213	2027706.4190484849\\
117.31999286824285	2058545.1890846095\\
118.12010132829357	2089731.220085661\\
118.9202097883443	2121266.8803303028\\
119.72031824839502	2153154.538097198\\
120.52042670844574	2186350.1016458143\\
121.32053516849646	2219934.8670764426\\
122.12064362854719	2253898.1818986917\\
122.92075208859791	2288242.5426443354\\
123.72086054864863	2322970.4458451457\\
124.52096900869935	2358084.3880328964\\
125.32107746875008	2393586.86573936\\
126.1211859288008	2430206.417610621\\
126.92129438885152	2467473.8269730625\\
127.72140284890224	2505155.7733893553\\
128.52151130895297	2543254.870090047\\
129.3216197690037	2581773.7303056875\\
130.1217282290544	2620714.967266825\\
130.92183668910513	2660081.194204009\\
131.72194514915586	2699875.024347788\\
132.52205360920658	2740442.880022751\\
133.3221620692573	2782072.0446259193\\
134.12227052930803	2824154.1723573506\\
134.92237898935875	2866691.981592034\\
135.72248744940947	2909688.1907049604\\
136.5225959094602	2953145.51807112\\
137.32270436951092	2997066.682065503\\
138.12281282956164	3041454.401063099\\
138.92292128961236	3086311.3934388985\\
139.72302974966308	3131640.3775678924\\
140.5231382097138	3177879.238946492\\
141.32324666976453	3225133.365163469\\
142.12335512981525	3272884.169089702\\
142.9234635898666	3321134.462690327\\
};

\addplot [
color=black,
dashdotted
]
table[row sep=crcr]{
68.7302275517858	1091401.8298717446\\
69.47965417843308	1092205.1437238941\\
70.22908080508036	1093377.2714281862\\
70.97850743172764	1094895.097196239\\
71.72793405837491	1096732.1448104407\\
72.47736068502219	1099044.7726160737\\
73.22678731166947	1101790.7415379258\\
73.97621393831675	1104806.239987923\\
74.72564056496402	1108136.411323338\\
75.4750671916113	1112052.7755483733\\
76.22449381825858	1116167.9486421898\\
76.97392044490586	1120659.8184022007\\
77.72334707155314	1125638.8813671663\\
78.47277369820041	1130723.6089932818\\
79.22220032484769	1136506.1139148013\\
79.97162695149497	1142386.705610567\\
80.72105357814225	1148797.979098508\\
81.47048020478952	1155441.095300094\\
82.2199068314368	1162529.8379792229\\
82.96933345808408	1169891.0607925195\\
83.71876008473136	1177703.4271370266\\
84.46818671137864	1185726.8034277796\\
85.21761333802591	1194306.2059427665\\
85.96703996467319	1202923.790426714\\
86.71646659132047	1212310.7038296787\\
87.46589321796775	1221668.98179941\\
88.21531984461502	1231673.86756501\\
88.9647464712623	1241899.6485039277\\
89.71417309790958	1252336.4085216415\\
90.46359972455686	1263463.5139243742\\
91.21302635120414	1274607.2332761616\\
91.96245297785141	1286280.827113113\\
92.71187960449869	1298378.520172738\\
93.46130623114597	1310515.5470795564\\
94.21073285779325	1323331.9482404229\\
94.96015948444052	1336471.407718956\\
95.7095861110878	1349672.9689965548\\
96.45901273773508	1363511.3305811961\\
97.20843936438236	1377759.2257545295\\
97.95786599102964	1392091.965300593\\
98.70729261767691	1406803.298229083\\
99.45671924432419	1422221.3482953298\\
100.20614587097147	1437746.8864978207\\
100.95557249761875	1453380.7227815443\\
101.70499912426602	1469797.2712233253\\
102.4544257509133	1486571.7643688302\\
103.20385237756058	1503477.174796783\\
103.95327900420786	1520514.4601319684\\
104.70270563085514	1538458.1090103777\\
105.45213225750241	1556685.0913429745\\
106.20155888414969	1575066.4534715693\\
106.95098551079697	1593603.2925416376\\
107.70041213744425	1612844.8391581373\\
108.44983876409152	1632613.5216997392\\
109.1992653907388	1652559.982008978\\
109.94869201738608	1672685.448592916\\
110.69811864403336	1692991.149958613\\
111.44754527068064	1714333.706034775\\
112.19697189732791	1735926.6947354304\\
112.94639852397519	1757722.0484337362\\
113.69582515062247	1779721.1188392357\\
114.44525177726975	1801925.2576614711\\
115.19467840391702	1825053.9789899448\\
115.9441050305643	1848591.8819505768\\
116.69353165721158	1872356.7068652026\\
117.44295828385886	1896349.9204867405\\
118.19238491050614	1920572.9895681096\\
118.94181153715341	1945086.186941438\\
119.69123816380069	1970679.6731986622\\
120.44066479044797	1996524.4857059803\\
121.19009141709525	2022622.1981005836\\
121.93951804374252	2048974.3840196617\\
122.6889446703898	2075582.6171004064\\
123.43837129703708	2102448.470980009\\
124.18779792368436	2130150.82663242\\
124.93722455033163	2158451.9856539546\\
125.68665117697891	2187031.9448995865\\
126.43607780362619	2215892.3767316747\\
127.18550443027347	2245034.9535125755\\
127.93493105692075	2274461.3476046487\\
128.68435768356804	2304173.231370251\\
129.43378431021532	2334500.4427527715\\
130.1832109368626	2365698.55395891\\
130.93263756350987	2397202.9041940165\\
131.68206419015715	2429015.25638651\\
132.43149081680443	2461137.3734648107\\
133.1809174434517	2493571.0183573407\\
133.93034407009898	2526317.953992519\\
134.67977069674626	2559379.943298767\\
135.42919732339354	2592789.41618378\\
136.17862395004082	2627391.465143336\\
136.9280505766881	2662328.830761773\\
137.67747720333537	2697603.3583744713\\
138.42690382998265	2733216.8933168063\\
139.17633045662993	2769171.2809241577\\
139.9257570832772	2805468.366531903\\
140.67518370992448	2842109.9954754203\\
141.42461033657176	2879098.0130900885\\
142.17403696321904	2916434.264711284\\
142.9234635898666	2954449.393387716\\
};

\addplot [
color=black,
dashed
]
table[row sep=crcr]{
74.34798788217375	1180609.0698702831\\
75.04066945497873	1181358.9977914873\\
75.7333510277837	1182325.4324361845\\
76.42603260058867	1183476.5384318754\\
77.11871417339364	1185200.4419152958\\
77.81139574619861	1187086.4302844135\\
78.50407731900358	1189171.627421137\\
79.19675889180856	1191789.786783915\\
79.88944046461353	1194492.229268102\\
80.5821220374185	1197622.0787604724\\
81.27480361022347	1201005.092786002\\
81.96748518302844	1204609.765269646\\
82.66016675583342	1208649.7004504423\\
83.35284832863839	1212769.8531358214\\
84.04552990144336	1217434.971176989\\
84.73821147424833	1222109.4564955675\\
85.4308930470533	1227359.622873742\\
86.12357461985827	1232625.3563409913\\
86.81625619266325	1238411.7319846903\\
87.50893776546822	1244303.5600630979\\
88.20161933827319	1250568.2930330688\\
88.89430091107816	1257118.8609951448\\
89.58698248388313	1263794.778164716\\
90.2796640566881	1271034.3979560006\\
90.97234562949308	1278215.5127429878\\
91.66502720229805	1286001.2147935003\\
92.35770877510302	1293917.3463172924\\
93.05039034790799	1301957.8199278049\\
93.74307192071296	1310634.0522635104\\
94.43575349351794	1319287.6846470204\\
95.12843506632291	1328288.4003452878\\
95.82111663912788	1337742.3433119357\\
96.51379821193285	1347191.5404878384\\
97.20647978473782	1357063.0554121064\\
97.8991613575428	1367349.5324556057\\
98.59184293034777	1377649.1358538046\\
99.28452450315274	1388281.6051431934\\
99.97720607595771	1399451.9694498207\\
100.66988764876268	1410653.3006892172\\
101.36256922156765	1421915.5855590156\\
102.05525079437263	1434017.4227471813\\
102.7479323671776	1446167.9863274365\\
103.44061393998257	1458367.6070213625\\
104.13329551278754	1470983.592956418\\
104.82597708559251	1484126.778949722\\
105.51865865839748	1497336.7615106262\\
106.21134023120246	1510613.9820254438\\
106.90402180400743	1524431.413044057\\
107.5967033768124	1538690.550081221\\
108.28938494961737	1553034.5839580502\\
108.98206652242234	1567464.0612198808\\
109.67474809522732	1582292.610391375\\
110.36742966803229	1597737.250859902\\
111.06011124083726	1613284.8524682163\\
111.75279281364223	1628936.0614149694\\
112.4454743864472	1644691.5238988118\\
113.13815595925217	1661239.5107386624\\
113.83083753205715	1678054.5520263328\\
114.52351910486212	1694991.2570597315\\
115.21620067766709	1712050.3661851173\\
115.90888225047206	1729232.6197487486\\
116.60156382327703	1747250.730151166\\
117.294245396082	1765530.4565887786\\
117.98692696888698	1783950.5585529227\\
118.67960854169195	1802511.865031757\\
119.37229011449692	1821215.20501344\\
120.06497168730189	1840390.4787691627\\
120.75765326010686	1860222.0860686577\\
121.45033483291184	1880212.7072647302\\
122.1430164057168	1900363.2544817296\\
122.83569797852178	1920674.6398440069\\
123.52837955132675	1941147.7754759109\\
124.22106112413172	1962089.6613283295\\
124.9137426969367	1983729.9269968285\\
125.60642426974167	2005548.6786904053\\
126.29910584254664	2027546.9061638939\\
126.99178741535161	2049725.5991721267\\
127.68446898815658	2072085.747469938\\
128.37715056096155	2094628.3408121606\\
129.06983213376654	2117906.847306639\\
129.76251370657153	2141661.7255338253\\
130.4551952793765	2165615.529461751\\
131.1478768521815	2189769.3209700254\\
131.84055842498648	2214124.1619382547\\
132.53323999779147	2238681.1142460494\\
133.22592157059646	2263441.2397730174\\
133.91860314340144	2288524.24887778\\
134.61128471620643	2314530.9974194705\\
135.3039662890114	2340757.0511405016\\
135.9966478618164	2367203.5385395507\\
136.68932943462138	2393871.5881152926\\
137.38201100742637	2420762.3283664044\\
138.07469258023136	2447876.88779156\\
138.76737415303634	2475216.394889437\\
139.46005572584133	2502781.978158711\\
140.15273729864631	2531097.9833191168\\
140.8454188714513	2559961.853885391\\
141.5381004442563	2589067.612516752\\
142.23078201706127	2618416.448825234\\
142.9234635898666	2648009.552422889\\
};

\addplot [
color=black,
densely dashdotted
]
table[row sep=crcr]{
80.66440104686652	1280910.5693957643\\
81.29328046649277	1281592.1453499864\\
81.92215988611903	1282304.7268737063\\
82.55103930574529	1283443.9468281358\\
83.17991872537155	1284700.8437514151\\
83.80879814499781	1286207.4214252804\\
84.43767756462407	1287987.7468401254\\
85.06655698425033	1289893.293600882\\
85.69543640387658	1292170.358005426\\
86.32431582350284	1294505.1922535629\\
86.9531952431291	1297246.3075425944\\
87.58207466275536	1300039.3707075727\\
88.21095408238162	1303205.6541630605\\
88.83983350200788	1306484.4266992547\\
89.46871292163414	1310030.604980878\\
90.0975923412604	1313821.0223635144\\
90.72647176088665	1317695.2354991876\\
91.35535118051291	1322021.6042202867\\
91.98423060013917	1326248.3500555877\\
92.61311001976543	1331050.1231610016\\
93.24198943939169	1335849.5575708672\\
93.87086885901795	1340861.754435054\\
94.4997482786442	1346254.5728939474\\
95.12862769827046	1351575.4763086408\\
95.75750711789672	1357407.613622253\\
96.38638653752298	1363354.7135711964\\
97.01526595714924	1369243.5372557184\\
97.6441453767755	1375833.4350996788\\
98.27302479640176	1382379.0835754727\\
98.90190421602802	1388934.6481261184\\
99.53078363565427	1396151.5202817423\\
100.15966305528053	1403337.68575338\\
100.78854247490679	1410492.9505226498\\
101.41742189453305	1418354.8790101947\\
102.04630131415931	1426221.0423697275\\
102.67518073378557	1434069.9788061222\\
103.30406015341183	1442416.2845084555\\
103.93293957303808	1450999.2500618582\\
104.56181899266434	1459578.6111347922\\
105.1906984122906	1468287.328335938\\
105.81957783191686	1477621.0347939755\\
106.44845725154312	1486964.6763761295\\
107.07733667116938	1496318.3121262481\\
107.70621609079564	1506012.806811469\\
108.3350955104219	1516151.4986696555\\
108.96397493004815	1526313.6873145257\\
109.59285434967441	1536499.5091436647\\
110.22173376930067	1547038.952381274\\
110.85061318892693	1558037.039231408\\
111.47949260855319	1569072.1863968016\\
112.10837202817945	1580144.6041286108\\
112.7372514478057	1591360.3517978436\\
113.36613086743196	1603268.4896413556\\
113.99501028705822	1615227.2111926835\\
114.62388970668448	1627236.7970563844\\
115.25276912631074	1639297.5278370136\\
115.881648545937	1651795.913019574\\
116.51052796556326	1664724.6932136132\\
117.13940738518951	1677717.8458277623\\
117.76828680481577	1690775.7183198093\\
118.39716622444203	1703898.6581475402\\
119.02604564406829	1717467.2178044776\\
119.65492506369455	1731485.826160727\\
120.28380448332081	1745582.5982154256\\
120.91268390294707	1759757.9447794214\\
121.54156332257332	1774012.276663563\\
122.17044274219958	1788392.8914822114\\
122.79932216182584	1803565.4333056214\\
123.4282015814521	1818829.8801693243\\
124.05708100107836	1834186.7027370625\\
124.68596042070462	1849636.3716725765\\
125.31483984033088	1865179.357639608\\
125.94371925995713	1880907.9660200118\\
126.5725986795834	1897398.485026529\\
127.20147809920965	1913995.0749926192\\
127.83035751883591	1930698.262934746\\
128.45923693846217	1947508.5758693751\\
129.08811635808843	1964426.5408129708\\
129.7169957777147	1981452.684781998\\
130.34587519734094	1999041.6256325739\\
130.9747546169672	2017050.2264714593\\
131.60363403659346	2035179.5948217555\\
132.23251345621972	2053430.3105524823\\
132.86139287584598	2071802.9535326571\\
133.49027229547224	2090298.1036313006\\
134.1191517150985	2108916.3407174316\\
134.74803113472476	2127958.405974905\\
135.376910554351	2147586.5139030437\\
136.00578997397727	2167350.0723596974\\
136.63466939360353	2187249.7105662706\\
137.2635488132298	2207286.0577441677\\
137.89242823285605	2227459.743114793\\
138.5213076524823	2247771.39589955\\
139.15018707210857	2268221.645319844\\
139.77906649173482	2289101.5410185712\\
140.40794591136108	2310592.3537346255\\
141.03682533098734	2332233.888031633\\
141.6657047506136	2354026.8189832144\\
142.29458417023986	2375971.82166299\\
142.9234635898666	2398069.5711445953\\
};

\addplot [
color=black,
densely dotted
]
table[row sep=crcr]{
59.21372732324278	1819478.213758166\\
60.05928021482484	1839398.2860047754\\
60.9048331064069	1854642.0611757576\\
61.75038599798896	1865884.2250135832\\
62.595938889571016	1873846.6957749887\\
63.441491781153076	1879298.6242309725\\
64.28704467273514	1883056.3936667973\\
65.1325975643172	1885983.6198819904\\
65.97815045589925	1888991.1511903421\\
66.82370334748131	1893037.0684199068\\
67.66925623906337	1899126.684913001\\
68.51480913064543	1908312.546526208\\
69.36036202222749	1921694.4316303723\\
70.20591491380955	1940419.3511106025\\
71.05146780539161	1961898.0578149743\\
71.89702069697367	1978243.3250114191\\
72.74257358855573	1989799.795488338\\
73.58812648013779	1997310.1441060314\\
74.43367937171985	2001558.5913555212\\
75.2792322633019	2003370.9033585493\\
76.12478515488397	2003614.391867578\\
76.97033804646603	2003197.9142657898\\
77.81589093804808	2003071.8735670892\\
78.66144382963014	2004228.2184161004\\
79.5069967212122	2007700.4430881676\\
80.35254961279426	2014563.5874893572\\
81.19810250437632	2025934.2371564545\\
82.04365539595838	2042970.5232569668\\
82.88920828754044	2061631.8713299548\\
83.7347611791225	2074826.9884669634\\
84.58031407070456	2083222.3806410797\\
85.42586696228662	2087606.6476175408\\
86.27141985386868	2088805.1230664614\\
87.11697274545074	2087679.8745628356\\
87.9625256370328	2085129.7035865344\\
88.80807852861486	2082090.1455223104\\
89.65363142019692	2079533.4696597909\\
90.49918431177898	2078468.6791934858\\
91.34473720336103	2079941.511222779\\
92.1902900949431	2085034.4367519366\\
93.03584298652515	2094866.6606901013\\
93.88139587810721	2110593.6385440617\\
94.72694876968927	2126548.823057839\\
95.57250166127133	2137006.969483226\\
96.41805455285339	2142749.490613166\\
97.26360744443545	2144590.277352905\\
98.10916033601751	2143375.6987199956\\
98.95471322759957	2139984.601844295\\
99.80026611918163	2135328.3119679666\\
100.64581901076369	2130350.632445477\\
101.49137190234575	2126027.844743598\\
102.3369247939278	2123368.708441407\\
103.18247768550987	2123414.4612302855\\
104.02803057709193	2127238.818913922\\
104.87358346867398	2135947.9754083077\\
105.71913636025604	2150566.876469552\\
106.5646892518381	2164024.4406349813\\
107.41024214342016	2172126.156492472\\
108.25579503500222	2175666.052441977\\
109.10134792658428	2175466.8725023293\\
109.94690081816634	2172380.076311244\\
110.7924537097484	2167285.839125315\\
111.63800660133046	2161093.0518200197\\
112.48355949291252	2154739.3208897137\\
113.32911238449458	2149190.9684476345\\
114.17466527607664	2145443.0322259003\\
115.0202181676587	2144519.2655755114\\
115.86577105924076	2147472.137466346\\
116.71132395082282	2155382.8324871664\\
117.55687684240488	2168945.1421678755\\
118.40242973398693	2180248.3602669216\\
119.247982625569	2186469.5332544795\\
120.09353551715105	2188391.1761100953\\
120.93908840873311	2186820.8497273526\\
121.78464130031517	2182591.160913869\\
122.63019419189723	2176559.7623912976\\
123.47574708347929	2169609.352795327\\
124.32129997506135	2162647.6766756834\\
125.16685286664341	2156607.5244961255\\
126.01240575822547	2152446.7326344475\\
126.85795864980753	2151148.1833824813\\
127.70351154138959	2153719.804946094\\
128.54906443297165	2161194.5714451848\\
129.3946173245537	2173735.4892741083\\
130.24017021613577	2182999.3283156785\\
131.08572310771783	2187303.0948606026\\
131.93127599929988	2187437.776734927\\
132.77682889088194	2184217.0684681744\\
133.622381782464	2178477.371293337\\
134.46793467404606	2171077.7931468855\\
135.31348756562812	2162900.1486687595\\
136.15904045721018	2154848.959202379\\
137.00459334879224	2147851.4527946315\\
137.8501462403743	2142857.5641958816\\
138.69569913195636	2140839.9348599683\\
139.54125202353842	2142793.9129442014\\
140.38680491512048	2149737.5533093694\\
141.23235780670254	2161129.9499099166\\
142.0779106982846	2168359.0481210435\\
142.9234635898666	2170626.0594846527\\
};

\addplot [
color=black,
dashdotdotted
]
table[row sep=crcr]{
63.71272604484442	1776846.9911224006\\
64.51283450489515	1786381.7905653196\\
65.31294296494588	1795681.9537174809\\
66.1130514249966	1804820.7444723318\\
66.91315988504732	1813874.8268284565\\
67.71326834509804	1822924.2648895783\\
68.51337680514877	1832052.5228645538\\
69.31348526519949	1841343.716716629\\
70.11359372525021	1850683.8524768353\\
70.91370218530093	1859968.4003303726\\
71.71381064535166	1869190.8653908537\\
72.51391910540238	1878344.136098886\\
73.3140275654531	1887420.4842220722\\
74.11413602550383	1896411.5648550065\\
74.91424448555455	1905308.4164192793\\
75.71435294560527	1914101.460663474\\
76.514461405656	1922780.5026631677\\
77.31456986570672	1931334.7308209324\\
78.11467832575744	1939752.7168663337\\
78.91478678580816	1948022.4158559323\\
79.71489524585888	1956131.1661732804\\
80.5150037059096	1964065.6895289267\\
81.31511216596033	1971848.2301640115\\
82.11522062601105	1979564.8713493594\\
82.91532908606177	1987211.852904012\\
83.7154375461125	1994779.509232835\\
84.51554600616322	2002257.6302947951\\
85.31565446621394	2009635.4616029623\\
86.11576292626467	2016901.7042245104\\
86.91587138631539	2024044.5147807153\\
87.71597984636611	2031051.5054469565\\
88.51608830641683	2037909.7439527144\\
89.31619676646756	2044605.7535815758\\
90.11630522651828	2051125.513171227\\
90.916413686569	2057454.4571134602\\
91.71652214661972	2063577.4753541686\\
92.51663060667045	2069484.6839245826\\
93.31673906672117	2075250.675805727\\
94.11684752677189	2080896.5026034347\\
94.91695598682261	2086413.510129736\\
95.71706444687334	2091792.6768313986\\
96.51717290692406	2097024.6137899216\\
97.31728136697478	2102099.5647215405\\
98.1173898270255	2107007.405977225\\
98.91749828707623	2111737.6465426795\\
99.71760674712695	2116279.4280383405\\
100.51771520717767	2120621.524719384\\
101.3178236672284	2124752.3434757157\\
102.11793212727912	2128659.923831979\\
102.91804058732984	2132331.9379475485\\
103.71814904738056	2135755.6906165374\\
104.51825750743129	2138895.355540186\\
105.31836596748201	2141724.837694601\\
106.11847442753273	2144267.3607437564\\
106.91858288758345	2146547.36211784\\
107.71869134763418	2148590.065697892\\
108.5187998076849	2150421.4818158024\\
109.31890826773562	2152068.4072543113\\
110.11901672778635	2153558.425247009\\
110.91912518783707	2154919.9054783345\\
111.71923364788779	2156182.0040835794\\
112.51934210793851	2157374.6636488866\\
113.31945056798924	2158528.6132112457\\
114.11955902803996	2159675.368258499\\
114.91966748809068	2160847.2307293373\\
115.7197759481414	2162064.26464447\\
116.51988440819213	2163259.8797135814\\
117.31999286824285	2164416.7857726924\\
118.12010132829357	2165531.935811628\\
118.9202097883443	2166602.117015152\\
119.72031824839502	2167623.9507629573\\
120.52042670844574	2168593.892629679\\
121.32053516849646	2169508.2323848815\\
122.12064362854719	2170363.0939930673\\
122.92075208859791	2171154.4356136713\\
123.72086054864863	2171878.0496010664\\
124.52096900869935	2172529.5625045584\\
125.32107746875008	2173104.435068388\\
126.1211859288008	2173597.9622317334\\
126.92129438885152	2174005.3611913035\\
127.72140284890224	2174351.246239059\\
128.52151130895297	2174656.0082565714\\
129.3216197690037	2174916.9613590096\\
130.1217282290544	2175131.2948380327\\
130.92183668910513	2175296.0731617836\\
131.72194514915586	2175408.235974892\\
132.52205360920658	2175464.5980984713\\
133.3221620692573	2175461.8495301236\\
134.12227052930803	2175396.555443936\\
134.92237898935875	2175265.15619048\\
135.72248744940947	2175063.9672968127\\
136.5225959094602	2174789.179466481\\
137.32270436951092	2174436.8585795127\\
138.12281282956164	2174002.9456924237\\
138.92292128961236	2173500.2923228904\\
139.72302974966308	2172982.230342975\\
140.5231382097138	2172443.7551733144\\
141.32324666976453	2171874.158387327\\
142.12335512981525	2171262.4391966984\\
142.9234635898666	2170597.3044513846\\
};

\addplot [
color=black,
densely dashdotdetted
]
table[row sep=crcr]{
68.7302275517858	1628646.189539155\\
69.47965417843308	1636572.7605884229\\
70.22908080508036	1644335.2456333588\\
70.97850743172764	1651942.0451992915\\
71.72793405837491	1659401.849679765\\
72.47736068502219	1666723.6393365413\\
73.22678731166947	1673916.6842995973\\
73.97621393831675	1680990.5445671265\\
74.72564056496402	1687955.07000554\\
75.4750671916113	1694820.400349464\\
76.22449381825858	1701596.9652017416\\
76.97392044490586	1708295.4840334319\\
77.72334707155314	1714926.966183811\\
78.47277369820041	1721502.7108603711\\
79.22220032484769	1728034.3071388204\\
79.97162695149497	1734531.6247745107\\
80.72105357814225	1740994.4909166389\\
81.47048020478952	1747419.354483677\\
82.2199068314368	1753802.3806043186\\
82.96933345808408	1760139.449892298\\
83.71876008473136	1766426.1584463895\\
84.46818671137864	1772657.8178504114\\
85.21761333802591	1778829.45517322\\
85.96703996467319	1784935.8129687156\\
86.71646659132047	1790971.3492758381\\
87.46589321796775	1796930.2376185702\\
88.21531984461502	1802806.367005934\\
88.9647464712623	1808593.3419319945\\
89.71417309790958	1814284.4823758577\\
90.46359972455686	1819872.8238016693\\
91.21302635120414	1825372.3328487247\\
91.96245297785141	1830828.0946281848\\
92.71187960449869	1836239.1333396698\\
93.46130623114597	1841602.2037152501\\
94.21073285779325	1846913.870219284\\
94.96015948444052	1852170.5070484194\\
95.7095861110878	1857368.2981315926\\
96.45901273773508	1862503.237130029\\
97.20843936438236	1867571.1274372425\\
97.95786599102964	1872567.5821790355\\
98.70729261767691	1877488.0242135017\\
99.45671924432419	1882327.6861310212\\
100.20614587097147	1887081.6102542628\\
100.95557249761875	1891744.6486381853\\
101.70499912426602	1896311.4630700373\\
102.4544257509133	1900779.0985807742\\
103.20385237756058	1905156.0769992413\\
103.95327900420786	1909448.58037401\\
104.70270563085514	1913662.3536147096\\
105.45213225750241	1917803.2727458049\\
106.20155888414969	1921877.3449066042\\
106.95098551079697	1925890.7083512526\\
107.70041213744425	1929849.632448735\\
108.44983876409152	1933760.5176828748\\
109.1992653907388	1937629.8956523344\\
109.94869201738608	1941464.429070617\\
110.69811864403336	1945270.9117660618\\
111.44754527068064	1949056.268681851\\
112.19697189732791	1952827.5558760022\\
112.94639852397519	1956591.9605213746\\
113.69582515062247	1960356.0835031096\\
114.44525177726975	1964119.8040313623\\
115.19467840391702	1967880.9455787377\\
115.9441050305643	1971637.4686996872\\
116.69353165721158	1975387.2219978487\\
117.44295828385886	1979127.9421260445\\
118.19238491050614	1982857.2537862787\\
118.94181153715341	1986572.6697297432\\
119.69123816380069	1990271.5907568121\\
120.44066479044797	1993951.3057170457\\
121.19009141709525	1997608.9915091868\\
121.93951804374252	2001241.7130811631\\
122.6889446703898	2004846.4234300887\\
123.43837129703708	2008419.9636022598\\
124.18779792368436	2011959.0626931582\\
124.93722455033163	2015464.0180011257\\
125.68665117697891	2018965.26589096\\
126.43607780362619	2022468.3736993852\\
127.18550443027347	2025970.8051949684\\
127.93493105692075	2029469.9206638117\\
128.68435768356804	2032962.9769095532\\
129.43378431021532	2036447.1272533636\\
130.1832109368626	2039919.4215339525\\
130.93263756350987	2043376.8061075618\\
131.68206419015715	2046816.123847969\\
132.43149081680443	2050234.1141464869\\
133.1809174434517	2053627.4129119646\\
133.93034407009898	2056992.5525707838\\
134.67977069674626	2060325.962066863\\
135.42919732339354	2063623.9668616569\\
136.17862395004082	2066884.921233476\\
136.9280505766881	2070142.0110203016\\
137.67747720333537	2073404.553732428\\
138.42690382998265	2076668.20081487\\
139.17633045662993	2079928.4761911922\\
139.9257570832772	2083180.7762635027\\
140.67518370992448	2086420.3699124581\\
141.42461033657176	2089642.39849726\\
142.17403696321904	2092841.8758556577\\
142.9234635898666	2096013.6883039472\\
};

\addplot [
color=black,
loosely dashed
]
table[row sep=crcr]{
74.34798788217375	1483877.871583585\\
75.04066945497873	1489370.4155040758\\
75.7333510277837	1494840.8594260786\\
76.42603260058867	1500310.5182796959\\
77.11871417339364	1505801.348701692\\
77.81139574619861	1511335.9490354925\\
78.50407731900358	1516911.5097126567\\
79.19675889180856	1522499.8410599704\\
79.88944046461353	1528096.267313881\\
80.5821220374185	1533695.9573334425\\
81.27480361022347	1539293.7846532953\\
81.96748518302844	1544884.3274836678\\
82.66016675583342	1550461.8687103738\\
83.35284832863839	1556020.3958948145\\
84.04552990144336	1561553.6012739788\\
84.73821147424833	1567054.8817604398\\
85.4308930470533	1572517.3389423606\\
86.12357461985827	1577933.779083489\\
86.81625619266325	1583296.7131231595\\
87.50893776546822	1588598.3566762945\\
88.20161933827319	1593830.6300334022\\
88.89430091107816	1598985.1581605792\\
89.58698248388313	1604085.3488535897\\
90.2796640566881	1609177.6896477304\\
90.97234562949308	1614259.0907776956\\
91.66502720229805	1619325.545421592\\
92.35770877510302	1624372.8557433884\\
93.05039034790799	1629396.63289291\\
93.74307192071296	1634392.297005842\\
94.43575349351794	1639355.077203727\\
95.12843506632291	1644280.0115939688\\
95.82111663912788	1649161.9472698262\\
96.51379821193285	1653995.5403104196\\
97.20647978473782	1658775.2557807267\\
97.8991613575428	1663495.3677315845\\
98.59184293034777	1668149.959199688\\
99.28452450315274	1672732.9222075911\\
99.97720607595771	1677237.9577637075\\
100.66988764876268	1681673.118144916\\
101.36256922156765	1686064.4639873442\\
102.05525079437263	1690412.83907556\\
102.7479323671776	1694718.297337788\\
103.44061393998257	1698980.863869919\\
104.13329551278754	1703200.5349355093\\
104.82597708559251	1707377.277965782\\
105.51865865839748	1711511.0315596247\\
106.21134023120246	1715601.7054835935\\
106.90402180400743	1719649.180671909\\
107.5967033768124	1723653.3092264568\\
108.28938494961737	1727613.914416791\\
108.98206652242234	1731530.7906801305\\
109.67474809522732	1735403.70362136\\
110.36742966803229	1739232.3900130317\\
111.06011124083726	1743016.5577953614\\
111.75279281364223	1746756.9835365855\\
112.4454743864472	1750456.8859636295\\
113.13815595925217	1754117.7757271093\\
113.83083753205715	1757741.0743327003\\
114.52351910486212	1761328.2160714744\\
115.21620067766709	1764880.648019896\\
115.90888225047206	1768399.8300398246\\
116.60156382327703	1771887.2347785144\\
117.294245396082	1775344.3476686114\\
117.98692696888698	1778772.666928158\\
118.67960854169195	1782173.7035605905\\
119.37229011449692	1785548.9813547388\\
120.06497168730189	1788900.0368848261\\
120.75765326010686	1792228.4195104714\\
121.45033483291184	1795535.691376687\\
122.1430164057168	1798823.4274138785\\
122.83569797852178	1802094.0494603703\\
123.52837955132675	1805350.7630613013\\
124.22106112413172	1808593.533522506\\
124.9137426969367	1811822.1058441743\\
125.60642426974167	1815036.1958076425\\
126.29910584254664	1818235.4899753933\\
126.99178741535161	1821419.6456910574\\
127.68446898815658	1824588.2910794106\\
128.37715056096155	1827741.0250463756\\
129.06983213376654	1830877.417279022\\
129.76251370657153	1833997.0082455673\\
130.4551952793765	1837099.3091953732\\
131.1478768521815	1840183.802158949\\
131.84055842498648	1843249.939947952\\
132.53323999779147	1846297.1461551844\\
133.22592157059646	1849324.8151545958\\
133.91860314340144	1852338.7018430536\\
134.61128471620643	1855360.0910462877\\
135.3039662890114	1858387.674043494\\
135.9966478618164	1861417.8795430043\\
136.68932943462138	1864447.040431556\\
137.38201100742637	1867471.3937742915\\
138.07469258023136	1870487.080814761\\
138.76737415303634	1873490.1469749187\\
139.46005572584133	1876476.5418551264\\
140.15273729864631	1879442.1192341496\\
140.8454188714513	1882382.6370691608\\
141.5381004442563	1885293.757495739\\
142.23078201706127	1888171.0468278686\\
142.9234635898666	1891009.9755579391\\
};

\addplot [
color=black,
loosely dashdotted
]
table[row sep=crcr]{
80.66440104686652	1311541.8027028046\\
81.29328046649277	1315369.223792332\\
81.92215988611903	1319148.2217024993\\
82.55103930574529	1322883.1684591942\\
83.17991872537155	1326578.5338319796\\
83.80879814499781	1330238.8853340968\\
84.43767756462407	1333868.888222465\\
85.06655698425033	1337473.3054976799\\
85.69543640387658	1341056.9979040155\\
86.32431582350284	1344624.9239294229\\
86.9531952431291	1348182.1398055302\\
87.58207466275536	1351731.2681041725\\
88.21095408238162	1355258.0196000675\\
88.83983350200788	1358761.017214311\\
89.46871292163414	1362242.4335477727\\
90.0975923412604	1365704.4638617402\\
90.72647176088665	1369149.3260779202\\
91.35535118051291	1372579.2607784385\\
91.98423060013917	1375996.5312058392\\
92.61311001976543	1379403.4232630858\\
93.24198943939169	1382802.2455135593\\
93.87086885901795	1386195.3291810602\\
94.4997482786442	1389585.028149808\\
95.12862769827046	1392973.7189644403\\
95.75750711789672	1396363.8008300138\\
96.38638653752298	1399757.6956120036\\
97.01526595714924	1403157.8478363035\\
97.6441453767755	1406566.724689227\\
98.27302479640176	1409987.016650061\\
98.90190421602802	1413442.6408010419\\
99.53078363565427	1416944.9501620603\\
100.15966305528053	1420488.3660004118\\
100.78854247490679	1424067.113542133\\
101.41742189453305	1427675.2219720008\\
102.04630131415931	1431306.5244335344\\
102.67518073378557	1434954.6580289926\\
103.30406015341183	1438613.0638193772\\
103.93293957303808	1442274.9868244294\\
104.56181899266434	1445933.4760226328\\
105.1906984122906	1449581.3843512104\\
105.81957783191686	1453211.3687061279\\
106.44845725154312	1456815.8899420912\\
107.07733667116938	1460387.2128725478\\
107.70621609079564	1463917.406269686\\
108.3350955104219	1467398.3428644354\\
108.96397493004815	1470821.6993464665\\
109.59285434967441	1474194.791747174\\
110.22173376930067	1477552.0648331614\\
110.85061318892693	1480895.078723454\\
111.47949260855319	1484223.7014510424\\
112.10837202817945	1487537.781187631\\
112.7372514478057	1490837.1462436384\\
113.36613086743196	1494121.605068194\\
113.99501028705822	1497390.9462491442\\
114.62388970668448	1500644.9385130468\\
115.25276912631074	1503883.330725175\\
115.881648545937	1507105.8518895127\\
116.51052796556326	1510312.211148761\\
117.13940738518951	1513502.097784332\\
117.76828680481577	1516675.1812163517\\
118.39716622444203	1519831.111003661\\
119.02604564406829	1522969.5168438132\\
119.65492506369455	1526090.0085730758\\
120.28380448332081	1529193.0494626986\\
120.91268390294707	1532286.412270581\\
121.54156332257332	1535371.799485063\\
122.17044274219958	1538448.9086898756\\
122.79932216182584	1541517.417494387\\
123.4282015814521	1544576.9835335978\\
124.05708100107836	1547627.2444681441\\
124.68596042070462	1550667.817984298\\
125.31483984033088	1553698.3017939657\\
125.94371925995713	1556718.2736346875\\
126.5725986795834	1559727.2912696402\\
127.20147809920965	1562724.8924876337\\
127.83035751883591	1565710.5951031132\\
128.45923693846217	1568683.8969561597\\
129.08811635808843	1571644.2759124883\\
129.7169957777147	1574591.1898634485\\
130.34587519734094	1577524.076726026\\
130.9747546169672	1580442.357008993\\
131.60363403659346	1583347.0356940099\\
132.23251345621972	1586240.0384221314\\
132.86139287584598	1589122.4799245736\\
133.49027229547224	1591995.4870998634\\
134.1191517150985	1594860.1990138388\\
134.74803113472476	1597717.7668996507\\
135.376910554351	1600569.3541577607\\
136.00578997397727	1603416.1363559426\\
136.63466939360353	1606259.3012292816\\
137.2635488132298	1609100.0486801742\\
137.89242823285605	1611939.5907783292\\
138.5213076524823	1614779.1517607667\\
139.15018707210857	1617619.9680318185\\
139.77906649173482	1620463.288163128\\
140.40794591136108	1623310.3728936503\\
141.03682533098734	1626162.4951296516\\
141.6657047506136	1629020.939944711\\
142.29458417023986	1631899.379261082\\
142.9234635898666	1634830.827316837\\
};
\end{axis}
\end{tikzpicture}%
