Time, xT = int(m(Vc - V))
   0.000000, 17849376.332012
   0.500000, 18107012.217378
   1.000000, 18358388.414972
   1.500000, 18600948.755393
   2.000000, 18833878.767539
   2.500000, 19057029.011764
   3.000000, 19270502.354938
   3.500000, 19474495.744543
   4.000000, 19669239.541687
   4.500000, 19854974.255370
   5.000000, 20031941.617978
   5.500000, 20200381.162114
   6.000000, 20360528.909781
   6.500000, 20512616.874431
   7.000000, 20656872.877415
   7.500000, 20793520.487469
   8.000000, 20922779.009636
   8.500000, 21044863.495215
   9.000000, 21159984.761680
   9.500000, 21268349.418178
  10.000000, 21370159.894786
  10.500000, 21465614.474731
  11.000000, 21554907.329125
  11.500000, 21638228.553974
  12.000000, 21715764.209227
  12.500000, 21787696.359722
  13.000000, 21854203.117834
  13.500000, 21915458.687706
  14.000000, 21971633.410885
  14.500000, 22022893.813254
  15.000000, 22069402.653098
  15.500000, 22111717.349847
  16.000000, 22152144.673089
  16.500000, 22193321.181133
  17.000000, 22237456.479536
  17.500000, 22286221.606800
  18.000000, 22340770.609356
  18.500000, 22401817.795285
  19.000000, 22469727.348438
  19.500000, 22544596.661835
  20.000000, 22626327.654386
  20.500000, 22714685.789042
  21.000000, 22809348.097013
  21.500000, 22909941.537809
  22.000000, 23016072.709196
  22.500000, 23127349.744052
  23.000000, 23243397.261566
  23.500000, 23363865.381698
  24.000000, 23488433.946482
  24.500000, 23616813.143841
  25.000000, 23748741.676305
  25.500000, 23883983.474482
  26.000000, 24022323.758517
  26.500000, 24163565.037101
  27.000000, 24307523.432479
  27.500000, 24454025.549801
  28.000000, 24602905.977941
  28.500000, 24754005.416750
  29.000000, 24907169.367951
  29.500000, 25062247.296602
  30.000000, 25219092.159950
  30.500000, 25377560.204044
  31.000000, 25537510.940078
  31.500000, 25698807.228091
  32.000000, 25861315.412255
  32.500000, 26024905.467721
  33.000000, 26189451.132683
  33.500000, 26354830.010441
  34.000000, 26520923.634719
  34.500000, 26687617.497506
  35.000000, 26854801.042557
  35.500000, 27022367.629872
  36.000000, 27190214.477331
  36.500000, 27358242.585657
  37.000000, 27526356.652268
  37.500000, 27694464.978691
  38.000000, 27862479.375200
  38.500000, 28030315.065367
  39.000000, 28197890.592310
  39.500000, 28365127.727753
  40.000000, 28531951.384410
  40.500000, 28698289.531821
  41.000000, 28864073.115512
  41.500000, 29029235.979175
  42.000000, 29193714.789521
  42.500000, 29357448.963426
  43.000000, 29520380.597030
  43.500000, 29682454.396508
  44.000000, 29843617.610266
  44.500000, 30003819.962397
  45.000000, 30163013.587279
  45.500000, 30321152.965232
  46.000000, 30478194.859199
  46.500000, 30634098.252423
  47.000000, 30788824.287133
  47.500000, 30942336.204239
  48.000000, 31094599.284053
  48.500000, 31245580.788050
  49.000000, 31395249.901676
  49.500000, 31543577.678222
  50.000000, 31690536.983766
  50.500000, 31836102.443174
  51.000000, 31980250.387171
  51.500000, 32122958.800478
  52.000000, 32264207.270985
  52.500000, 32403976.939987
  53.000000, 32542250.453435
  53.500000, 32679011.914214
  54.000000, 32814246.835430
  54.500000, 32947942.094689
  55.000000, 33080085.889356
  55.500000, 33210667.692793
  56.000000, 33339678.211544
  56.500000, 33467109.343466
  57.000000, 33592954.136800
  57.500000, 33717206.750152
  58.000000, 33839862.413389
  58.500000, 33960917.389422
  59.000000, 34080368.936882
  59.500000, 34198215.273660
  60.000000, 34314455.541308
  60.500000, 34429089.770286
  61.000000, 34542118.846040
  61.500000, 34653544.475910
  62.000000, 34763369.156840
  62.500000, 34871596.143884
  63.000000, 34978229.419507
  63.500000, 35083273.663644
  64.000000, 35186734.224534
  64.500000, 35288617.090286
  65.000000, 35388928.861197
  65.500000, 35487676.722778
  66.000000, 35584868.419502
  66.500000, 35680512.229245
  67.000000, 35774616.938411
  67.500000, 35867191.817743
  68.000000, 35958246.598780
  68.500000, 36047791.450979
  69.000000, 36135836.959464
  69.500000, 36222394.103414
  70.000000, 36307474.235049
  70.500000, 36391089.059239
  71.000000, 36473250.613686
  71.500000, 36553971.249700
  72.000000, 36633263.613536
  72.500000, 36711140.628291
  73.000000, 36787615.476346
  73.500000, 36862701.582346
  74.000000, 36936412.596698
  74.500000, 37008762.379591
  75.000000, 37079764.985509
  75.500000, 37149434.648244
  76.000000, 37217785.766382
  76.500000, 37284832.889268
  77.000000, 37350590.703427
  77.500000, 37415074.019436
  78.000000, 37478297.759232
  78.500000, 37540276.943862
  79.000000, 37601026.681639
  79.500000, 37660562.156722
  80.000000, 37718898.618087
  80.500000, 37776051.368893
  81.000000, 37832035.756239
  81.500000, 37886867.161278
  82.000000, 37940560.989713
  82.500000, 37993132.662633
  83.000000, 38044597.607712
  83.500000, 38094971.250730
  84.000000, 38144269.007434
  84.500000, 38192506.275721
  85.000000, 38239698.428127
  85.500000, 38096379.765387
  86.000000, 37940474.826744
  86.500000, 37786187.900813
  87.000000, 37632379.652741
  87.500000, 37477646.568561
  88.000000, 37320726.575755
  88.500000, 37160653.893268
  89.000000, 36996791.055336
  89.500000, 36828799.681052
  90.000000, 36656584.333706
  90.500000, 36480229.697903
  91.000000, 36299942.355184
  91.500000, 36116002.440129
  92.000000, 35928726.643603
  92.500000, 35738441.870877
  93.000000, 35545467.860878
  93.500000, 35350106.793176
  94.000000, 35152638.021092
  94.500000, 34953316.353268
  95.000000, 34752372.634263
  95.500000, 34550015.682856
  96.000000, 34346434.909105
  96.500000, 34141803.142379
  97.000000, 33936279.366432
  97.500000, 33730011.180963
  98.000000, 33523136.899113
  98.500000, 33315787.253450
  99.000000, 33108086.724775
  99.500000, 32900154.533345
 100.000000, 32692105.344906
 100.500000, 32484049.747891
 101.000000, 32276094.555990
 101.500000, 32068342.984579
 102.000000, 31860894.741836
 102.500000, 31653846.067179
 103.000000, 31447289.741788
 103.500000, 31241315.088942
 104.000000, 31036007.976025
 104.500000, 30831450.825340
 105.000000, 30627722.637324
 105.500000, 30424899.027254
 106.000000, 30223052.274824
 106.500000, 30022251.384984
 107.000000, 29822562.157945
 107.500000, 29624047.266100
 108.000000, 29426766.335745
 108.500000, 29230776.031681
 109.000000, 29036130.143150
 109.500000, 28842879.669834
 110.000000, 28651072.906997
 110.500000, 28460755.529107
 111.000000, 28271970.671515
 111.500000, 28084759.009954
 112.000000, 27899158.837736
 112.500000, 27715206.140667
 113.000000, 27532934.669711
 113.500000, 27352376.011516
 114.000000, 27173559.656911
 114.500000, 26996513.067479
 115.000000, 26821261.740341
 115.500000, 26647829.271232
 116.000000, 26476237.415968
 116.500000, 26306506.150381
 117.000000, 26138653.728772
 117.500000, 25972696.740955
 118.000000, 25808650.167911
 118.500000, 25646527.436108
 119.000000, 25486340.470494
 119.500000, 25328099.746218
 120.000000, 25171814.339069
 120.500000, 25017491.974683
 121.000000, 24865139.076520
 121.500000, 24714760.812644
 122.000000, 24566361.141314
 122.500000, 24419942.855419
 123.000000, 24275507.625770
 123.500000, 24133056.043276
 124.000000, 23992587.660016
 124.500000, 23854101.029239
 125.000000, 23717593.744313
 125.500000, 23583062.476635
 126.000000, 23450503.012534
 126.500000, 23319910.289182
 127.000000, 23191278.429540
 127.500000, 23064600.776352
 128.000000, 22939869.925214
 128.500000, 22817077.756740
 129.000000, 22696215.467831
 129.500000, 22577273.602091
 130.000000, 22460242.079381
 130.500000, 22345110.224550
 131.000000, 22231866.795361
 131.500000, 22120500.009609
 132.000000, 22010997.571481
 132.500000, 21903346.697147
 133.000000, 21797534.139614
 133.500000, 21693546.212862
 134.000000, 21591368.815262
 134.500000, 21490987.452316
 135.000000, 21392387.258709
 135.500000, 21295553.019717
 136.000000, 21200469.191954
 136.500000, 21107119.923506
 137.000000, 21015489.073441
 137.500000, 20925560.230722
 138.000000, 20837316.732532
 138.500000, 20750741.682036
 139.000000, 20665817.965573
 139.500000, 20582528.269309
 140.000000, 20500855.095360
 140.500000, 20420780.777393
 141.000000, 20342287.495721
 141.500000, 20265357.291902
 142.000000, 20189972.082860
 142.500000, 20116113.674534
 143.000000, 20043763.775064
 143.500000, 19972904.007533
 144.000000, 19903515.922274
 144.500000, 19835581.008748
 145.000000, 19769080.707004
 145.500000, 19703996.418744
 146.000000, 19640309.517982
 146.500000, 19578001.361324
 147.000000, 19517053.297873
 147.500000, 19457446.678767
 148.000000, 19399162.866358
 148.500000, 19342183.243054
 149.000000, 19286489.219807
 149.500000, 19232062.244286
 150.000000, 19178883.808718
 150.500000, 19126935.457428
 151.000000, 19076198.794062
 151.500000, 19026655.488519
 152.000000, 18978287.283600
 152.500000, 18931076.001366
 153.000000, 18885003.549230
 153.500000, 18840051.925775
 154.000000, 18796203.226327
 154.500000, 18753439.648255
 155.000000, 18711743.496051
 155.500000, 18671097.186146
 156.000000, 18631483.251516
 156.500000, 18592884.346047
 157.000000, 18555283.248691
 157.500000, 18518662.867400
 158.000000, 18483006.242865
 158.500000, 18448296.552040
 159.000000, 18414517.111479
 159.500000, 18381651.380484
 160.000000, 18349682.964064
 160.500000, 18318595.615718
 161.000000, 18288373.240043
 161.500000, 18258999.895174
 162.000000, 18230459.795062
 162.500000, 18202737.311589
 163.000000, 18175816.976534
 163.500000, 18149683.483389
 164.000000, 18124321.689025
 164.500000, 18099716.615229
 165.000000, 18075853.450090
 165.500000, 18052717.549270
 166.000000, 18030294.437135
 166.500000, 18008569.807768
 167.000000, 17987529.525865
 167.500000, 17967159.627510
 168.000000, 17947446.320845
 168.500000, 17928375.986625
 169.000000, 17909935.178676
 169.500000, 17892110.624248
 170.000000, 17874889.224270
 170.500000, 17858258.053519
 171.000000, 17842204.360685
 171.500000, 17826715.568365
 172.000000, 17811779.272957
 172.500000, 17797383.244485
 173.000000, 17783515.426343
 173.500000, 17770163.934958
 174.000000, 17757317.059388
 174.500000, 17744963.260848
 175.000000, 17733091.172171
 175.500000, 17721689.597197
 176.000000, 17710747.510115
 176.500000, 17700254.054732
 177.000000, 17690198.543694
 177.500000, 17680570.457648
 178.000000, 17671359.444358
 178.500000, 17662555.317766
 179.000000, 17654148.057005
 179.500000, 17646127.805376
 180.000000, 17638484.869271
