Speed, Forces
 150.045362, 5703.084989
 151.418240, 5495.942063
 152.791117, 5195.047197
 154.163995, 5007.157744
 155.536872, 4834.502371
 156.909750, 4722.870440
 158.282627, 4610.257496
 159.655505, 4507.621670
 161.028382, 4431.922323
 162.401260, 4355.574824
 163.774137, 4278.579173
 165.147015, 4211.466955
 166.519892, 4151.388089
 167.892770, 4090.811851
 169.265647, 4029.738242
 170.638524, 3971.934400
 172.011402, 3922.334448
 173.384279, 3872.337037
 174.757157, 3821.942167
 176.130034, 3771.149838
 177.502912, 3725.743736
 178.875789, 3685.322815
 180.248667, 3644.590467
 181.621544, 3603.546693
 182.994422, 3562.191491
 184.367299, 3521.786820
 185.740177, 3489.513848
 187.113054, 3457.001449
 188.485932, 3424.249623
 189.858809, 3391.258370
 191.231687, 3358.027691
 192.604564, 3324.557584
 193.977441, 3300.326522
 195.350319, 3276.005119
 196.723196, 3251.512187
 198.096074, 3226.847728
 199.468951, 3202.011741
 200.841829, 3177.004226
 202.214706, 3151.825183
 203.587584, 3135.731725
 204.960461, 3120.408521
 206.333339, 3104.982334
 207.706216, 3089.453163
 209.079094, 3073.821008
 210.451971, 3058.085870
 211.824849, 3042.247748
 213.197726, 3026.306642
 214.570604, 3015.693350
 215.943481, 3008.183811
 217.316358, 3000.626377
 218.689236, 2993.021049
 220.062113, 2985.367825
 221.434991, 2977.666708
 222.807868, 2969.917695
 224.180746, 2962.120788
 225.553623, 2954.275986
 226.926501, 2946.383289
 228.299378, 2944.150264
 229.672256, 2943.696259
 231.045133, 2943.239532
 232.418011, 2942.780083
 233.790888, 2942.317911
 235.163766, 2941.853018
 236.536643, 2941.385403
 237.909520, 2940.915066
 239.282398, 2940.442007
 240.655275, 2939.966226
 242.028153, 2939.487723
 243.401030, 2939.006498
 244.773908, 2943.678561
 246.146785, 2950.395947
 247.519663, 2957.150904
 248.892540, 2963.943431
 250.265418, 2970.773530
 251.638295, 2977.641199
 253.011173, 2984.546439
 254.384050, 2991.489250
 255.756928, 2998.469632
 257.129805, 3005.487584
 258.502683, 3012.543108
 259.875560, 3019.636202
 261.248437, 3026.766867
 262.621315, 3033.935103
 263.994192, 3041.140909
 265.367070, 3052.727162
 266.739947, 3067.619453
 268.112825, 3082.588590
 269.485702, 3097.634573
 270.858580, 3112.757403
 272.231457, 3127.957080
 273.604335, 3143.233603
 274.977212, 3158.586973
 276.350090, 3174.017189
 277.722967, 3189.524252
 279.095845, 3205.108162
 280.468722, 3220.768917
 281.841600, 3236.506520
 283.214477, 3252.320969
 284.587354, 3268.212264
 285.960232, 3284.180406
