Speed, Forces
 140.017987, 5703.084989
 141.539479, 5429.235311
 143.060970, 5124.741612
 144.582462, 4900.664643
 146.103953, 4750.817938
 147.625445, 4617.258295
 149.146936, 4498.141630
 150.668427, 4408.070812
 152.189919, 4317.085818
 153.711410, 4230.076648
 155.232902, 4158.854508
 156.754393, 4086.930857
 158.275885, 4014.305696
 159.797376, 3950.207786
 161.318868, 3891.050517
 162.840359, 3831.332657
 164.361850, 3771.054208
 165.883342, 3718.108185
 167.404833, 3669.998823
 168.926325, 3621.450213
 170.447816, 3572.462357
 171.969308, 3523.716822
 173.490799, 3485.379283
 175.012291, 3446.704047
 176.533782, 3407.691116
 178.055273, 3368.340488
 179.576765, 3328.652165
 181.098256, 3298.734725
 182.619748, 3269.817721
 184.141239, 3240.658789
 185.662731, 3211.257928
 187.184222, 3181.615137
 188.705714, 3151.730418
 190.227205, 3132.807322
 191.748696, 3114.574343
 193.270188, 3096.196112
 194.791679, 3077.672629
 196.313171, 3059.003895
 197.834662, 3040.189909
 199.356154, 3021.230671
 200.877645, 3011.909358
 202.399137, 3002.956857
 203.920628, 2993.936804
 205.442119, 2984.849199
 206.963611, 2975.694041
 208.485102, 2966.471331
 210.006594, 2957.181068
 211.528085, 2947.823254
 213.049577, 2944.147717
 214.571068, 2943.608211
 216.092560, 2943.064866
 217.614051, 2942.517682
 219.135542, 2941.966659
 220.657034, 2941.411797
 222.178525, 2940.853095
 223.700017, 2940.290554
 225.221508, 2939.724174
 226.743000, 2939.153955
 228.264491, 2942.887038
 229.785983, 2950.863633
 231.307474, 2958.893219
 232.828965, 2966.975796
 234.350457, 2975.111364
 235.871948, 2983.299924
 237.393440, 2991.541474
 238.914931, 2999.836016
 240.436423, 3008.183549
 241.957914, 3016.584074
 243.479406, 3025.037589
 245.000897, 3033.544096
 246.522388, 3042.103594
 248.043880, 3057.496566
 249.565371, 3075.220748
 251.086863, 3093.053316
 252.608354, 3110.994272
 254.129846, 3129.043615
 255.651337, 3147.201344
 257.172829, 3165.467461
 258.694320, 3183.841965
 260.215812, 3202.324855
 261.737303, 3220.916133
 263.258794, 3239.615798
 264.780286, 3258.423849
 266.301777, 3277.340288
 267.823269, 3296.365114
 269.344760, 3315.498327
 270.866252, 3334.739926
 272.387743, 3354.322225
 273.909235, 3380.836939
 275.430726, 3407.499345
 276.952217, 3434.309443
 278.473709, 3461.267233
 279.995200, 3488.372716
 281.516692, 3515.625891
 283.038183, 3543.026758
 284.559675, 3570.575318
 286.081166, 3598.271569
 287.602658, 3626.115513
 289.124149, 3654.107150
 290.645640, 3682.246478
