Speed, Forces
 115.199387, 5703.084989
 117.109294, 5230.186980
 119.019200, 4889.071783
 120.929107, 4673.899505
 122.839013, 4488.915553
 124.748920, 4350.982099
 126.658826, 4219.129311
 128.568733, 4110.017368
 130.478639, 3999.272422
 132.388545, 3906.987836
 134.298452, 3815.879608
 136.208358, 3728.491133
 138.118265, 3655.058760
 140.028171, 3580.603891
 141.938078, 3509.948490
 143.847984, 3451.134954
 145.757891, 3391.535317
 147.667797, 3331.149579
 149.577704, 3285.374804
 151.487610, 3240.987464
 153.397517, 3196.036953
 155.307423, 3150.523270
 157.217330, 3122.506225
 159.127236, 3094.504037
 161.037143, 3066.163727
 162.947049, 3037.485295
 164.856956, 3014.859099
 166.766862, 3001.207084
 168.676769, 2987.397818
 170.586675, 2973.431301
 172.496582, 2959.307532
 174.406488, 2945.026513
 176.316395, 2943.703876
 178.226301, 2942.874377
 180.136208, 2942.035941
 182.046114, 2941.188568
 183.956021, 2940.332258
 185.865927, 2939.467011
 187.775834, 2942.708559
 189.685740, 2954.898086
 191.595647, 2967.210968
 193.505553, 2979.647204
 195.415460, 2992.206796
 197.325366, 3004.889742
 199.235272, 3017.696043
 201.145179, 3030.625699
 203.055085, 3043.678710
 204.964992, 3070.053125
 206.874898, 3097.256079
 208.784805, 3124.711341
 210.694711, 3152.418909
 212.604618, 3180.378785
 214.514524, 3208.590968
 216.424431, 3237.055458
 218.334337, 3265.772256
 220.244244, 3294.741360
 222.154150, 3323.962773
 224.064057, 3353.436492
 225.973963, 3393.937653
 227.883870, 3434.787261
 229.793776, 3475.980672
 231.703683, 3517.517887
 233.613589, 3559.398906
 235.523496, 3601.623727
 237.433402, 3644.192352
 239.343309, 3687.104781
 241.253215, 3730.361012
 243.163122, 3773.961048
 245.073028, 3817.904886
 246.982935, 3862.192528
 248.892841, 3906.823973
 250.802748, 3951.799222
 252.712654, 3997.118274
 254.622561, 4049.289001
 256.532467, 4104.183274
 258.442374, 4159.487767
 260.352280, 4215.202480
 262.262187, 4271.327412
 264.172093, 4327.862565
 266.081999, 4384.807936
 267.991906, 4442.163528
 269.901812, 4499.929339
 271.811719, 4558.105370
 273.721625, 4616.691621
 275.631532, 4675.688091
 277.541438, 4735.094781
 279.451345, 4794.911691
 281.361251, 4855.138820
 283.271158, 4915.776169
 285.181064, 4976.823738
 287.090971, 5038.281526
 289.000877, 5100.149534
 290.910784, 5162.427762
 292.820690, 5225.116210
 294.730597, 5288.214877
 296.640503, 5351.723764
 298.550410, 5418.290430
 300.460316, 5490.490326
 302.370223, 5563.150631
 304.280129, 5636.271346
