Speed, Forces
 115.199387, 9280.847977
 117.109294, 9203.287876
 119.019200, 9125.727775
 120.929107, 9048.167674
 122.839013, 8970.607574
 124.748920, 8893.047473
 126.658826, 8815.487372
 128.568733, 8737.927271
 130.478639, 8660.367170
 132.388545, 8582.807070
 134.298452, 8505.246969
 136.208358, 8427.686868
 138.118265, 8356.063841
 140.028171, 8287.498642
 141.938078, 8218.933444
 143.847984, 8150.368246
 145.757891, 8081.803048
 147.667797, 8013.237849
 149.577704, 7944.672651
 151.487610, 7876.107453
 153.397517, 7807.542255
 155.307423, 7738.977056
 157.217330, 7670.411858
 159.127236, 7601.846660
 161.037143, 7538.615847
 162.947049, 7477.487754
 164.856956, 7416.359661
 166.766862, 7355.231568
 168.676769, 7294.103475
 170.586675, 7232.975382
 172.496582, 7171.847289
 174.406488, 7110.719196
 176.316395, 7049.591103
 178.226301, 6988.463010
 180.136208, 6927.334917
 182.046114, 6866.206824
 183.956021, 6810.459273
 185.865927, 6756.278487
 187.775834, 6702.097700
 189.685740, 6647.916913
 191.595647, 6593.736127
 193.505553, 6539.555340
 195.415460, 6485.374553
 197.325366, 6431.193767
 199.235272, 6377.012980
 201.145179, 6322.832193
 203.055085, 6268.651407
 204.964992, 6214.470620
 206.874898, 6165.607947
 208.784805, 6117.821456
 210.694711, 6070.034966
 212.604618, 6022.248475
 214.514524, 5974.461984
 216.424431, 5926.675493
 218.334337, 5878.889003
 220.244244, 5831.102512
 222.154150, 5783.316021
 224.064057, 5735.529530
 225.973963, 5687.743040
 227.883870, 5639.956549
 229.793776, 5597.468128
 231.703683, 5555.641866
 233.613589, 5513.815603
 235.523496, 5471.989341
 237.433402, 5430.163079
 239.343309, 5388.336816
 241.253215, 5346.510554
 243.163122, 5304.684292
 245.073028, 5262.858029
 246.982935, 5221.031767
 248.892841, 5179.205504
 250.802748, 5137.379242
 252.712654, 5099.299190
 254.622561, 5061.432473
 256.532467, 5023.565755
 258.442374, 4985.699037
 260.352280, 4947.832319
 262.262187, 4909.965602
 264.172093, 4872.098884
 266.081999, 4834.232166
 267.991906, 4796.365449
 269.901812, 4758.498731
 271.811719, 4720.632013
 273.721625, 4682.773667
 275.631532, 4647.421746
 277.541438, 4612.069826
 279.451345, 4576.717905
 281.361251, 4541.365985
 283.271158, 4506.014064
 285.181064, 4470.662143
 287.090971, 4435.310223
 289.000877, 4399.958302
 290.910784, 4364.606382
 292.820690, 4329.254461
 294.730597, 4293.902540
 296.640503, 4258.553489
 298.550410, 4223.248952
 300.460316, 4187.944415
 302.370223, 4152.639878
 304.280129, 4117.335341
