Speed, Forces
 150.045362, 5581.656580
 151.418240, 5554.897817
 152.791117, 5528.169900
 154.163995, 5501.441984
 155.536872, 5474.714068
 156.909750, 5447.986152
 158.282627, 5421.258236
 159.655505, 5394.530320
 161.028382, 5367.802404
 162.401260, 5341.074487
 163.774137, 5314.346571
 165.147015, 5287.618655
 166.519892, 5260.890739
 167.892770, 5234.162823
 169.265647, 5207.434907
 170.638524, 5180.706991
 172.011402, 5155.496501
 173.384279, 5132.767063
 174.757157, 5110.037625
 176.130034, 5087.308186
 177.502912, 5064.578748
 178.875789, 5041.849309
 180.248667, 5019.119871
 181.621544, 4996.390433
 182.994422, 4973.660994
 184.367299, 4950.931556
 185.740177, 4928.202117
 187.113054, 4905.472679
 188.485932, 4882.743241
 189.858809, 4860.013802
 191.231687, 4837.284364
 192.604564, 4814.554925
 193.977441, 4794.296570
 195.350319, 4774.795755
 196.723196, 4755.294939
 198.096074, 4735.794124
 199.468951, 4716.293308
 200.841829, 4696.792492
 202.214706, 4677.291677
 203.587584, 4657.790861
 204.960461, 4638.290046
 206.333339, 4618.789230
 207.706216, 4599.288414
 209.079094, 4579.787599
 210.451971, 4560.286783
 211.824849, 4540.785968
 213.197726, 4521.285152
 214.570604, 4502.107624
 215.943481, 4484.744666
 217.316358, 4467.381707
 218.689236, 4450.018748
 220.062113, 4432.655789
 221.434991, 4415.292831
 222.807868, 4397.929872
 224.180746, 4380.566913
 225.553623, 4363.203955
 226.926501, 4345.840996
 228.299378, 4328.478037
 229.672256, 4311.115079
 231.045133, 4293.752120
 232.418011, 4276.389161
 233.790888, 4259.026202
 235.163766, 4241.663244
 236.536643, 4225.449084
 237.909520, 4210.225071
 239.282398, 4195.001057
 240.655275, 4179.777043
 242.028153, 4164.553030
 243.401030, 4149.329016
 244.773908, 4134.105003
 246.146785, 4118.880989
 247.519663, 4103.656975
 248.892540, 4088.432962
 250.265418, 4073.208948
 251.638295, 4057.984934
 253.011173, 4042.760921
 254.384050, 4027.536907
 255.756928, 4012.312893
 257.129805, 3997.088880
 258.502683, 3983.605659
 259.875560, 3970.267785
 261.248437, 3956.929911
 262.621315, 3943.592037
 263.994192, 3930.254163
 265.367070, 3916.916289
 266.739947, 3903.578415
 268.112825, 3890.240541
 269.485702, 3876.902667
 270.858580, 3863.564793
 272.231457, 3850.226919
 273.604335, 3836.889045
 274.977212, 3823.551170
 276.350090, 3810.213296
 277.722967, 3796.875422
 279.095845, 3783.975421
 280.468722, 3772.055501
 281.841600, 3760.135580
 283.214477, 3748.215660
 284.587354, 3736.295739
 285.960232, 3724.375819
