Speed, Forces
 130.942051, 7563.015930
 132.601814, 7510.955503
 134.261577, 7463.955572
 135.921339, 7417.641676
 137.581102, 7371.327781
 139.240865, 7325.013885
 140.900628, 7278.699990
 142.560391, 7232.386094
 144.220153, 7186.072199
 145.879916, 7139.758303
 147.539679, 7093.444408
 149.199442, 7047.130512
 150.859205, 7000.816617
 152.518968, 6954.502721
 154.178730, 6908.188826
 155.838493, 6864.839929
 157.498256, 6823.962534
 159.158019, 6783.085138
 160.817782, 6742.207743
 162.477544, 6701.330348
 164.137307, 6660.452952
 165.797070, 6619.575557
 167.456833, 6578.698162
 169.116596, 6537.820767
 170.776359, 6496.943371
 172.436121, 6456.065976
 174.095884, 6415.188581
 175.755647, 6374.311185
 177.415410, 6334.319912
 179.075173, 6297.659099
 180.734935, 6260.998286
 182.394698, 6224.337473
 184.054461, 6187.676661
 185.714224, 6151.015848
 187.373987, 6114.355035
 189.033750, 6077.694222
 190.693512, 6041.033409
 192.353275, 6004.372596
 194.013038, 5967.711784
 195.672801, 5931.050971
 197.332564, 5894.390158
 198.992326, 5857.729345
 200.652089, 5823.959041
 202.311852, 5790.601962
 203.971615, 5757.244883
 205.631378, 5723.887805
 207.291140, 5690.530726
 208.950903, 5657.173647
 210.610666, 5623.816568
 212.270429, 5590.459490
 213.930192, 5557.102411
 215.589955, 5523.745332
 217.249717, 5490.388253
 218.909480, 5457.031175
 220.569243, 5423.674096
 222.229006, 5392.679133
 223.888769, 5363.698936
 225.548531, 5334.718738
 227.208294, 5305.738541
 228.868057, 5276.758343
 230.527820, 5247.778146
 232.187583, 5218.797948
 233.847346, 5189.817751
 235.507108, 5160.837553
 237.166871, 5131.857356
 238.826634, 5102.877158
 240.486397, 5073.896961
 242.146160, 5044.916763
 243.805922, 5016.664354
 245.465685, 4991.243890
 247.125448, 4965.823425
 248.785211, 4940.402961
 250.444974, 4914.982496
 252.104737, 4889.562032
 253.764499, 4864.141567
 255.424262, 4838.721103
 257.084025, 4813.300638
 258.743788, 4787.880174
 260.403551, 4762.459709
 262.063313, 4737.039245
 263.723076, 4711.618780
 265.382839, 4686.198316
 267.042602, 4663.234920
 268.702365, 4640.641242
 270.362127, 4618.047565
 272.021890, 4595.453887
 273.681653, 4572.860210
 275.341416, 4550.266532
 277.001179, 4527.672855
 278.660942, 4505.079178
 280.320704, 4482.485500
 281.980467, 4459.891823
 283.640230, 4437.298145
 285.299993, 4414.704468
 286.959756, 4392.110790
 288.619518, 4370.663600
 290.279281, 4350.216986
 291.939044, 4329.770372
 293.598807, 4309.323758
 295.258570, 4288.877145
