Speed, Forces
 140.017987, 6564.263593
 141.539479, 6524.966677
 143.060970, 6485.669762
 144.582462, 6446.372846
 146.103953, 6407.075930
 147.625445, 6367.779014
 149.146936, 6328.482098
 150.668427, 6289.185183
 152.189919, 6249.888267
 153.711410, 6215.706198
 155.232902, 6182.901434
 156.754393, 6150.096669
 158.275885, 6117.291905
 159.797376, 6084.487140
 161.318868, 6051.682376
 162.840359, 6018.877612
 164.361850, 5986.072847
 165.883342, 5953.268083
 167.404833, 5920.463319
 168.926325, 5887.658554
 170.447816, 5854.853790
 171.969308, 5822.049025
 173.490799, 5789.244261
 175.012291, 5758.529847
 176.533782, 5730.191649
 178.055273, 5701.853451
 179.576765, 5673.515252
 181.098256, 5645.177054
 182.619748, 5616.838856
 184.141239, 5588.500658
 185.662731, 5560.162460
 187.184222, 5531.824262
 188.705714, 5503.486064
 190.227205, 5475.147866
 191.748696, 5446.809667
 193.270188, 5418.471469
 194.791679, 5390.133271
 196.313171, 5362.248797
 197.834662, 5336.973117
 199.356154, 5311.697436
 200.877645, 5286.421755
 202.399137, 5261.146075
 203.920628, 5235.870394
 205.442119, 5210.594713
 206.963611, 5185.319032
 208.485102, 5160.043352
 210.006594, 5134.767671
 211.528085, 5109.491990
 213.049577, 5084.216309
 214.571068, 5058.940629
 216.092560, 5033.664948
 217.614051, 5008.389267
 219.135542, 4985.585605
 220.657034, 4963.294386
 222.178525, 4941.003167
 223.700017, 4918.711948
 225.221508, 4896.420729
 226.743000, 4874.129510
 228.264491, 4851.838291
 229.785983, 4829.547071
 231.307474, 4807.255852
 232.828965, 4784.964633
 234.350457, 4762.673414
 235.871948, 4740.382195
 237.393440, 4718.090976
 238.914931, 4695.799757
 240.436423, 4674.926683
 241.957914, 4655.424613
 243.479406, 4635.922542
 245.000897, 4616.420472
 246.522388, 4596.918402
 248.043880, 4577.416331
 249.565371, 4557.914261
 251.086863, 4538.412190
 252.608354, 4518.910120
 254.129846, 4499.408050
 255.651337, 4479.905979
 257.172829, 4460.403909
 258.694320, 4440.901838
 260.215812, 4421.399768
 261.737303, 4402.347358
 263.258794, 4385.229572
 264.780286, 4368.111785
 266.301777, 4350.993999
 267.823269, 4333.876213
 269.344760, 4316.758427
 270.866252, 4299.640640
 272.387743, 4282.522854
 273.909235, 4265.405068
 275.430726, 4248.287281
 276.952217, 4231.169495
 278.473709, 4214.051709
 279.995200, 4196.933922
 281.516692, 4179.816136
 283.038183, 4162.698350
 284.559675, 4147.233941
 286.081166, 4132.019328
 287.602658, 4116.804714
 289.124149, 4101.590100
 290.645640, 4086.375487
