Time, Emissions
   0.000000,    0.041561
   0.001667,   41.563892
   0.003333,   83.148981
   0.005000,  124.736680
   0.006667,  166.324380
   0.008333,  207.912079
   0.010000,  249.499779
   0.011667,  291.087478
   0.013333,  332.675178
   0.015000,  374.262877
   0.016667,  415.850577
   0.018333,  457.438276
   0.020000,  499.057186
   0.021667,  540.679993
   0.023333,  582.302800
   0.025000,  623.925606
   0.026667,  665.548413
   0.028333,  707.171220
   0.030000,  748.794027
   0.031667,  790.416834
   0.033333,  832.039640
   0.035000,  873.662447
   0.036667,  915.306999
   0.038333,  956.954265
   0.040000,  998.601531
   0.041667, 1040.248798
   0.043333, 1081.896064
   0.045000, 1123.543330
   0.046667, 1165.190597
   0.048333, 1206.837863
   0.050000, 1248.485129
   0.051667, 1290.132396
   0.053333, 1331.792276
   0.055000, 1373.453731
   0.056667, 1415.115186
   0.058333, 1456.776641
   0.060000, 1498.438096
   0.061667, 1540.099552
   0.063333, 1581.761007
   0.065000, 1623.422462
   0.066667, 1665.083917
   0.068333, 1706.745372
   0.070000, 1748.410654
   0.071667, 1790.076414
   0.073333, 1831.742174
   0.075000, 1873.407934
   0.076667, 1915.073694
   0.078333, 1956.739454
   0.080000, 1998.405214
   0.081667, 2040.070974
   0.083333, 2081.736734
   0.085000, 2123.402494
   0.086667, 2165.084061
   0.088333, 2206.767603
   0.090000, 2248.451144
   0.091667, 2290.134685
   0.093333, 2331.818227
   0.095000, 2373.501768
   0.096667, 2415.185309
   0.098333, 2456.868851
   0.100000, 2498.552392
   0.101667, 2540.235933
   0.103333, 2581.963244
   0.105000, 2623.696019
   0.106667, 2665.428794
   0.108333, 2707.161569
   0.110000, 2748.894343
   0.111667, 2790.627118
   0.113333, 2832.359893
   0.115000, 2874.092668
   0.116667, 2915.825443
   0.118333, 2957.558218
   0.120000, 2999.316302
   0.121667, 3041.077547
   0.123333, 3082.838791
   0.125000, 3124.600035
   0.126667, 3166.361279
   0.128333, 3208.122523
   0.130000, 3249.883767
   0.131667, 3291.645011
   0.133333, 3333.406255
   0.135000, 3375.167499
   0.136667, 3416.935593
   0.138333, 3458.704543
   0.140000, 3500.473492
   0.141667, 3542.242441
   0.143333, 3584.011390
   0.145000, 3625.780340
   0.146667, 3667.549289
   0.148333, 3709.318238
   0.150000, 3751.087187
   0.151667, 3792.856137
   0.153333, 3834.614597
   0.155000, 3876.371747
   0.156667, 3918.128897
   0.158333, 3959.886047
   0.160000, 4001.643197
   0.161667, 4043.400347
   0.163333, 4085.157497
   0.165000, 4126.914648
   0.166667, 4168.671798
   0.168333, 4210.428948
   0.170000, 4252.159367
   0.171667, 4293.886448
   0.173333, 4335.613529
   0.175000, 4377.340611
   0.176667, 4419.067692
   0.178333, 4460.794773
   0.180000, 4502.521854
   0.181667, 4544.248936
   0.183333, 4585.976017
   0.185000, 4627.703098
   0.186667, 4669.460490
   0.188333, 4711.221666
   0.190000, 4752.982843
   0.191667, 4794.744019
   0.193333, 4836.505196
   0.195000, 4878.266372
   0.196667, 4920.027549
   0.198333, 4961.788725
   0.200000, 5003.549902
   0.201667, 5045.311078
   0.203333, 5087.154479
   0.205000, 5129.008146
   0.206667, 5170.861813
   0.208333, 5212.715480
   0.210000, 5254.569147
   0.211667, 5296.422814
   0.213333, 5338.276481
   0.215000, 5380.130149
   0.216667, 5421.983816
   0.218333, 5463.837483
   0.220000, 5505.736072
   0.221667, 5547.640269
   0.223333, 5589.544467
   0.225000, 5631.448664
   0.226667, 5673.352862
   0.228333, 5715.257059
   0.230000, 5757.161257
   0.231667, 5799.065454
   0.233333, 5840.969652
   0.235000, 5882.873849
   0.236667, 5924.788320
   0.238333, 5966.704074
   0.240000, 6008.619828
   0.241667, 6050.535582
   0.243333, 6092.451337
   0.245000, 6134.367091
   0.246667, 6176.282845
   0.248333, 6218.198599
   0.250000, 6260.114353
   0.251667, 6302.030107
   0.253333, 6343.924523
   0.255000, 6385.816275
   0.256667, 6427.708027
   0.258333, 6469.599778
   0.260000, 6511.491530
   0.261667, 6553.383282
   0.263333, 6595.275034
   0.265000, 6637.166786
   0.266667, 6679.058538
   0.268333, 6720.950290
   0.270000, 6762.791965
   0.271667, 6804.627387
   0.273333, 6846.462810
   0.275000, 6888.298232
   0.276667, 6930.133655
   0.278333, 6971.969078
   0.280000, 7013.804500
   0.281667, 7055.639923
   0.283333, 7097.475345
   0.285000, 7139.310768
   0.286667, 7181.071279
   0.288333, 7222.822438
   0.290000, 7264.573596
   0.291667, 7306.324755
   0.293333, 7348.075913
   0.295000, 7389.827071
   0.296667, 7431.578230
   0.298333, 7473.329388
   0.300000, 7515.080547
   0.301667, 7556.831705
   0.303333, 7598.576215
   0.305000, 7640.319894
   0.306667, 7682.063574
   0.308333, 7723.807253
   0.310000, 7765.550933
   0.311667, 7807.294612
   0.312369, 7824.892645
   0.314036, 7866.681901
   0.315703, 7908.471158
   0.317369, 7950.260414
   0.319036, 7992.063727
   0.320703, 8033.898244
   0.322369, 8075.732761
   0.324036, 8117.567279
   0.325703, 8159.401796
   0.327369, 8201.236313
   0.329036, 8243.070830
   0.330703, 8284.905347
   0.332369, 8326.739864
   0.334036, 8368.574382
   0.335703, 8410.421051
   0.337369, 8452.294697
   0.339036, 8494.168343
   0.340703, 8536.041989
   0.342369, 8577.915635
   0.344036, 8619.789281
   0.345703, 8661.662927
   0.347369, 8703.536572
   0.349036, 8745.410218
   0.350703, 8787.283864
   0.352369, 8829.160386
   0.354036, 8871.043292
   0.355703, 8912.926197
   0.357369, 8954.809103
   0.359036, 8996.692008
   0.360703, 9038.574914
   0.362369, 9080.457819
   0.364036, 9122.340725
   0.365703, 9164.223630
   0.367369, 9206.106536
   0.368518, 9234.981717
   0.370185, 9276.852404
   0.371852, 9318.723091
   0.373518, 9360.593778
   0.375185, 9402.464464
   0.376852, 9444.335151
   0.378518, 9486.205838
   0.380185, 9528.076525
   0.381852, 9569.947212
   0.383518, 9611.817899
   0.385185, 9653.688586
   0.386852, 9695.546964
   0.388518, 9737.405343
   0.390185, 9779.263722
   0.391852, 9821.122101
   0.393518, 9862.980480
   0.395185, 9904.831700
   0.396852, 9946.682920
   0.398518, 9988.534140
   0.400185, 10030.385361
   0.401852, 10072.236581
   0.403518, 10114.082028
   0.405185, 10155.927475
   0.406852, 10197.772922
   0.408518, 10239.618369
   0.410185, 10281.463816
   0.410185, 10281.463816
   1.604481, 35795.451650
   2.823272, 61447.950909
   4.081386, 87367.841742
   5.429985, 114117.101379
   6.915721, 142211.651279
   8.560390, 171979.894461
  10.397371, 203892.354879
  12.485334, 238650.947716
  14.968358, 277978.157473
  14.968358, 277978.157473
  15.830802, 290972.061760
  16.693245, 303963.580080
  17.555688, 316952.712495
  18.418132, 329939.459069
  19.280575, 342923.819865
  20.143018, 355905.794947
  21.005461, 368885.384376
  21.867905, 381862.588219
  22.730348, 394837.406537
  23.592791, 407809.839396
  24.455235, 420779.886860
  25.317678, 433747.548992
  26.180121, 446712.825858
  27.042565, 459675.717523
  27.905008, 472636.224052
  28.767451, 485594.345509
  29.629895, 498550.081961
  30.492338, 511503.433473
  31.354781, 524454.400111
  32.217225, 537402.981940
  33.079668, 550349.179028
  33.942111, 563292.991440
  34.804555, 576234.419243
  35.666998, 589173.462504
  36.529441, 602110.121290
  37.391885, 615044.395669
  38.254328, 627976.285706
  39.116771, 640905.791471
  39.979215, 653832.913030
  39.979215, 653832.913030
  41.139143, 664969.142880
  42.301874, 675940.962858
  43.463193, 686818.628452
  44.619342, 697471.210135
  45.768081, 707907.340659
  46.905098, 718130.414468
  48.026307, 727982.137374
  49.143709, 737621.343487
  50.253604, 747113.894558
  50.253604, 747113.894558
  50.833005, 759397.558910
  51.418049, 771706.669370
  52.008556, 784033.295961
  52.607292, 796403.525208
  53.225054, 808936.886858
  53.871173, 821732.498207
  54.548638, 834819.321396
  55.259779, 848230.494993
  56.006440, 861999.628243
  56.006440, 861999.628243
  57.858634, 883940.608372
  59.711637, 905873.137349
  61.565449, 927797.200719
  63.420072, 949712.784058
  65.275506, 971619.872976
  67.131752, 993518.453114
  68.988810, 1015408.510147
  70.846682, 1037290.029783
  72.705368, 1059162.997760
  72.705368, 1059162.997760
  73.351774, 1065799.820720
  73.988012, 1072354.217538
  74.626788, 1078220.931635
  75.268241, 1084101.880067
  75.912514, 1089979.637151
  76.559398, 1095861.110848
  77.208755, 1101767.597220
  77.860123, 1107694.798381
  78.512585, 1113629.290465
  78.512585, 1113629.290465
  83.512585, 1170417.874080
  88.512585, 1227095.527845
  93.512585, 1283662.370309
  98.512585, 1340119.574418
 103.512585, 1396470.053879
 108.512585, 1452713.920066
 113.512585, 1508851.284658
 118.512585, 1564882.259632
 123.512585, 1620806.957262
 123.512585, 1620806.957262
 123.514252, 1620824.539414
 123.515918, 1620842.121701
 123.517585, 1620859.703988
 123.519252, 1620877.287885
 123.520918, 1620894.872093
 123.522585, 1620912.456300
 123.524252, 1620930.040508
 123.525918, 1620947.624715
 123.527585, 1620965.208923
 123.529252, 1620982.793130
 123.530918, 1621000.377337
 123.532585, 1621017.961545
 123.534252, 1621035.545752
 123.535918, 1621053.132447
 123.537585, 1621070.719621
 123.539252, 1621088.306795
 123.540918, 1621105.893969
 123.542585, 1621123.481143
 123.544252, 1621141.068317
 123.545918, 1621158.655491
 123.547585, 1621176.242665
 123.549252, 1621193.829839
 123.550918, 1621211.417013
 123.552585, 1621229.006667
 123.554252, 1621246.596799
 123.555918, 1621264.186932
 123.557585, 1621281.777065
 123.559252, 1621299.367197
 123.560918, 1621316.957330
 123.562585, 1621334.547463
 123.564252, 1621352.137595
 123.565918, 1621369.727728
 123.567585, 1621387.317860
 123.569252, 1621404.910454
 123.570918, 1621422.503523
 123.572585, 1621440.096591
 123.574252, 1621457.689660
 123.575918, 1621475.282728
 123.577585, 1621492.875797
 123.579252, 1621510.468866
 123.580918, 1621528.061934
 123.582585, 1621545.655003
 123.584252, 1621563.248071
 123.585918, 1621580.843589
 123.587585, 1621598.439580
 123.589252, 1621616.035571
 123.590918, 1621633.631562
 123.592585, 1621651.227552
 123.594252, 1621668.823543
 123.595918, 1621686.419534
 123.597585, 1621704.015525
 123.599252, 1621721.611515
 123.600918, 1621739.207506
 123.602585, 1621756.805957
 123.604252, 1621774.404883
 123.605918, 1621792.003808
 123.607585, 1621809.602734
 123.609252, 1621827.201659
 123.610918, 1621844.800585
 123.612585, 1621862.399510
 123.614252, 1621879.998436
 123.615918, 1621897.597361
 123.617585, 1621915.196287
 123.619252, 1621932.797659
 123.620918, 1621950.399504
 123.622585, 1621968.001349
 123.624252, 1621985.603193
 123.625918, 1622003.205038
 123.627585, 1622020.806883
 123.629252, 1622038.408727
 123.630918, 1622056.010572
 123.632585, 1622073.612417
 123.634252, 1622091.214261
 123.635918, 1622108.818563
 123.637585, 1622126.423338
 123.639252, 1622144.028114
 123.640918, 1622161.632890
 123.642585, 1622179.237665
 123.644252, 1622196.842441
 123.645918, 1622214.447217
 123.647585, 1622232.051992
 123.649252, 1622249.656768
 123.650918, 1622267.261544
 123.652585, 1622284.868773
 123.654252, 1622302.476476
 123.655918, 1622320.084179
 123.657585, 1622337.691882
 123.659252, 1622355.299585
 123.660918, 1622372.907288
 123.662585, 1622390.514991
 123.664252, 1622408.122694
 123.665918, 1622425.730397
 123.667585, 1622443.338100
 123.669252, 1622460.948246
 123.670918, 1622478.558863
 123.672585, 1622496.169479
 123.674252, 1622513.780096
 123.675918, 1622531.390713
 123.677585, 1622549.001330
 123.679252, 1622566.611947
 123.680918, 1622584.222564
 123.682585, 1622601.833181
 123.684252, 1622619.443798
 123.685918, 1622637.056839
 123.687585, 1622654.670348
 123.689252, 1622672.283857
 123.690918, 1622689.897366
 123.692585, 1622707.510875
 123.694252, 1622725.124384
 123.695918, 1622742.737893
 123.697585, 1622760.351402
 123.699252, 1622777.964911
 123.700918, 1622795.578420
 123.702585, 1622813.194327
 123.704252, 1622830.810698
 123.705918, 1622848.427069
 123.707585, 1622866.043439
 123.709252, 1622883.659810
 123.710918, 1622901.276180
 123.712585, 1622918.892551
 123.714252, 1622936.508921
 123.715918, 1622954.125292
 123.717585, 1622971.741662
 123.719252, 1622989.360421
 123.720918, 1623006.979641
 123.722585, 1623024.598860
 123.724252, 1623042.218080
 123.725918, 1623059.837299
 123.727585, 1623077.456519
 123.729252, 1623095.075738
 123.730918, 1623112.694958
 123.732585, 1623130.314177
 123.734252, 1623147.933397
 123.735918, 1623165.555012
 123.737585, 1623183.177090
 123.739252, 1623200.799168
 123.740918, 1623218.421246
 123.742585, 1623236.043324
 123.744252, 1623253.665402
 123.745918, 1623271.287480
 123.747585, 1623288.909557
 123.749252, 1623306.531635
 123.750918, 1623324.153713
 123.752585, 1623341.778185
 123.754252, 1623359.403118
 123.755918, 1623377.028051
 123.757585, 1623394.652984
 123.759252, 1623412.277918
 123.760918, 1623429.902851
 123.762585, 1623447.527784
 123.764252, 1623465.152718
 123.765918, 1623482.777651
 123.767585, 1623500.402584
 123.769252, 1623518.029896
 123.770918, 1623535.657666
 123.772585, 1623553.285436
 123.774252, 1623570.913207
 123.775918, 1623588.540977
 123.777585, 1623606.168747
 123.779252, 1623623.796518
 123.780918, 1623641.424288
 123.782585, 1623659.052058
 123.784252, 1623676.679829
 123.785918, 1623694.309988
 123.787585, 1623711.940608
 123.789252, 1623729.571228
 123.790918, 1623747.201848
 123.792585, 1623764.832468
 123.794252, 1623782.463088
 123.795918, 1623800.093708
 123.797585, 1623817.724328
 123.799252, 1623835.354948
 123.800918, 1623852.985568
 123.802585, 1623870.618576
 123.804252, 1623888.252046
 123.805918, 1623905.885515
 123.807585, 1623923.518985
 123.809252, 1623941.152454
 123.810918, 1623958.785924
 123.812585, 1623976.419393
 123.814252, 1623994.052863
 123.815918, 1624011.686332
 123.817585, 1624029.319802
 123.819252, 1624046.955646
 123.820918, 1624064.591949
 123.822585, 1624082.228253
 123.824252, 1624099.864556
 123.825918, 1624117.500859
 123.827585, 1624135.137162
 123.829252, 1624152.773465
 123.830918, 1624170.409768
 123.832585, 1624188.046071
 123.834252, 1624205.682374
 123.835918, 1624223.321065
 123.837585, 1624240.960216
 123.839252, 1624258.599367
 123.840918, 1624276.238518
 123.842585, 1624293.877669
 123.844252, 1624311.516820
 123.845918, 1624329.155971
 123.847585, 1624346.795122
 123.849252, 1624364.434273
 123.850918, 1624382.073425
 123.852585, 1624399.714964
 123.854252, 1624417.356964
 123.855918, 1624434.998964
 123.857585, 1624452.640964
 123.859252, 1624470.282964
 123.860918, 1624487.924965
 123.862585, 1624505.566965
 123.864252, 1624523.208965
 123.865918, 1624540.850965
 123.867585, 1624558.492965
 123.869252, 1624576.137341
 123.870918, 1624593.782174
 123.872585, 1624611.427008
 123.874252, 1624629.071842
 123.875918, 1624646.716676
 123.877585, 1624664.361510
 123.879252, 1624682.006343
 123.880918, 1624699.651177
 123.882585, 1624717.296011
 123.884252, 1624734.940845
 123.885918, 1624752.588066
 123.887585, 1624770.235747
 123.889252, 1624787.883429
 123.890918, 1624805.531111
 123.892585, 1624823.178792
 123.894252, 1624840.826474
 123.895918, 1624858.474155
 123.897585, 1624876.121837
 123.899252, 1624893.769519
 123.900918, 1624911.417200
 123.902585, 1624929.067269
 123.904252, 1624946.717799
 123.905918, 1624964.368328
 123.907585, 1624982.018858
 123.909252, 1624999.669388
 123.910918, 1625017.319917
 123.912585, 1625034.970447
 123.914252, 1625052.620976
 123.915918, 1625070.271506
 123.917585, 1625087.922036
 123.919252, 1625105.574938
 123.920918, 1625123.228299
 123.922585, 1625140.881660
 123.924252, 1625158.535020
 123.925918, 1625176.188381
 123.927585, 1625193.841742
 123.929252, 1625211.495102
 123.930918, 1625229.148463
 123.932585, 1625246.801824
 123.934252, 1625264.455184
 123.935918, 1625282.110929
 123.937585, 1625299.767133
 123.939252, 1625317.423337
 123.940918, 1625335.079541
 123.942585, 1625352.735745
 123.944252, 1625370.391949
 123.945918, 1625388.048153
 123.947585, 1625405.704357
 123.949252, 1625423.360561
 123.950918, 1625441.016766
 123.952585, 1625458.675352
 123.954252, 1625476.334397
 123.955918, 1625493.993443
 123.957585, 1625511.652488
 123.959252, 1625529.311534
 123.960918, 1625546.970579
 123.962585, 1625564.629625
 123.964252, 1625582.288670
 123.965918, 1625599.947716
 123.967585, 1625617.606761
 123.969252, 1625635.268172
 123.970918, 1625652.930040
 123.972585, 1625670.591908
 123.974252, 1625688.253775
 123.975918, 1625705.915643
 123.977585, 1625723.577510
 123.979252, 1625741.239378
 123.980918, 1625758.901245
 123.982585, 1625776.563113
 123.984252, 1625794.224981
 123.985918, 1625811.889222
 123.987585, 1625829.553922
 123.989252, 1625847.218621
 123.990918, 1625864.883321
 123.992585, 1625882.548021
 123.994252, 1625900.212720
 123.995918, 1625917.877420
 123.997585, 1625935.542119
 123.999252, 1625953.206819
 124.000918, 1625970.871519
 124.002585, 1625988.538589
 124.004252, 1626006.206116
 124.005918, 1626023.873643
 124.007585, 1626041.541171
 124.009252, 1626059.208698
 124.010918, 1626076.876225
 124.012585, 1626094.543753
 124.014252, 1626112.211280
 124.015918, 1626129.878808
 124.017585, 1626147.546335
 124.019252, 1626165.216225
 124.020918, 1626182.886572
 124.022585, 1626200.556918
 124.024252, 1626218.227265
 124.025918, 1626235.897611
 124.027585, 1626253.567958
 124.029252, 1626271.238304
 124.030918, 1626288.908651
 124.032585, 1626306.578997
 124.034252, 1626324.249344
 124.035918, 1626341.922103
 124.037585, 1626359.595328
 124.039252, 1626377.268553
 124.040918, 1626394.941778
 124.042585, 1626412.615002
 124.044252, 1626430.288227
 124.045918, 1626447.961452
 124.047585, 1626465.634677
 124.049252, 1626483.307902
 124.050918, 1626500.981127
 124.052585, 1626518.656742
 124.054252, 1626536.332819
 124.055918, 1626554.008896
 124.057585, 1626571.684973
 124.059252, 1626589.361050
 124.060918, 1626607.037127
 124.062585, 1626624.713204
 124.064252, 1626642.389281
 124.065918, 1626660.065358
 124.067585, 1626677.741435
 124.069252, 1626695.419884
 124.070918, 1626713.098791
 124.072585, 1626730.777697
 124.074252, 1626748.456604
 124.075918, 1626766.135510
 124.077585, 1626783.814417
 124.079252, 1626801.493324
 124.080918, 1626819.172230
 124.082585, 1626836.851137
 124.084252, 1626854.530043
 124.085918, 1626872.211310
 124.087585, 1626889.893032
 124.089252, 1626907.574754
 124.090918, 1626925.256476
 124.092585, 1626942.938197
 124.094252, 1626960.619919
 124.095918, 1626978.301641
 124.097585, 1626995.983363
 124.099252, 1627013.665085
 124.100918, 1627031.346807
 124.102585, 1627049.030896
 124.104252, 1627066.715442
 124.105918, 1627084.399988
 124.107585, 1627102.084534
 124.109252, 1627119.769080
 124.110918, 1627137.453627
 124.112585, 1627155.138173
 124.114252, 1627172.822719
 124.115918, 1627190.507265
 124.117585, 1627208.191811
 124.119252, 1627225.878719
 124.120918, 1627243.566083
 124.122585, 1627261.253447
 124.124252, 1627278.940811
 124.125918, 1627296.628175
 124.127585, 1627314.315539
 124.129252, 1627332.002903
 124.130918, 1627349.690266
 124.132585, 1627367.377630
 124.134252, 1627385.064994
 124.135918, 1627402.754707
 124.137585, 1627420.444873
 124.139252, 1627438.135039
 124.140918, 1627455.825205
 124.142585, 1627473.515371
 124.144252, 1627491.205538
 124.145918, 1627508.895704
 124.147585, 1627526.585870
 124.149252, 1627544.276036
 124.150918, 1627561.966202
 124.152585, 1627579.658697
 124.154252, 1627597.351642
 124.155918, 1627615.044586
 124.157585, 1627632.737531
 124.159252, 1627650.430475
 124.160918, 1627668.123420
 124.162585, 1627685.816364
 124.164252, 1627703.509309
 124.165918, 1627721.202253
 124.167585, 1627738.895198
 124.169252, 1627756.590445
 124.170918, 1627774.286137
 124.172585, 1627791.981829
 124.174252, 1627809.677520
 124.175918, 1627827.373212
 124.177585, 1627845.068904
 124.179252, 1627862.764596
 124.180918, 1627880.460287
 124.182585, 1627898.155979
 124.184252, 1627915.851671
 124.185918, 1627933.549655
 124.187585, 1627951.248081
 124.189252, 1627968.946507
 124.190918, 1627986.644934
 124.192585, 1628004.343360
 124.194252, 1628022.041786
 124.195918, 1628039.740213
 124.197585, 1628057.438639
 124.199252, 1628075.137065
 124.200918, 1628092.835492
 124.202585, 1628110.536219
 124.204252, 1628128.237391
 124.205918, 1628145.938563
 124.207585, 1628163.639734
 124.209252, 1628181.340906
 124.210918, 1628199.042078
 124.212585, 1628216.743249
 124.214252, 1628234.444421
 124.215918, 1628252.145593
 124.217585, 1628269.846764
 124.219252, 1628287.550236
 124.220918, 1628305.254152
 124.222585, 1628322.958067
 124.224252, 1628340.661983
 124.225918, 1628358.365899
 124.227585, 1628376.069814
 124.229252, 1628393.773730
 124.230918, 1628411.477646
 124.232585, 1628429.181561
 124.234252, 1628446.885477
 124.235918, 1628464.591679
 124.237585, 1628482.298323
 124.239252, 1628500.004966
 124.240918, 1628517.711609
 124.242585, 1628535.418253
 124.244252, 1628553.124896
 124.245918, 1628570.831539
 124.247585, 1628588.538183
 124.249252, 1628606.244826
 124.250918, 1628623.951469
 124.252585, 1628641.660412
 124.254252, 1628659.369798
 124.255918, 1628677.079185
 124.257585, 1628694.788571
 124.259252, 1628712.497957
 124.260918, 1628730.207344
 124.262585, 1628747.916730
 124.264252, 1628765.626117
 124.265918, 1628783.335503
 124.267585, 1628801.044889
 124.269252, 1628818.756577
 124.270918, 1628836.468710
 124.272585, 1628854.180842
 124.274252, 1628871.892974
 124.275918, 1628889.605106
 124.277585, 1628907.317238
 124.279252, 1628925.029370
 124.280918, 1628942.741503
 124.282585, 1628960.453635
 124.284252, 1628978.165767
 124.285918, 1628995.880175
 124.287585, 1629013.595023
 124.289252, 1629031.309871
 124.290918, 1629049.024718
 124.292585, 1629066.739566
 124.294252, 1629084.454414
 124.295918, 1629102.169262
 124.297585, 1629119.884109
 124.299252, 1629137.598957
 124.300918, 1629155.313805
 124.302585, 1629173.030903
 124.304252, 1629190.748436
 124.305918, 1629208.465969
 124.307585, 1629226.183501
 124.309252, 1629243.901034
 124.310918, 1629261.618567
 124.312585, 1629279.336100
 124.314252, 1629297.053632
 124.315918, 1629314.771165
 124.317585, 1629332.488698
 124.319252, 1629350.208473
 124.320918, 1629367.928681
 124.322585, 1629385.648890
 124.324252, 1629403.369098
 124.325918, 1629421.089306
 124.327585, 1629438.809514
 124.329252, 1629456.529722
 124.330918, 1629474.249930
 124.332585, 1629491.970138
 124.334252, 1629509.690346
 124.335918, 1629527.412810
 124.337585, 1629545.135709
 124.339252, 1629562.858608
 124.340918, 1629580.581507
 124.342585, 1629598.304406
 124.344252, 1629616.027304
 124.345918, 1629633.750203
 124.347585, 1629651.473102
 124.349252, 1629669.196001
 124.350918, 1629686.918900
 124.352585, 1629704.644059
 124.354252, 1629722.369653
 124.355918, 1629740.095247
 124.357585, 1629757.820842
 124.359252, 1629775.546436
 124.360918, 1629793.272031
 124.362585, 1629810.997625
 124.364252, 1629828.723220
 124.365918, 1629846.448814
 124.367585, 1629864.174408
 124.369252, 1629881.902253
 124.370918, 1629899.630532
 124.372585, 1629917.358811
 124.374252, 1629935.087089
 124.375918, 1629952.815368
 124.377585, 1629970.543647
 124.379252, 1629988.271926
 124.380918, 1630006.000204
 124.382585, 1630023.728483
 124.384252, 1630041.456762
 124.385918, 1630059.187319
 124.387585, 1630076.918316
 124.389252, 1630094.649312
 124.390918, 1630112.380309
 124.392585, 1630130.111306
 124.394252, 1630147.842303
 124.395918, 1630165.573299
 124.397585, 1630183.304296
 124.399252, 1630201.035293
 124.400918, 1630218.766289
 124.402585, 1630236.499539
 124.404252, 1630254.233224
 124.405918, 1630271.966909
 124.407585, 1630289.700594
 124.409252, 1630307.434279
 124.410918, 1630325.167964
 124.412585, 1630342.901649
 124.414252, 1630360.635334
 124.415918, 1630378.369019
 124.417585, 1630396.102704
 124.419252, 1630413.838653
 124.420918, 1630431.575038
 124.422585, 1630449.311424
 124.424252, 1630467.047810
 124.425918, 1630484.784195
 124.427585, 1630502.520581
 124.429252, 1630520.256966
 124.430918, 1630537.993352
 124.432585, 1630555.729738
 124.434252, 1630573.466123
 124.435918, 1630591.204773
 124.437585, 1630608.943859
 124.439252, 1630626.682945
 124.440918, 1630644.422031
 124.442585, 1630662.161118
 124.444252, 1630679.900204
 124.445918, 1630697.639290
 124.447585, 1630715.378377
 124.449252, 1630733.117463
 124.450918, 1630750.856549
 124.452585, 1630768.597886
 124.454252, 1630786.339658
 124.455918, 1630804.081429
 124.457585, 1630821.823201
 124.459252, 1630839.564972
 124.460918, 1630857.306744
 124.462585, 1630875.048515
 124.464252, 1630892.790286
 124.465918, 1630910.532058
 124.467585, 1630928.273829
 124.469252, 1630946.017865
 124.470918, 1630963.762338
 124.472585, 1630981.506811
 124.474252, 1630999.251284
 124.475918, 1631016.995757
 124.477585, 1631034.740230
 124.479252, 1631052.484703
 124.480918, 1631070.229176
 124.482585, 1631087.973649
 124.484252, 1631105.718122
 124.485918, 1631123.464862
 124.487585, 1631141.212039
 124.489252, 1631158.959217
 124.490918, 1631176.706394
 124.492585, 1631194.453572
 124.494252, 1631212.200749
 124.495918, 1631229.947927
 124.497585, 1631247.695104
 124.499252, 1631265.442281
 124.500918, 1631283.189459
 124.502585, 1631300.938878
 124.504252, 1631318.688729
 124.505918, 1631336.438581
 124.507585, 1631354.188432
 124.509252, 1631371.938283
 124.510918, 1631389.688135
 124.512585, 1631407.437986
 124.514252, 1631425.187838
 124.515918, 1631442.937689
 124.517585, 1631460.687540
 124.519252, 1631478.439607
 124.520918, 1631496.192101
 124.522585, 1631513.944595
 124.524252, 1631531.697090
 124.525918, 1631549.449584
 124.527585, 1631567.202078
 124.529252, 1631584.954572
 124.530918, 1631602.707066
 124.532585, 1631620.459560
 124.534252, 1631638.212055
 124.535918, 1631655.966755
 124.537585, 1631673.721882
 124.539252, 1631691.477008
 124.540918, 1631709.232135
 124.542585, 1631726.987261
 124.544252, 1631744.742388
 124.545918, 1631762.497514
 124.547585, 1631780.252641
 124.549252, 1631798.007767
 124.550918, 1631815.762894
 124.552585, 1631833.520239
 124.554252, 1631851.278013
 124.555918, 1631869.035786
 124.557585, 1631886.793560
 124.559252, 1631904.551333
 124.560918, 1631922.309107
 124.562585, 1631940.066880
 124.564252, 1631957.824654
 124.565918, 1631975.582427
 124.567585, 1631993.340201
 124.569252, 1632011.100196
 124.570918, 1632028.860621
 124.572585, 1632046.621045
 124.574252, 1632064.381469
 124.575918, 1632082.141893
 124.577585, 1632099.902317
 124.579252, 1632117.662741
 124.580918, 1632135.423166
 124.582585, 1632153.183590
 124.584252, 1632170.944014
 124.585918, 1632188.706649
 124.587585, 1632206.469712
 124.589252, 1632224.232774
 124.590918, 1632241.995836
 124.592585, 1632259.758899
 124.594252, 1632277.521961
 124.595918, 1632295.285023
 124.597585, 1632313.048086
 124.599252, 1632330.811148
 124.600918, 1632348.574210
 124.602585, 1632366.339511
 124.604252, 1632384.105245
 124.605918, 1632401.870978
 124.607585, 1632419.636711
 124.609252, 1632437.402444
 124.610918, 1632455.168177
 124.612585, 1632472.933910
 124.614252, 1632490.699643
 124.615918, 1632508.465376
 124.617585, 1632526.231109
 124.619252, 1632543.999055
 124.620918, 1632561.767428
 124.622585, 1632579.535800
 124.624252, 1632597.304173
 124.625918, 1632615.072546
 124.627585, 1632632.840918
 124.629252, 1632650.609291
 124.630918, 1632668.377664
 124.632585, 1632686.146036
 124.634252, 1632703.914409
 124.635918, 1632721.685003
 124.637585, 1632739.456026
 124.639252, 1632757.227049
 124.640918, 1632774.998072
 124.642585, 1632792.769095
 124.644252, 1632810.540119
 124.645918, 1632828.311142
 124.647585, 1632846.082165
 124.649252, 1632863.853188
 124.650918, 1632881.624211
 124.652585, 1632899.397455
 124.654252, 1632917.171127
 124.655918, 1632934.944799
 124.657585, 1632952.718472
 124.659252, 1632970.492144
 124.660918, 1632988.265817
 124.662585, 1633006.039489
 124.664252, 1633023.813161
 124.665918, 1633041.586834
 124.667585, 1633059.360506
 124.669252, 1633077.136386
 124.670918, 1633094.912691
 124.672585, 1633112.688996
 124.674252, 1633130.465302
 124.675918, 1633148.241607
 124.677585, 1633166.017913
 124.679252, 1633183.794218
 124.680918, 1633201.570523
 124.682585, 1633219.346829
 124.684252, 1633237.123134
 124.685918, 1633254.901660
 124.687585, 1633272.680614
 124.689252, 1633290.459568
 124.690918, 1633308.238522
 124.692585, 1633326.017476
 124.694252, 1633343.796429
 124.695918, 1633361.575383
 124.697585, 1633379.354337
 124.699252, 1633397.133291
 124.700918, 1633414.912245
 124.702585, 1633432.693422
 124.704252, 1633450.475028
 124.705918, 1633468.256633
 124.707585, 1633486.038239
 124.709252, 1633503.819844
 124.710918, 1633521.601450
 124.712585, 1633539.383056
 124.714252, 1633557.164661
 124.715918, 1633574.946267
 124.717585, 1633592.727873
 124.719252, 1633610.511676
 124.720918, 1633628.295903
 124.722585, 1633646.080130
 124.724252, 1633663.864358
 124.725918, 1633681.648585
 124.727585, 1633699.432812
 124.729252, 1633717.217040
 124.730918, 1633735.001267
 124.732585, 1633752.785494
 124.734252, 1633770.569722
 124.735918, 1633788.356121
 124.737585, 1633806.142939
 124.739252, 1633823.929757
 124.740918, 1633841.716575
 124.742585, 1633859.503393
 124.744252, 1633877.290211
 124.745918, 1633895.077029
 124.747585, 1633912.863847
 124.749252, 1633930.650665
 124.750918, 1633948.437483
 124.752585, 1633966.226464
 124.754252, 1633984.015863
 124.755918, 1634001.805263
 124.757585, 1634019.594662
 124.759252, 1634037.384061
 124.760918, 1634055.173460
 124.762585, 1634072.962859
 124.764252, 1634090.752258
 124.765918, 1634108.541657
 124.767585, 1634126.331056
 124.769252, 1634144.122631
 124.770918, 1634161.914627
 124.772585, 1634179.706623
 124.774252, 1634197.498618
 124.775918, 1634215.290614
 124.777585, 1634233.082610
 124.779252, 1634250.874605
 124.780918, 1634268.666601
 124.782585, 1634286.458597
 124.784252, 1634304.250592
 124.785918, 1634322.044769
 124.787585, 1634339.839367
 124.789252, 1634357.633964
 124.790918, 1634375.428562
 124.792585, 1634393.223159
 124.794252, 1634411.017756
 124.795918, 1634428.812354
 124.797585, 1634446.606951
 124.799252, 1634464.401549
 124.800918, 1634482.196146
 124.802585, 1634499.992915
 124.804252, 1634517.790104
 124.805918, 1634535.587292
 124.807585, 1634553.384480
 124.809252, 1634571.181668
 124.810918, 1634588.978856
 124.812585, 1634606.776045
 124.814252, 1634624.573233
 124.815918, 1634642.370421
 124.817585, 1634660.167609
 124.819252, 1634677.966998
 124.820918, 1634695.766811
 124.822585, 1634713.566624
 124.824252, 1634731.366437
 124.825918, 1634749.166250
 124.827585, 1634766.966063
 124.829252, 1634784.765876
 124.830918, 1634802.565689
 124.832585, 1634820.365503
 124.834252, 1634838.165316
 124.835918, 1634855.967304
 124.837585, 1634873.769713
 124.839252, 1634891.572121
 124.840918, 1634909.374530
 124.842585, 1634927.176938
 124.844252, 1634944.979347
 124.845918, 1634962.781755
 124.847585, 1634980.584164
 124.849252, 1634998.386572
 124.850918, 1635016.188981
 124.852585, 1635033.993575
 124.854252, 1635051.798592
 124.855918, 1635069.603608
 124.857585, 1635087.408625
 124.859252, 1635105.213641
 124.860918, 1635123.018657
 124.862585, 1635140.823674
 124.864252, 1635158.628690
 124.865918, 1635176.433706
 124.867585, 1635194.238723
 124.869252, 1635212.045925
 124.870918, 1635229.853550
 124.872585, 1635247.661175
 124.874252, 1635265.468799
 124.875918, 1635283.276424
 124.877585, 1635301.084048
 124.879252, 1635318.891673
 124.880918, 1635336.699297
 124.882585, 1635354.506922
 124.884252, 1635372.314546
 124.885918, 1635390.124344
 124.887585, 1635407.934562
 124.889252, 1635425.744779
 124.890918, 1635443.554996
 124.892585, 1635461.365213
 124.894252, 1635479.175431
 124.895918, 1635496.985648
 124.897585, 1635514.795865
 124.899252, 1635532.606083
 124.900918, 1635550.416300
 124.902585, 1635568.228704
 124.904252, 1635586.041531
 124.905918, 1635603.854357
 124.907585, 1635621.667183
 124.909252, 1635639.480010
 124.910918, 1635657.292836
 124.912585, 1635675.105662
 124.914252, 1635692.918489
 124.915918, 1635710.731315
 124.917585, 1635728.544142
 124.919252, 1635746.359158
 124.920918, 1635764.174597
 124.922585, 1635781.990036
 124.924252, 1635799.805474
 124.925918, 1635817.620913
 124.927585, 1635835.436352
 124.929252, 1635853.251791
 124.930918, 1635871.067230
 124.932585, 1635888.882669
 124.934252, 1635906.698107
 124.935918, 1635924.515711
 124.937585, 1635942.333731
 124.939252, 1635960.151752
 124.940918, 1635977.969773
 124.942585, 1635995.787794
 124.944252, 1636013.605815
 124.945918, 1636031.423836
 124.947585, 1636049.241856
 124.949252, 1636067.059877
 124.950918, 1636084.877898
 124.952585, 1636102.698056
 124.954252, 1636120.518627
 124.955918, 1636138.339198
 124.957585, 1636156.159769
 124.959252, 1636173.980340
 124.960918, 1636191.800911
 124.962585, 1636209.621482
 124.964252, 1636227.442053
 124.965918, 1636245.262624
 124.967585, 1636263.083195
 124.969252, 1636280.905895
 124.970918, 1636298.729005
 124.972585, 1636316.552116
 124.974252, 1636334.375226
 124.975918, 1636352.198337
 124.977585, 1636370.021447
 124.979252, 1636387.844558
 124.980918, 1636405.667668
 124.982585, 1636423.490778
 124.984252, 1636441.313889
 124.985918, 1636459.139140
 124.987585, 1636476.964805
 124.989252, 1636494.790470
 124.990918, 1636512.616134
 124.992585, 1636530.441799
 124.994252, 1636548.267463
 124.995918, 1636566.093128
 124.997585, 1636583.918793
 124.999252, 1636601.744457
 125.000918, 1636619.570122
 125.002585, 1636637.397931
 125.004252, 1636655.226153
 125.005918, 1636673.054376
 125.007585, 1636690.882599
 125.009252, 1636708.710821
 125.010918, 1636726.539044
 125.012585, 1636744.367266
 125.014252, 1636762.195489
 125.015918, 1636780.023712
 125.017585, 1636797.851934
 125.019252, 1636815.682291
 125.020918, 1636833.513059
 125.022585, 1636851.343827
 125.024252, 1636869.174595
 125.025918, 1636887.005363
 125.027585, 1636904.836131
 125.029252, 1636922.666899
 125.030918, 1636940.497667
 125.032585, 1636958.328436
 125.034252, 1636976.159204
 125.035918, 1636993.992133
 125.037585, 1637011.825480
 125.039252, 1637029.658827
 125.040918, 1637047.492174
 125.042585, 1637065.325520
 125.044252, 1637083.158867
 125.045918, 1637100.992214
 125.047585, 1637118.825560
 125.049252, 1637136.658907
 125.050918, 1637154.492254
 125.052585, 1637172.327736
 125.054252, 1637190.163630
 125.055918, 1637207.999525
 125.057585, 1637225.835419
 125.059252, 1637243.671313
 125.060918, 1637261.507207
 125.062585, 1637279.343102
 125.064252, 1637297.178996
 125.065918, 1637315.014890
 125.067585, 1637332.850785
 125.069252, 1637350.688824
 125.070918, 1637368.527277
 125.072585, 1637386.365731
 125.074252, 1637404.204184
 125.075918, 1637422.042637
 125.077585, 1637439.881091
 125.079252, 1637457.719544
 125.080918, 1637475.557997
 125.082585, 1637493.396451
 125.084252, 1637511.234904
 125.085918, 1637529.075502
 125.087585, 1637546.916514
 125.089252, 1637564.757526
 125.090918, 1637582.598537
 125.092585, 1637600.439549
 125.094252, 1637618.280561
 125.095918, 1637636.121573
 125.097585, 1637653.962585
 125.099252, 1637671.803597
 125.100918, 1637689.644609
 125.102585, 1637707.487752
 125.104252, 1637725.331306
 125.105918, 1637743.174860
 125.107585, 1637761.018414
 125.109252, 1637778.861968
 125.110918, 1637796.705523
 125.112585, 1637814.549077
 125.114252, 1637832.392631
 125.115918, 1637850.236185
 125.117585, 1637868.079739
 125.119252, 1637885.925438
 125.120918, 1637903.771551
 125.122585, 1637921.617664
 125.124252, 1637939.463777
 125.125918, 1637957.309890
 125.127585, 1637975.156003
 125.129252, 1637993.002116
 125.130918, 1638010.848228
 125.132585, 1638028.694341
 125.134252, 1638046.540454
 125.135918, 1638064.388715
 125.137585, 1638082.237390
 125.139252, 1638100.086065
 125.140918, 1638117.934740
 125.142585, 1638135.783415
 125.144252, 1638153.632090
 125.145918, 1638171.480765
 125.147585, 1638189.329440
 125.149252, 1638207.178115
 125.150918, 1638225.026790
 125.152585, 1638242.877587
 125.154252, 1638260.728794
 125.155918, 1638278.580001
 125.157585, 1638296.431207
 125.159252, 1638314.282414
 125.160918, 1638332.133621
 125.162585, 1638349.984827
 125.164252, 1638367.836034
 125.165918, 1638385.687241
 125.167585, 1638403.538448
 125.169252, 1638421.391750
 125.170918, 1638439.245457
 125.172585, 1638457.099164
 125.174252, 1638474.952871
 125.175918, 1638492.806578
 125.177585, 1638510.660285
 125.179252, 1638528.513992
 125.180918, 1638546.367699
 125.182585, 1638564.221405
 125.184252, 1638582.075112
 125.185918, 1638599.930907
 125.187585, 1638617.787104
 125.189252, 1638635.643301
 125.190918, 1638653.499499
 125.192585, 1638671.355696
 125.194252, 1638689.211893
 125.195918, 1638707.068090
 125.197585, 1638724.924288
 125.199252, 1638742.780485
 125.200918, 1638760.636682
 125.202585, 1638778.494980
 125.204252, 1638796.353684
 125.205918, 1638814.212387
 125.207585, 1638832.071091
 125.209252, 1638849.929794
 125.210918, 1638867.788498
 125.212585, 1638885.647201
 125.214252, 1638903.505905
 125.215918, 1638921.364608
 125.217585, 1638939.223312
 125.219252, 1638957.084120
 125.220918, 1638974.945335
 125.222585, 1638992.806550
 125.224252, 1639010.667764
 125.225918, 1639028.528979
 125.227585, 1639046.390194
 125.229252, 1639064.251409
 125.230918, 1639082.112623
 125.232585, 1639099.973838
 125.234252, 1639117.835053
 125.235918, 1639135.698363
 125.237585, 1639153.562077
 125.239252, 1639171.425792
 125.240918, 1639189.289506
 125.242585, 1639207.153221
 125.244252, 1639225.016935
 125.245918, 1639242.880649
 125.247585, 1639260.744364
 125.249252, 1639278.608078
 125.250918, 1639296.471793
 125.252585, 1639314.337632
 125.254252, 1639332.203880
 125.255918, 1639350.070129
 125.257585, 1639367.936378
 125.259252, 1639385.802627
 125.260918, 1639403.668875
 125.262585, 1639421.535124
 125.264252, 1639439.401373
 125.265918, 1639457.267622
 125.267585, 1639475.133870
 125.269252, 1639493.002218
 125.270918, 1639510.870971
 125.272585, 1639528.739723
 125.274252, 1639546.608476
 125.275918, 1639564.477229
 125.277585, 1639582.345981
 125.279252, 1639600.214734
 125.280918, 1639618.083487
 125.282585, 1639635.952239
 125.284252, 1639653.820992
 125.285918, 1639671.691854
 125.287585, 1639689.563123
 125.289252, 1639707.434392
 125.290918, 1639725.305661
 125.292585, 1639743.176930
 125.294252, 1639761.048199
 125.295918, 1639778.919468
 125.297585, 1639796.790737
 125.299252, 1639814.662006
 125.300918, 1639832.533275
 125.302585, 1639850.406653
 125.304252, 1639868.280439
 125.305918, 1639886.154224
 125.307585, 1639904.028010
 125.309252, 1639921.901795
 125.310918, 1639939.775581
 125.312585, 1639957.649366
 125.314252, 1639975.523152
 125.315918, 1639993.396937
 125.317585, 1640011.270723
 125.319252, 1640029.146604
 125.320918, 1640047.022890
 125.322585, 1640064.899176
 125.324252, 1640082.775463
 125.325918, 1640100.651749
 125.327585, 1640118.528035
 125.329252, 1640136.404321
 125.330918, 1640154.280607
 125.332585, 1640172.156893
 125.334252, 1640190.033179
 125.335918, 1640207.911575
 125.337585, 1640225.790378
 125.339252, 1640243.669181
 125.340918, 1640261.547984
 125.342585, 1640279.426788
 125.344252, 1640297.305591
 125.345918, 1640315.184394
 125.347585, 1640333.063197
 125.349252, 1640350.942001
 125.350918, 1640368.820804
 125.352585, 1640386.701720
 125.354252, 1640404.583044
 125.355918, 1640422.464368
 125.357585, 1640440.345692
 125.359252, 1640458.227016
 125.360918, 1640476.108340
 125.362585, 1640493.989663
 125.364252, 1640511.870987
 125.365918, 1640529.752311
 125.367585, 1640547.633635
 125.369252, 1640565.517046
 125.370918, 1640583.400859
 125.372585, 1640601.284673
 125.374252, 1640619.168486
 125.375918, 1640637.052299
 125.377585, 1640654.936113
 125.379252, 1640672.819926
 125.380918, 1640690.703740
 125.382585, 1640708.587553
 125.384252, 1640726.471366
 125.385918, 1640744.357240
 125.387585, 1640762.243510
 125.389252, 1640780.129781
 125.390918, 1640798.016052
 125.392585, 1640815.902322
 125.394252, 1640833.788593
 125.395918, 1640851.674864
 125.397585, 1640869.561135
 125.399252, 1640887.447405
 125.400918, 1640905.333676
 125.402585, 1640923.221998
 125.404252, 1640941.110715
 125.405918, 1640958.999432
 125.407585, 1640976.888150
 125.409252, 1640994.776867
 125.410918, 1641012.665584
 125.412585, 1641030.554302
 125.414252, 1641048.443019
 125.415918, 1641066.331737
 125.417585, 1641084.220454
 125.419252, 1641102.111235
 125.420918, 1641120.002415
 125.422585, 1641137.893594
 125.424252, 1641155.784773
 125.425918, 1641173.675953
 125.427585, 1641191.567132
 125.429252, 1641209.458312
 125.430918, 1641227.349491
 125.432585, 1641245.240671
 125.434252, 1641263.131850
 125.435918, 1641281.025097
 125.437585, 1641298.918743
 125.439252, 1641316.812388
 125.440918, 1641334.706034
 125.442585, 1641352.599680
 125.444252, 1641370.493326
 125.445918, 1641388.386971
 125.447585, 1641406.280617
 125.449252, 1641424.174263
 125.450918, 1641442.067909
 125.452585, 1641459.963611
 125.454252, 1641477.859711
 125.455918, 1641495.755811
 125.457585, 1641513.651910
 125.459252, 1641531.548010
 125.460918, 1641549.444110
 125.462585, 1641567.340209
 125.464252, 1641585.236309
 125.465918, 1641603.132409
 125.467585, 1641621.028508
 125.469252, 1641638.926694
 125.470918, 1641656.825282
 125.472585, 1641674.723869
 125.474252, 1641692.622457
 125.475918, 1641710.521045
 125.477585, 1641728.419633
 125.479252, 1641746.318221
 125.480918, 1641764.216809
 125.482585, 1641782.115397
 125.484252, 1641800.013984
 125.485918, 1641817.914632
 125.487585, 1641835.815676
 125.489252, 1641853.716721
 125.490918, 1641871.617765
 125.492585, 1641889.518810
 125.494252, 1641907.419855
 125.495918, 1641925.320899
 125.497585, 1641943.221944
 125.499252, 1641961.122988
 125.500918, 1641979.024033
 125.502585, 1641996.927147
 125.504252, 1642014.830661
 125.505918, 1642032.734174
 125.507585, 1642050.637688
 125.509252, 1642068.541201
 125.510918, 1642086.444715
 125.512585, 1642104.348229
 125.514252, 1642122.251742
 125.515918, 1642140.155256
 125.517585, 1642158.058769
 125.519252, 1642175.964352
 125.520918, 1642193.870335
 125.522585, 1642211.776317
 125.524252, 1642229.682299
 125.525918, 1642247.588282
 125.527585, 1642265.494264
 125.529252, 1642283.400246
 125.530918, 1642301.306229
 125.532585, 1642319.212211
 125.534252, 1642337.118193
 125.535918, 1642355.026231
 125.537585, 1642372.934666
 125.539252, 1642390.843101
 125.540918, 1642408.751536
 125.542585, 1642426.659971
 125.544252, 1642444.568406
 125.545918, 1642462.476840
 125.547585, 1642480.385275
 125.549252, 1642498.293710
 125.550918, 1642516.202145
 125.552585, 1642534.112650
 125.554252, 1642552.023554
 125.555918, 1642569.934458
 125.557585, 1642587.845363
 125.559252, 1642605.756267
 125.560918, 1642623.667171
 125.562585, 1642641.578075
 125.564252, 1642659.488980
 125.565918, 1642677.399884
 125.567585, 1642695.310788
 125.569252, 1642713.223766
 125.570918, 1642731.137143
 125.572585, 1642749.050521
 125.574252, 1642766.963898
 125.575918, 1642784.877275
 125.577585, 1642802.790653
 125.579252, 1642820.704030
 125.580918, 1642838.617408
 125.582585, 1642856.530785
 125.584252, 1642874.444163
 125.585918, 1642892.359587
 125.587585, 1642910.275407
 125.589252, 1642928.191226
 125.590918, 1642946.107046
 125.592585, 1642964.022865
 125.594252, 1642981.938684
 125.595918, 1642999.854504
 125.597585, 1643017.770323
 125.599252, 1643035.686143
 125.600918, 1643053.601962
 125.602585, 1643071.519802
 125.604252, 1643089.438032
 125.605918, 1643107.356261
 125.607585, 1643125.274491
 125.609252, 1643143.192720
 125.610918, 1643161.110950
 125.612585, 1643179.029179
 125.614252, 1643196.947409
 125.615918, 1643214.865638
 125.617585, 1643232.783868
 125.619252, 1643250.704109
 125.620918, 1643268.624739
 125.622585, 1643286.545368
 125.624252, 1643304.465998
 125.625918, 1643322.386627
 125.627585, 1643340.307256
 125.629252, 1643358.227886
 125.630918, 1643376.148515
 125.632585, 1643394.069145
 125.634252, 1643411.989774
 125.635918, 1643429.912429
 125.637585, 1643447.835475
 125.639252, 1643465.758521
 125.640918, 1643483.681566
 125.642585, 1643501.604612
 125.644252, 1643519.527658
 125.645918, 1643537.450703
 125.647585, 1643555.373749
 125.649252, 1643573.296795
 125.650918, 1643591.219840
 125.652585, 1643609.144915
 125.654252, 1643627.070382
 125.655918, 1643644.995849
 125.657585, 1643662.921316
 125.659252, 1643680.846783
 125.660918, 1643698.772250
 125.662585, 1643716.697717
 125.664252, 1643734.623183
 125.665918, 1643752.548650
 125.667585, 1643770.474117
 125.669252, 1643788.401604
 125.670918, 1643806.329480
 125.672585, 1643824.257356
 125.674252, 1643842.185232
 125.675918, 1643860.113108
 125.677585, 1643878.040984
 125.679252, 1643895.968860
 125.680918, 1643913.896737
 125.682585, 1643931.824613
 125.684252, 1643949.752489
 125.685918, 1643967.682414
 125.687585, 1643985.612735
 125.689252, 1644003.543056
 125.690918, 1644021.473376
 125.692585, 1644039.403697
 125.694252, 1644057.334018
 125.695918, 1644075.264338
 125.697585, 1644093.194659
 125.699252, 1644111.124980
 125.700918, 1644129.055301
 125.702585, 1644146.987644
 125.704252, 1644164.920378
 125.705918, 1644182.853112
 125.707585, 1644200.785846
 125.709252, 1644218.718580
 125.710918, 1644236.651314
 125.712585, 1644254.584048
 125.714252, 1644272.516782
 125.715918, 1644290.449516
 125.717585, 1644308.382250
 125.719252, 1644326.317018
 125.720918, 1644344.252178
 125.722585, 1644362.187338
 125.724252, 1644380.122498
 125.725918, 1644398.057658
 125.727585, 1644415.992818
 125.729252, 1644433.927978
 125.730918, 1644451.863138
 125.732585, 1644469.798298
 125.734252, 1644487.733458
 125.735918, 1644505.670651
 125.737585, 1644523.608238
 125.739252, 1644541.545824
 125.740918, 1644559.483410
 125.742585, 1644577.420996
 125.744252, 1644595.358582
 125.745918, 1644613.296168
 125.747585, 1644631.233754
 125.749252, 1644649.171340
 125.750918, 1644667.108926
 125.752585, 1644685.048532
 125.754252, 1644702.988528
 125.755918, 1644720.928524
 125.757585, 1644738.868520
 125.759252, 1644756.808516
 125.760918, 1644774.748512
 125.762585, 1644792.688508
 125.764252, 1644810.628504
 125.765918, 1644828.568500
 125.767585, 1644846.508495
 125.769252, 1644864.450526
 125.770918, 1644882.392948
 125.772585, 1644900.335371
 125.774252, 1644918.277794
 125.775918, 1644936.220217
 125.777585, 1644954.162640
 125.779252, 1644972.105063
 125.780918, 1644990.047485
 125.782585, 1645007.989908
 125.784252, 1645025.932331
 125.785918, 1645043.876791
 125.787585, 1645061.821645
 125.789252, 1645079.766498
 125.790918, 1645097.711351
 125.792585, 1645115.656205
 125.794252, 1645133.601058
 125.795918, 1645151.545911
 125.797585, 1645169.490764
 125.799252, 1645187.435618
 125.800918, 1645205.380471
 125.802585, 1645223.327335
 125.804252, 1645241.274587
 125.805918, 1645259.221839
 125.807585, 1645277.169092
 125.809252, 1645295.116344
 125.810918, 1645313.063596
 125.812585, 1645331.010848
 125.814252, 1645348.958100
 125.815918, 1645366.905352
 125.817585, 1645384.852604
 125.819252, 1645402.801840
 125.820918, 1645420.751458
 125.822585, 1645438.701076
 125.824252, 1645456.650694
 125.825918, 1645474.600313
 125.827585, 1645492.549931
 125.829252, 1645510.499549
 125.830918, 1645528.449167
 125.832585, 1645546.398786
 125.834252, 1645564.348404
 125.835918, 1645582.299997
 125.837585, 1645600.251971
 125.839252, 1645618.203944
 125.840918, 1645636.155918
 125.842585, 1645654.107892
 125.844252, 1645672.059866
 125.845918, 1645690.011840
 125.847585, 1645707.963813
 125.849252, 1645725.915787
 125.850918, 1645743.867761
 125.852585, 1645761.821723
 125.854252, 1645779.776068
 125.855918, 1645797.730413
 125.857585, 1645815.684759
 125.859252, 1645833.639104
 125.860918, 1645851.593450
 125.862585, 1645869.547795
 125.864252, 1645887.502140
 125.865918, 1645905.456486
 125.867585, 1645923.410831
 125.869252, 1645941.367168
 125.870918, 1645959.323890
 125.872585, 1645977.280611
 125.874252, 1645995.237333
 125.875918, 1646013.194055
 125.877585, 1646031.150776
 125.879252, 1646049.107498
 125.880918, 1646067.064219
 125.882585, 1646085.020941
 125.884252, 1646102.977663
 125.885918, 1646120.936366
 125.887585, 1646138.895451
 125.889252, 1646156.854536
 125.890918, 1646174.813622
 125.892585, 1646192.772707
 125.894252, 1646210.731792
 125.895918, 1646228.690878
 125.897585, 1646246.649963
 125.899252, 1646264.609048
 125.900918, 1646282.568134
 125.902585, 1646300.529230
 125.904252, 1646318.490715
 125.905918, 1646336.452199
 125.907585, 1646354.413684
 125.909252, 1646372.375168
 125.910918, 1646390.336653
 125.912585, 1646408.298137
 125.914252, 1646426.259621
 125.915918, 1646444.221106
 125.917585, 1646462.182590
 125.919252, 1646480.146059
 125.920918, 1646498.109911
 125.922585, 1646516.073763
 125.924252, 1646534.037614
 125.925918, 1646552.001466
 125.927585, 1646569.965317
 125.929252, 1646587.929169
 125.930918, 1646605.893021
 125.932585, 1646623.856872
 125.934252, 1646641.820724
 125.935918, 1646659.786571
 125.937585, 1646677.752802
 125.939252, 1646695.719034
 125.940918, 1646713.685266
 125.942585, 1646731.651497
 125.944252, 1646749.617729
 125.945918, 1646767.583961
 125.947585, 1646785.550192
 125.949252, 1646803.516424
 125.950918, 1646821.482656
 125.952585, 1646839.450882
 125.954252, 1646857.419494
 125.955918, 1646875.388106
 125.957585, 1646893.356717
 125.959252, 1646911.325329
 125.960918, 1646929.293940
 125.962585, 1646947.262552
 125.964252, 1646965.231164
 125.965918, 1646983.199775
 125.967585, 1647001.168387
 125.969252, 1647019.138980
 125.970918, 1647037.109955
 125.972585, 1647055.080930
 125.974252, 1647073.051905
 125.975918, 1647091.022880
 125.977585, 1647108.993855
 125.979252, 1647126.964830
 125.980918, 1647144.935806
 125.982585, 1647162.906781
 125.984252, 1647180.877756
 125.985918, 1647198.850727
 125.987585, 1647216.824083
 125.989252, 1647234.797439
 125.990918, 1647252.770795
 125.992585, 1647270.744152
 125.994252, 1647288.717508
 125.995918, 1647306.690864
 125.997585, 1647324.664220
 125.999252, 1647342.637576
 126.000918, 1647360.610933
 126.002585, 1647378.586288
 126.004252, 1647396.562029
 126.005918, 1647414.537770
 126.007585, 1647432.513511
 126.009252, 1647450.489252
 126.010918, 1647468.464994
 126.012585, 1647486.440735
 126.014252, 1647504.416476
 126.015918, 1647522.392217
 126.017585, 1647540.367958
 126.019252, 1647558.345672
 126.020918, 1647576.323766
 126.022585, 1647594.301860
 126.024252, 1647612.279954
 126.025918, 1647630.258048
 126.027585, 1647648.236143
 126.029252, 1647666.214237
 126.030918, 1647684.192331
 126.032585, 1647702.170425
 126.034252, 1647720.148520
 126.035918, 1647738.128559
 126.037585, 1647756.108974
 126.039252, 1647774.089388
 126.040918, 1647792.069803
 126.042585, 1647810.050218
 126.044252, 1647828.030633
 126.045918, 1647846.011047
 126.047585, 1647863.991462
 126.049252, 1647881.971877
 126.050918, 1647899.952292
 126.052585, 1647917.934643
 126.054252, 1647935.917368
 126.055918, 1647953.900093
 126.057585, 1647971.882818
 126.059252, 1647989.865543
 126.060918, 1648007.848268
 126.062585, 1648025.830993
 126.064252, 1648043.813718
 126.065918, 1648061.796443
 126.067585, 1648079.779168
 126.069252, 1648097.763844
 126.070918, 1648115.748896
 126.072585, 1648133.733948
 126.074252, 1648151.718999
 126.075918, 1648169.704051
 126.077585, 1648187.689103
 126.079252, 1648205.674155
 126.080918, 1648223.659207
 126.082585, 1648241.644259
 126.084252, 1648259.629311
 126.085918, 1648277.615578
 126.087585, 1648295.602080
 126.088545, 1648305.963979
 126.090212, 1648323.951644
 126.091879, 1648341.939309
 126.093545, 1648359.926973
 126.095212, 1648377.914638
 126.096879, 1648395.902303
 126.098545, 1648413.889967
 126.100212, 1648431.877632
 126.101879, 1648445.667046
 126.103545, 1648453.522399
 126.105212, 1648461.377753
 126.106879, 1648469.233106
 126.108545, 1648477.088460
 126.110212, 1648484.943813
 126.111879, 1648492.799167
 126.113545, 1648500.654520
 126.115212, 1648508.509874
 126.116879, 1648516.365227
 126.118545, 1648524.213555
 126.120212, 1648532.051952
 126.121879, 1648539.890349
 126.123545, 1648547.728746
 126.125212, 1648555.567143
 126.126879, 1648563.405540
 126.128545, 1648571.243937
 126.130212, 1648579.082334
 126.131879, 1648586.920731
 126.133545, 1648594.759128
 126.135212, 1648602.591282
 126.136879, 1648610.414610
 126.138545, 1648618.237939
 126.140212, 1648626.061267
 126.141879, 1648633.884596
 126.143110, 1648639.666263
