Ground Distance, Angles
   0.000000,    0.000000
   0.000000,    0.000000
   0.000006,    0.000000
   0.000081,    0.000000
   0.000699,    0.000000
   0.003468,    0.000000
   0.009283,    0.000000
   0.017960,    0.000000
   0.029596,    0.000000
   0.044123,    0.000000
   0.061553,    0.000000
   0.081999,    0.000000
   0.105450,    0.000000
   0.131994,    0.000000
   0.161747,    0.000000
   0.194513,    0.000000
   0.230914,    0.000000
   0.270526,    0.000000
   0.313173,    0.000000
   0.359084,    0.000000
   0.408542,    0.000000
   0.461757,    0.000000
   0.519904,    0.000000
   0.581296,    0.000000
   0.646687,    0.000000
   0.715945,    0.000000
   0.788688,    0.000000
   0.864259,    0.000000
   0.945221,    0.000000
   1.029760,    0.000000
   1.119383,    0.000000
   1.212530,    0.000000
   1.312001,    0.000000
   1.414970,    0.000000
   1.525017,    0.000000
   1.639121,    0.000000
   1.758011,    0.000000
   1.884984,    0.000000
   2.015833,    0.000000
   2.152143,    0.000000
   2.294481,    0.000000
   2.441864,    0.000000
   2.593988,    0.000000
   2.754303,    0.000000
   2.916678,    0.000000
   3.087543,    0.000000
   3.262882,    0.000000
   3.447395,    0.000000
   3.636847,    0.000000
   3.836192,    0.000000
   4.040665,    0.000000
   4.250971,    0.000000
   4.466715,    0.000000
   4.693176,    0.000000
   4.924425,    0.000000
   5.163882,    0.000000
   5.412825,    0.000000
   5.674078,    0.000000
   5.938114,    0.000000
   6.212622,    0.000000
   6.492260,    0.000000
   6.781912,    0.000000
   7.079639,    0.000000
   7.383248,    0.000000
   7.697232,    0.000000
   8.016771,    0.000000
   8.347162,    0.000000
   8.685301,    0.000000
   9.033737,    0.000000
   9.393934,    0.000000
   9.762446,    0.000000
  10.142003,    0.000000
  10.524603,    0.000000
  10.923586,    0.000000
  11.329340,    0.000000
  11.749655,    0.000000
  12.173712,    0.000000
  12.613157,    0.000000
  13.061504,    0.000000
  13.518263,    0.000000
  13.991016,    0.000000
  14.467732,    0.000000
  14.958757,    0.000000
  15.456775,    0.000000
  15.973773,    0.000000
  16.495344,    0.000000
  17.029105,    0.000000
  17.574798,    0.000000
  18.134788,    0.000000
  18.702388,    0.000000
  19.286740,    0.000000
  19.885425,    0.000000
  20.494528,    0.000000
  21.115462,    0.000000
  21.746890,    0.000000
  22.390314,    0.000000
  23.048963,    0.000000
  23.716674,    0.000000
  24.402398,    0.000000
  25.107305,    0.000000
  25.135325,    0.000000
  25.154587,    0.000000
  25.171818,    0.000000
  25.185688,    0.000000
  25.201701,    0.000000
  25.213792,    0.000000
  25.216352,    0.000000
  25.219779,    0.000000
  25.220523,    0.000000
  25.221723,    0.000000
  25.222112,    0.000000
  25.222191,    0.000000
  25.222357,    0.000000
  25.224019,    0.000000
  25.237170,    0.000000
  25.296358,    0.000000
  25.498740,    0.000000
  26.000947,    0.000000
  26.642256,    0.000000
  27.302605,    0.000000
  27.974971,    0.000000
  28.653947,    0.000000
  29.346020,    0.000000
  30.053653,    0.000000
  30.769314,    0.000000
  31.493917,    0.000000
  32.235460,    0.000000
  32.986662,    0.000000
  33.749175,    0.000000
  34.521758,    0.000000
  35.309010,    0.000000
  36.110702,    0.000000
  36.918686,    0.000000
  37.737715,    0.000000
  38.565372,    0.000000
  39.411603,    0.000000
  40.272584,    0.000000
  41.143597,    0.000000
  42.028225,    0.000000
  42.927001,    0.000000
  43.837619,    0.000000
  44.766343,    0.000000
  45.699879,    0.000000
  46.644286,    0.000000
  47.608940,    0.000000
  48.581376,    0.000000
  49.574219,    0.000000
  50.577529,    0.000000
  51.594742,    0.000000
  52.624413,    0.000000
  53.659619,    0.000000
  54.722782,    0.000000
  55.793643,    0.000000
  56.886581,    0.000000
  57.986542,    0.000000
  59.097008,    0.000000
  60.230149,    0.000000
  61.373373,    0.000000
  62.533107,    0.000000
  63.705654,    0.000000
  64.887957,    0.000000
  66.098842,    0.000000
  67.316009,    0.000000
  68.552761,    0.000000
  69.802626,    0.000000
  71.066063,    0.000000
  72.337267,    0.000000
  73.633184,    0.000000
  74.937627,    0.000000
  76.259104,    0.000000
  77.604494,    0.000000
  78.964225,    0.000000
  80.341091,    0.000000
  81.731271,    0.000000
  83.142511,    0.000000
  84.561698,    0.000000
  85.995265,    0.000000
  87.444770,    0.000000
  88.909104,    0.000000
  90.400811,    0.000000
  91.901031,    0.000000
  93.423639,    0.000000
  94.964104,    0.000000
  96.517240,    0.000000
  98.080217,    0.000000
  99.664272,    0.000000
 101.266676,    0.000000
 102.891796,    0.000000
 104.526630,    0.000000
 104.539735,    0.000000
 104.542737,    0.000000
 104.543987,    0.000000
 104.546489,    0.000000
 104.546777,    0.000000
 104.546938,    0.000000
 104.547182,    0.000000
 104.549626,    0.000000
 104.574059,    0.000000
 104.717274,    0.000000
 105.202036,    0.000000
 106.378729,    0.000000
 107.871336,    0.000000
 109.366606,    0.000000
 110.882950,    0.000000
 112.407164,    0.000000
 113.943577,    0.000000
 115.497772,    0.000000
 117.071981,    0.000000
 118.654749,    0.000000
 120.245072,    0.000000
 121.861354,    0.000000
 123.485075,    0.000000
 125.124172,    0.000000
 126.780605,    0.000000
 128.452606,    0.000000
 130.136489,    0.000000
 131.835861,    0.000000
 133.556284,    0.000000
 135.287735,    0.000000
 137.033772,    0.000000
 138.793246,    0.000000
 140.565230,    0.000000
 142.361784,    0.000000
 144.164887,    0.000000
 145.979488,    0.000000
 147.815380,    0.000000
 149.672591,    0.000000
 151.547364,    0.000000
 153.429532,    0.000000
 155.329287,    0.000000
 157.237444,    0.000000
 159.171616,    0.000000
 161.112003,    0.000000
 163.075804,    0.000000
 165.046358,    0.000000
 167.036178,    0.000000
 169.042826,    0.000000
 171.062032,    0.000000
 173.107959,    0.000000
 175.162859,    0.000000
 177.231972,    0.000000
 179.321368,    0.000000
 181.424434,    0.000000
 183.537603,    0.000000
 185.678299,    0.000000
 187.832754,    0.000000
 190.009434,    0.000000
 192.198701,    0.000000
 194.405030,    0.000000
 196.620050,    0.000000
 198.856798,    0.000000
 201.111476,    0.000000
 203.379910,    0.000000
 205.669758,    0.000000
 207.977134,    0.000000
 210.306103,    0.000000
 212.646846,    0.000000
 214.994192,    0.000000
 217.363102,    0.000000
 219.756760,    0.000000
 222.166594,    0.000000
 224.602090,    0.000000
 227.041404,    0.000000
 229.496927,    0.000000
 231.973480,    0.000000
 234.466238,    0.000000
 236.981575,    0.000000
 239.508770,    0.000000
 242.065907,    0.000000
 244.638466,    0.000000
 245.156938,    0.000000
 245.494762,    0.000000
 245.750051,    0.000000
 245.955696,    0.000000
 246.156817,    0.000000
 246.360575,    0.000000
 246.509926,    0.000000
 246.536485,    0.000000
 246.569959,    0.000000
 246.609033,    0.000000
 246.611229,    0.000000
 246.612549,    0.000000
 246.613518,    0.000000
 246.614303,    0.000000
 246.614556,    0.000000
 246.614814,    0.000000
 246.617397,    0.000000
 246.639574,    0.000000
 246.780542,    0.000000
 247.315184,    0.000000
 249.139642,    0.000000
 251.404036,    0.000000
 253.699369,    0.000000
 256.004014,    0.000000
 258.328686,    0.000000
 260.655828,    0.000000
 263.004579,    0.000000
 265.366922,    0.000000
 267.740256,    0.000000
 270.131666,    0.000000
 272.535832,    0.000000
 274.948439,    0.000000
 277.381395,    0.000000
 279.827113,    0.000000
 282.292498,    0.000000
 284.769320,    0.000000
 287.256506,    0.000000
 289.758171,    0.000000
 292.278909,    0.000000
 294.806368,    0.000000
 297.350989,    0.000000
 299.915435,    0.000000
 302.495314,    0.000000
 305.082355,    0.000000
 307.690629,    0.000000
 310.309911,    0.000000
 312.945474,    0.000000
 315.596902,    0.000000
 318.256757,    0.000000
 320.932506,    0.000000
 323.630245,    0.000000
 326.343042,    0.000000
 329.067365,    0.000000
 331.802828,    0.000000
 334.555459,    0.000000
 337.328881,    0.000000
 340.110638,    0.000000
 342.912817,    0.000000
 345.735048,    0.000000
 348.571929,    0.000000
 351.416009,    0.000000
 354.278718,    0.000000
 357.155150,    0.000000
 360.049072,    0.000000
 362.964475,    0.000000
 365.884928,    0.000000
 368.817322,    0.000000
 371.766818,    0.000000
 374.729592,    0.000000
 377.712618,    0.000000
 380.705417,    0.000000
 383.719420,    0.000000
 386.759157,    0.000000
 389.800591,    0.000000
 392.867138,    0.000000
 395.945380,    0.000000
 399.043014,    0.000000
 402.157724,    0.000000
 405.284131,    0.000000
 408.419544,    0.000000
 411.577222,    0.000000
 414.764999,    0.000000
 417.948210,    0.000000
 421.160956,    0.000000
 424.378335,    0.000000
 427.616846,    0.000000
 430.876829,    0.000000
 434.145576,    0.000000
 437.428615,    0.000000
 440.728039,    0.000000
 444.048966,    0.000000
 447.386551,    0.000000
 450.732892,    0.000000
 454.108833,    0.000000
 457.487058,    0.000000
 460.888088,    0.000000
 464.304706,    0.000000
 464.990495,    0.000000
 467.377924,    0.000000
 467.515046,    0.000000
 467.538661,    0.000000
 467.548684,    0.000000
 467.551293,    0.000000
 467.552849,    0.000000
 467.554620,    0.000000
 467.572325,    0.000000
 467.698666,    0.000000
 468.534335,    0.000000
 472.194187,    0.000000
 475.641414,    0.000000
 479.110670,    0.000000
 482.595078,    0.000000
 486.098418,    0.000000
 489.616727,    0.000000
 493.149280,    0.000000
 496.693071,    0.000000
 500.266628,    0.000000
 503.847318,    0.000000
 507.450139,    0.000000
 511.064352,    0.000000
 514.692557,    0.000000
 518.341361,    0.000000
 522.013405,    0.000000
 525.693678,    0.000000
 529.390924,    0.000000
 533.101684,    0.000000
 536.830320,    0.000000
 540.583884,    0.000000
 544.350946,    0.000000
 548.132836,    0.000000
 551.938246,    0.000000
 555.759270,    0.000000
 559.594637,    0.000000
 563.445223,    0.000000
 567.303561,    0.000000
 571.184742,    0.000000
 575.086347,    0.000000
 579.001870,    0.000000
 582.928818,    0.000000
 586.875636,    0.000000
 590.844468,    0.000000
 594.826134,    0.000000
 598.830514,    0.000000
 602.857980,    0.000000
 606.896590,    0.000000
 610.951745,    0.000000
 615.022109,    0.000000
 619.112651,    0.000000
 623.222789,    0.000000
 627.351194,    0.000000
 631.499344,    0.000000
 635.657072,    0.000000
 639.837451,    0.000000
 644.029999,    0.000000
 648.237023,    0.000000
 652.466889,    0.000000
 656.712596,    0.000000
 660.980636,    0.000000
 665.264700,    0.000000
 669.570956,    0.000000
 673.892541,    0.000000
 676.160155,    0.000000
 678.226955,    0.000000
 682.580782,    0.112801
 686.946938,    0.348886
 691.344019,    0.582770
 695.758548,    0.815458
 700.197558,    1.046230
 704.644708,    1.275461
 709.105097,    1.502316
 713.600697,    1.727080
 718.119169,    1.950865
 722.646755,    2.173043
 727.198480,    2.392949
 731.766217,    2.611329
 736.344433,    2.827799
 740.946719,    3.042115
 745.564039,    3.254927
 750.191281,    3.465824
 754.835658,    3.674592
 759.502489,    3.881575
 764.175716,    4.087020
 768.856914,    4.290233
 773.555080,    4.491310
 778.263018,    4.690661
 782.988593,    4.887994
 787.715931,    5.083660
 792.453010,    5.277019
 792.643139,    5.468429
 792.899094,    5.476027
 793.151053,    5.486251
 793.217329,    5.496309
 793.301442,    5.498953
 793.321433,    5.502308
 793.351294,    5.503105
 793.353384,    5.504296
 793.354241,    5.504379
 793.355122,    5.504413
 793.363923,    5.504449
 793.451944,    5.504799
 793.967135,    5.508309
 796.012112,    5.528844
 800.932922,    5.610216
 805.905826,    5.804858
 806.236681,    5.999101
 806.566898,    6.011877
 806.898423,    6.024617
 807.229874,    6.037397
 807.561840,    6.050164
 807.893824,    6.062940
 808.225486,    6.075705
 808.558288,    6.088448
 808.891287,    6.101224
 809.224474,    6.113997
 809.556565,    6.126766
 809.888823,    6.139482
 810.222823,    6.152194
 810.556584,    6.164963
 810.890991,    6.177711
 811.225027,    6.190473
 811.558493,    6.203211
 811.893839,    6.215916
 812.229759,    6.228682
 812.565602,    6.241459
 812.898568,    6.254222
 813.232727,    6.266866
 813.568861,    6.279544
 813.906228,    6.292286
 814.240510,    6.305064
 814.576350,    6.317715
 814.912871,    6.330414
 815.249137,    6.343128
 815.587293,    6.355822
 815.924423,    6.368577
 816.263204,    6.381282
 816.602649,    6.394038
 816.942211,    6.406809
 817.282686,    6.419573
 817.623920,    6.432361
 817.965140,    6.445166
 818.305496,    6.457960
 818.647001,    6.470711
 818.989324,    6.483494
 819.331926,    6.496296
 819.673757,    6.509098
 820.017327,    6.521861
 820.359033,    6.534677
 820.701454,    6.547413
 821.044816,    6.560165
 821.390004,    6.572941
 821.734523,    6.585774
 822.079587,    6.598571
 822.423887,    6.611377
 822.769502,    6.624145
 823.112594,    6.636950
 823.457130,    6.649650
 823.803423,    6.662393
 824.150767,    6.675191
 824.497731,    6.688016
 824.845767,    6.700816
 825.192354,    6.713644
 825.541948,    6.726408
 825.891199,    6.739272
 826.241842,    6.752112
 826.592505,    6.764993
 826.943630,    6.777862
 827.295039,    6.790738
 827.645908,    6.790738
 827.999299,    6.790738
 828.349563,    6.790738
 828.701677,    6.790738
 829.054635,    6.790738
 829.407189,    6.790738
 829.762143,    6.790738
 830.116670,    6.790738
 830.468208,    6.790738
 830.824009,    6.790738
 831.180284,    6.790738
 831.535037,    6.790738
 831.891661,    6.790738
 832.248324,    6.790738
 832.605092,    6.790738
 832.960269,    6.790738
 833.318761,    6.790738
 833.676508,    6.790738
 834.035569,    6.790738
 834.392862,    6.790738
 834.753261,    6.790738
 835.114144,    6.790738
 835.474406,    6.790738
 835.834996,    6.790738
 836.196586,    6.790738
 836.557140,    6.790738
 836.918014,    6.790738
 837.280459,    6.790738
 837.643742,    6.790738
 838.005706,    6.790738
 838.368911,    6.790738
 838.733942,    6.790738
 839.098750,    6.790738
 839.464945,    6.790738
 839.829376,    6.790738
 840.195898,    6.790738
 840.562416,    6.790738
 840.929494,    6.790738
 841.297076,    6.790738
 841.664141,    6.790738
 842.031536,    6.790738
 842.400603,    6.790738
 842.770595,    6.790738
 843.141760,    6.790738
 843.511769,    6.790738
 843.882689,    6.790738
 844.254771,    6.790738
 844.627622,    6.790738
 845.001863,    6.790738
 845.375418,    6.790738
 845.749667,    6.790738
 846.124187,    6.790738
 846.499161,    6.790738
 846.874047,    6.790738
 847.249101,    6.790738
 847.625681,    6.790738
 848.002908,    6.790738
 848.380154,    6.790738
 848.756866,    6.790738
 849.136393,    6.790738
 849.516274,    6.790738
 849.896483,    6.790738
 850.274475,    6.790738
 850.651819,    6.790738
 851.033687,    6.790738
 851.415841,    6.790738
 851.797365,    6.790738
 852.179981,    6.790738
 852.564766,    6.790738
 852.950007,    6.790738
 853.334789,    6.790738
 853.719457,    6.790738
 854.104943,    6.790738
 854.492253,    6.790738
 854.879276,    6.790738
 855.267379,    6.790738
 855.656270,    6.790738
 856.044594,    6.790738
 856.435740,    6.790738
 856.825734,    6.790738
 857.216260,    6.790738
 857.313734,    6.790738
 857.607364,    6.790738
 858.000336,    6.790738
 858.393600,    6.790738
 858.785537,    6.790738
 859.179128,    6.790738
 859.572171,    6.790738
 859.967117,    6.790738
 860.362796,    6.790738
 860.760255,    6.790738
 861.157309,    6.790738
 861.558207,    6.790738
 861.956036,    6.790738
 862.355882,    6.790738
 862.756088,    6.790738
 863.157061,    6.790738
 863.557516,    6.790738
 863.960706,    6.790738
 864.359707,    6.790738
 864.764125,    6.790738
 865.166178,    6.790738
 865.570859,    6.790738
 865.974751,    6.790738
 866.382404,    6.790738
 866.790407,    6.790738
 867.198303,    6.790738
 867.607160,    6.790738
 868.016387,    6.790738
 868.428370,    6.790738
 868.841258,    6.790738
 869.252705,    6.790738
 869.664291,    6.790738
 870.079102,    6.790738
 870.490432,    6.790738
 870.904933,    6.790738
 871.319475,    6.790738
 871.736259,    6.790738
 872.152709,    6.790738
 872.571378,    6.790738
 872.988585,    6.790738
 873.407026,    6.790738
 873.828325,    6.790738
 874.249166,    6.790738
 874.669900,    6.790738
 875.092793,    6.790738
 875.514340,    6.790738
 875.936788,    6.790738
 876.359515,    6.790738
 876.785346,    6.790738
 877.212719,    6.790738
 877.638508,    6.790738
 878.065822,    6.790738
 878.494814,    6.790738
 878.926131,    6.790738
 879.355284,    6.790738
 879.786560,    6.790738
 880.217856,    6.790738
 880.650605,    6.790738
 881.082838,    6.790738
 881.518686,    6.790738
 881.953170,    6.790738
 882.388135,    6.790738
 882.827019,    6.790738
 883.262775,    6.790738
 883.702141,    6.790738
 884.142207,    6.790738
 884.583542,    6.790738
 885.024929,    6.790738
 885.466250,    6.790738
 885.907722,    6.790738
 886.350292,    6.790738
 886.794035,    6.790738
 887.241563,    6.790738
 887.687342,    6.790738
 888.137453,    6.790738
 888.584883,    6.790738
 889.034499,    6.790738
 889.483631,    6.790738
 889.935720,    6.790738
 890.388675,    6.790738
 890.839060,    6.790738
 891.289848,    6.790738
 891.742976,    6.790738
 892.194337,    6.790738
 892.652820,    6.790738
 893.108670,    6.790738
 893.566714,    6.790738
 894.025099,    6.790738
 894.487541,    6.790738
 894.951755,    6.790738
 895.414974,    6.790738
 895.874008,    6.790738
 896.338777,    6.790738
 896.803065,    6.790738
 897.269913,    6.790738
 897.733999,    6.790738
 898.199581,    6.790738
 898.670297,    6.790738
 899.136172,    6.790738
 899.608136,    6.790738
 900.078317,    6.790738
 900.550524,    6.790738
 901.025698,    6.790738
 901.499913,    6.790738
 901.976972,    6.790738
 902.455443,    6.790738
 902.932880,    6.790738
 903.412175,    6.790738
 903.893436,    6.790738
 904.375710,    6.790738
 904.858117,    6.790738
 905.341414,    6.790738
 905.825655,    6.790738
 906.307963,    6.790738
 906.792044,    6.790738
 907.275054,    6.790738
 907.764509,    6.790738
 908.252413,    6.790738
 908.739848,    6.790738
 909.230884,    6.790738
 909.718306,    6.790738
 910.208872,    6.790738
 910.701236,    6.790738
 911.194743,    6.790738
 911.690610,    6.790738
 912.183854,    6.790738
 912.678655,    6.790738
 913.173923,    6.790738
 913.673358,    6.790738
 914.173322,    6.790738
 914.673550,    6.790738
 915.179006,    6.790738
 915.683997,    6.790738
 916.188370,    6.790738
 916.693425,    6.790738
 917.197598,    6.790738
 917.704768,    6.790738
 918.213165,    6.790738
 918.723747,    6.790738
 919.234283,    6.790738
 919.745399,    6.790738
 920.258433,    6.790738
 920.771740,    6.790738
 921.286737,    6.790738
 921.808078,    6.790738
 922.324138,    6.790738
 922.842956,    6.790738
 923.360616,    6.790738
 923.880403,    6.790738
 924.399356,    6.790738
 924.923949,    6.790738
 925.445867,    6.790738
 925.972403,    6.790738
 926.497827,    6.790738
 927.022257,    6.790738
 927.553174,    6.790738
 928.082439,    6.790738
 928.615170,    6.790738
 929.142353,    6.790738
 929.669570,    6.790738
 930.199181,    6.790738
 930.727988,    6.790738
 931.265367,    6.790738
 931.802384,    6.790738
 932.337279,    6.790738
 932.870322,    6.790738
 933.408978,    6.790738
 933.952512,    6.790738
 934.494651,    6.790738
 935.036756,    6.790738
 935.578429,    6.790738
 936.122733,    6.790738
 936.668893,    6.790738
 937.210190,    6.790738
 937.755543,    6.790738
 938.301797,    6.790738
 938.853365,    6.790738
 939.401540,    6.790738
 939.951147,    6.790738
 940.506242,    6.790738
 941.056927,    6.790738
 941.611036,    6.790738
 942.164136,    6.790738
 942.721136,    6.790738
 943.279062,    6.790738
 943.836490,    6.790738
 944.397389,    6.790738
 944.955884,    6.790738
 945.516172,    6.790738
 946.076851,    6.790738
 946.636561,    6.790738
 947.200212,    6.790738
 947.761325,    6.790738
 948.328218,    6.790738
 948.899542,    6.790738
 949.467815,    6.790738
 950.036504,    6.790738
 950.607997,    6.790738
 951.178154,    6.790738
 951.748932,    6.790738
 952.321689,    6.790738
 952.894253,    6.790738
 953.468456,    6.790738
 954.036535,    6.790738
 954.610039,    6.790738
 955.188737,    6.790738
 955.762027,    6.790738
 956.343323,    6.790738
 956.926953,    6.790738
 957.506950,    6.790738
 958.089281,    6.790738
 958.671177,    6.790738
 959.254097,    6.790738
 959.840943,    6.790738
 960.426181,    6.790738
 961.015847,    6.790738
 961.598091,    6.790738
 962.185732,    6.790738
 962.777821,    6.790738
 963.366047,    6.790738
 963.956071,    6.790738
 964.549300,    6.790738
 965.141692,    6.790738
 965.735435,    6.790738
 966.330756,    6.790738
 966.928131,    6.790738
 967.521810,    6.790738
 968.117845,    6.790738
 968.712985,    6.790738
 969.309653,    6.790738
 969.910094,    6.790738
 970.509475,    6.790738
 971.112830,    6.790738
 971.714277,    6.790738
 972.316663,    6.790738
 972.919621,    6.790738
 973.527303,    6.790738
 974.134409,    6.790738
 974.744648,    6.790738
 975.356137,    6.790738
 975.966504,    6.790738
 976.581516,    6.790738
 977.199943,    6.790738
 977.819353,    6.790738
 978.432003,    6.790738
 979.043925,    6.790738
 979.667866,    6.790738
 980.285347,    6.790738
 980.900476,    6.790738
 981.517911,    6.790738
 982.132529,    6.790738
 982.748605,    6.790738
 983.373846,    6.790738
 983.993658,    6.790738
 984.616662,    6.790738
 985.234317,    6.790738
 985.862233,    6.790738
 986.490554,    6.790738
 987.115172,    6.790738
 987.736511,    6.790738
 988.358319,    6.790738
 988.987877,    6.790738
 989.612720,    6.790738
 990.244768,    6.790738
 990.873834,    6.790738
 991.506753,    6.790738
 992.139798,    6.790738
 992.767273,    6.790738
 993.393892,    6.790738
 994.029562,    6.790738
 994.663437,    6.790738
 995.302882,    6.790738
 995.934763,    6.790738
 996.576569,    6.790738
 997.210255,    6.790738
 997.850668,    6.790738
 998.488917,    6.790738
 999.122395,    6.790738
 999.762229,    6.790738
1000.399394,    6.790738
1001.042265,    6.790738
1001.679256,    6.790738
1002.318896,    6.790738
1002.959184,    6.790738
1003.604742,    6.790738
1004.248075,    6.790738
1004.894921,    6.790738
1005.538273,    6.790738
1006.190313,    6.790738
1006.832135,    6.790738
1007.473391,    6.790738
1008.119030,    6.790738
1008.771666,    6.790738
1009.424936,    6.790738
1010.068713,    6.790738
1010.719465,    6.790738
1011.376823,    6.790738
1012.029079,    6.790738
1012.684650,    6.790738
1013.337218,    6.790738
1013.986888,    6.790738
1014.645253,    6.790738
1015.300441,    6.790738
1015.958363,    6.790738
1016.617797,    6.790738
1017.279458,    6.790738
1017.943456,    6.790738
1018.603081,    6.790738
1019.269732,    6.790738
1019.927122,    6.790738
1020.587314,    6.790738
1021.247711,    6.790738
1021.907759,    6.790738
1022.573135,    6.790738
1023.235997,    6.790738
1023.898553,    6.790738
1024.058882,    6.790738
