Ground Distance, Angles
   0.000000,    0.000000
   0.000000,    0.000000
   0.000006,    0.000000
   0.000081,    0.000000
   0.000699,    0.000000
   0.003468,    0.000000
   0.009283,    0.000000
   0.017960,    0.000000
   0.029596,    0.000000
   0.044123,    0.000000
   0.061553,    0.000000
   0.081999,    0.000000
   0.105450,    0.000000
   0.131994,    0.000000
   0.161747,    0.000000
   0.194513,    0.000000
   0.230914,    0.000000
   0.270526,    0.000000
   0.313173,    0.000000
   0.359084,    0.000000
   0.408542,    0.000000
   0.461757,    0.000000
   0.519904,    0.000000
   0.581296,    0.000000
   0.646687,    0.000000
   0.715945,    0.000000
   0.788688,    0.000000
   0.864259,    0.000000
   0.945221,    0.000000
   1.029760,    0.000000
   1.119383,    0.000000
   1.212530,    0.000000
   1.312001,    0.000000
   1.414970,    0.000000
   1.525017,    0.000000
   1.639121,    0.000000
   1.758011,    0.000000
   1.884984,    0.000000
   2.015833,    0.000000
   2.152143,    0.000000
   2.294481,    0.000000
   2.441864,    0.000000
   2.593988,    0.000000
   2.754303,    0.000000
   2.916678,    0.000000
   3.087543,    0.000000
   3.262882,    0.000000
   3.447395,    0.000000
   3.636847,    0.000000
   3.836192,    0.000000
   4.040665,    0.000000
   4.250971,    0.000000
   4.466715,    0.000000
   4.693176,    0.000000
   4.924425,    0.000000
   5.163882,    0.000000
   5.412825,    0.000000
   5.674078,    0.000000
   5.938114,    0.000000
   6.212622,    0.000000
   6.492260,    0.000000
   6.781912,    0.000000
   7.079639,    0.000000
   7.383248,    0.000000
   7.697232,    0.000000
   8.016771,    0.000000
   8.347162,    0.000000
   8.685301,    0.000000
   9.033737,    0.000000
   9.393934,    0.000000
   9.762446,    0.000000
  10.142003,    0.000000
  10.524603,    0.000000
  10.923586,    0.000000
  11.329340,    0.000000
  11.749655,    0.000000
  12.173712,    0.000000
  12.613157,    0.000000
  13.061504,    0.000000
  13.518263,    0.000000
  13.991016,    0.000000
  14.467732,    0.000000
  14.958757,    0.000000
  15.456775,    0.000000
  15.973773,    0.000000
  16.495344,    0.000000
  17.029105,    0.000000
  17.574798,    0.000000
  18.134788,    0.000000
  18.702388,    0.000000
  19.286740,    0.000000
  19.885425,    0.000000
  20.494528,    0.000000
  21.115462,    0.000000
  21.746890,    0.000000
  22.390314,    0.000000
  23.048963,    0.000000
  23.716674,    0.000000
  24.402398,    0.000000
  25.107305,    0.000000
  25.135325,    0.000000
  25.154587,    0.000000
  25.171818,    0.000000
  25.185688,    0.000000
  25.201701,    0.000000
  25.213792,    0.000000
  25.216352,    0.000000
  25.219779,    0.000000
  25.220523,    0.000000
  25.221723,    0.000000
  25.222112,    0.000000
  25.222191,    0.000000
  25.222357,    0.000000
  25.224019,    0.000000
  25.237170,    0.000000
  25.296358,    0.000000
  25.498740,    0.000000
  26.000947,    0.000000
  26.642256,    0.000000
  27.302605,    0.000000
  27.974971,    0.000000
  28.653947,    0.000000
  29.346020,    0.000000
  30.053653,    0.000000
  30.769314,    0.000000
  31.493917,    0.000000
  32.235460,    0.000000
  32.986662,    0.000000
  33.749175,    0.000000
  34.521758,    0.000000
  35.309010,    0.000000
  36.110702,    0.000000
  36.918686,    0.000000
  37.737715,    0.000000
  38.565372,    0.000000
  39.411603,    0.000000
  40.272584,    0.000000
  41.143597,    0.000000
  42.028225,    0.000000
  42.927001,    0.000000
  43.837619,    0.000000
  44.766343,    0.000000
  45.699879,    0.000000
  46.644286,    0.000000
  47.608940,    0.000000
  48.581376,    0.000000
  49.574219,    0.000000
  50.577529,    0.000000
  51.594742,    0.000000
  52.624413,    0.000000
  53.659619,    0.000000
  54.722782,    0.000000
  55.793643,    0.000000
  56.886581,    0.000000
  57.986542,    0.000000
  59.097008,    0.000000
  60.230149,    0.000000
  61.373373,    0.000000
  62.533107,    0.000000
  63.705654,    0.000000
  64.887957,    0.000000
  66.098842,    0.000000
  67.316009,    0.000000
  68.552761,    0.000000
  69.802626,    0.000000
  71.066063,    0.000000
  72.337267,    0.000000
  73.633184,    0.000000
  74.937627,    0.000000
  76.259104,    0.000000
  77.604494,    0.000000
  78.964225,    0.000000
  80.341091,    0.000000
  81.731271,    0.000000
  83.142511,    0.000000
  84.561698,    0.000000
  85.995265,    0.000000
  87.444770,    0.000000
  88.909104,    0.000000
  90.400811,    0.000000
  91.901031,    0.000000
  93.423639,    0.000000
  94.964104,    0.000000
  96.517240,    0.000000
  98.080217,    0.000000
  99.664272,    0.000000
 101.266676,    0.000000
 102.891796,    0.000000
 104.526630,    0.000000
 104.539735,    0.000000
 104.542737,    0.000000
 104.543987,    0.000000
 104.546489,    0.000000
 104.546777,    0.000000
 104.546938,    0.000000
 104.547182,    0.000000
 104.549626,    0.000000
 104.574059,    0.000000
 104.717274,    0.000000
 105.202036,    0.000000
 106.378729,    0.000000
 107.871336,    0.000000
 109.366606,    0.000000
 110.882950,    0.000000
 112.407164,    0.000000
 113.943577,    0.000000
 115.497772,    0.000000
 117.071981,    0.000000
 118.654749,    0.000000
 120.245072,    0.000000
 121.861354,    0.000000
 123.485075,    0.000000
 125.124172,    0.000000
 126.780605,    0.000000
 128.452606,    0.000000
 130.136489,    0.000000
 131.835861,    0.000000
 133.556284,    0.000000
 135.287735,    0.000000
 137.033772,    0.000000
 138.793246,    0.000000
 140.565230,    0.000000
 142.361784,    0.000000
 144.164887,    0.000000
 145.979488,    0.000000
 147.815380,    0.000000
 149.672591,    0.000000
 151.547364,    0.000000
 153.429532,    0.000000
 155.329287,    0.000000
 157.237444,    0.000000
 159.171616,    0.000000
 161.112003,    0.000000
 163.075804,    0.000000
 165.046358,    0.000000
 167.036178,    0.000000
 169.042826,    0.000000
 171.062032,    0.000000
 173.107959,    0.000000
 175.162859,    0.000000
 177.231972,    0.000000
 179.321368,    0.000000
 181.424434,    0.000000
 183.537603,    0.000000
 185.678299,    0.000000
 187.832754,    0.000000
 190.009434,    0.000000
 192.198701,    0.000000
 194.405030,    0.000000
 196.620050,    0.000000
 198.856798,    0.000000
 201.111476,    0.000000
 203.379910,    0.000000
 205.669758,    0.000000
 207.977134,    0.000000
 210.306103,    0.000000
 212.646846,    0.000000
 214.994192,    0.000000
 217.363102,    0.000000
 219.756760,    0.000000
 222.166594,    0.000000
 224.602090,    0.000000
 227.041404,    0.000000
 229.496927,    0.000000
 231.973480,    0.000000
 234.466238,    0.000000
 236.981575,    0.000000
 239.508770,    0.000000
 242.065907,    0.000000
 244.638466,    0.000000
 245.156938,    0.000000
 245.494762,    0.000000
 245.750051,    0.000000
 245.955696,    0.000000
 246.156817,    0.000000
 246.360575,    0.000000
 246.509926,    0.000000
 246.536485,    0.000000
 246.569959,    0.000000
 246.609033,    0.000000
 246.611229,    0.000000
 246.612549,    0.000000
 246.613518,    0.000000
 246.614303,    0.000000
 246.614556,    0.000000
 246.614814,    0.000000
 246.617397,    0.000000
 246.639574,    0.000000
 246.780542,    0.000000
 247.315184,    0.000000
 249.139642,    0.000000
 251.404036,    0.000000
 253.699369,    0.000000
 256.004014,    0.000000
 258.328686,    0.000000
 260.655828,    0.000000
 263.004579,    0.000000
 265.366922,    0.000000
 267.740256,    0.000000
 270.131666,    0.000000
 272.535832,    0.000000
 274.948439,    0.000000
 277.381395,    0.000000
 279.827113,    0.000000
 282.292498,    0.000000
 284.769320,    0.000000
 287.256506,    0.000000
 289.758171,    0.000000
 292.278909,    0.000000
 294.806368,    0.000000
 297.350989,    0.000000
 299.915435,    0.000000
 302.495314,    0.000000
 305.082355,    0.000000
 307.690629,    0.000000
 310.309911,    0.000000
 312.945474,    0.000000
 315.596902,    0.000000
 318.256757,    0.000000
 320.932506,    0.000000
 323.630245,    0.000000
 326.343042,    0.000000
 329.067365,    0.000000
 331.802828,    0.000000
 334.555459,    0.000000
 337.328881,    0.000000
 340.110638,    0.000000
 342.912817,    0.000000
 345.735048,    0.000000
 348.571929,    0.000000
 351.416009,    0.000000
 354.278718,    0.000000
 357.155150,    0.000000
 360.049072,    0.000000
 362.964475,    0.000000
 365.884928,    0.000000
 368.817322,    0.000000
 371.766818,    0.000000
 374.729592,    0.000000
 377.712618,    0.000000
 380.705417,    0.000000
 383.719420,    0.000000
 386.759157,    0.000000
 389.800591,    0.000000
 392.867138,    0.000000
 395.945380,    0.000000
 399.043014,    0.000000
 402.157724,    0.000000
 405.284131,    0.000000
 408.419544,    0.000000
 411.577222,    0.000000
 414.764999,    0.000000
 417.948210,    0.000000
 421.160956,    0.000000
 424.378335,    0.000000
 427.616846,    0.000000
 430.876829,    0.000000
 434.145576,    0.000000
 437.428615,    0.000000
 440.728039,    0.000000
 444.048966,    0.000000
 447.386551,    0.000000
 450.732892,    0.000000
 454.108833,    0.000000
 457.487058,    0.000000
 460.888088,    0.000000
 464.304706,    0.000000
 464.990495,    0.000000
 467.377924,    0.000000
 467.515046,    0.000000
 467.538661,    0.000000
 467.548684,    0.000000
 467.551293,    0.000000
 467.552849,    0.000000
 467.554620,    0.000000
 467.572325,    0.000000
 467.698666,    0.000000
 468.534335,    0.000000
 472.194187,    0.000000
 475.641414,    0.000000
 479.110670,    0.000000
 482.595078,    0.000000
 486.098418,    0.000000
 489.616727,    0.000000
 493.149280,    0.000000
 496.693071,    0.000000
 500.266628,    0.000000
 503.847318,    0.000000
 507.450139,    0.000000
 511.064352,    0.000000
 514.692557,    0.000000
 518.341361,    0.000000
 522.013405,    0.000000
 525.693678,    0.000000
 529.390924,    0.000000
 533.101684,    0.000000
 536.830320,    0.000000
 540.583884,    0.000000
 544.350946,    0.000000
 548.132836,    0.000000
 551.938246,    0.000000
 555.759270,    0.000000
 559.594637,    0.000000
 563.445223,    0.000000
 567.303561,    0.000000
 571.184742,    0.000000
 575.086347,    0.000000
 579.001870,    0.000000
 582.928818,    0.000000
 586.875636,    0.000000
 590.844468,    0.000000
 594.826134,    0.000000
 598.830514,    0.000000
 602.857980,    0.000000
 606.896590,    0.000000
 610.951745,    0.000000
 615.022109,    0.000000
 619.112651,    0.000000
 623.222789,    0.000000
 627.351194,    0.000000
 631.499344,    0.000000
 635.657072,    0.000000
 639.837451,    0.000000
 644.029999,    0.000000
 648.237023,    0.000000
 652.466889,    0.000000
 656.712596,    0.000000
 660.980636,    0.000000
 665.264700,    0.000000
 669.570956,    0.000000
 673.892541,    0.000000
 676.160155,    0.000000
 678.226955,    0.000000
 682.580782,    0.112801
 686.946938,    0.348886
 691.344019,    0.582770
 695.758548,    0.815458
 700.197558,    1.046230
 704.644708,    1.275461
 709.105097,    1.502316
 713.600697,    1.727080
 718.119169,    1.950865
 722.646755,    2.173043
 727.198480,    2.392949
 731.766217,    2.611329
 736.344433,    2.827799
 740.946719,    3.042115
 745.564039,    3.254927
 750.191281,    3.465824
 754.835658,    3.674592
 759.502489,    3.881575
 764.175716,    4.087020
 768.856914,    4.290233
 773.555080,    4.491310
 778.263018,    4.690661
 782.988593,    4.887994
 787.715931,    5.083660
 792.453010,    5.277019
 792.643139,    5.468429
 792.899094,    5.476027
 793.151053,    5.486251
 793.217329,    5.496309
 793.301442,    5.498953
 793.321433,    5.502308
 793.351294,    5.503105
 793.353384,    5.504296
 793.354241,    5.504379
 793.355122,    5.504413
 793.363923,    5.504449
 793.451944,    5.504799
 793.967135,    5.508309
 796.012112,    5.528844
 800.932922,    5.610216
 805.905826,    5.804858
 806.236681,    6.002322
 806.566898,    6.018370
 806.898423,    6.034456
 807.229874,    6.050641
 807.561840,    6.066877
 807.893824,    6.083182
 808.225486,    6.099533
 808.558288,    6.115933
 808.891287,    6.132428
 809.224474,    6.148982
 809.556565,    6.165579
 809.888823,    6.182185
 810.222823,    6.198867
 810.556584,    6.215662
 810.890991,    6.232505
 811.225027,    6.249417
 811.558493,    6.266356
 811.893839,    6.283347
 812.229759,    6.300466
 812.565602,    6.317655
 812.898568,    6.334853
 813.232727,    6.352005
 813.568861,    6.369279
 813.906228,    6.386694
 814.240510,    6.404162
 814.576350,    6.421584
 814.912871,    6.439123
 815.249137,    6.456734
 815.587293,    6.474412
 815.924423,    6.492196
 816.263204,    6.510015
 816.602649,    6.527957
 816.942211,    6.545975
 817.282686,    6.564061
 817.623920,    6.582244
 817.965140,    6.600505
 818.305496,    6.618802
 818.647001,    6.637134
 818.989324,    6.655574
 819.331926,    6.674099
 819.673757,    6.692672
 820.017327,    6.711295
 820.359033,    6.730002
 820.701454,    6.748701
 821.044816,    6.767494
 821.390004,    6.786405
 821.734523,    6.805422
 822.079587,    6.824475
 822.423887,    6.843584
 822.769502,    6.862740
 823.112594,    6.881947
 823.457130,    6.901139
 823.803423,    6.920467
 824.150767,    6.939932
 824.497731,    6.959478
 824.845767,    6.979083
 825.192354,    6.998749
 825.541948,    7.018472
 825.891199,    7.038351
 826.241842,    7.058296
 826.592505,    7.078344
 826.943630,    7.098454
 827.295039,    7.118639
 827.645908,    7.125954
 827.999299,    7.133338
 828.349563,    7.140674
 828.701677,    7.148067
 829.054635,    7.155494
 829.407189,    7.162929
 829.762143,    7.170433
 830.116670,    7.177945
 830.468208,    7.185410
 830.824009,    7.192983
 831.180284,    7.200584
 831.535037,    7.208169
 831.891661,    7.215812
 832.248324,    7.223473
 832.605092,    7.231153
 832.960269,    7.238817
 833.318761,    7.246569
 833.676508,    7.254322
 834.035569,    7.262121
 834.392862,    7.269899
 834.753261,    7.277763
 835.114144,    7.285654
 835.474406,    7.293549
 835.834996,    7.301468
 836.196586,    7.309427
 836.557140,    7.317381
 836.918014,    7.325359
 837.280459,    7.333389
 837.643742,    7.341455
 838.005706,    7.349509
 838.368911,    7.357608
 838.733942,    7.365766
 839.098750,    7.373936
 839.464945,    7.382155
 839.829376,    7.390352
 840.195898,    7.398613
 840.562416,    7.406892
 840.929494,    7.415201
 841.297076,    7.423539
 841.664141,    7.431884
 842.031536,    7.440253
 842.400603,    7.448678
 842.770595,    7.457141
 843.141760,    7.465650
 843.511769,    7.474149
 843.882689,    7.482688
 844.254771,    7.491270
 844.627622,    7.499889
 845.001863,    7.508557
 845.375418,    7.517228
 845.749667,    7.525932
 846.124187,    7.534661
 846.499161,    7.543418
 846.874047,    7.552192
 847.249101,    7.560986
 847.625681,    7.569835
 848.002908,    7.578717
 848.380154,    7.587617
 848.756866,    7.596523
 849.136393,    7.605513
 849.516274,    7.614530
 849.896483,    7.623573
 850.274475,    7.632580
 850.651819,    7.641591
 851.033687,    7.650727
 851.415841,    7.659889
 851.797365,    7.669053
 852.179981,    7.678262
 852.564766,    7.687541
 852.950007,    7.696850
 853.334789,    7.706166
 853.719457,    7.715497
 854.104943,    7.724867
 854.492253,    7.734299
 854.879276,    7.743743
 855.267379,    7.753231
 855.656270,    7.762758
 856.044594,    7.772288
 856.435740,    7.781907
 856.825734,    7.791515
 857.216260,    7.801156
 857.313734,    7.803565
 857.607364,    7.810829
 858.000336,    7.820566
 858.393600,    7.830330
 858.785537,    7.840079
 859.179128,    7.849889
 859.572171,    7.859702
 859.967117,    7.869582
 860.362796,    7.879500
 860.760255,    7.889480
 861.157309,    7.899469
 861.558207,    7.909574
 861.956036,    7.919620
 862.355882,    7.929736
 862.756088,    7.939881
 863.157061,    7.950063
 863.557516,    7.960251
 863.960706,    7.970528
 864.359707,    7.980717
 864.764125,    7.991063
 865.166178,    8.001368
 865.570859,    8.011759
 865.974751,    8.022148
 866.382404,    8.032654
 866.790407,    8.043188
 867.198303,    8.053738
 867.607160,    8.064333
 868.016387,    8.074956
 868.428370,    8.085671
 868.841258,    8.096428
 869.252705,    8.107168
 869.664291,    8.117930
 870.079102,    8.128796
 870.490432,    8.139591
 870.904933,    8.150488
 871.319475,    8.161405
 871.736259,    8.172401
 872.152709,    8.183408
 872.571378,    8.194494
 872.988585,    8.205560
 873.407026,    8.216678
 873.828325,    8.227892
 874.249166,    8.239114
 874.669900,    8.250353
 875.092793,    8.261669
 875.514340,    8.272969
 875.936788,    8.284313
 876.359515,    8.295684
 876.785346,    8.307159
 877.212719,    8.318695
 877.638508,    8.330209
 878.065822,    8.341783
 878.494814,    8.353423
 878.926131,    8.365147
 879.355284,    8.376832
 879.786560,    8.388594
 880.217856,    8.400378
 880.650605,    8.412221
 881.082838,    8.424071
 881.518686,    8.436040
 881.953170,    8.447991
 882.388135,    8.459977
 882.827019,    8.472090
 883.262775,    8.484138
 883.702141,    8.496306
 884.142207,    8.508515
 884.583542,    8.520778
 885.024929,    8.533064
 885.466250,    8.545369
 885.907722,    8.557699
 886.350292,    8.570079
 886.794035,    8.582513
 887.241563,    8.595074
 887.687342,    8.607607
 888.137453,    8.620283
 888.584883,    8.632904
 889.034499,    8.645607
 889.483631,    8.658318
 889.935720,    8.671133
 890.388675,    8.683994
 890.839060,    8.696803
 891.289848,    8.709645
 891.742976,    8.722574
 892.194337,    8.735473
 892.652820,    8.748597
 893.108670,    8.761667
 893.566714,    8.774821
 894.025099,    8.788006
 894.487541,    8.801329
 894.951755,    8.814725
 895.414974,    8.828113
 895.874008,    8.841402
 896.338777,    8.854878
 896.803065,    8.868362
 897.269913,    8.881942
 897.733999,    8.895463
 898.199581,    8.909049
 898.670297,    8.922806
 899.136172,    8.936444
 899.608136,    8.950281
 900.078317,    8.964088
 900.550524,    8.977976
 901.025698,    8.991973
 901.499913,    9.005964
 901.976972,    9.020060
 902.455443,    9.034221
 902.932880,    9.048373
 903.412175,    9.062602
 903.893436,    9.076911
 904.375710,    9.091273
 904.858117,    9.105661
 905.341414,    9.120098
 905.825655,    9.134585
 906.307963,    9.149037
 906.792044,    9.163564
 907.275054,    9.178080
 907.764509,    9.192813
 908.252413,    9.207521
 908.739848,    9.222238
 909.230884,    9.237085
 909.718306,    9.251846
 910.208872,    9.266723
 910.701236,    9.281678
 911.194743,    9.296690
 911.690610,    9.311796
 912.183854,    9.326845
 912.678655,    9.341964
 913.173923,    9.357119
 913.673358,    9.372424
 914.173322,    9.387768
 914.673550,    9.403143
 915.179006,    9.418702
 915.683997,    9.434269
 916.188370,    9.449840
 916.693425,    9.465455
 917.197598,    9.481065
 917.704768,    9.496791
 918.213165,    9.512577
 918.723747,    9.528455
 919.234283,    9.544354
 919.745399,    9.560294
 920.258433,    9.576317
 920.771740,    9.592372
 921.286737,    9.608503
 921.808078,    9.624855
 922.324138,    9.641066
 922.842956,    9.657386
 923.360616,    9.673693
 923.880403,    9.690090
 924.399356,    9.706483
 924.923949,    9.723079
 925.445867,    9.739613
 925.972403,    9.756316
 926.497827,    9.773008
 927.022257,    9.789691
 927.553174,    9.806605
 928.082439,    9.823489
 928.615170,    9.840508
 929.142353,    9.857372
 929.669570,    9.874261
 930.199181,    9.891249
 930.727988,    9.908235
 931.265367,    9.925520
 931.802384,    9.942817
 932.337279,    9.960069
 932.870322,    9.977284
 933.408978,    9.994704
 933.952512,   10.012306
 934.494651,   10.029886
 935.036756,   10.047489
 935.578429,   10.065102
 936.122733,   10.082823
 936.668893,   10.100629
 937.210190,   10.118300
 937.755543,   10.136126
 938.301797,   10.154006
 938.853365,   10.172083
 939.401540,   10.190073
 939.951147,   10.208133
 940.506242,   10.226397
 941.056927,   10.244540
 941.611036,   10.262820
 942.164136,   10.281090
 942.721136,   10.299512
 943.279062,   10.317989
 943.836490,   10.336473
 944.397389,   10.355096
 944.955884,   10.373663
 945.516172,   10.392313
 946.076851,   10.411000
 946.636561,   10.429679
 947.200212,   10.448512
 947.761325,   10.467284
 948.328218,   10.486273
 948.899542,   10.505435
 949.467815,   10.524518
 950.036504,   10.543639
 950.607997,   10.562878
 951.178154,   10.582096
 951.748932,   10.601358
 952.321689,   10.620711
 952.894253,   10.640081
 953.468456,   10.659530
 954.036535,   10.678795
 954.610039,   10.698267
 955.188737,   10.717940
 955.762027,   10.737452
 956.343323,   10.757260
 956.926953,   10.777171
 957.506950,   10.796982
 958.089281,   10.816897
 958.671177,   10.836820
 959.254097,   10.856802
 959.840943,   10.876942
 960.426181,   10.897050
 961.015847,   10.917334
 961.598091,   10.937386
 962.185732,   10.957648
 962.777821,   10.978086
 963.366047,   10.998414
 963.956071,   11.018828
 964.549300,   11.039376
 965.141692,   11.059919
 965.735435,   11.080532
 966.330756,   11.101223
 966.928131,   11.122009
 967.521810,   11.142689
 968.117845,   11.163475
 968.712985,   11.184252
 969.309653,   11.205106
 969.910094,   11.226115
 970.509475,   11.247109
 971.112830,   11.268267
 971.714277,   11.289380
 972.316663,   11.310549
 972.919621,   11.331762
 973.527303,   11.353163
 974.134409,   11.374568
 974.744648,   11.396106
 975.356137,   11.417711
 975.966504,   11.439300
 976.581516,   11.461076
 977.199943,   11.482997
 977.819353,   11.504975
 978.432003,   11.526737
 979.043925,   11.548496
 979.667866,   11.570705
 980.285347,   11.592707
 980.900476,   11.614648
 981.517911,   11.636694
 982.132529,   11.658661
 982.748605,   11.680703
 983.373846,   11.703096
 983.993658,   11.725317
 984.616662,   11.747674
 985.234317,   11.769862
 985.862233,   11.792441
 986.490554,   11.815057
 987.115172,   11.837562
 987.736511,   11.859971
 988.358319,   11.882419
 988.987877,   11.905168
 989.612720,   11.927769
 990.244768,   11.950653
 990.873834,   11.973450
 991.506753,   11.996410
 992.139798,   12.019396
 992.767273,   12.042201
 993.393892,   12.064996
 994.029562,   12.088142
 994.663437,   12.111245
 995.302882,   12.134572
 995.934763,   12.157645
 996.576569,   12.181102
 997.210255,   12.204283
 997.850668,   12.227732
 998.488917,   12.251123
 999.122395,   12.274360
 999.762229,   12.297851
1000.399394,   12.321265
1001.042265,   12.344909
1001.679256,   12.368359
1002.318896,   12.391926
1002.959184,   12.415537
1003.604742,   12.439364
1004.248075,   12.463129
1004.894921,   12.487045
1005.538273,   12.510852
1006.190313,   12.535001
1006.832135,   12.558792
1007.473391,   12.582582
1008.119030,   12.606554
1008.771666,   12.630806
1009.424936,   12.655103
1010.068713,   12.679066
1010.719465,   12.703308
1011.376823,   12.727817
1012.029079,   12.752155
1012.684650,   12.776637
1013.337218,   12.801026
1013.986888,   12.825326
1014.645253,   12.849971
1015.300441,   12.874517
1015.958363,   12.899184
1016.617797,   12.923927
1017.279458,   12.948774
1017.943456,   12.973727
1018.603081,   12.998536
1019.269732,   13.023627
1019.927122,   13.048390
1020.587314,   13.073276
1021.247711,   13.098189
1021.907759,   13.123107
1022.573135,   13.148244
1023.235997,   13.173306
1023.898553,   13.198374
1024.058882,   13.204443
