Ground Distance, Emission H2O
   0.000000,    0.038483
   0.015373,   38.484719
   0.168785,   76.986295
   0.339217,  115.489948
   0.509649,  153.993601
   0.680081,  192.497253
   0.850513,  231.000906
   1.020945,  269.504559
   1.191377,  308.008212
   1.361810,  346.511865
   1.532242,  385.015518
   1.702674,  423.519170
   2.119176,  462.048539
   2.566403,  500.581119
   3.013630,  539.113699
   3.460857,  577.646279
   3.908084,  616.178859
   4.355311,  654.711439
   4.802538,  693.244019
   5.249765,  731.776599
   5.696992,  770.309178
   6.144219,  808.841758
   6.834921,  847.393737
   7.556023,  885.948137
   8.277125,  924.502538
   8.998227,  963.056938
   9.719329, 1001.611339
  10.440431, 1040.165739
  11.161533, 1078.720139
  11.882635, 1117.274540
  12.603737, 1155.828940
  13.324839, 1194.383341
  14.286743, 1232.951011
  15.278714, 1271.520338
  16.270685, 1310.089665
  17.262656, 1348.658993
  18.254627, 1387.228320
  19.246597, 1425.797647
  20.238568, 1464.366974
  21.230539, 1502.936301
  22.222510, 1541.505628
  23.214481, 1580.074956
  24.444509, 1618.651619
  25.704260, 1657.229197
  26.964012, 1695.806776
  28.223763, 1734.384355
  29.483515, 1772.961934
  30.743266, 1811.539513
  32.003017, 1850.117092
  33.262769, 1888.694671
  34.522520, 1927.272249
  35.782272, 1965.849828
  37.277267, 2004.429008
  38.801634, 2043.008388
  40.326001, 2081.587767
  41.850368, 2120.167147
  43.374735, 2158.746527
  44.899102, 2197.325906
  46.423469, 2235.905286
  47.947835, 2274.484666
  49.472202, 2313.064045
  50.996569, 2351.643425
  52.753203, 2390.235993
  54.538837, 2428.830208
  56.324472, 2467.424422
  58.110106, 2506.018637
  59.895740, 2544.612852
  61.681374, 2583.207067
  63.467009, 2621.801281
  65.252643, 2660.395496
  67.038277, 2698.989711
  68.823911, 2737.583925
  70.838111, 2776.214075
  72.880849, 2814.848711
  74.923587, 2853.483347
  76.966325, 2892.117983
  79.009063, 2930.752619
  81.051801, 2969.387255
  83.094539, 3008.021891
  85.137277, 3046.656527
  87.180015, 3085.291163
  89.222753, 3123.925799
  91.490044, 3162.584102
  93.785372, 3201.245360
  96.080700, 3239.906618
  98.376028, 3278.567876
 100.671357, 3317.229134
 102.966685, 3355.890392
 105.262013, 3394.551650
 107.557341, 3433.212908
 109.852669, 3471.874166
 112.147997, 3510.535424
 114.663848, 3549.207957
 117.207232, 3587.881897
 119.750617, 3626.555837
 122.294002, 3665.229777
 124.837386, 3703.903717
 127.380771, 3742.577658
 129.924156, 3781.251598
 132.467540, 3819.925538
 135.010925, 3858.599478
 137.554309, 3897.273418
 140.314173, 3935.946891
 143.101066, 3974.620305
 145.887959, 4013.293719
 148.674852, 4051.967133
 151.461746, 4090.640547
 154.248639, 4129.313962
 157.035532, 4167.987376
 159.822425, 4206.660790
 162.609318, 4245.334204
 165.396211, 4284.007618
 168.395532, 4322.669464
 171.421377, 4361.329865
 174.447222, 4399.990266
 177.473067, 4438.650667
 180.498912, 4477.311068
 183.524756, 4515.971469
 186.550601, 4554.631870
 189.576446, 4593.292271
 192.602291, 4631.952673
 195.628136, 4670.613074
 198.862355, 4709.251435
 202.122591, 4747.887045
 205.382827, 4786.522654
 208.643064, 4825.158264
 211.903300, 4863.793873
 215.163536, 4902.429483
 218.423773, 4941.065092
 221.684009, 4979.700702
 224.944245, 5018.336311
 228.204481, 5056.971921
 231.668895, 5095.623671
 235.158801, 5134.277437
 238.648708, 5172.931203
 242.138614, 5211.584969
 245.628521, 5250.238735
 249.118428, 5288.892501
 252.608334, 5327.546267
 256.098241, 5366.200032
 259.588147, 5404.853798
 263.078054, 5443.507564
 266.767166, 5482.231052
 270.481150, 5520.963246
 274.195135, 5559.695440
 277.909119, 5598.427634
 281.623104, 5637.159827
 285.337089, 5675.892021
 289.051073, 5714.624215
 292.765058, 5753.356409
 296.479042, 5792.088602
 300.193027, 5830.820796
 304.101016, 5869.598680
 308.033229, 5908.382270
 311.965441, 5947.165859
 315.897653, 5985.949448
 319.829866, 6024.733037
 323.762078, 6063.516626
 327.694291, 6102.300216
 331.626503, 6141.083805
 335.558716, 6179.867394
 339.490928, 6218.650983
 343.612015, 6257.456832
 347.756684, 6296.265460
 351.901354, 6335.074088
 356.046023, 6373.882716
 360.190693, 6412.691344
 364.335362, 6451.499972
 368.480032, 6490.308600
 372.624701, 6529.117228
 376.769371, 6567.925856
 380.914040, 6606.734484
 385.242527, 6645.543723
 389.593966, 6684.353038
 393.945405, 6723.162353
 398.296843, 6761.971669
 402.648282, 6800.780984
 406.999720, 6839.590299
 411.351159, 6878.399615
 415.702597, 6917.208930
 420.054036, 6956.018245
 424.405474, 6994.827561
 428.935751, 7033.617540
 433.488357, 7072.405105
 438.040963, 7111.192670
 442.593569, 7149.980235
 447.146175, 7188.767799
 451.698781, 7227.555364
 456.251387, 7266.342929
 460.803994, 7305.130494
 465.356600, 7343.918059
 469.909206, 7382.705624
 474.635749, 7421.455526
 479.384011, 7460.200725
 484.132272, 7498.945925
 488.880534, 7537.691124
 493.628795, 7576.436324
 498.377056, 7615.181523
 503.125318, 7653.926723
 507.873579, 7692.671923
 512.621841, 7731.417122
 517.370102, 7770.162322
 522.287483, 7808.853073
 527.225979, 7847.537025
 532.164476, 7886.220978
 537.102972, 7924.904931
 542.041469, 7963.588883
 546.979965, 8002.272836
 551.918462, 8040.956789
 556.856959, 8079.640741
 561.795455, 8118.324694
 566.733952, 8157.008647
 571.836835, 8195.651680
 576.960243, 8234.289605
 582.083652, 8272.927529
 587.207060, 8311.565453
 592.330468, 8350.203377
 597.453877, 8388.841302
 602.577285, 8427.479226
 607.700694, 8466.117150
 612.824102, 8504.755074
 617.947510, 8543.392999
 623.230690, 8582.082615
 628.533819, 8620.778686
 633.836948, 8659.474757
 639.140077, 8698.170828
 644.443206, 8736.866899
 649.746335, 8775.562970
 655.049464, 8814.259042
 660.352593, 8852.955113
 665.655722, 8891.651184
 670.958851, 8930.347255
 676.417244, 8969.087194
 681.895024, 9007.832610
 687.372804, 9046.578027
 692.850584, 9085.323444
 698.328364, 9124.068860
 703.806143, 9162.814277
 709.283923, 9201.559693
 714.761703, 9240.305110
 720.239483, 9279.050526
 725.717263, 9317.795943
 731.303522, 9356.561444
 736.903326, 9395.329453
 742.503130, 9434.097462
 748.102934, 9472.865470
 750.429016, 9488.969170
 756.112488, 9527.746113
 761.795960, 9566.523056
 767.479432, 9605.299998
 773.162904, 9644.076941
 778.846375, 9682.853883
 784.568708, 9721.632030
 790.379849, 9760.412929
 796.190990, 9799.193829
 802.002132, 9837.974728
 807.813273, 9876.755627
 813.624414, 9915.536526
 819.435555, 9954.317425
 825.246697, 9993.098325
 831.057838, 10031.879224
 836.868979, 10070.660123
 842.727488, 10109.438041
 848.694245, 10148.209146
 854.661002, 10186.980251
 860.627759, 10225.751357
 866.594516, 10264.522462
 872.561273, 10303.293567
 878.528030, 10342.064672
 884.494787, 10380.835777
 890.461544, 10419.606883
 896.428301, 10458.377988
 902.439491, 10497.141653
 908.552225, 10535.888314
 914.664958, 10574.634976
 920.777691, 10613.381638
 926.890425, 10652.128299
 933.003158, 10690.874961
 939.115891, 10729.621622
 945.228625, 10768.368284
 951.341358, 10807.114946
 957.454091, 10845.861607
 961.706192, 10872.814316
 967.934738, 10911.530891
 974.163284, 10950.247467
 980.391830, 10988.964042
 986.620376, 11027.680618
 992.848922, 11066.397193
 999.077468, 11105.113769
1005.306014, 11143.830344
1011.534560, 11182.546920
1017.763106, 11221.263495
1023.991652, 11259.980071
1030.261056, 11298.682136
1036.530460, 11337.384201
1042.799864, 11376.086267
1049.069269, 11414.788332
1055.338673, 11453.490398
1061.618214, 11492.186770
1067.897755, 11530.883142
1074.177297, 11569.579515
1080.456838, 11608.275887
1086.736379, 11646.972259
1093.011579, 11685.665710
1099.286780, 11724.359161
1105.561980, 11763.052611
1111.837180, 11801.746062
1118.112381, 11840.439513
1124.387581, 11879.132963
1130.662781, 11917.826414
1136.937982, 11956.519865
