Fuel used, Altitude
   0.000033,    0.000000
   0.033251,    0.000000
   0.066519,    0.000000
   0.099789,    0.000000
   0.133059,    0.000000
   0.166330,    0.000000
   0.199600,    0.000000
   0.232870,    0.000000
   0.266140,    0.000000
   0.299410,    0.000000
   0.332680,    0.000000
   0.365951,    0.000000
   0.399246,    0.000000
   0.432544,    0.000000
   0.465842,    0.000000
   0.499140,    0.000000
   0.532439,    0.000000
   0.565737,    0.000000
   0.599035,    0.000000
   0.632333,    0.000000
   0.665631,    0.000000
   0.698930,    0.000000
   0.732245,    0.000000
   0.765563,    0.000000
   0.798881,    0.000000
   0.832199,    0.000000
   0.865516,    0.000000
   0.898834,    0.000000
   0.932152,    0.000000
   0.965470,    0.000000
   0.998788,    0.000000
   1.032105,    0.000000
   1.065433,    0.000000
   1.098762,    0.000000
   1.132092,    0.000000
   1.165421,    0.000000
   1.198750,    0.000000
   1.232079,    0.000000
   1.265408,    0.000000
   1.298737,    0.000000
   1.332066,    0.000000
   1.365396,    0.000000
   1.398728,    0.000000
   1.432060,    0.000000
   1.465393,    0.000000
   1.498726,    0.000000
   1.532058,    0.000000
   1.565391,    0.000000
   1.598724,    0.000000
   1.632056,    0.000000
   1.665389,    0.000000
   1.698721,    0.000000
   1.732066,    0.000000
   1.765413,    0.000000
   1.798760,    0.000000
   1.832107,    0.000000
   1.865453,    0.000000
   1.898800,    0.000000
   1.932147,    0.000000
   1.965493,    0.000000
   1.998840,    0.000000
   2.032187,    0.000000
   2.065568,    0.000000
   2.098955,    0.000000
   2.132341,    0.000000
   2.165727,    0.000000
   2.199113,    0.000000
   2.232499,    0.000000
   2.265885,    0.000000
   2.299271,    0.000000
   2.332657,    0.000000
   2.366043,    0.000000
   2.399450,    0.000000
   2.432859,    0.000000
   2.466268,    0.000000
   2.499677,    0.000000
   2.533086,    0.000000
   2.566495,    0.000000
   2.599903,    0.000000
   2.633312,    0.000000
   2.666721,    0.000000
   2.700130,    0.000000
   2.733545,    0.000000
   2.766960,    0.000000
   2.800375,    0.000000
   2.833790,    0.000000
   2.867205,    0.000000
   2.900621,    0.000000
   2.934036,    0.000000
   2.967451,    0.000000
   3.000866,    0.000000
   3.034281,    0.000000
   3.067688,    0.000000
   3.101094,    0.000000
   3.134500,    0.000000
   3.167906,    0.000000
   3.201311,    0.000000
   3.234717,    0.000000
   3.268123,    0.000000
   3.301529,    0.000000
   3.334935,    0.000000
   3.368340,    0.000000
   3.401725,    0.000000
   3.435107,    0.000000
   3.468489,    0.000000
   3.501870,    0.000000
   3.535252,    0.000000
   3.568634,    0.000000
   3.602016,    0.000000
   3.635398,    0.000000
   3.668780,    0.000000
   3.702162,    0.000000
   3.735567,    0.000000
   3.768975,    0.000000
   3.802384,    0.000000
   3.835792,    0.000000
   3.869201,    0.000000
   3.902609,    0.000000
   3.936018,    0.000000
   3.969426,    0.000000
   4.002834,    0.000000
   4.036243,    0.000000
   4.069717,    0.000000
   4.103200,    0.000000
   4.136682,    0.000000
   4.170165,    0.000000
   4.203647,    0.000000
   4.237130,    0.000000
   4.270612,    0.000000
   4.304095,    0.000000
   4.337578,    0.000000
   4.371060,    0.000000
   4.404579,    0.000000
   4.438102,    0.000000
   4.471625,    0.000000
   4.505148,    0.000000
   4.538672,    0.000000
   4.572195,    0.000000
   4.605718,    0.000000
   4.639241,    0.000000
   4.672764,    0.000000
   4.706287,    0.000000
   4.739819,    0.000000
   4.773352,    0.000000
   4.806884,    0.000000
   4.840417,    0.000000
   4.873950,    0.000000
   4.907482,    0.000000
   4.941015,    0.000000
   4.974548,    0.000000
   5.008080,    0.000000
   5.041613,    0.000000
   5.075129,    0.000000
   5.108642,    0.000000
   5.142156,    0.000000
   5.175670,    0.000000
   5.209183,    0.000000
   5.242697,    0.000000
   5.276211,    0.000000
   5.309724,    0.000000
   5.343238,    0.000000
   5.376752,    0.000000
   5.410226,    0.000000
   5.443694,    0.000000
   5.477163,    0.000000
   5.510632,    0.000000
   5.544101,    0.000000
   5.577570,    0.000000
   5.611039,    0.000000
   5.644508,    0.000000
   5.677976,    0.000000
   5.711445,    0.000000
   5.744854,    0.000000
   5.778256,    0.000000
   5.811657,    0.000000
   5.845059,    0.000000
   5.878460,    0.000000
   5.911862,    0.000000
   5.945263,    0.000000
   5.978665,    0.000000
   6.012066,    0.000000
   6.045468,    0.000000
   6.078863,    0.000000
   6.112258,    0.000000
   6.145653,    0.000000
   6.179048,    0.000000
   6.212442,    0.000000
   6.245837,    0.000000
   6.265379,    0.000000
   6.298810,    0.000000
   6.332242,    0.000000
   6.365673,    0.000000
   6.399121,    0.000000
   6.432588,    0.000000
   6.466055,    0.000000
   6.499523,    0.000000
   6.532990,    0.000000
   6.566457,    0.000000
   6.599924,    0.000000
   6.633391,    0.000000
   6.666858,    0.000000
   6.700325,    0.000000
   6.733807,    0.000000
   6.767306,    0.000000
   6.800805,    0.000000
   6.834303,    0.000000
   6.867802,    0.000000
   6.901301,    0.000000
   6.934800,    0.000000
   6.968298,    0.000000
   7.001797,    0.000000
   7.035296,    0.000000
   7.068798,    0.000000
   7.102304,    0.000000
   7.135811,    0.000000
   7.169317,    0.000000
   7.202823,    0.000000
   7.236330,    0.000000
   7.269836,    0.000000
   7.303343,    0.000000
   7.336849,    0.000000
   7.370355,    0.000000
   7.387974,    0.000000
   7.421470,    0.152465
   7.454967,    0.304930
   7.488464,    0.457395
   7.521961,    0.609860
   7.555458,    0.762325
   7.588954,    0.914790
   7.622451,    1.067255
   7.655948,    1.219719
   7.689445,    1.372184
   7.722942,    1.524649
   7.756429,    1.922885
   7.789916,    2.321121
   7.823403,    2.719357
   7.856890,    3.117593
   7.890377,    3.515829
   7.923858,    4.087544
   7.957339,    4.659260
   7.990821,    5.230975
   8.024302,    5.802691
   8.057783,    6.374407
   8.091260,    7.133836
   8.124736,    7.893265
   8.158213,    8.652695
   8.191690,    9.412124
   8.225166,   10.171554
   8.225166,   10.668000
  28.652063,  585.216000
  49.190016, 1159.764000
  69.942364, 1734.312000
  91.359209, 2308.860000
 113.854180, 2883.408000
 137.690800, 3457.956000
 163.245919, 4032.504000
 191.082333, 4607.052000
 222.581621, 5181.600000
 222.581621, 5181.600000
 233.324740, 5181.600000
 244.066114, 5181.600000
 254.805743, 5181.600000
 265.543627, 5181.600000
 276.279765, 5181.600000
 287.014157, 5181.600000
 297.746805, 5181.600000
 308.477706, 5181.600000
 319.206863, 5181.600000
 329.934274, 5181.600000
 340.659939, 5181.600000
 351.383859, 5181.600000
 362.106033, 5181.600000
 372.826463, 5181.600000
 383.545146, 5181.600000
 394.262084, 5181.600000
 404.977277, 5181.600000
 415.690724, 5181.600000
 426.402426, 5181.600000
 437.112382, 5181.600000
 447.820593, 5181.600000
 458.527058, 5181.600000
 469.231778, 5181.600000
 479.934752, 5181.600000
 490.635980, 5181.600000
 501.335464, 5181.600000
 512.033201, 5181.600000
 522.729193, 5181.600000
 533.423440, 5181.600000
 533.423440, 5181.600000
 542.332424, 4656.666667
 551.109877, 4131.733333
 559.812010, 3606.800000
 568.334079, 3081.866667
 576.682990, 2556.933333
 584.861458, 2032.000000
 592.742848, 1507.066667
 600.454226,  982.133333
 608.048282,  457.200000
 608.048282,  457.200000
 617.875452,  745.066667
 627.722689, 1032.933333
 637.583943, 1320.800000
 647.480276, 1608.666667
 657.507117, 1896.533333
 667.743674, 2184.400000
 678.213385, 2472.266667
 688.942686, 2760.133333
 699.958161, 3048.000000
 699.958161, 3048.000000
 717.510849, 3048.000000
 735.056775, 3048.000000
 752.595930, 3048.000000
 770.128300, 3048.000000
 787.653875, 3048.000000
 805.172644, 3048.000000
 822.684594, 3048.000000
 840.189714, 3048.000000
 857.687993, 3048.000000
 857.687993, 3048.000000
 862.997456, 2760.133333
 868.240981, 2472.266667
 872.934357, 2184.400000
 877.639120, 1896.533333
 882.341330, 1608.666667
 887.046514, 1320.800000
 891.771707, 1032.933333
 896.513471,  745.066667
 901.261068,  457.200000
 901.261068,  457.200000
 946.692166,  457.200000
 992.034520,  457.200000
1037.288224,  457.200000
1082.454217,  457.200000
1127.534831,  457.200000
1172.530153,  457.200000
1217.440273,  457.200000
1262.265281,  457.200000
1307.005268,  457.200000
1307.005268,  457.200000
1307.019329,  456.910924
1307.033390,  456.621851
1307.047451,  456.332777
1307.061513,  456.043830
1307.075576,  455.754908
1307.089639,  455.465986
1307.103701,  455.177063
1307.117764,  454.888141
1307.131827,  454.599218
1307.145889,  454.310296
1307.159952,  454.021373
1307.174014,  453.732451
1307.188077,  453.443529
1307.202142,  453.154790
1307.216207,  452.866087
1307.230272,  452.577384
1307.244337,  452.288682
1307.258402,  451.999979
1307.272467,  451.711276
1307.286532,  451.422573
1307.300597,  451.133870
1307.314662,  450.845167
1307.328727,  450.556465
1307.342794,  450.267838
1307.356861,  449.979227
1307.370929,  449.690616
1307.384996,  449.402005
1307.399064,  449.113393
1307.413131,  448.824782
1307.427198,  448.536171
1307.441266,  448.247560
1307.455333,  447.958948
1307.469401,  447.670337
1307.483470,  447.382005
1307.497540,  447.093728
1307.511610,  446.805450
1307.525679,  446.517173
1307.539749,  446.228895
1307.553819,  445.940618
1307.567888,  445.652341
1307.581958,  445.364063
1307.596028,  445.075786
1307.610098,  444.787508
1307.624169,  444.499227
1307.638242,  444.210944
1307.652314,  443.922662
1307.666386,  443.634379
1307.680458,  443.346097
1307.694530,  443.057815
1307.708602,  442.769532
1307.722674,  442.481250
1307.736746,  442.192967
1307.750818,  441.904685
1307.764892,  441.616373
1307.778967,  441.328054
1307.793041,  441.039736
1307.807116,  440.751418
1307.821190,  440.463099
1307.835264,  440.174781
1307.849339,  439.886463
1307.863413,  439.598145
1307.877488,  439.309826
1307.891562,  439.021508
1307.905638,  438.733283
1307.919715,  438.445076
1307.933792,  438.156868
1307.947869,  437.868661
1307.961946,  437.580454
1307.976022,  437.292247
1307.990099,  437.004040
1308.004176,  436.715832
1308.018253,  436.427625
1308.032329,  436.139418
1308.046408,  435.851105
1308.060487,  435.562772
1308.074566,  435.274439
1308.088645,  434.986105
1308.102724,  434.697772
1308.116804,  434.409438
1308.130883,  434.121105
1308.144962,  433.832772
1308.159041,  433.544438
1308.173120,  433.256105
1308.187201,  432.967808
1308.201283,  432.679517
1308.215364,  432.391227
1308.229445,  432.102937
1308.243527,  431.814646
1308.257608,  431.526356
1308.271690,  431.238066
1308.285771,  430.949775
1308.299853,  430.661485
1308.313934,  430.373194
1308.328018,  430.084987
1308.342101,  429.796796
1308.356185,  429.508605
1308.370269,  429.220414
1308.384353,  428.932223
1308.398436,  428.644032
1308.412520,  428.355841
1308.426604,  428.067650
1308.440688,  427.779459
1308.454772,  427.491268
1308.468857,  427.203350
1308.482943,  426.915487
1308.497029,  426.627623
1308.511116,  426.339759
1308.525202,  426.051895
1308.539288,  425.764031
1308.553374,  425.476167
1308.567460,  425.188303
1308.581546,  424.900440
1308.595632,  424.612576
1308.609720,  424.324895
1308.623808,  424.037251
1308.637897,  423.749607
1308.651985,  423.461962
1308.666074,  423.174318
1308.680162,  422.886673
1308.694250,  422.599029
1308.708339,  422.311385
1308.722427,  422.023740
1308.736515,  421.736096
1308.750606,  421.448609
1308.764696,  421.161152
1308.778787,  420.873695
1308.792878,  420.586239
1308.806968,  420.298782
1308.821059,  420.011326
1308.835150,  419.723869
1308.849240,  419.436412
1308.863331,  419.148956
1308.877422,  418.861499
1308.891514,  418.573968
1308.905607,  418.286421
1308.919700,  417.998875
1308.933793,  417.711329
1308.947886,  417.423783
1308.961979,  417.136236
1308.976072,  416.848690
1308.990165,  416.561144
1309.004258,  416.273597
1309.018351,  415.986051
1309.032446,  415.698538
1309.046541,  415.411031
1309.060636,  415.123525
1309.074731,  414.836018
1309.088827,  414.548511
1309.102922,  414.261005
1309.117017,  413.973498
1309.131112,  413.685991
1309.145207,  413.398485
1309.159303,  413.110978
1309.173400,  412.823596
1309.187497,  412.536238
1309.201595,  412.248880
1309.215692,  411.961522
1309.229790,  411.674164
1309.243887,  411.386806
1309.257985,  411.099448
1309.272082,  410.812090
1309.286180,  410.524732
1309.300277,  410.237374
1309.314377,  409.949908
1309.328476,  409.662422
1309.342576,  409.374935
1309.356676,  409.087449
1309.370776,  408.799963
1309.384876,  408.512476
1309.398975,  408.224990
1309.413075,  407.937504
1309.427175,  407.650017
1309.441275,  407.362531
1309.455376,  407.075048
1309.469478,  406.787566
1309.483580,  406.500084
1309.497682,  406.212601
1309.511785,  405.925119
1309.525887,  405.637637
1309.539989,  405.350155
1309.554091,  405.062673
1309.568193,  404.775190
1309.582295,  404.487708
1309.596399,  404.200325
1309.610503,  403.912960
1309.624607,  403.625596
1309.638712,  403.338232
1309.652816,  403.050868
1309.666920,  402.763503
1309.681025,  402.476139
1309.695129,  402.188775
1309.709233,  401.901411
1309.723338,  401.614046
1309.737444,  401.326556
1309.751550,  401.039040
1309.765657,  400.751524
1309.779764,  400.464009
1309.793870,  400.176493
1309.807977,  399.888978
1309.822083,  399.601462
1309.836190,  399.313947
1309.850297,  399.026431
1309.864403,  398.738915
1309.878512,  398.451390
1309.892621,  398.163864
1309.906730,  397.876337
1309.920838,  397.588810
1309.934947,  397.301283
1309.949056,  397.013756
1309.963165,  396.726229
1309.977274,  396.438702
1309.991383,  396.151176
1310.005492,  395.863649
1310.019602,  395.576215
1310.033714,  395.288799
1310.047825,  395.001384
1310.061936,  394.713968
1310.076047,  394.426552
1310.090158,  394.139136
1310.104269,  393.851721
1310.118380,  393.564305
1310.132492,  393.276889
1310.146603,  392.989474
1310.160716,  392.701933
1310.174829,  392.414367
1310.188943,  392.126802
1310.203056,  391.839236
1310.217169,  391.551671
1310.231283,  391.264106
1310.245396,  390.976540
1310.259510,  390.688975
1310.273623,  390.401409
1310.287737,  390.113844
1310.301852,  389.826277
1310.315968,  389.538710
1310.330083,  389.251143
1310.344199,  388.963577
1310.358315,  388.676010
1310.372430,  388.388443
1310.386546,  388.100876
1310.400662,  387.813309
1310.414777,  387.525742
1310.428893,  387.238175
1310.443011,  386.950716
1310.457129,  386.663278
1310.471247,  386.375840
1310.485365,  386.088402
1310.499483,  385.800964
1310.513601,  385.513526
1310.527718,  385.226088
1310.541836,  384.938650
1310.555954,  384.651212
1310.570072,  384.363774
1310.584192,  384.076229
1310.598312,  383.788664
1310.612433,  383.501098
1310.626553,  383.213532
1310.640673,  382.925967
1310.654793,  382.638401
1310.668914,  382.350835
1310.683034,  382.063269
1310.697154,  381.775704
1310.711274,  381.488138
1310.725396,  381.200593
1310.739519,  380.913053
1310.753642,  380.625513
1310.767764,  380.337973
1310.781887,  380.050432
1310.796009,  379.762892
1310.810132,  379.475352
1310.824254,  379.187811
1310.838377,  378.900271
1310.852499,  378.612731
1310.866623,  378.325323
1310.880748,  378.037941
1310.894873,  377.750559
1310.908998,  377.463177
1310.923123,  377.175795
1310.937247,  376.888412
1310.951372,  376.601030
1310.965497,  376.313648
1310.979622,  376.026266
1310.993746,  375.738884
1311.007873,  375.451420
1311.022000,  375.163939
1311.036127,  374.876459
1311.050254,  374.588978
1311.064381,  374.301498
1311.078508,  374.014017
1311.092635,  373.726537
1311.106762,  373.439056
1311.120889,  373.151576
1311.135016,  372.864096
1311.149145,  372.576660
1311.163274,  372.289233
1311.177404,  372.001806
1311.191533,  371.714379
1311.205662,  371.426952
1311.219792,  371.139525
1311.233921,  370.852098
1311.248050,  370.564671
1311.262179,  370.277245
1311.276309,  369.989818
1311.290440,  369.702324
1311.304572,  369.414818
1311.318703,  369.127311
1311.332835,  368.839805
1311.346966,  368.552298
1311.361098,  368.264792
1311.375229,  367.977285
1311.389361,  367.689779
1311.403492,  367.402272
1311.417624,  367.114766
1311.431757,  366.826897
1311.445891,  366.538958
1311.460025,  366.251019
1311.474159,  365.963080
1311.488293,  365.675141
1311.502427,  365.387202
1311.516560,  365.099263
1311.530694,  364.811324
1311.544828,  364.523385
1311.558962,  364.235446
1311.573098,  363.947632
1311.587234,  363.659841
1311.601370,  363.372050
1311.615506,  363.084260
1311.629642,  362.796469
1311.643778,  362.508679
1311.657914,  362.220888
1311.672051,  361.933098
1311.686187,  361.645307
1311.700323,  361.357517
1311.714461,  361.069902
1311.728599,  360.782322
1311.742738,  360.494742
1311.756876,  360.207162
1311.771014,  359.919582
1311.785153,  359.632001
1311.799291,  359.344421
1311.813430,  359.056841
1311.827568,  358.769261
1311.841706,  358.481681
1311.855847,  358.194231
1311.869987,  357.906808
1311.884128,  357.619384
1311.898269,  357.331960
1311.912409,  357.044537
1311.926550,  356.757113
1311.940691,  356.469689
1311.954831,  356.182266
1311.968972,  355.894842
1311.983112,  355.607418
1311.997255,  355.319922
1312.011398,  355.032412
1312.025541,  354.744902
1312.039684,  354.457392
1312.053827,  354.169881
1312.067969,  353.882371
1312.082112,  353.594861
1312.096255,  353.307351
1312.110398,  353.019841
1312.124541,  352.732330
1312.138686,  352.444886
1312.152831,  352.157454
1312.166976,  351.870023
1312.181121,  351.582591
1312.195266,  351.295159
1312.209412,  351.007728
1312.223557,  350.720296
1312.237702,  350.432864
1312.251847,  350.145433
1312.265992,  349.858001
1312.280139,  349.570676
1312.294287,  349.283372
1312.308434,  348.996068
1312.322581,  348.708764
1312.336729,  348.421460
1312.350876,  348.134156
1312.365024,  347.846852
1312.379171,  347.559548
1312.393318,  347.272244
1312.407466,  346.984940
1312.421615,  346.697927
1312.435765,  346.410972
1312.449914,  346.124016
1312.464064,  345.837061
1312.478214,  345.550105
1312.492363,  345.263150
1312.506513,  344.976195
1312.520662,  344.689239
1312.534812,  344.402284
1312.548962,  344.115328
1312.563113,  343.828565
1312.577265,  343.541840
1312.591417,  343.255114
1312.605568,  342.968389
1312.619720,  342.681664
1312.633872,  342.394938
1312.648024,  342.108213
1312.662176,  341.821487
1312.676328,  341.534762
1312.690479,  341.248036
1312.704633,  340.961469
1312.718787,  340.674931
1312.732941,  340.388394
1312.747095,  340.101857
1312.761249,  339.815320
1312.775403,  339.528782
1312.789557,  339.242245
1312.803711,  338.955708
1312.817865,  338.669171
1312.832019,  338.382633
1312.846175,  338.096011
1312.860331,  337.809373
1312.874487,  337.522734
1312.888643,  337.236095
1312.902800,  336.949457
1312.916956,  336.662818
1312.931112,  336.376180
1312.945268,  336.089541
1312.959424,  335.802902
1312.973581,  335.516264
1312.987739,  335.229642
1313.001897,  334.943025
1313.016055,  334.656407
1313.030214,  334.369789
1313.044372,  334.083171
1313.058531,  333.796553
1313.072689,  333.509936
1313.086847,  333.223318
1313.101006,  332.936700
1313.115164,  332.650082
1313.129324,  332.363568
1313.143485,  332.077073
1313.157646,  331.790579
1313.171806,  331.504085
1313.185967,  331.217591
1313.200127,  330.931096
1313.214288,  330.644602
1313.228448,  330.358108
1313.242609,  330.071614
1313.256770,  329.785119
1313.270932,  329.498491
1313.285095,  329.211837
1313.299257,  328.925183
1313.313420,  328.638529
1313.327583,  328.351875
1313.341746,  328.065221
1313.355908,  327.778567
1313.370071,  327.491913
1313.384234,  327.205259
1313.398397,  326.918605
1313.412561,  326.631926
1313.426726,  326.345242
1313.440891,  326.058559
1313.455056,  325.771875
1313.469221,  325.485192
1313.483386,  325.198508
1313.497551,  324.911825
1313.511716,  324.625141
1313.525881,  324.338458
1313.540046,  324.051774
1313.554213,  323.765399
1313.568380,  323.479084
1313.582547,  323.192768
1313.596714,  322.906453
1313.610881,  322.620137
1313.625048,  322.333822
1313.639216,  322.047507
1313.653383,  321.761191
1313.667550,  321.474876
1313.681717,  321.188560
1313.695886,  320.902431
1313.710055,  320.616339
1313.724224,  320.330246
1313.738394,  320.044154
1313.752563,  319.758061
1313.766732,  319.471969
1313.780902,  319.185876
1313.795071,  318.899783
1313.809240,  318.613691
1313.823409,  318.327598
1313.837581,  318.041636
1313.851752,  317.755700
1313.865923,  317.469764
1313.880095,  317.183827
1313.894266,  316.897891
1313.908438,  316.611954
1313.922609,  316.326018
1313.936780,  316.040082
1313.950952,  315.754145
1313.965123,  315.468209
1313.979296,  315.182142
1313.993470,  314.896050
1314.007644,  314.609958
1314.021817,  314.323865
1314.035991,  314.037773
1314.050164,  313.751681
1314.064338,  313.465589
1314.078511,  313.179497
1314.092685,  312.893404
1314.106859,  312.607312
1314.121034,  312.321178
1314.135210,  312.035035
1314.149385,  311.748892
1314.163561,  311.462749
1314.177737,  311.176607
1314.191913,  310.890464
1314.206088,  310.604321
1314.220264,  310.318178
1314.234440,  310.032035
1314.248616,  309.745892
1314.262793,  309.459737
1314.276971,  309.173578
1314.291149,  308.887420
1314.305327,  308.601262
1314.319505,  308.315104
1314.333682,  308.028945
1314.347860,  307.742787
1314.362038,  307.456629
1314.376216,  307.170470
1314.390394,  306.884312
1314.404574,  306.597998
1314.418754,  306.311654
1314.432934,  306.025310
1314.447114,  305.738967
1314.461294,  305.452623
1314.475474,  305.166279
1314.489654,  304.879935
1314.503834,  304.593591
1314.518014,  304.307247
1314.532194,  304.020903
1314.546376,  303.734700
1314.560558,  303.448525
1314.574740,  303.162349
1314.588922,  302.876174
1314.603105,  302.589999
1314.617287,  302.303824
1314.631469,  302.017648
1314.645651,  301.731473
1314.659833,  301.445298
1314.674016,  301.159123
1314.688200,  300.872847
1314.702384,  300.586551
1314.716568,  300.300255
1314.730753,  300.013960
1314.744937,  299.727664
1314.759121,  299.441368
1314.773306,  299.155073
1314.787490,  298.868777
1314.801674,  298.582482
1314.815859,  298.296186
1314.830045,  298.009894
1314.844231,  297.723604
1314.858418,  297.437313
1314.872605,  297.151022
1314.886791,  296.864731
1314.900978,  296.578441
1314.915164,  296.292150
1314.929351,  296.005859
1314.943537,  295.719568
1314.957724,  295.433278
1314.971912,  295.147080
1314.986101,  294.860901
1315.000289,  294.574722
1315.014478,  294.288543
1315.028667,  294.002364
1315.042855,  293.716185
1315.057044,  293.430006
1315.071233,  293.143826
1315.085421,  292.857647
1315.099610,  292.571468
1315.113800,  292.285148
1315.127991,  291.998800
1315.142182,  291.712452
1315.156373,  291.426104
1315.170564,  291.139756
1315.184754,  290.853408
1315.198945,  290.567060
1315.213136,  290.280712
1315.227327,  289.994364
1315.241518,  289.708016
1315.255710,  289.421641
1315.269903,  289.135259
1315.284096,  288.848878
1315.298289,  288.562496
1315.312482,  288.276115
1315.326675,  287.989734
1315.340868,  287.703352
1315.355061,  287.416971
1315.369254,  287.130590
1315.383447,  286.844208
1315.397642,  286.558137
1315.411837,  286.272125
1315.426032,  285.986114
1315.440227,  285.700103
1315.454423,  285.414092
1315.468618,  285.128081
1315.482813,  284.842070
1315.497008,  284.556058
1315.511203,  284.270047
1315.525398,  283.984036
1315.539595,  283.698216
1315.553792,  283.412434
1315.567990,  283.126651
1315.582187,  282.840869
1315.596384,  282.555086
1315.610581,  282.269303
1315.624778,  281.983521
1315.638976,  281.697738
1315.653173,  281.411956
1315.667370,  281.126173
1315.681569,  280.840529
1315.695769,  280.554912
1315.709968,  280.269295
1315.724167,  279.983677
1315.738367,  279.698060
1315.752566,  279.412443
1315.766765,  279.126826
1315.780965,  278.841209
1315.795164,  278.555592
1315.809363,  278.269974
1315.823564,  277.984236
1315.837766,  277.698474
1315.851967,  277.412712
1315.866169,  277.126950
1315.880370,  276.841188
1315.894572,  276.555427
1315.908773,  276.269665
1315.922975,  275.983903
1315.937176,  275.698141
1315.951378,  275.412379
1315.965581,  275.126586
1315.979784,  274.840787
1315.993988,  274.554988
1316.008191,  274.269189
1316.022395,  273.983390
1316.036599,  273.697591
1316.050802,  273.411792
1316.065006,  273.125993
1316.079209,  272.840195
1316.093413,  272.554396
1316.107618,  272.268596
1316.121824,  271.982797
1316.136030,  271.696998
1316.150235,  271.411198
1316.164441,  271.125399
1316.178647,  270.839599
1316.192852,  270.553800
1316.207058,  270.268001
1316.221264,  269.982201
1316.235469,  269.696402
1316.249677,  269.410459
1316.263885,  269.124489
1316.278093,  268.838518
1316.292300,  268.552548
1316.306508,  268.266577
1316.320716,  267.980606
1316.334924,  267.694636
1316.349132,  267.408665
1316.363340,  267.122695
1316.377547,  266.836724
1316.391757,  266.550908
1316.405967,  266.265121
1316.420177,  265.979334
1316.434387,  265.693548
1316.448597,  265.407761
1316.462807,  265.121974
1316.477017,  264.836188
1316.491226,  264.550401
1316.505436,  264.264614
1316.519646,  263.978828
1316.533858,  263.692951
1316.548070,  263.407056
1316.562282,  263.121161
1316.576494,  262.835266
1316.590706,  262.549371
1316.604918,  262.263476
1316.619130,  261.977581
1316.633342,  261.691686
1316.647555,  261.405791
1316.661767,  261.119896
1316.675980,  260.834012
1316.690195,  260.548132
1316.704409,  260.262251
1316.718623,  259.976370
1316.732837,  259.690490
1316.747051,  259.404609
1316.761265,  259.118728
1316.775480,  258.832847
1316.789694,  258.546967
1316.803908,  258.261086
1316.818124,  257.975304
1316.832340,  257.689540
1316.846556,  257.403777
1316.860773,  257.118014
1316.874989,  256.832251
1316.889205,  256.546488
1316.903422,  256.260725
1316.917638,  255.974962
1316.931854,  255.689198
1316.946070,  255.403435
1316.960288,  255.117531
1316.974507,  254.831599
1316.988725,  254.545668
1317.002944,  254.259736
1317.017162,  253.973804
1317.031380,  253.687873
1317.045599,  253.401941
1317.059817,  253.116010
1317.074036,  252.830078
1317.088254,  252.544146
1317.102474,  252.258183
1317.116695,  251.972214
1317.130915,  251.686245
1317.145136,  251.400275
1317.159356,  251.114306
1317.173577,  250.828337
1317.187797,  250.542367
1317.202018,  250.256398
1317.216238,  249.970429
1317.230459,  249.684460
1317.244681,  249.398794
1317.258904,  249.113188
1317.273126,  248.827581
1317.287349,  248.541975
1317.301572,  248.256369
1317.315794,  247.970762
1317.330017,  247.685156
1317.344239,  247.399549
1317.358462,  247.113943
1317.372685,  246.828337
1317.386909,  246.542912
1317.401134,  246.257522
1317.415358,  245.972133
1317.429583,  245.686743
1317.443808,  245.401354
1317.458032,  245.115965
1317.472257,  244.830575
1317.486482,  244.545186
1317.500706,  244.259796
1317.514931,  243.974407
1317.529158,  243.689142
1317.543384,  243.403903
1317.557611,  243.118663
1317.571838,  242.833423
1317.586065,  242.548183
1317.600291,  242.262944
1317.614518,  241.977704
1317.628745,  241.692464
1317.642972,  241.407224
1317.657198,  241.121985
1317.671427,  240.836607
1317.685656,  240.551202
1317.699884,  240.265798
1317.714113,  239.980393
1317.728342,  239.694989
1317.742571,  239.409584
1317.756800,  239.124180
1317.771029,  238.838775
1317.785257,  238.553371
1317.799486,  238.267966
1317.813717,  237.982512
1317.827948,  237.697049
1317.842179,  237.411585
1317.856409,  237.126121
1317.870640,  236.840658
1317.884871,  236.555194
1317.899102,  236.269731
1317.913333,  235.984267
1317.927564,  235.698804
1317.941795,  235.413340
1317.956028,  235.127857
1317.970261,  234.842370
1317.984493,  234.556883
1317.998726,  234.271397
1318.012959,  233.985910
1318.027192,  233.700423
1318.041425,  233.414936
1318.055658,  233.129449
1318.069891,  232.843962
1318.084124,  232.558475
1318.098359,  232.272825
1318.112594,  231.987143
1318.126829,  231.701461
1318.141064,  231.415779
1318.155299,  231.130097
1318.169534,  230.844415
1318.183770,  230.558733
1318.198005,  230.273050
1318.212240,  229.987368
1318.226475,  229.701686
1318.240712,  229.416140
1318.254949,  229.130620
1318.269186,  228.845101
1318.283423,  228.559581
1318.297660,  228.274061
1318.311897,  227.988542
1318.326134,  227.703022
1318.340372,  227.417502
1318.354609,  227.131982
1318.368846,  226.846463
1318.383085,  226.560835
1318.397324,  226.275187
1318.411563,  225.989538
1318.425803,  225.703890
1318.440042,  225.418241
1318.454281,  225.132592
1318.468520,  224.846944
1318.482760,  224.561295
1318.496999,  224.275647
1318.511238,  223.989998
1318.525479,  223.704348
1318.539720,  223.418697
1318.553962,  223.133046
1318.568203,  222.847395
1318.582444,  222.561744
1318.596686,  222.276093
1318.610927,  221.990442
1318.625168,  221.704791
1318.639410,  221.419140
1318.653651,  221.133489
1318.667894,  220.847926
1318.682137,  220.562381
1318.696381,  220.276836
1318.710624,  219.991290
1318.724868,  219.705745
1318.739111,  219.420199
1318.753354,  219.134654
1318.767598,  218.849108
1318.781841,  218.563563
1318.796085,  218.278017
1318.810330,  217.992324
1318.824575,  217.706601
1318.838821,  217.420879
1318.853066,  217.135156
1318.867312,  216.849434
1318.881557,  216.563711
1318.895803,  216.277989
1318.910048,  215.992267
1318.924294,  215.706544
1318.938539,  215.420822
1318.952786,  215.135065
1318.967034,  214.849302
1318.981281,  214.563539
1318.995529,  214.277776
1319.009777,  213.992013
1319.024024,  213.706250
1319.038272,  213.420487
1319.052519,  213.134724
1319.066767,  212.848961
1319.081014,  212.563198
1319.095264,  212.277742
1319.109513,  211.992345
1319.123763,  211.706949
1319.138013,  211.421552
1319.152262,  211.136156
1319.166512,  210.850759
1319.180761,  210.565363
1319.195011,  210.279967
1319.209261,  209.994570
1319.223510,  209.709174
1319.237762,  209.423965
1319.252013,  209.138793
1319.266265,  208.853621
1319.280517,  208.568450
1319.294768,  208.283278
1319.309020,  207.998106
1319.323272,  207.712934
1319.337523,  207.427762
1319.351775,  207.142590
1319.366027,  206.857418
1319.380280,  206.572381
1319.394534,  206.287371
1319.408788,  206.002360
1319.423041,  205.717349
1319.437295,  205.432338
1319.451549,  205.147328
1319.465802,  204.862317
1319.480056,  204.577306
1319.494310,  204.292295
1319.508564,  204.007285
1319.522819,  203.722147
1319.537075,  203.436985
1319.551330,  203.151822
1319.565586,  202.866660
1319.579842,  202.581498
1319.594098,  202.296335
1319.608353,  202.011173
1319.622609,  201.726011
1319.636865,  201.440848
1319.651121,  201.155686
1319.665378,  200.870488
1319.679636,  200.585282
1319.693894,  200.300077
1319.708152,  200.014871
1319.722409,  199.729666
1319.736667,  199.444460
1319.750925,  199.159255
1319.765183,  198.874049
1319.779441,  198.588843
1319.793698,  198.303638
1319.807958,  198.018427
1319.822218,  197.733215
1319.836478,  197.448003
1319.850737,  197.162792
1319.864997,  196.877580
1319.879257,  196.592368
1319.893517,  196.307156
1319.907777,  196.021944
1319.922036,  195.736732
1319.936296,  195.451520
1319.950558,  195.166158
1319.964820,  194.880768
1319.979082,  194.595377
1319.993344,  194.309986
1320.007605,  194.024595
1320.021867,  193.739204
1320.036129,  193.453813
1320.050391,  193.168422
1320.064653,  192.883031
1320.078915,  192.597640
1320.093179,  192.312399
1320.107442,  192.027187
1320.121706,  191.741975
1320.135970,  191.456763
1320.150234,  191.171551
1320.164498,  190.886339
1320.178762,  190.601127
1320.193026,  190.315915
1320.207290,  190.030703
1320.221554,  189.745490
1320.235820,  189.460182
1320.250085,  189.174854
1320.264351,  188.889526
1320.278617,  188.604199
1320.292883,  188.318871
1320.307149,  188.033543
1320.321415,  187.748216
1320.335681,  187.462888
1320.349947,  187.177560
1320.364213,  186.892233
1320.378481,  186.606912
1320.392749,  186.321593
1320.407017,  186.036274
1320.421285,  185.750955
1320.435553,  185.465636
1320.449821,  185.180316
1320.464089,  184.894997
1320.478357,  184.609678
1320.492625,  184.324359
1320.506893,  184.039040
1320.521163,  183.753815
1320.535433,  183.468610
1320.549703,  183.183404
1320.563973,  182.898198
1320.578243,  182.612993
1320.592513,  182.327787
1320.606783,  182.042581
1320.621053,  181.757375
1320.635323,  181.472170
1320.649593,  181.186964
1320.663865,  180.901613
1320.678137,  180.616233
1320.692409,  180.330853
1320.706681,  180.045474
1320.720954,  179.760094
1320.735226,  179.474714
1320.749498,  179.189334
1320.763770,  178.903955
1320.778042,  178.618575
1320.792314,  178.333195
1320.806588,  178.047782
1320.820862,  177.762361
1320.835136,  177.476941
1320.849410,  177.191520
1320.863684,  176.906100
1320.877959,  176.620679
1320.892233,  176.335259
1320.906507,  176.049838
1320.920781,  175.764418
1320.935055,  175.478997
1320.949331,  175.193882
1320.963607,  174.908826
1320.977883,  174.623770
1320.992160,  174.338714
1321.006436,  174.053657
1321.020712,  173.768601
1321.034988,  173.483545
1321.049264,  173.198489
1321.063540,  172.913433
1321.077817,  172.628377
1321.092094,  172.343504
1321.106373,  172.058666
1321.120651,  171.773829
1321.134929,  171.488991
1321.149207,  171.204154
1321.163485,  170.919316
1321.177764,  170.634479
1321.192042,  170.349641
1321.206320,  170.064804
1321.220598,  169.779966
1321.234878,  169.495256
1321.249158,  169.210571
1321.263438,  168.925885
1321.277718,  168.641200
1321.291999,  168.356515
1321.306279,  168.071829
1321.320559,  167.787144
1321.334839,  167.502458
1321.349119,  167.217773
1321.363399,  166.933088
1321.377681,  166.648265
1321.391963,  166.363416
1321.406246,  166.078567
1321.420528,  165.793717
1321.434810,  165.508868
1321.449092,  165.224019
1321.463374,  164.939170
1321.477656,  164.654321
1321.491939,  164.369471
1321.506221,  164.084622
1321.520505,  163.799726
1321.534789,  163.514821
1321.549073,  163.229915
1321.563357,  162.945010
1321.577641,  162.660104
1321.591925,  162.375199
1321.606210,  162.090293
1321.620494,  161.805388
1321.634778,  161.520483
1321.649062,  161.235577
1321.663348,  160.950655
1321.677634,  160.665730
1321.691920,  160.380805
1321.706207,  160.095880
1321.720493,  159.810955
1321.734779,  159.526030
1321.749065,  159.241105
1321.763351,  158.956180
1321.777637,  158.671255
1321.791924,  158.386330
1321.806212,  158.101244
1321.820500,  157.816127
1321.834788,  157.531009
1321.849076,  157.245892
1321.863364,  156.960774
1321.877653,  156.675656
1321.891941,  156.390539
1321.906229,  156.105421
1321.920517,  155.820304
1321.934805,  155.535186
1321.949095,  155.250209
1321.963385,  154.965260
1321.977676,  154.680310
1321.991966,  154.395361
1322.006256,  154.110412
1322.020546,  153.825462
1322.034836,  153.540513
1322.049127,  153.255563
1322.063417,  152.970614
1322.077707,  152.685665
1322.091999,  152.400610
1322.106291,  152.115535
1322.120583,  151.830459
1322.134876,  151.545384
1322.149168,  151.260309
1322.163460,  150.975234
1322.177752,  150.690159
1322.192044,  150.405083
1322.206337,  150.120008
1322.220629,  149.834933
1322.234923,  149.549859
1322.249217,  149.264785
1322.263511,  148.979711
1322.277805,  148.694637
1322.292100,  148.409563
1322.306394,  148.124489
1322.320688,  147.839415
1322.334982,  147.554341
1322.349277,  147.269267
1322.363571,  146.984193
1322.377867,  146.699211
1322.392163,  146.414246
1322.406459,  146.129281
1322.420755,  145.844317
1322.435052,  145.559352
1322.449348,  145.274388
1322.463644,  144.989423
1322.477940,  144.704458
1322.492237,  144.419494
1322.506533,  144.134529
1322.520831,  143.849417
1322.535129,  143.564276
1322.549427,  143.279135
1322.563725,  142.993994
1322.578024,  142.708852
1322.592322,  142.423711
1322.606620,  142.138570
1322.620918,  141.853429
1322.635217,  141.568288
1322.649515,  141.283147
1322.663815,  140.997973
1322.678115,  140.712792
1322.692415,  140.427611
1322.706716,  140.142430
1322.721016,  139.857249
1322.735316,  139.572068
1322.749616,  139.286887
1322.763917,  139.001706
1322.778217,  138.716525
1322.792517,  138.431345
1322.806819,  138.146473
1322.821121,  137.861662
1322.835424,  137.576851
1322.849726,  137.292039
1322.864028,  137.007228
1322.878330,  136.722417
1322.892633,  136.437606
1322.906935,  136.152794
1322.921237,  135.867983
1322.935539,  135.583172
1322.949843,  135.298549
1322.964147,  135.013963
1322.978452,  134.729378
1322.992756,  134.444792
1323.007060,  134.160206
1323.021364,  133.875620
1323.035669,  133.591035
1323.049973,  133.306449
1323.064277,  133.021863
1323.078581,  132.737277
1323.092887,  132.452826
1323.107193,  132.168401
1323.121499,  131.883976
1323.135806,  131.599550
1323.150112,  131.315125
1323.164418,  131.030700
1323.178724,  130.746275
1323.193030,  130.461850
1323.207336,  130.177425
1323.221643,  129.893000
1323.235950,  129.608444
1323.250258,  129.323864
1323.264567,  129.039283
1323.278875,  128.754702
1323.293183,  128.470122
1323.307491,  128.185541
1323.321799,  127.900961
1323.336107,  127.616380
1323.350415,  127.331799
1323.364724,  127.047219
1323.379033,  126.762599
1323.393344,  126.477972
1323.407654,  126.193344
1323.421964,  125.908717
1323.436274,  125.624090
1323.450584,  125.339462
1323.464894,  125.054835
1323.479204,  124.770208
1323.493514,  124.485580
1323.507824,  124.200953
1323.522136,  123.916317
1323.536448,  123.631680
1323.550760,  123.347042
1323.565072,  123.062405
1323.579384,  122.777768
1323.593697,  122.493130
1323.608009,  122.208493
1323.622321,  121.923856
1323.636633,  121.639218
1323.650945,  121.354581
1323.665259,  121.069789
1323.679573,  120.784967
1323.693887,  120.500146
1323.708201,  120.215324
1323.722515,  119.930502
1323.736829,  119.645681
1323.751143,  119.360859
1323.765457,  119.076037
1323.779771,  118.791216
1323.794085,  118.506394
1323.808401,  118.221720
1323.822717,  117.937075
1323.837033,  117.652430
1323.851349,  117.367785
1323.865665,  117.083140
1323.879981,  116.798495
1323.894297,  116.513850
1323.908613,  116.229205
1323.922929,  115.944560
1323.937245,  115.659915
1323.951563,  115.375169
1323.965881,  115.090404
1323.980199,  114.805639
1323.994517,  114.520874
1324.008835,  114.236109
1324.023153,  113.951344
1324.037471,  113.666579
1324.051789,  113.381814
1324.066107,  113.097049
1324.080425,  112.812284
1324.094744,  112.527523
1324.109064,  112.242764
1324.123384,  111.958004
1324.137704,  111.673244
1324.152024,  111.388485
1324.166344,  111.103725
1324.180664,  110.818966
1324.194984,  110.534206
1324.209304,  110.249447
1324.223624,  109.964687
1324.237946,  109.680021
1324.252268,  109.395374
1324.266590,  109.110726
1324.280912,  108.826078
1324.295234,  108.541431
1324.309555,  108.256783
1324.323877,  107.972136
1324.338199,  107.687488
1324.352521,  107.402840
1324.366843,  107.118193
1324.381167,  106.833397
1324.395491,  106.548572
1324.409815,  106.263747
1324.424139,  105.978922
1324.438462,  105.694098
1324.452786,  105.409273
1324.467110,  105.124448
1324.481434,  104.839623
1324.495758,  104.554799
1324.510082,  104.269974
1324.524408,  103.985114
1324.538733,  103.700247
1324.553059,  103.415380
1324.567385,  103.130513
1324.581711,  102.845646
1324.596037,  102.560779
1324.610363,  102.275912
1324.624689,  101.991045
1324.639015,  101.706178
1324.653341,  101.421311
1324.667668,  101.136752
1324.681996,  100.852252
1324.696324,  100.567752
1324.710652,  100.283253
1324.724980,   99.998753
1324.739307,   99.714253
1324.753635,   99.429754
1324.767963,   99.145254
1324.782291,   98.860754
1324.796619,   98.576254
1324.810948,   98.291940
1324.825278,   98.007661
1324.839608,   97.723382
1324.853937,   97.439103
1324.868267,   97.154824
1324.882597,   96.870545
1324.896927,   96.586267
1324.911257,   96.301988
1324.925586,   96.017709
1324.939916,   95.733430
1324.954247,   95.449281
1324.968579,   95.165156
1324.982911,   94.881032
1324.997243,   94.596908
1325.011574,   94.312784
1325.025906,   94.028659
1325.040238,   93.744535
1325.054569,   93.460411
1325.068901,   93.176287
1325.083233,   92.892162
1325.097566,   92.607901
1325.111900,   92.323614
1325.126233,   92.039326
1325.140567,   91.755038
1325.154900,   91.470751
1325.169234,   91.186463
1325.183568,   90.902175
1325.197901,   90.617887
1325.212235,   90.333600
1325.226569,   90.049312
1325.240904,   89.764979
1325.255239,   89.480636
1325.269575,   89.196294
1325.283910,   88.911952
1325.298246,   88.627610
1325.312582,   88.343267
1325.326917,   88.058925
1325.341253,   87.774583
1325.355588,   87.490241
1325.369924,   87.205898
1325.384261,   86.921542
1325.398598,   86.637182
1325.412936,   86.352822
1325.427273,   86.068463
1325.441611,   85.784103
1325.455948,   85.499743
1325.470286,   85.215384
1325.484623,   84.931024
1325.498961,   84.646665
1325.513298,   84.362305
1325.527637,   84.077785
1325.541977,   83.793233
1325.556316,   83.508682
1325.570656,   83.224131
1325.584995,   82.939579
1325.599335,   82.655028
1325.613674,   82.370476
1325.628014,   82.085925
1325.642353,   81.801373
1325.656692,   81.516822
1325.671033,   81.232414
1325.685375,   80.948035
1325.699716,   80.663655
1325.714058,   80.379276
1325.728399,   80.094896
1325.742740,   79.810516
1325.757082,   79.526137
1325.771423,   79.241757
1325.785764,   78.957378
1325.800106,   78.672998
1325.814449,   78.388514
1325.828792,   78.104010
1325.843135,   77.819505
1325.857479,   77.535001
1325.871822,   77.250496
1325.886165,   76.965992
1325.900509,   76.681487
1325.914852,   76.396983
1325.929195,   76.112478
1325.943539,   75.827974
1325.957883,   75.543472
1325.972229,   75.258970
1325.986574,   74.974469
1326.000919,   74.689967
1326.015264,   74.405465
1326.029610,   74.120964
1326.043955,   73.836462
1326.058300,   73.551960
1326.072645,   73.267459
1326.086991,   72.982957
1326.101338,   72.698549
1326.115685,   72.414158
1326.130032,   72.129768
1326.144379,   71.845378
1326.158726,   71.560987
1326.173073,   71.276597
1326.187421,   70.992207
1326.201768,   70.707816
1326.216115,   70.423426
1326.230462,   70.139036
1326.244811,   69.854497
1326.259160,   69.569929
1326.273509,   69.285361
1326.287858,   69.000794
1326.302207,   68.716226
1326.316556,   68.431658
1326.330906,   68.147091
1326.345255,   67.862523
1326.359604,   67.577955
1326.373953,   67.293387
1326.388304,   67.008786
1326.402655,   66.724178
1326.417006,   66.439570
1326.431357,   66.154962
1326.445708,   65.870354
1326.460059,   65.585746
1326.474410,   65.301138
1326.488761,   65.016530
1326.503112,   64.731922
1326.517463,   64.447314
1326.531816,   64.163017
1326.546169,   63.878781
1326.560522,   63.594545
1326.574875,   63.310309
1326.589228,   63.026073
1326.603581,   62.741837
1326.617934,   62.457601
1326.632287,   62.173365
1326.646640,   61.889129
1326.660993,   61.604893
1326.675347,   61.320847
1326.689702,   61.036837
1326.704057,   60.752827
1326.718412,   60.468817
1326.732767,   60.184808
1326.747122,   59.900798
1326.761476,   59.616788
1326.775831,   59.332778
1326.790186,   59.048768
1326.804541,   58.764759
1326.818898,   58.480883
1326.833254,   58.197034
1326.847611,   57.913184
1326.861968,   57.629335
1326.876325,   57.345485
1326.890681,   57.061636
1326.905038,   56.777786
1326.919395,   56.493937
1326.933752,   56.210087
1326.948108,   55.926238
1326.962467,   55.642256
1326.976825,   55.358248
1326.991184,   55.074240
1327.005543,   54.790231
1327.019901,   54.506223
1327.034260,   54.222215
1327.048619,   53.938207
1327.062977,   53.654199
1327.077336,   53.370191
1327.091694,   53.086183
1327.106055,   52.802133
1327.120415,   52.518076
1327.134776,   52.234018
1327.149136,   51.949961
1327.163497,   51.665904
1327.177857,   51.381846
1327.192218,   51.097789
1327.206579,   50.813731
1327.220939,   50.529674
1327.235300,   50.245616
1327.249662,   49.961549
1327.264024,   49.677479
1327.278387,   49.393409
1327.292749,   49.109339
1327.307112,   48.825270
1327.321474,   48.541200
1327.335836,   48.257130
1327.350199,   47.973060
1327.364561,   47.688991
1327.378924,   47.404921
1327.393288,   47.120694
1327.407652,   46.836436
1327.422017,   46.552178
1327.436381,   46.267920
1327.450745,   45.983662
1327.465110,   45.699404
1327.479474,   45.415147
1327.493838,   45.130889
1327.508203,   44.846631
1327.522567,   44.562373
1327.536933,   44.278263
1327.551299,   43.994181
1327.565665,   43.710099
1327.580032,   43.426017
1327.594398,   43.141935
1327.608764,   42.857854
1327.623130,   42.573772
1327.637497,   42.289690
1327.651863,   42.005608
1327.666229,   41.721527
1327.680597,   41.437342
1327.694965,   41.153137
1327.709333,   40.868933
1327.723702,   40.584728
1327.738070,   40.300523
1327.752438,   40.016319
1327.766806,   39.732114
1327.781174,   39.447909
1327.795542,   39.163704
1327.809910,   38.879500
1327.824280,   38.595298
1327.838650,   38.311098
1327.853020,   38.026897
1327.867390,   37.742697
1327.881760,   37.458496
1327.896130,   37.174295
1327.910501,   36.890095
1327.924871,   36.605894
1327.939241,   36.321693
1327.953611,   36.037493
1327.967982,   35.753386
1327.982354,   35.469297
1327.996726,   35.185208
1328.011098,   34.901119
1328.025470,   34.617030
1328.039842,   34.332941
1328.054214,   34.048852
1328.068586,   33.764764
1328.082958,   33.480675
1328.097330,   33.196586
1328.111703,   32.912347
1328.126077,   32.628079
1328.140451,   32.343810
1328.154825,   32.059542
1328.169199,   31.775274
1328.183573,   31.491006
1328.197947,   31.206738
1328.212320,   30.922469
1328.226694,   30.638201
1328.241068,   30.353933
1328.255444,   30.069629
1328.269819,   29.785318
1328.284195,   29.501007
1328.298571,   29.216696
1328.312947,   28.932385
1328.327322,   28.648074
1328.341698,   28.363763
1328.356074,   28.079452
1328.370450,   27.795141
1328.384825,   27.510830
1328.399203,   27.226829
1328.413580,   26.942888
1328.427958,   26.658948
1328.442336,   26.375007
1328.456713,   26.091066
1328.471091,   25.807126
1328.485469,   25.523185
1328.499846,   25.239245
1328.514224,   24.955304
1328.528601,   24.671363
1328.542981,   24.387610
1328.557360,   24.103892
1328.571740,   23.820175
1328.586119,   23.536458
1328.600499,   23.252740
1328.614878,   22.969023
1328.629258,   22.685306
1328.643637,   22.401588
1328.658017,   22.117871
1328.672396,   21.834154
1328.686777,   21.550568
1328.701158,   21.267007
1328.715540,   20.983446
1328.729921,   20.699886
1328.744303,   20.416325
1328.758684,   20.132765
1328.773065,   19.849204
1328.787447,   19.565643
1328.801828,   19.282083
1328.816209,   18.998522
1328.830592,   18.714825
1328.844975,   18.431100
1328.859359,   18.147376
1328.873742,   17.863652
1328.888125,   17.579927
1328.902508,   17.296203
1328.916891,   17.012479
1328.931275,   16.728754
1328.945658,   16.445030
1328.960041,   16.161306
1328.974425,   15.877512
1328.988810,   15.593704
1329.003194,   15.309897
1329.006737,   15.240000
1329.021122,   14.956235
1329.035507,   14.672470
1329.049893,   14.388705
1329.064278,   14.104940
1329.078663,   13.821175
1329.093049,   13.537410
1329.106761,   13.253828
1329.113044,   12.972270
1329.119328,   12.690712
1329.125612,   12.409153
1329.131896,   12.127595
1329.138180,   11.846037
1329.144464,   11.564479
1329.150748,   11.282920
1329.157032,   11.001362
1329.163316,   10.719804
1329.169599,   10.438638
1329.175869,   10.161797
1329.182139,    9.884957
1329.188410,    9.608117
1329.194680,    9.331277
1329.200950,    9.054436
1329.207221,    8.777596
1329.213491,    8.500756
1329.219761,    8.223916
1329.226032,    7.947075
1329.232301,    7.670578
1329.238558,    7.397859
1329.244816,    7.125140
1329.251074,    6.852421
1329.257331,    6.579702
1329.263589,    6.306983
1329.268430,    6.096000
1329.274678,    5.826312
1329.280927,    5.556624
1329.287176,    5.286937
1329.293424,    5.017249
1329.295985,    4.787033
1329.298018,    4.562468
1329.300051,    4.337903
1329.302084,    4.113338
1329.304117,    3.888773
1329.306150,    3.664208
1329.308183,    3.439643
1329.310216,    3.215078
1329.312248,    2.990513
1329.314281,    2.765948
1329.309581,    2.617960
1329.303918,    2.480934
1329.298254,    2.343907
1329.292590,    2.206881
1329.286926,    2.069855
1329.281262,    1.932828
1329.275598,    1.795802
1329.269935,    1.658776
1329.264271,    1.521750
1329.258607,    1.384723
1329.242565,    1.314095
1329.225038,    1.252971
1329.207510,    1.191848
1329.189983,    1.130724
1329.172455,    1.069600
1329.154928,    1.008477
1329.137401,    0.947353
1329.119873,    0.886229
1329.102346,    0.825105
1329.084818,    0.763982
1329.063224,    0.721836
1329.041047,    0.682408
1329.028443,    0.660000
1329.004313,    0.624856
1328.980182,    0.589712
1328.956052,    0.554569
1328.931921,    0.519425
1328.907791,    0.484281
1328.883660,    0.449137
1328.859530,    0.413993
1328.846091,    0.394422
1328.846091,    0.394422
1328.846091,    0.394422
1328.846091,    0.394422
1328.846091,    0.394422
1328.846091,    0.394422
1328.846091,    0.394422
1328.846091,    0.394422
1328.846091,    0.394422
1328.846091,    0.394422
1328.846091,    0.394422
1328.846091,    0.394422
1328.846091,    0.394422
1328.846091,    0.394422
1328.846091,    0.394422
1328.846091,    0.394422
1328.846091,    0.394422
1328.846091,    0.394422
1328.846091,    0.394422
1328.846091,    0.394422
1328.846091,    0.394422
1328.846091,    0.394422
1328.846091,    0.394422
1328.846091,    0.394422
1328.846091,    0.394422
1328.846091,    0.394422
1328.846091,    0.394422
1328.846091,    0.394422
1328.846091,    0.394422
1328.846091,    0.394422
1328.846091,    0.394422
1328.846091,    0.394422
1328.846091,    0.394422
1328.846091,    0.394422
1328.846091,    0.394422
1328.846091,    0.394422
1328.846091,    0.394422
1328.846091,    0.394422
1328.846091,    0.394422
1328.846091,    0.394422
1328.846091,    0.394422
1328.846091,    0.394422
1328.846091,    0.394422
1328.846091,    0.394422
1328.846091,    0.394422
1328.846091,    0.394422
1328.846091,    0.394422
1328.846091,    0.394422
1328.846091,    0.394422
1328.846091,    0.394422
1328.846091,    0.394422
1328.846091,    0.394422
1328.846091,    0.394422
1328.846091,    0.394422
1328.846091,    0.394422
1328.846091,    0.394422
1328.846091,    0.394422
1328.846091,    0.394422
1328.846091,    0.394422
1328.846091,    0.394422
1328.846091,    0.394422
1328.846091,    0.394422
1328.846091,    0.394422
1328.846091,    0.394422
1328.846091,    0.394422
1328.846091,    0.394422
1328.846091,    0.394422
1328.846091,    0.394422
1328.846091,    0.394422
1328.846091,    0.394422
1328.846091,    0.394422
1328.846091,    0.394422
1328.846091,    0.394422
1328.846091,    0.394422
1328.846091,    0.394422
1328.846091,    0.394422
1328.846091,    0.394422
1328.846091,    0.394422
1328.846091,    0.394422
1328.846091,    0.394422
1328.846091,    0.394422
1328.846091,    0.394422
1328.846091,    0.394422
1328.846091,    0.394422
1328.846091,    0.394422
1328.846091,    0.394422
1328.846091,    0.394422
1328.846091,    0.394422
1328.846091,    0.394422
1328.846091,    0.394422
1328.846091,    0.394422
1328.846091,    0.394422
1328.846091,    0.394422
1328.846091,    0.394422
1328.846091,    0.394422
1328.846091,    0.394422
1328.846091,    0.394422
1328.846091,    0.394422
1328.846091,    0.394422
1328.846091,    0.394422
1328.846091,    0.394422
1328.846091,    0.394422
1328.846091,    0.394422
1328.846091,    0.394422
1328.846091,    0.394422
1328.846091,    0.394422
1328.846091,    0.394422
1328.846091,    0.394422
1328.846091,    0.394422
1328.846091,    0.394422
1328.846091,    0.394422
1328.846091,    0.394422
