Speed, Forces
  76.632166, 24843.218920
  77.439267, 22794.431107
  78.246369, 21833.058830
  79.053471, 20981.087811
  79.860572, 20466.023220
  80.667674, 20009.024140
  81.474775, 19547.429673
  82.281877, 19193.980967
  83.088978, 18857.369783
  83.896080, 18517.472900
  84.703182, 18189.317595
  85.510283, 17906.176431
  86.317385, 17620.350125
  87.124486, 17331.838677
  87.931588, 17053.353728
  88.738689, 16822.897679
  89.545791, 16590.335996
  90.352893, 16355.668679
  91.159994, 16118.895728
  91.967096, 15916.374680
  92.774197, 15731.520827
  93.581299, 15545.051787
  94.388401, 15356.967560
  95.195502, 15167.268147
  96.002604, 14999.719513
  96.809705, 14857.345495
  97.616807, 14713.779537
  98.423908, 14569.021640
  99.231010, 14423.071804
 100.038112, 14275.930028
 100.845213, 14153.455982
 101.652315, 14055.677099
 102.459416, 13957.118775
 103.266518, 13857.781010
 104.073619, 13757.663803
 104.880721, 13656.767154
 105.687823, 13555.091064
 106.494924, 13478.510400
 107.302026, 13425.441725
 108.109127, 13371.972373
 108.916229, 13318.102343
 109.723330, 13263.831636
 110.530432, 13209.160251
 111.337534, 13154.088189
 112.144635, 13098.615449
 112.951737, 13050.983773
 113.758838, 13036.443046
 114.565940, 13021.798788
 115.373042, 13007.050998
 116.180143, 12992.199677
 116.987245, 12977.244825
 117.794346, 12962.186440
 118.601448, 12947.024525
 119.408549, 12931.759078
 120.215651, 12916.390099
 121.022753, 12902.885884
 121.829854, 12925.320173
 122.636956, 12947.903579
 123.444057, 12970.636102
 124.251159, 12993.517742
 125.058260, 13016.548500
 125.865362, 13039.728374
 126.672464, 13063.057366
 127.479565, 13086.535475
 128.286667, 13110.162702
 129.093768, 13133.939045
 129.900870, 13157.864506
 130.707972, 13181.939084
 131.515073, 13217.938181
 132.322175, 13282.039857
 133.129276, 13346.533719
 133.936378, 13411.419767
 134.743479, 13476.698000
 135.550581, 13542.368419
 136.357683, 13608.431023
 137.164784, 13674.885812
 137.971886, 13741.732787
 138.778987, 13808.971947
 139.586089, 13876.603293
 140.393190, 13944.626824
 141.200292, 14013.042541
 142.007394, 14081.850443
 142.814495, 14151.050530
 143.621597, 14220.642803
 144.428698, 14290.627262
 145.235800, 14381.058697
 146.042902, 14485.996801
 146.850003, 14591.516449
 147.657105, 14697.617642
 148.464206, 14804.300378
 149.271308, 14911.564659
 150.078409, 15019.410484
 150.885511, 15127.837853
 151.692613, 15236.846766
 152.499714, 15346.437223
 153.306816, 15456.609225
 154.113917, 15567.362770
 154.921019, 15678.697860
 155.728120, 15790.614494
 156.535222, 15903.112671
