Speed, Forces
  74.691672, 23600.979420
  75.518374, 21555.029928
  76.345077, 20659.328205
  77.171779, 19807.653635
  77.998482, 19354.624689
  78.825184, 18897.329599
  79.651887, 18454.509491
  80.478589, 18120.649304
  81.305292, 17783.341888
  82.131994, 17442.587246
  82.958697, 17143.209632
  83.785400, 16859.103481
  84.612102, 16572.180183
  85.438805, 16282.439739
  86.265507, 16044.836066
  87.092210, 15813.209232
  87.918912, 15579.373250
  88.745615, 15343.328120
  89.572317, 15135.162779
  90.399020, 14950.708412
  91.225722, 14764.559454
  92.052425, 14576.715905
  92.879127, 14387.177766
  93.705830, 14226.688779
  94.532532, 14084.316580
  95.359235, 13940.693845
  96.185937, 13795.820574
  97.012640, 13649.696766
  97.839343, 13502.322422
  98.666045, 13401.615165
  99.492748, 13303.607563
 100.319450, 13204.782202
 101.146153, 13105.139081
 101.972855, 13004.678201
 102.799558, 12903.399561
 103.626260, 12815.513239
 104.452963, 12762.609481
 105.279665, 12709.285347
 106.106368, 12655.540839
 106.933070, 12601.375955
 107.759773, 12546.790696
 108.586475, 12491.785062
 109.413178, 12436.359053
 110.239880, 12395.796223
 111.066583, 12381.257391
 111.893285, 12366.609939
 112.719988, 12351.853865
 113.546691, 12336.989170
 114.373393, 12322.015854
 115.200096, 12306.933916
 116.026798, 12291.743358
 116.853501, 12276.444178
 117.680203, 12261.036377
 118.506906, 12272.551747
 119.333608, 12295.056613
 120.160311, 12317.717928
 120.987013, 12340.535690
 121.813716, 12363.509900
 122.640418, 12386.640559
 123.467121, 12409.927665
 124.293823, 12433.371219
 125.120526, 12456.971221
 125.947228, 12480.727671
 126.773931, 12504.640569
 127.600634, 12528.709915
 128.427336, 12575.732855
 129.254039, 12639.859332
 130.080741, 12704.397274
 130.907444, 12769.346682
 131.734146, 12834.707556
 132.560849, 12900.479895
 133.387551, 12966.663701
 134.214254, 13033.258971
 135.040956, 13100.265708
 135.867659, 13167.683910
 136.694361, 13235.513578
 137.521064, 13303.754712
 138.347766, 13372.407311
 139.174469, 13441.471376
 140.001171, 13510.946906
 140.827874, 13580.833902
 141.654577, 13674.155173
 142.481279, 13779.005936
 143.307982, 13884.466832
 144.134684, 13990.537862
 144.961387, 14097.219025
 145.788089, 14204.510322
 146.614792, 14312.411752
 147.441494, 14420.923315
 148.268197, 14530.045012
 149.094899, 14639.776843
 149.921602, 14750.118806
 150.748304, 14861.070904
 151.575007, 14972.633134
 152.401709, 15084.805498
 153.228412, 15197.587996
 154.055114, 15310.980627
 154.881817, 15424.983391
 155.708519, 15539.596289
 156.535222, 15654.819320
