Speed, Forces
  68.541768, 25829.199305
  69.430591, 25651.003134
  70.319413, 25472.806964
  71.208236, 25294.610793
  72.097059, 25116.414622
  72.985882, 24938.218451
  73.874704, 24760.022280
  74.763527, 24581.826109
  75.652350, 24403.629939
  76.541173, 24225.433768
  77.429995, 24055.167778
  78.318818, 23906.901456
  79.207641, 23758.635135
  80.096464, 23610.368813
  80.985287, 23462.102491
  81.874109, 23313.836169
  82.762932, 23165.569847
  83.651755, 23017.303525
  84.540578, 22869.037203
  85.429400, 22720.770882
  86.318223, 22572.504560
  87.207046, 22424.238238
  88.095869, 22275.971916
  88.984691, 22148.398274
  89.873514, 22024.255577
  90.762337, 21900.112880
  91.651160, 21775.970182
  92.539983, 21651.827485
  93.428805, 21527.684788
  94.317628, 21403.542090
  95.206451, 21279.399393
  96.095274, 21155.256696
  96.984096, 21031.113999
  97.872919, 20906.971301
  98.761742, 20782.828604
  99.650565, 20667.286380
 100.539387, 20562.230416
 101.428210, 20457.174451
 102.317033, 20352.118487
 103.205856, 20247.062522
 104.094679, 20142.006557
 104.983501, 20036.950593
 105.872324, 19931.894628
 106.761147, 19826.838664
 107.649970, 19721.782699
 108.538792, 19616.726735
 109.427615, 19511.670770
 110.316438, 19407.132315
 111.205261, 19313.997270
 112.094084, 19220.862225
 112.982906, 19127.727180
 113.871729, 19034.592135
 114.760552, 18941.457090
 115.649375, 18848.322045
 116.538197, 18755.187000
 117.427020, 18662.051955
 118.315843, 18568.916910
 119.204666, 18475.781865
 120.093488, 18382.646820
 120.982311, 18289.511775
 121.871134, 18203.840400
 122.759957, 18122.436354
 123.648780, 18041.032307
 124.537602, 17959.628261
 125.426425, 17878.224214
 126.315248, 17796.820168
 127.204071, 17715.416121
 128.092893, 17634.012075
 128.981716, 17552.608028
 129.870539, 17471.203982
 130.759362, 17389.799936
 131.648184, 17308.395889
 132.537007, 17229.338367
 133.425830, 17158.179042
 134.314653, 17087.019717
 135.203476, 17015.860392
 136.092298, 16944.701068
 136.981121, 16873.541743
 137.869944, 16802.382418
 138.758767, 16731.223094
 139.647589, 16660.063769
 140.536412, 16588.904444
 141.425235, 16517.745120
 142.314058, 16446.585795
 143.202880, 16375.426470
 144.091703, 16310.607100
 144.980526, 16247.161835
 145.869349, 16183.716570
 146.758172, 16120.271305
 147.646994, 16056.826040
 148.535817, 15993.380774
 149.424640, 15929.935509
 150.313463, 15866.490244
 151.202285, 15803.044979
 152.091108, 15739.599714
 152.979931, 15676.154449
 153.868754, 15612.709184
 154.757576, 15548.968137
 155.646399, 15484.809620
 156.535222, 15420.651102
