Time, Flightpath Angle
   0.000000,    7.985536
   0.500000,    7.985571
   1.000000,    7.985685
   1.500000,    7.985876
   2.000000,    7.986138
   2.500000,    7.986457
   3.000000,    7.986819
   3.500000,    7.987210
   4.000000,    7.987616
   4.500000,    7.988027
   5.000000,    7.988431
   5.500000,    7.988822
   6.000000,    7.989194
   6.500000,    7.989543
   7.000000,    7.989868
   7.500000,    7.990168
   8.000000,    7.990443
   8.500000,    7.990696
   9.000000,    7.990929
   9.500000,    7.991144
  10.000000,    7.991345
  10.500000,    7.991533
  11.000000,    7.991713
  11.500000,    7.991885
  12.000000,    7.992052
  12.500000,    7.992216
  13.000000,    7.992378
  13.500000,    7.992539
  14.000000,    7.992700
  14.500000,    7.992860
  15.000000,    7.993020
  15.500000,    7.916857
  16.000000,    7.679905
  16.500000,    7.338175
  17.000000,    6.934447
  17.500000,    6.502506
  18.000000,    6.070005
  18.500000,    5.658869
  19.000000,    5.285422
  19.500000,    4.960705
  20.000000,    4.691004
  20.500000,    4.478530
  21.000000,    4.322175
  21.500000,    4.218284
  22.000000,    4.161388
  22.500000,    4.144878
  23.000000,    4.161573
  23.500000,    4.204198
  24.000000,    4.265756
  24.500000,    4.339802
  25.000000,    4.420630
  25.500000,    4.503386
  26.000000,    4.584110
  26.500000,    4.659738
  27.000000,    4.728050
  27.500000,    4.787602
  28.000000,    4.837629
  28.500000,    4.877943
  29.000000,    4.908825
  29.500000,    4.930916
  30.000000,    4.945115
  30.500000,    4.952490
  31.000000,    4.954196
  31.500000,    4.951404
  32.000000,    4.945248
  32.500000,    4.936782
  33.000000,    4.926947
  33.500000,    4.916557
  34.000000,    4.906282
  34.500000,    4.896653
  35.000000,    4.888062
  35.500000,    4.880775
  36.000000,    4.874945
  36.500000,    4.870627
  37.000000,    4.867796
  37.500000,    4.866364
  38.000000,    4.866197
  38.500000,    4.867129
  39.000000,    4.868977
  39.500000,    4.871550
  40.000000,    4.874663
  40.500000,    4.878141
  41.000000,    4.881827
  41.500000,    4.885582
  42.000000,    4.889292
  42.500000,    4.892865
  43.000000,    4.896231
  43.500000,    4.899343
  44.000000,    4.902173
  44.500000,    4.904709
  45.000000,    4.906953
  45.500000,    4.908919
  46.000000,    4.910629
  46.500000,    4.912111
  47.000000,    4.913398
  47.500000,    4.914521
  48.000000,    4.915515
  48.500000,    4.916411
  49.000000,    4.917236
  49.500000,    4.918018
  50.000000,    4.918776
  50.500000,    4.919530
  51.000000,    4.920292
  51.500000,    4.921072
  52.000000,    4.921878
  52.500000,    4.922712
  53.000000,    4.923575
  53.500000,    4.924466
  54.000000,    4.925382
  54.500000,    4.926319
  55.000000,    4.927272
  55.500000,    4.928236
  56.000000,    4.929207
  56.500000,    4.930178
  57.000000,    4.931146
  57.500000,    4.932106
  58.000000,    4.933055
  58.500000,    4.933991
  59.000000,    4.934910
  59.500000,    4.935812
  60.000000,    4.936697
  60.500000,    4.937562
  61.000000,    4.938410
  61.500000,    4.939239
  62.000000,    4.940052
  62.500000,    4.940849
  63.000000,    4.941630
  63.500000,    4.942398
  64.000000,    4.943153
  64.500000,    4.943897
  65.000000,    4.944630
  65.500000,    4.945354
  66.000000,    4.946069
  66.500000,    4.946776
  67.000000,    4.947476
  67.500000,    4.948168
  68.000000,    4.948854
  68.500000,    4.949533
  69.000000,    4.950206
  69.500000,    4.950872
  70.000000,    4.951533
  70.500000,    4.952187
  71.000000,    4.952834
  71.500000,    4.953476
  72.000000,    4.954110
  72.500000,    4.954738
  73.000000,    4.955360
  73.500000,    4.955975
  74.000000,    4.956583
  74.500000,    4.957184
  75.000000,    4.957779
  75.500000,    4.958367
  76.000000,    4.958949
  76.500000,    4.959524
  77.000000,    4.960092
  77.500000,    4.960654
  78.000000,    4.961210
  78.500000,    4.961760
  79.000000,    4.962304
  79.500000,    4.962842
  80.000000,    4.963374
  80.500000,    4.963901
  81.000000,    4.964421
  81.500000,    4.964936
  82.000000,    4.965446
  82.500000,    4.965951
  83.000000,    4.966450
  83.500000,    4.966944
  84.000000,    4.967432
  84.500000,    4.967916
  85.000000,    4.968394
  85.500000,    4.809437
  86.000000,    4.367157
  86.500000,    3.730694
  87.000000,    2.983375
  87.500000,    2.197379
  88.000000,    1.431125
  88.500000,    0.728368
  89.000000,    0.118627
  89.500000,   -0.381434
  90.000000,   -0.765996
  90.500000,   -1.037809
  91.000000,   -1.205882
  91.500000,   -1.283356
  92.000000,   -1.285663
  92.500000,   -1.229024
  93.000000,   -1.129291
  93.500000,   -1.001116
  94.000000,   -0.857408
  94.500000,   -0.709024
  95.000000,   -0.564654
  95.500000,   -0.430852
  96.000000,   -0.312179
  96.500000,   -0.211411
  97.000000,   -0.129799
  97.500000,   -0.067340
  98.000000,   -0.023058
  98.500000,    0.004735
  99.000000,    0.018194
  99.500000,    0.019735
 100.000000,    0.011853
 100.500000,   -0.003020
 101.000000,   -0.022618
 101.500000,   -0.044924
 102.000000,   -0.068213
 102.500000,   -0.091075
 103.000000,   -0.112416
 103.500000,   -0.131449
 104.000000,   -0.147659
 104.500000,   -0.160779
 105.000000,   -0.170742
 105.500000,   -0.177650
 106.000000,   -0.181728
 106.500000,   -0.183289
 107.000000,   -0.182701
 107.500000,   -0.180358
 108.000000,   -0.176656
 108.500000,   -0.171973
 109.000000,   -0.166657
 109.500000,   -0.161014
 110.000000,   -0.155303
 110.500000,   -0.149735
 111.000000,   -0.144470
 111.500000,   -0.139625
 112.000000,   -0.135271
 112.500000,   -0.131445
 113.000000,   -0.128152
 113.500000,   -0.125373
 114.000000,   -0.123068
 114.500000,   -0.121187
 115.000000,   -0.119668
 115.500000,   -0.118449
 116.000000,   -0.117464
 116.500000,   -0.116654
 117.000000,   -0.115962
 117.500000,   -0.115338
 118.000000,   -0.114741
 118.500000,   -0.114136
 119.000000,   -0.113496
 119.500000,   -0.112804
 120.000000,   -0.112047
 120.500000,   -0.111219
 121.000000,   -0.110319
 121.500000,   -0.109349
 122.000000,   -0.108317
 122.500000,   -0.107230
 123.000000,   -0.106098
 123.500000,   -0.104932
 124.000000,   -0.103741
 124.500000,   -0.102536
 125.000000,   -0.101326
 125.500000,   -0.100119
 126.000000,   -0.098921
 126.500000,   -0.097739
 127.000000,   -0.096576
 127.500000,   -0.095436
 128.000000,   -0.094320
 128.500000,   -0.093229
 129.000000,   -0.092163
 129.500000,   -0.091122
 130.000000,   -0.090104
 130.500000,   -0.089108
 131.000000,   -0.088132
 131.500000,   -0.087174
 132.000000,   -0.086232
 132.500000,   -0.085305
 133.000000,   -0.084390
 133.500000,   -0.083487
 134.000000,   -0.082594
 134.500000,   -0.081709
 135.000000,   -0.080833
 135.500000,   -0.079964
 136.000000,   -0.079103
 136.500000,   -0.078248
 137.000000,   -0.077400
 137.500000,   -0.076559
 138.000000,   -0.075724
 138.500000,   -0.074897
 139.000000,   -0.074076
 139.500000,   -0.073263
 140.000000,   -0.072457
 140.500000,   -0.071660
 141.000000,   -0.070870
 141.500000,   -0.070088
 142.000000,   -0.069314
 142.500000,   -0.068549
 143.000000,   -0.067791
 143.500000,   -0.067042
 144.000000,   -0.066302
 144.500000,   -0.065569
 145.000000,   -0.064844
 145.500000,   -0.064128
 146.000000,   -0.063419
 146.500000,   -0.062718
 147.000000,   -0.062024
 147.500000,   -0.061338
 148.000000,   -0.060659
 148.500000,   -0.059988
 149.000000,   -0.059323
 149.500000,   -0.058665
 150.000000,   -0.058014
 150.500000,   -0.057370
 151.000000,   -0.056733
 151.500000,   -0.056102
 152.000000,   -0.055477
 152.500000,   -0.054859
 153.000000,   -0.054247
 153.500000,   -0.053642
 154.000000,   -0.053043
 154.500000,   -0.052449
 155.000000,   -0.051862
 155.500000,   -0.051281
 156.000000,   -0.050706
 156.500000,   -0.050137
 157.000000,   -0.049574
 157.500000,   -0.049017
 158.000000,   -0.048465
 158.500000,   -0.047919
 159.000000,   -0.047378
 159.500000,   -0.046844
 160.000000,   -0.046314
 160.500000,   -0.045791
 161.000000,   -0.045272
 161.500000,   -0.044759
 162.000000,   -0.044251
 162.500000,   -0.043749
 163.000000,   -0.043251
 163.500000,   -0.042759
 164.000000,   -0.042272
 164.500000,   -0.041790
 165.000000,   -0.041313
 165.500000,   -0.040840
 166.000000,   -0.040373
 166.500000,   -0.039910
 167.000000,   -0.039452
 167.500000,   -0.038999
 168.000000,   -0.038550
 168.500000,   -0.038106
 169.000000,   -0.037667
 169.500000,   -0.037232
 170.000000,   -0.036801
 170.500000,   -0.036375
 171.000000,   -0.035953
 171.500000,   -0.035536
 172.000000,   -0.035122
 172.500000,   -0.034713
 173.000000,   -0.034309
 173.500000,   -0.033908
 174.000000,   -0.033511
 174.500000,   -0.033119
 175.000000,   -0.032730
 175.500000,   -0.032346
 176.000000,   -0.031965
 176.500000,   -0.031589
 177.000000,   -0.031216
 177.500000,   -0.030847
 178.000000,   -0.030481
 178.500000,   -0.030120
 179.000000,   -0.029762
 179.500000,   -0.029408
 180.000000,   -0.029057
