Speed, Forces
 128.326939, 3307.172624
 129.795683, 3277.735793
 131.264427, 3250.336008
 132.733171, 3224.882293
 134.201915, 3201.279771
 135.670659, 3179.429662
 137.139403, 3159.229286
 138.608147, 3140.572061
 140.076891, 3123.497948
 141.545635, 3108.352348
 143.014379, 3094.509163
 144.483123, 3081.848156
 145.951867, 3070.850133
 147.420611, 3061.294281
 148.889355, 3052.646059
 150.358099, 3045.651237
 151.826843, 3039.797489
 153.295587, 3034.775053
 154.764331, 3031.543804
 156.233075, 3028.748408
 157.701819, 3027.713723
 159.170563, 3027.175523
 160.639307, 3028.120359
 162.108051, 3029.635518
 163.576795, 3032.561220
 165.045539, 3035.914195
 166.514283, 3040.818208
 167.983027, 3045.781752
 169.451771, 3052.657617
 170.920515, 3059.593339
 172.389259, 3067.830138
 173.858003, 3076.743113
 175.326747, 3086.070854
 176.795491, 3096.946172
 178.264235, 3107.912214
 179.732979, 3119.918091
 181.201723, 3132.842122
 182.670467, 3145.871335
 184.139211, 3160.217496
 185.607955, 3175.195143
 187.076699, 3190.291781
 188.545443, 3206.616965
 190.014187, 3223.647278
 191.482931, 3240.809740
 192.951675, 3258.729276
 194.420419, 3277.805454
 195.889163, 3297.026289
 197.357907, 3316.391780
 198.826651, 3337.241488
 200.295395, 3358.507391
 201.764139, 3379.929808
 203.232883, 3401.508740
 204.701627, 3424.783895
 206.170371, 3448.243432
 207.639115, 3471.870690
 209.107859, 3495.665669
 210.576603, 3520.822535
 212.045347, 3546.471810
 213.514091, 3572.299364
 214.982835, 3598.305196
 216.451579, 3624.761019
 217.920323, 3652.588335
 219.389067, 3680.603837
 220.857811, 3708.807524
 222.326555, 3737.199397
 223.795299, 3765.926393
 225.264043, 3796.109691
 226.732787, 3826.490432
 228.201531, 3857.068614
 229.670275, 3887.844239
 231.139019, 3918.817305
 232.607763, 3950.609276
 234.076507, 3983.344514
 235.545251, 4016.285800
 237.013995, 4049.433134
 238.482739, 4082.786516
 239.951483, 4116.345946
 241.420227, 4150.281464
 242.888971, 4185.564708
 244.357715, 4221.061956
 245.826459, 4256.773208
 247.295203, 4292.698465
 248.763947, 4328.837725
 250.232691, 4365.190989
 251.701435, 4401.758257
 253.170179, 4439.765965
 254.638923, 4478.024197
 256.107667, 4516.503740
 257.576411, 4555.204591
 259.045155, 4594.126753
 260.513900, 4633.270225
 261.982644, 4672.635006
 263.451388, 4712.221097
 264.920132, 4752.985542
 266.388876, 4794.218043
 267.857620, 4835.678509
 269.326364, 4877.366940
 270.795108, 4919.283336
 272.263852, 4961.427698
 273.732596, 5003.800025
