Speed, Forces
 100.079745, 6618.426132
 101.875111, 6858.016672
 103.670477, 7101.867102
 105.465843, 7349.977422
 107.261209, 7602.347632
 109.056575, 7858.977732
 110.851941, 8119.867722
 112.647307, 8385.017602
 114.442673, 8493.466640
 116.238039, 8325.644227
 118.033405, 5879.442139
 119.828772, 5366.655665
 121.624138, 5039.542307
 123.419504, 4843.212116
 125.214870, 4669.451433
 127.010236, 4537.151858
 128.805602, 4407.654723
 130.600968, 4303.117800
 132.396334, 4197.133868
 134.191700, 4102.464276
 135.987066, 4015.606417
 137.782432, 3927.594199
 139.577799, 3852.397943
 141.373165, 3781.713991
 143.168531, 3710.126652
 144.963897, 3645.820590
 146.759263, 3589.325552
 148.554629, 3532.135133
 150.349995, 3474.249334
 152.145361, 3429.071277
 153.940727, 3386.524834
 155.736093, 3343.479274
 157.531459, 3299.934597
 159.326826, 3265.963442
 161.122192, 3239.308190
 162.917558, 3212.354258
 164.712924, 3185.101645
 166.508290, 3157.550351
 168.303656, 3138.734752
 170.099022, 3125.645815
 171.894388, 3112.417994
 173.689754, 3099.051289
 175.485120, 3085.545699
 177.280486, 3071.901225
 179.075853, 3067.075178
 180.871219, 3066.252023
 182.666585, 3065.420657
 184.461951, 3064.581080
 186.257317, 3063.733290
 188.052683, 3062.877290
 189.848049, 3062.013077
 191.643415, 3067.006784
 193.438781, 3078.631043
 195.234147, 3090.363693
 197.029513, 3102.204735
 198.824880, 3114.154168
 200.620246, 3126.211992
 202.415612, 3138.378208
 204.210978, 3150.652816
 206.006344, 3163.035814
 207.801710, 3180.746394
 209.597076, 3206.667028
 211.392442, 3232.810648
 213.187808, 3259.177254
 214.983174, 3285.766846
 216.778540, 3312.579424
 218.573907, 3339.614988
 220.369273, 3366.873538
 222.164639, 3394.355074
 223.960005, 3422.059596
 225.755371, 3449.987103
 227.550737, 3478.137597
 229.346103, 3511.570271
 231.141469, 3550.533522
 232.936835, 3589.800595
 234.732201, 3629.371492
 236.527567, 3669.246211
 238.322934, 3709.424752
 240.118300, 3749.907117
 241.913666, 3790.693304
 243.709032, 3831.783314
 245.504398, 3873.177147
 247.299764, 3914.874802
 249.095130, 3956.876281
 250.890496, 3999.181582
 252.685862, 4041.790705
 254.481228, 4084.703652
 256.276594, 4127.920421
 258.071961, 4171.441013
 259.867327, 4222.931054
 261.662693, 4275.555374
 263.458059, 4328.542013
 265.253425, 4381.890969
 267.048791, 4435.602244
 268.844157, 4489.675838
 270.639523, 4544.111749
 272.434889, 4598.909979
 274.230255, 4654.070527
 276.025621, 4709.593393
 277.820988, 4765.478577
