Speed, Forces
 146.438331, 3307.247532
 147.639682, 3286.181273
 148.841033, 3265.929073
 150.042385, 3246.409588
 151.243736, 3228.323818
 152.445087, 3211.008492
 153.646439, 3194.346726
 154.847790, 3179.131961
 156.049141, 3164.360161
 157.250492, 3150.680921
 158.451844, 3137.790355
 159.653195, 3125.548283
 160.854546, 3114.418981
 162.055897, 3103.618937
 163.257249, 3094.124917
 164.458600, 3084.769757
 165.659951, 3076.779023
 166.861302, 3068.869597
 168.062654, 3062.244140
 169.264005, 3055.779294
 170.465356, 3050.375091
 171.666708, 3045.351666
 172.868059, 3041.018680
 174.069410, 3037.431515
 175.270761, 3034.013695
 176.472113, 3031.855622
 177.673464, 3029.682807
 178.874815, 3028.452750
 180.076166, 3027.709623
 181.277518, 3027.043648
 182.478869, 3027.718696
 183.680220, 3028.398203
 184.881572, 3029.520750
 186.082923, 3031.614018
 187.284274, 3033.720843
 188.485625, 3036.409665
 189.686977, 3039.923162
 190.888328, 3043.458982
 192.089679, 3047.479802
 193.291030, 3052.412532
 194.492382, 3057.376016
 195.693733, 3062.482533
 196.895084, 3068.830493
 198.096435, 3075.217302
 199.297787, 3081.642963
 200.499138, 3088.907367
 201.700489, 3096.710158
 202.901841, 3104.559563
 204.103192, 3112.455581
 205.304543, 3121.563859
 206.505894, 3130.826323
 207.707246, 3140.142829
 208.908597, 3149.513377
 210.109948, 3160.131470
 211.311299, 3170.854438
 212.512651, 3181.638542
 213.714002, 3192.483783
 214.915353, 3204.257587
 216.116704, 3216.437881
 217.318056, 3228.686071
 218.519407, 3241.002159
 219.720758, 3253.557526
 220.922110, 3267.187958
 222.123461, 3280.892714
 223.324812, 3294.671792
 224.526163, 3308.525194
 225.727515, 3322.683903
 226.928866, 3337.833694
 228.130217, 3353.063899
 229.331568, 3368.374520
 230.532920, 3383.765556
 231.734271, 3399.237007
 232.935622, 3415.717622
 234.136974, 3432.469254
 235.338325, 3449.307060
 236.539676, 3466.231039
 237.741027, 3483.241191
 238.942379, 3500.337517
 240.143730, 3518.576482
 241.345081, 3536.932104
 242.546432, 3555.379324
 243.747784, 3573.918141
 244.949135, 3592.548556
 246.150486, 3611.270568
 247.351837, 3630.662232
 248.553189, 3650.617979
 249.754540, 3670.670413
 250.955891, 3690.819534
 252.157243, 3711.065342
 253.358594, 3731.407838
 254.559945, 3751.847021
 255.761296, 3772.850448
 256.962648, 3794.497883
 258.163999, 3816.246760
 259.365350, 3838.097081
 260.566701, 3860.048845
 261.768053, 3882.102052
 262.969404, 3904.256702
 264.170755, 3926.512796
 265.372106, 3949.439201
