Speed, Forces
 121.640963, 6618.426132
 123.092793, 6777.355658
 124.544623, 6938.170813
 125.996452, 7100.871598
 127.448282, 7265.458012
 128.900112, 7431.930056
 130.351942, 7600.287730
 131.803771, 7770.531033
 133.255601, 7942.659966
 134.707431, 8116.674529
 136.159260, 8292.574721
 137.611090, 8435.761743
 139.062920, 8492.088690
 140.514750, 8474.588061
 141.966579, 6818.675095
 143.418409, 5891.968325
 144.870239, 5488.309223
 146.322069, 5259.730139
 147.773898, 5044.274090
 149.225728, 4914.018942
 150.677558, 4782.490335
 152.129387, 4673.172127
 153.581217, 4585.396087
 155.033047, 4496.786344
 156.484877, 4411.015219
 157.936706, 4341.657240
 159.388536, 4271.658745
 160.840366, 4201.019735
 162.292196, 4134.404193
 163.744025, 4077.029669
 165.195855, 4019.144170
 166.647685, 3960.747697
 168.099515, 3902.023814
 169.551344, 3855.523756
 171.003174, 3808.623815
 172.455004, 3761.323994
 173.906833, 3713.624290
 175.358663, 3667.287947
 176.810493, 3629.955534
 178.262323, 3592.315313
 179.714152, 3554.367283
 181.165982, 3516.111445
 182.617812, 3477.547799
 184.069642, 3445.585674
 185.521471, 3417.464300
 186.973301, 3389.121994
 188.425131, 3360.558755
 189.876960, 3331.774582
 191.328790, 3302.769477
 192.780620, 3276.527086
 194.232450, 3258.905507
 195.684279, 3241.151718
 197.136109, 3223.265718
 198.587939, 3205.247509
 200.039769, 3187.097089
 201.491598, 3168.814459
 202.943428, 3150.399619
 204.395258, 3139.735506
 205.847088, 3131.049775
 207.298917, 3122.302567
 208.750747, 3113.493881
 210.202577, 3104.623719
 211.654406, 3095.692081
 213.106236, 3086.698965
 214.558066, 3077.644372
 216.009896, 3068.528303
 217.461725, 3067.148073
 218.913555, 3066.601814
 220.365385, 3066.051921
 221.817215, 3065.498393
 223.269044, 3064.941230
 224.720874, 3064.380432
 226.172704, 3063.815999
 227.624533, 3063.247932
 229.076363, 3062.676229
 230.528193, 3062.100892
 231.980023, 3061.974115
 233.431852, 3069.664439
 234.883682, 3077.402742
 236.335512, 3085.189025
 237.787342, 3093.023286
 239.239171, 3100.905527
 240.691001, 3108.835747
 242.142831, 3116.813946
 243.594661, 3124.840124
 245.046490, 3132.914282
 246.498320, 3141.036418
 247.950150, 3149.206534
 249.401979, 3157.424629
 250.853809, 3165.690704
 252.305639, 3177.614370
 253.757469, 3194.816985
 255.209298, 3212.118304
 256.661128, 3229.518327
 258.112958, 3247.017055
 259.564788, 3264.614486
 261.016617, 3282.310622
 262.468447, 3300.105461
 263.920277, 3317.999005
 265.372106, 3335.991253
