Speed, Forces
 128.328392, 3307.247532
 129.797121, 3277.810665
 131.265851, 3250.410800
 132.734580, 3224.956960
 134.203309, 3201.354264
 135.672038, 3179.503932
 137.140768, 3159.303282
 138.609497, 3140.645730
 140.078226, 3123.571623
 141.546956, 3108.425645
 143.015685, 3094.582025
 144.484414, 3081.920526
 145.953144, 3070.922515
 147.421873, 3061.366113
 148.890602, 3052.717279
 150.359332, 3045.722469
 151.828061, 3039.868046
 153.296790, 3034.845620
 154.765520, 3031.613629
 156.234249, 3028.817426
 157.702978, 3027.782744
 159.171708, 3027.243668
 160.640437, 3028.188501
 162.109166, 3029.702711
 163.577896, 3032.628404
 165.046625, 3035.980357
 166.515354, 3040.884352
 167.984084, 3045.846798
 169.452813, 3052.722638
 170.921542, 3059.658333
 172.390272, 3067.893948
 173.859001, 3076.806886
 175.327730, 3086.133366
 176.796460, 3097.008635
 178.265189, 3107.974626
 179.733918, 3119.979153
 181.202648, 3132.903121
 182.671377, 3145.932270
 184.140106, 3160.276990
 185.608836, 3175.254558
 187.077565, 3190.351116
 188.546294, 3206.674766
 190.015024, 3223.704985
 191.483753, 3240.867350
 192.952482, 3258.785260
 194.421212, 3277.861326
 195.889941, 3297.082046
 197.358670, 3316.447419
 198.827400, 3337.295394
 200.296129, 3358.561164
 201.764858, 3379.983444
 203.233588, 3401.562236
 204.702317, 3424.835552
 206.171046, 3448.294932
 207.639776, 3471.922030
 209.108505, 3495.716846
 210.577234, 3520.871765
 212.045964, 3546.520860
 213.514693, 3572.348229
 214.983422, 3598.353874
 216.452152, 3624.807644
 217.920881, 3652.634754
 219.389610, 3680.650047
 220.858340, 3708.853521
 222.327069, 3737.245176
 223.795798, 3765.970000
 225.264528, 3796.153063
 226.733257, 3826.533564
 228.201986, 3857.111503
 229.670716, 3887.886880
 231.139445, 3918.859695
 232.608174, 3950.649362
 234.076904, 3983.384329
 235.545633, 4016.325340
 237.014362, 4049.472396
 238.483092, 4082.825495
 239.951821, 4116.384638
 241.420550, 4150.317722
 242.889280, 4185.600659
 244.358009, 4221.097596
 245.826738, 4256.808533
 247.295468, 4292.733470
 248.764197, 4328.872406
 250.232926, 4365.225343
 251.701656, 4401.792278
 253.170385, 4439.797395
 254.639114, 4478.055275
 256.107844, 4516.534460
 257.576573, 4555.234951
 259.045302, 4594.156747
 260.514032, 4633.299848
 261.982761, 4672.664254
 263.451490, 4712.249966
 264.920220, 4753.011670
 266.388949, 4794.243771
 267.857678, 4835.703833
 269.326408, 4877.391855
 270.795137, 4919.307838
 272.263866, 4961.451782
 273.732596, 5003.823687
