Speed, Forces
 156.925498, 3307.247532
 157.977707, 3290.042473
 159.029915, 3273.070837
 160.082123, 3257.065166
 161.134332, 3241.553526
 162.186540, 3226.750658
 163.238748, 3212.602307
 164.290957, 3199.004319
 165.343165, 3186.118536
 166.395374, 3173.726163
 167.447582, 3161.998208
 168.499790, 3150.810849
 169.551999, 3140.131963
 170.604207, 3130.147678
 171.656415, 3120.405088
 172.708624, 3111.620595
 173.760832, 3102.782420
 174.813040, 3095.108190
 175.865249, 3087.473052
 176.917457, 3080.483695
 177.969665, 3074.045412
 179.021874, 3067.614988
 180.074082, 3062.366040
 181.126290, 3057.086331
 182.178499, 3052.296115
 183.230707, 3048.204076
 184.282915, 3044.088470
 185.335124, 3040.776671
 186.387332, 3037.845284
 187.439540, 3034.897302
 188.491749, 3032.894095
 189.543957, 3031.125095
 190.596166, 3029.346247
 191.648374, 3028.473773
 192.700582, 3027.866885
 193.752791, 3027.256674
 194.804999, 3027.329039
 195.857207, 3027.881982
 196.909416, 3028.437903
 197.961624, 3029.261177
 199.013832, 3030.969659
 200.066041, 3032.687197
 201.118249, 3034.413793
 202.170457, 3036.917140
 203.222666, 3039.789773
 204.274874, 3042.677318
 205.327082, 3045.579775
 206.379291, 3049.518794
 207.431499, 3053.558534
 208.483707, 3057.618817
 209.535916, 3061.699645
 210.588124, 3066.816541
 211.640332, 3072.023666
 212.692541, 3077.256743
 213.744749, 3082.515772
 214.796958, 3088.539363
 215.849166, 3094.911471
 216.901374, 3101.314717
 217.953583, 3107.749102
 219.005791, 3114.394812
 220.057999, 3121.926826
 221.110208, 3129.494939
 222.162416, 3137.099154
 223.214624, 3144.739469
 224.266833, 3152.753181
 225.319041, 3161.478182
 226.371249, 3170.244022
 227.423458, 3179.050703
 228.475666, 3187.898224
 229.527874, 3196.923793
 230.580083, 3206.840378
 231.632291, 3216.802320
 232.684499, 3226.809618
 233.736708, 3236.862272
 234.788916, 3246.960281
 235.841124, 3257.626887
 236.893333, 3268.779956
 237.945541, 3279.982674
 238.997750, 3291.235041
 240.049958, 3302.537056
 241.102166, 3313.888720
 242.154375, 3325.753576
 243.206583, 3338.143170
 244.258791, 3350.586482
 245.311000, 3363.083512
 246.363208, 3375.634261
 247.415416, 3388.238728
 248.467625, 3400.896914
 249.519833, 3414.453069
 250.572041, 3428.132776
 251.624250, 3441.870048
 252.676458, 3455.664885
 253.728666, 3469.517286
 254.780875, 3483.427253
 255.833083, 3497.394785
 256.885291, 3512.092384
 257.937500, 3527.061458
 258.989708, 3542.091719
 260.041916, 3557.183170
 261.094125, 3572.335808
