Speed, Forces
 146.436673, 3307.172624
 147.638041, 3286.106308
 148.839409, 3265.854112
 150.040777, 3246.334693
 151.242145, 3228.248863
 152.443513, 3210.933668
 153.644881, 3194.271839
 154.846249, 3179.057272
 156.047617, 3164.285735
 157.248985, 3150.606437
 158.450353, 3137.716203
 159.651721, 3125.474075
 160.853089, 3114.345178
 162.054457, 3103.545081
 163.255825, 3094.051539
 164.457193, 3084.696329
 165.658561, 3076.706149
 166.859929, 3068.796679
 168.061297, 3062.171852
 169.262665, 3055.706967
 170.464033, 3050.303471
 171.665401, 3045.280016
 172.866769, 3040.947815
 174.068137, 3037.360626
 175.269505, 3033.943672
 176.470873, 3031.785583
 177.672241, 3029.612753
 178.873609, 3028.383652
 180.074977, 3027.640519
 181.276345, 3026.975579
 182.477713, 3027.650633
 183.679081, 3028.330145
 184.880449, 3029.453820
 186.081817, 3031.547104
 187.283185, 3033.653947
 188.484553, 3036.343989
 189.685921, 3039.857515
 190.887289, 3043.393365
 192.088657, 3047.415500
 193.290025, 3052.348272
 194.491393, 3057.311800
 195.692761, 3062.419726
 196.894129, 3068.767743
 198.095497, 3075.154611
 199.296865, 3081.580331
 200.498233, 3088.846250
 201.699601, 3096.649116
 202.900969, 3104.498596
 204.102337, 3112.394691
 205.303706, 3121.504592
 206.505074, 3130.767148
 207.706442, 3140.083747
 208.907810, 3149.454390
 210.109178, 3160.074214
 211.310546, 3170.797292
 212.511914, 3181.581509
 213.713282, 3192.426864
 214.914650, 3204.202506
 216.116018, 3216.382931
 217.317386, 3228.631254
 218.518754, 3240.947475
 219.720122, 3253.504787
 220.921490, 3267.135370
 222.122858, 3280.840279
 223.324226, 3294.619513
 224.525594, 3308.473072
 225.726962, 3322.633845
 226.928330, 3337.783810
 228.129698, 3353.014192
 229.331066, 3368.324992
 230.532434, 3383.716210
 231.733802, 3399.187845
 232.935170, 3415.670656
 234.136538, 3432.422490
 235.337906, 3449.260500
 236.539274, 3466.184685
 237.740642, 3483.195047
 238.942010, 3500.291584
 240.143378, 3518.532875
 241.344746, 3536.888728
 242.546114, 3555.336180
 243.747482, 3573.875232
 244.948850, 3592.505884
 246.150218, 3611.228135
 247.351586, 3630.622254
 248.552954, 3650.578259
 249.754322, 3670.630955
 250.955690, 3690.780340
 252.157058, 3711.026415
 253.358426, 3731.369180
 254.559794, 3751.808636
 255.761162, 3772.814655
 256.962530, 3794.462381
 258.163898, 3816.211553
 259.365266, 3838.062170
 260.566634, 3860.014234
 261.768002, 3882.067743
 262.969370, 3904.222699
 264.170738, 3926.479101
 265.372106, 3949.408247
