Speed, Forces
 156.923721, 3307.172624
 157.975948, 3289.967465
 159.028174, 3272.995798
 160.080400, 3256.990027
 161.132626, 3241.478431
 162.184853, 3226.675465
 163.237079, 3212.527235
 164.289305, 3198.929152
 165.341532, 3186.043566
 166.393758, 3173.651104
 167.445984, 3161.923424
 168.498211, 3150.735981
 169.550437, 3140.057451
 170.602663, 3130.073086
 171.654889, 3120.330932
 172.707116, 3111.546367
 173.759342, 3102.708117
 174.811568, 3095.034414
 175.863795, 3087.399209
 176.916021, 3080.410462
 177.968247, 3073.972121
 179.020474, 3067.542388
 180.072700, 3062.293391
 181.124926, 3057.013632
 182.177152, 3052.224202
 183.229379, 3048.132123
 184.281605, 3044.016477
 185.333831, 3040.705559
 186.386058, 3037.774142
 187.438284, 3034.826129
 188.490510, 3032.823899
 189.542737, 3031.054880
 190.594963, 3029.276013
 191.647189, 3028.404612
 192.699415, 3027.797718
 193.751642, 3027.187501
 194.803868, 3027.261035
 195.856094, 3027.813984
 196.908321, 3028.369911
 197.960547, 3029.194452
 199.012773, 3030.902954
 200.064999, 3032.620512
 201.117226, 3034.347128
 202.169452, 3036.851853
 203.221678, 3039.724520
 204.273905, 3042.612101
 205.326131, 3045.514594
 206.378357, 3049.455099
 207.430584, 3053.494890
 208.482810, 3057.555225
 209.535036, 3061.636105
 210.587262, 3066.754598
 211.639489, 3071.961791
 212.691715, 3077.194936
 213.743941, 3082.454036
 214.796168, 3088.479332
 215.848394, 3094.851526
 216.900620, 3101.254859
 217.952847, 3107.689332
 219.005073, 3114.336857
 220.057299, 3121.868974
 221.109525, 3129.437193
 222.161752, 3137.041514
 223.213978, 3144.681937
 224.266204, 3152.697585
 225.318431, 3161.422711
 226.370657, 3170.188678
 227.422883, 3178.995486
 228.475110, 3187.843136
 229.527336, 3196.870762
 230.579562, 3206.787494
 231.631788, 3216.749584
 232.684015, 3226.757031
 233.736241, 3236.809835
 234.788467, 3246.907998
 235.840694, 3257.576794
 236.892920, 3268.730033
 237.945146, 3279.932923
 238.997373, 3291.185464
 240.049599, 3302.487655
 241.101825, 3313.839496
 242.154051, 3325.706674
 243.206278, 3338.096462
 244.258504, 3350.539971
 245.310730, 3363.037201
 246.362957, 3375.588151
 247.415183, 3388.192821
 248.467409, 3400.851211
 249.519636, 3414.409832
 250.571862, 3428.089762
 251.624088, 3441.827258
 252.676314, 3455.622322
 253.728541, 3469.474953
 254.780767, 3483.385151
 255.832993, 3497.352915
 256.885220, 3512.053120
 257.937446, 3527.022445
 258.989672, 3542.052960
 260.041899, 3557.144667
 261.094125, 3572.297563
