Speed, Forces
 113.756222, 8102.069823
 115.330239, 8052.698913
 116.904256, 8003.328004
 118.478273, 7953.957094
 120.052290, 7904.586184
 121.626307, 7855.215274
 123.200324, 7805.844365
 124.774341, 7756.473455
 126.348358, 7707.102545
 127.922375, 7657.731635
 129.496392, 7608.360726
 131.070409, 7558.989816
 132.644426, 7509.618906
 134.218444, 7465.159153
 135.792461, 7421.237901
 137.366478, 7377.316648
 138.940495, 7333.395395
 140.514512, 7289.474143
 142.088529, 7245.552890
 143.662546, 7201.631637
 145.236563, 7157.710385
 146.810580, 7113.789132
 148.384597, 7069.867879
 149.958614, 7025.946627
 151.532631, 6982.025374
 153.106648, 6938.104121
 154.680665, 6894.182868
 156.254683, 6854.589829
 157.828700, 6815.824219
 159.402717, 6777.058609
 160.976734, 6738.292999
 162.550751, 6699.527389
 164.124768, 6660.761779
 165.698785, 6621.996169
 167.272802, 6583.230559
 168.846819, 6544.464949
 170.420836, 6505.699339
 171.994853, 6466.933729
 173.568870, 6428.168119
 175.142887, 6389.402509
 176.716904, 6350.636899
 178.290921, 6314.981625
 179.864939, 6280.214763
 181.438956, 6245.447901
 183.012973, 6210.681038
 184.586990, 6175.914176
 186.161007, 6141.147314
 187.735024, 6106.380452
 189.309041, 6071.613589
 190.883058, 6036.846727
 192.457075, 6002.079865
 194.031092, 5967.313003
 195.605109, 5932.546141
 197.179126, 5897.779278
 198.753143, 5863.012416
 200.327160, 5830.489296
 201.901178, 5798.855493
 203.475195, 5767.221689
 205.049212, 5735.587885
 206.623229, 5703.954081
 208.197246, 5672.320277
 209.771263, 5640.686473
 211.345280, 5609.052669
 212.919297, 5577.418866
 214.493314, 5545.785062
 216.067331, 5514.151258
 217.641348, 5482.517454
 219.215365, 5450.883650
 220.789382, 5419.249846
 222.363399, 5390.332562
 223.937416, 5362.849523
 225.511434, 5335.366484
 227.085451, 5307.883446
 228.659468, 5280.400407
 230.233485, 5252.917369
 231.807502, 5225.434330
 233.381519, 5197.951291
 234.955536, 5170.468253
 236.529553, 5142.985214
 238.103570, 5115.502176
 239.677587, 5088.019137
 241.251604, 5060.536098
 242.825621, 5033.053060
 244.399638, 5007.571166
 245.973655, 4983.463960
 247.547673, 4959.356753
 249.121690, 4935.249547
 250.695707, 4911.142340
 252.269724, 4887.035134
 253.843741, 4862.927927
 255.417758, 4838.820721
 256.991775, 4814.713514
 258.565792, 4790.606308
 260.139809, 4766.499101
 261.713826, 4742.391894
 263.287843, 4718.284688
 264.861860, 4694.177481
 266.435877, 4671.494014
 268.009894, 4650.067559
 269.583911, 4628.641103
