Speed, Forces
 128.328392, 8379.110465
 129.797121, 8325.937607
 131.265851, 8272.764749
 132.734580, 8219.591891
 134.203309, 8166.419033
 135.672038, 8118.116656
 137.140768, 8073.579116
 138.609497, 8029.041575
 140.078226, 7984.504035
 141.546956, 7939.966494
 143.015685, 7895.428954
 144.484414, 7850.891413
 145.953144, 7806.353873
 147.421873, 7761.816332
 148.890602, 7717.278792
 150.359332, 7672.741251
 151.828061, 7628.203711
 153.296790, 7583.666170
 154.765520, 7539.128630
 156.234249, 7494.591089
 157.702978, 7451.053403
 159.171708, 7410.326250
 160.640437, 7369.599098
 162.109166, 7328.871945
 163.577896, 7288.144792
 165.046625, 7247.417639
 166.515354, 7206.690486
 167.984084, 7165.963334
 169.452813, 7125.236181
 170.921542, 7084.509028
 172.390272, 7043.781875
 173.859001, 7003.054723
 175.327730, 6962.327570
 176.796460, 6921.600417
 178.265189, 6880.873264
 179.733918, 6840.146111
 181.202648, 6801.951876
 182.671377, 6763.861039
 184.140106, 6725.770203
 185.608836, 6687.679366
 187.077565, 6649.588529
 188.546294, 6611.497693
 190.015024, 6573.406856
 191.483753, 6535.316020
 192.952482, 6497.225183
 194.421212, 6459.134347
 195.889941, 6421.043510
 197.358670, 6382.952674
 198.827400, 6344.861837
 200.296129, 6306.771000
 201.764858, 6268.680164
 203.233588, 6231.801170
 204.702317, 6195.548792
 206.171046, 6159.296415
 207.639776, 6123.044037
 209.108505, 6086.791659
 210.577234, 6050.539282
 212.045964, 6014.286904
 213.514693, 5978.034526
 214.983422, 5941.782149
 216.452152, 5905.529771
 217.920881, 5869.277393
 219.389610, 5833.025015
 220.858340, 5796.772638
 222.327069, 5760.520260
 223.795798, 5724.267882
 225.264528, 5689.653254
 226.733257, 5657.981578
 228.201986, 5626.309902
 229.670716, 5594.638226
 231.139445, 5562.966550
 232.608174, 5531.294874
 234.076904, 5499.623198
 235.545633, 5467.951522
 237.014362, 5436.279846
 238.483092, 5404.608169
 239.951821, 5372.936493
 241.420550, 5341.264817
 242.889280, 5309.593141
 244.358009, 5277.921465
 245.826738, 5246.249789
 247.295468, 5214.767541
 248.764197, 5186.483601
 250.232926, 5158.199662
 251.701656, 5129.915722
 253.170385, 5101.631782
 254.639114, 5073.347843
 256.107844, 5045.063903
 257.576573, 5016.779963
 259.045302, 4988.496024
 260.514032, 4960.212084
 261.982761, 4931.928145
 263.451490, 4903.644205
 264.920220, 4875.360265
 266.388949, 4847.076326
 267.857678, 4818.792386
 269.326408, 4790.508446
 270.795137, 4764.101188
 272.263866, 4738.305272
 273.732596, 4712.509357
