Speed, Forces
 121.640963, 7049.051334
 123.092793, 7009.931798
 124.544623, 6970.812262
 125.996452, 6931.692726
 127.448282, 6892.573189
 128.900112, 6853.453653
 130.351942, 6814.334117
 131.803771, 6776.419473
 133.255601, 6738.921772
 134.707431, 6701.424072
 136.159260, 6663.926371
 137.611090, 6626.428670
 139.062920, 6588.930970
 140.514750, 6551.433269
 141.966579, 6513.935569
 143.418409, 6476.437868
 144.870239, 6438.940167
 146.322069, 6401.442467
 147.773898, 6363.944766
 149.225728, 6326.447066
 150.677558, 6288.949365
 152.129387, 6251.451664
 153.581217, 6218.513282
 155.033047, 6187.210488
 156.484877, 6155.907695
 157.936706, 6124.604902
 159.388536, 6093.302108
 160.840366, 6061.999315
 162.292196, 6030.696522
 163.744025, 5999.393728
 165.195855, 5968.090935
 166.647685, 5936.788142
 168.099515, 5905.485348
 169.551344, 5874.182555
 171.003174, 5842.879762
 172.455004, 5811.576969
 173.906833, 5780.274175
 175.358663, 5752.078561
 176.810493, 5725.037831
 178.262323, 5697.997102
 179.714152, 5670.956373
 181.165982, 5643.915643
 182.617812, 5616.874914
 184.069642, 5589.834184
 185.521471, 5562.793455
 186.973301, 5535.752725
 188.425131, 5508.711996
 189.876960, 5481.671266
 191.328790, 5454.630537
 192.780620, 5427.589807
 194.232450, 5400.549078
 195.684279, 5373.508349
 197.136109, 5348.577786
 198.587939, 5324.459356
 200.039769, 5300.340926
 201.491598, 5276.222496
 202.943428, 5252.104066
 204.395258, 5227.985637
 205.847088, 5203.867207
 207.298917, 5179.748777
 208.750747, 5155.630347
 210.202577, 5131.511917
 211.654406, 5107.393487
 213.106236, 5083.275057
 214.558066, 5059.156627
 216.009896, 5035.038198
 217.461725, 5010.919768
 218.913555, 4988.837920
 220.365385, 4967.567308
 221.817215, 4946.296696
 223.269044, 4925.026083
 224.720874, 4903.755471
 226.172704, 4882.484859
 227.624533, 4861.214246
 229.076363, 4839.943634
 230.528193, 4818.673022
 231.980023, 4797.402409
 233.431852, 4776.131797
 234.883682, 4754.861185
 236.335512, 4733.590573
 237.787342, 4712.319960
 239.239171, 4691.049348
 240.691001, 4671.663566
 242.142831, 4653.054401
 243.594661, 4634.445236
 245.046490, 4615.836071
 246.498320, 4597.226905
 247.950150, 4578.617740
 249.401979, 4560.008575
 250.853809, 4541.399410
 252.305639, 4522.790245
 253.757469, 4504.181080
 255.209298, 4485.571914
 256.661128, 4466.962749
 258.112958, 4448.353584
 259.564788, 4429.744419
 261.016617, 4411.135254
 262.468447, 4394.121503
 263.920277, 4377.787457
 265.372106, 4361.453411
