Speed, Forces
 136.946229, 7389.043227
 138.286004, 7351.658259
 139.625778, 7314.273291
 140.965553, 7276.888323
 142.305328, 7239.503356
 143.645102, 7202.118388
 144.984877, 7164.733420
 146.324651, 7127.348453
 147.664426, 7089.963485
 149.004200, 7052.578517
 150.343975, 7015.193549
 151.683750, 6977.808582
 153.023524, 6940.423614
 154.363299, 6903.038646
 155.703073, 6868.175113
 157.042848, 6835.178535
 158.382622, 6802.181956
 159.722397, 6769.185377
 161.062172, 6736.188798
 162.401946, 6703.192219
 163.741721, 6670.195640
 165.081495, 6637.199061
 166.421270, 6604.202483
 167.761044, 6571.205904
 169.100819, 6538.209325
 170.440593, 6505.212746
 171.780368, 6472.216167
 173.120143, 6439.219588
 174.459917, 6406.223009
 175.799692, 6373.226431
 177.139466, 6340.414947
 178.479241, 6310.822029
 179.819015, 6281.229111
 181.158790, 6251.636193
 182.498565, 6222.043275
 183.838339, 6192.450357
 185.178114, 6162.857440
 186.517888, 6133.264522
 187.857663, 6103.671604
 189.197437, 6074.078686
 190.537212, 6044.485768
 191.876987, 6014.892850
 193.216761, 5985.299933
 194.556536, 5955.707015
 195.896310, 5926.114097
 197.236085, 5896.521179
 198.575859, 5866.928261
 199.915634, 5838.759948
 201.255409, 5811.833833
 202.595183, 5784.907717
 203.934958, 5757.981601
 205.274732, 5731.055485
 206.614507, 5704.129369
 207.954281, 5677.203254
 209.294056, 5650.277138
 210.633831, 5623.351022
 211.973605, 5596.424906
 213.313380, 5569.498790
 214.653154, 5542.572675
 215.992929, 5515.646559
 217.332703, 5488.720443
 218.672478, 5461.794327
 220.012252, 5434.868211
 221.352027, 5407.991573
 222.691802, 5384.598513
 224.031576, 5361.205453
 225.371351, 5337.812392
 226.711125, 5314.419332
 228.050900, 5291.026272
 229.390674, 5267.633211
 230.730449, 5244.240151
 232.070224, 5220.847091
 233.409998, 5197.454031
 234.749773, 5174.060970
 236.089547, 5150.667910
 237.429322, 5127.274850
 238.769096, 5103.881790
 240.108871, 5080.488729
 241.448646, 5057.095669
 242.788420, 5033.702609
 244.128195, 5011.728522
 245.467969, 4991.208908
 246.807744, 4970.689295
 248.147518, 4950.169681
 249.487293, 4929.650067
 250.827068, 4909.130454
 252.166842, 4888.610840
 253.506617, 4868.091226
 254.846391, 4847.571612
 256.186166, 4827.051999
 257.525940, 4806.532385
 258.865715, 4786.012771
 260.205490, 4765.493158
 261.545264, 4744.973544
 262.885039, 4724.453930
 264.224813, 4703.934317
 265.564588, 4683.414703
 266.904362, 4665.116718
 268.244137, 4646.878911
 269.583911, 4628.641103
