Speed, Forces
 120.480342, 9066.391740
 122.069641, 9001.851289
 123.658940, 8937.310838
 125.248240, 8872.770387
 126.837539, 8808.229936
 128.426839, 8743.689486
 130.016138, 8679.149035
 131.605438, 8614.608584
 133.194737, 8550.068133
 134.784037, 8485.527682
 136.373336, 8420.987231
 137.962636, 8361.650900
 139.551935, 8304.595420
 141.141234, 8247.539939
 142.730534, 8190.484459
 144.319833, 8133.428978
 145.909133, 8076.373498
 147.498432, 8019.318017
 149.087732, 7962.262537
 150.677031, 7905.207057
 152.266331, 7848.151576
 153.855630, 7791.096096
 155.444930, 7734.040615
 157.034229, 7676.985135
 158.623528, 7619.929654
 160.212828, 7564.998707
 161.802127, 7514.131900
 163.391427, 7463.265093
 164.980726, 7412.398286
 166.570026, 7361.531479
 168.159325, 7310.664672
 169.748625, 7259.797865
 171.337924, 7208.931058
 172.927224, 7158.064251
 174.516523, 7107.197444
 176.105822, 7056.330636
 177.695122, 7005.463829
 179.284421, 6954.597022
 180.873721, 6903.730215
 182.463020, 6852.863408
 184.052320, 6807.727432
 185.641619, 6762.641719
 187.230919, 6717.556007
 188.820218, 6672.470294
 190.409518, 6627.384582
 191.998817, 6582.298869
 193.588116, 6537.213157
 195.177416, 6492.127444
 196.766715, 6447.041732
 198.356015, 6401.956020
 199.945314, 6356.870307
 201.534614, 6311.784595
 203.123913, 6266.698882
 204.713213, 6221.613170
 206.302512, 6179.929243
 207.891812, 6140.164446
 209.481111, 6100.399649
 211.070410, 6060.634852
 212.659710, 6020.870055
 214.249009, 5981.105258
 215.838309, 5941.340461
 217.427608, 5901.575664
 219.016908, 5861.810867
 220.606207, 5822.046070
 222.195507, 5782.281273
 223.784806, 5742.516476
 225.374106, 5702.751679
 226.963405, 5662.986882
 228.552704, 5624.647153
 230.142004, 5589.842069
 231.731303, 5555.036985
 233.320603, 5520.231900
 234.909902, 5485.426816
 236.499202, 5450.621732
 238.088501, 5415.816648
 239.677801, 5381.011564
 241.267100, 5346.206479
 242.856400, 5311.401395
 244.445699, 5276.596311
 246.034998, 5241.791227
 247.624298, 5206.986143
 249.213597, 5172.181059
 250.802897, 5137.375974
 252.392196, 5105.652740
 253.981496, 5074.142530
 255.570795, 5042.632321
 257.160095, 5011.122111
 258.749394, 4979.611901
 260.338694, 4948.101692
 261.927993, 4916.591482
 263.517292, 4885.081272
 265.106592, 4853.571063
 266.695891, 4822.060853
 268.285191, 4790.550643
 269.874490, 4759.040434
 271.463790, 4727.530224
 273.053089, 4696.020014
 274.642389, 4665.730556
 276.231688, 4636.312997
 277.820988, 4606.895437
