Speed, Forces
 120.481706, 9066.336331
 122.070992, 9001.796440
 123.660277, 8937.256549
 125.249563, 8872.716658
 126.838849, 8808.176766
 128.428134, 8743.636875
 130.017420, 8679.096984
 131.606706, 8614.557093
 133.195991, 8550.017201
 134.785277, 8485.477310
 136.374563, 8420.937419
 137.963848, 8361.607360
 139.553134, 8304.552374
 141.142420, 8247.497388
 142.731705, 8190.442403
 144.320991, 8133.387417
 145.910277, 8076.332431
 147.499562, 8019.277446
 149.088848, 7962.222460
 150.678134, 7905.167474
 152.267419, 7848.112489
 153.856705, 7791.057503
 155.445991, 7734.002517
 157.035276, 7676.947532
 158.624562, 7619.892546
 160.213848, 7564.966065
 161.803133, 7514.099699
 163.392419, 7463.233333
 164.981705, 7412.366967
 166.570990, 7361.500601
 168.160276, 7310.634235
 169.749562, 7259.767869
 171.338847, 7208.901503
 172.928133, 7158.035137
 174.517419, 7107.168771
 176.106705, 7056.302405
 177.695990, 7005.436039
 179.285276, 6954.569673
 180.874562, 6903.703307
 182.463847, 6852.836941
 184.053133, 6807.704364
 185.642419, 6762.619043
 187.231704, 6717.533721
 188.820990, 6672.448400
 190.410276, 6627.363078
 191.999561, 6582.277757
 193.588847, 6537.192435
 195.178133, 6492.107114
 196.767418, 6447.021792
 198.356704, 6401.936471
 199.945990, 6356.851149
 201.535275, 6311.765828
 203.124561, 6266.680506
 204.713847, 6221.595185
 206.303132, 6179.913725
 207.892418, 6140.149273
 209.481704, 6100.384821
 211.070989, 6060.620369
 212.660275, 6020.855916
 214.249561, 5981.091464
 215.838846, 5941.327012
 217.428132, 5901.562560
 219.017418, 5861.798108
 220.606703, 5822.033656
 222.195989, 5782.269203
 223.785275, 5742.504751
 225.374560, 5702.740299
 226.963846, 5662.975847
 228.553132, 5624.637796
 230.142417, 5589.833014
 231.731703, 5555.028232
 233.320989, 5520.223449
 234.910274, 5485.418667
 236.499560, 5450.613885
 238.088846, 5415.809102
 239.678131, 5381.004320
 241.267417, 5346.199538
 242.856703, 5311.394755
 244.445988, 5276.589973
 246.035274, 5241.785190
 247.624560, 5206.980408
 249.213845, 5172.175626
 250.803131, 5137.370843
 252.392417, 5105.648368
 253.981702, 5074.138432
 255.570988, 5042.628495
 257.160274, 5011.118559
 258.749559, 4979.608622
 260.338845, 4948.098686
 261.928131, 4916.588750
 263.517416, 4885.078813
 265.106702, 4853.568877
 266.695988, 4822.058940
 268.285274, 4790.549004
 269.874559, 4759.039068
 271.463845, 4727.529131
 273.053131, 4696.019195
 274.642416, 4665.730046
 276.231702, 4636.312742
 277.820988, 4606.895437
