Speed, Forces
 146.436673, 6398.482487
 147.638041, 6367.453685
 148.839409, 6336.424882
 150.040777, 6305.396079
 151.242145, 6274.367277
 152.443513, 6243.338474
 153.644881, 6217.140638
 154.846249, 6191.238032
 156.047617, 6165.335425
 157.248985, 6139.432818
 158.450353, 6113.530211
 159.651721, 6087.627604
 160.853089, 6061.724997
 162.054457, 6035.822390
 163.255825, 6009.919783
 164.457193, 5984.017176
 165.658561, 5958.114569
 166.859929, 5932.211963
 168.061297, 5906.309356
 169.262665, 5880.406749
 170.464033, 5854.504142
 171.665401, 5828.601535
 172.866769, 5802.698928
 174.068137, 5776.796321
 175.269505, 5753.739156
 176.470873, 5731.363345
 177.672241, 5708.987534
 178.873609, 5686.611723
 180.074977, 5664.235912
 181.276345, 5641.860101
 182.477713, 5619.484290
 183.679081, 5597.108480
 184.880449, 5574.732669
 186.081817, 5552.356858
 187.283185, 5529.981047
 188.484553, 5507.605236
 189.685921, 5485.229425
 190.887289, 5462.853614
 192.088657, 5440.477803
 193.290025, 5418.101992
 194.491393, 5395.726181
 195.692761, 5373.350370
 196.894129, 5352.597660
 198.095497, 5332.640009
 199.296865, 5312.682359
 200.498233, 5292.724708
 201.699601, 5272.767058
 202.900969, 5252.809407
 204.102337, 5232.851757
 205.303706, 5212.894106
 206.505074, 5192.936456
 207.706442, 5172.978805
 208.907810, 5153.021155
 210.109178, 5133.063504
 211.310546, 5113.105854
 212.511914, 5093.148203
 213.713282, 5073.190553
 214.914650, 5053.232902
 216.116018, 5033.275252
 217.317386, 5013.317601
 218.518754, 4994.622116
 219.720122, 4977.020993
 220.921490, 4959.419870
 222.122858, 4941.818747
 223.324226, 4924.217624
 224.525594, 4906.616502
 225.726962, 4889.015379
 226.928330, 4871.414256
 228.129698, 4853.813133
 229.331066, 4836.212010
 230.532434, 4818.610888
 231.733802, 4801.009765
 232.935170, 4783.408642
 234.136538, 4765.807519
 235.337906, 4748.206396
 236.539274, 4730.605274
 237.740642, 4713.004151
 238.942010, 4695.403028
 240.143378, 4678.682851
 241.344746, 4663.284037
 242.546114, 4647.885223
 243.747482, 4632.486409
 244.948850, 4617.087595
 246.150218, 4601.688781
 247.351586, 4586.289967
 248.552954, 4570.891153
 249.754322, 4555.492340
 250.955690, 4540.093526
 252.157058, 4524.694712
 253.358426, 4509.295898
 254.559794, 4493.897084
 255.761162, 4478.498270
 256.962530, 4463.099456
 258.163898, 4447.700642
 259.365266, 4432.301828
 260.566634, 4416.903014
 261.768002, 4402.001969
 262.969370, 4388.485783
 264.170738, 4374.969597
 265.372106, 4361.453411
