V/VsTO, Thrust - Yawing Moment
   0.314244, 129028.371405
   0.317801, 128903.123661
   0.321358, 128777.875917
   0.324915, 128652.628173
   0.328473, 128527.380430
   0.332030, 128402.132686
   0.335587, 128276.884942
   0.339144, 128151.637198
   0.342702, 128026.389455
   0.346259, 127901.141711
   0.349816, 127775.893967
   0.353373, 127650.646223
   0.356931, 127525.398480
   0.360488, 127400.150736
   0.364045, 127274.902992
   0.367602, 127149.655248
   0.371160, 127024.407505
   0.374717, 126899.159761
   0.378274, 126773.912017
   0.381832, 126648.664273
   0.385389, 126523.416530
   0.388946, 126398.168786
   0.392503, 126272.921042
   0.396061, 126147.673298
   0.399618, 126022.425555
   0.403175, 125897.177811
   0.406732, 125771.930067
   0.410290, 125646.682323
   0.413847, 125521.434579
   0.417404, 125396.186836
   0.420961, 125270.939092
   0.424519, 125145.691348
   0.428076, 125020.443604
   0.431633, 124895.195861
   0.435190, 124769.948117
   0.438748, 124644.700373
   0.442305, 124519.452629
   0.445862, 124394.204886
   0.449419, 124268.957142
   0.452977, 124143.709398
   0.456534, 124018.461654
   0.460091, 123893.213911
   0.463648, 123767.966167
   0.467206, 123642.718423
   0.470763, 123517.470679
   0.474320, 123392.222936
   0.477877, 123266.975192
   0.481435, 123141.727448
   0.484992, 123016.479704
   0.488549, 122891.231961
   0.492106, 122765.984217
   0.495664, 122640.736473
   0.499221, 122515.488729
   0.502778, 122390.240986
   0.506335, 122264.993242
   0.509893, 122139.745498
   0.513450, 122014.497754
   0.517007, 121889.250011
   0.520564, 121764.002267
   0.524122, 121638.754523
   0.527679, 121513.506779
   0.531236, 121388.259035
   0.534793, 121263.011292
   0.538351, 121137.763548
   0.541908, 121012.515804
   0.545465, 120887.268060
   0.549022, 120762.020317
   0.552580, 120636.772573
   0.556137, 120511.524829
   0.559694, 120386.277085
   0.563251, 120261.029342
   0.566809, 120135.781598
   0.570366, 120010.533854
   0.573923, 119885.286110
   0.577481, 119760.038367
   0.581038, 119634.790623
   0.584595, 119509.542879
   0.588152, 119384.295135
   0.591710, 119259.047392
   0.595267, 119133.799648
   0.598824, 119008.551904
   0.602381, 118883.304160
   0.605939, 118758.056417
   0.609496, 118632.808673
   0.613053, 118507.560929
   0.616610, 118382.313185
   0.620168, 118257.065442
   0.623725, 118131.817698
   0.627282, 118006.569954
   0.630839, 117846.498179
   0.634397, 117668.580093
   0.637954, 117490.662007
   0.641511, 117312.743921
   0.645068, 117134.825835
   0.648626, 116956.907749
   0.652183, 116778.989663
   0.655740, 116601.071577
   0.659297, 116423.153491
   0.662855, 116245.235405
   0.666412, 116067.317319
   0.669969, 115889.399233
   0.673526, 115711.481147
   0.677084, 115533.563061
   0.680641, 115355.644975
   0.684198, 115177.726889
   0.687755, 114999.808803
   0.691313, 114821.890717
   0.694870, 114643.972631
   0.698427, 114466.054545
   0.701984, 114288.136459
   0.705542, 114110.218372
   0.709099, 113932.300286
   0.712656, 113754.382200
   0.716213, 113576.464114
   0.719771, 113398.546028
   0.723328, 113220.627942
   0.726885, 113042.709856
   0.730442, 112864.791770
   0.734000, 112686.873684
   0.737557, 112508.955598
   0.741114, 112331.037512
   0.744671, 112153.119426
   0.748229, 111975.201340
   0.751786, 111797.283254
   0.755343, 111619.365168
   0.758900, 111441.447082
   0.762458, 111263.528996
   0.766015, 111085.610910
   0.769572, 110907.692824
   0.773129, 110729.774738
   0.776687, 110551.856652
   0.780244, 110373.938566
   0.783801, 110196.020480
   0.787359, 110018.102394
   0.790916, 109840.184308
   0.794473, 109662.266221
   0.798030, 109484.348135
   0.801588, 109306.430049
   0.805145, 109128.511963
   0.808702, 108950.593877
   0.812259, 108772.675791
   0.815817, 108594.757705
   0.819374, 108416.839619
   0.822931, 108238.921533
   0.826488, 108061.003447
   0.830046, 107883.085361
   0.833603, 107705.167275
   0.837160, 107527.249189
   0.840717, 107349.331103
   0.844275, 107171.413017
   0.847832, 106993.494931
   0.851389, 106815.576845
   0.854946, 106637.658759
   0.858504, 106459.740673
   0.862061, 106281.822587
   0.865618, 106103.904501
   0.869175, 105925.986415
   0.872733, 105748.068329
   0.876290, 105570.150243
   0.879847, 105392.232157
   0.883404, 105214.314070
   0.886962, 105036.395984
   0.890519, 104858.477898
   0.894076, 104680.559812
   0.897633, 104502.641726
   0.901191, 104324.723640
   0.904748, 104146.805554
   0.908305, 103968.887468
   0.911862, 103790.969382
   0.915420, 103613.051296
   0.918977, 103435.133210
   0.922534, 103257.215124
   0.926091, 103079.297038
   0.929649, 102901.378952
   0.933206, 102723.460866
   0.936763, 102545.542780
   0.940320, 102367.624694
   0.943878, 102190.723199
   0.947435, 102015.958905
   0.950992, 101841.194612
   0.954549, 101666.430318
   0.958107, 101491.666024
   0.961664, 101316.901731
   0.965221, 101142.137437
   0.968778, 100967.373144
   0.972336, 100792.608850
   0.975893, 100617.844556
   0.979450, 100443.080263
   0.983007, 100268.315969
   0.986565, 100093.551676
   0.990122, 99918.787382
   0.993679, 99744.023088
   0.997237, 99569.258795
   1.000794, 99394.494501
   1.004351, 99219.730207
   1.007908, 99044.965914
   1.011466, 98870.201620
   1.015023, 98695.437327
   1.018580, 98520.673033
   1.022137, 98345.908739
   1.025695, 98171.144446
   1.029252, 97996.380152
   1.032809, 97821.615859
   1.036366, 97646.851565
   1.039924, 97472.087271
   1.043481, 97297.322978
   1.047038, 97122.558684
   1.050595, 96947.794390
   1.054153, 96773.030097
   1.057710, 96598.265803
   1.061267, 96423.501510
   1.064824, 96248.737216
   1.068382, 96073.972922
   1.071939, 95899.208629
   1.075496, 95724.444335
   1.079053, 95549.680042
   1.082611, 95374.915748
   1.086168, 95200.151454
   1.089725, 95025.387161
   1.093282, 94850.622867
   1.096840, 94675.858573
   1.100397, 94501.094280
   1.103954, 94326.329986
   1.107511, 94151.565693
   1.111069, 93976.801399
   1.114626, 93802.037105
   1.118183, 93627.272812
   1.121740, 93452.508518
   1.125298, 93277.744225
   1.128855, 93102.979931
   1.132412, 92928.215637
   1.135969, 92753.451344
   1.139527, 92578.687050
   1.143084, 92403.922756
   1.146641, 92229.158463
   1.150198, 92054.394169
   1.153756, 91879.629876
   1.157313, 91704.865582
   1.160870, 91530.101288
   1.164427, 91355.336995
   1.167985, 91180.572701
   1.171542, 91005.808408
   1.175099, 90831.044114
   1.178656, 90656.279820
   1.182214, 90481.515527
   1.185771, 90306.751233
   1.189328, 90131.986939
   1.192885, 89957.222646
   1.196443, 89782.458352
   1.200000, 89607.694059
