V/VsTO, Thrust - Yawing Moment
   0.326883, 17826.064826
   0.330389, 18210.559104
   0.333896, 18599.155877
   0.337402, 18991.855145
   0.340909, 19388.656908
   0.344415, 19789.561165
   0.347922, 20194.567917
   0.351428, 20603.677164
   0.354935, 21016.888905
   0.358441, 21434.203141
   0.361948, 21855.619872
   0.365454, 22281.139097
   0.368961, 22710.760817
   0.372467, 23144.485032
   0.375974, 23582.311741
   0.379480, 24024.240945
   0.382987, 24470.272644
   0.386493, 24920.406837
   0.390000, 25374.643525
   0.393506, 25832.982708
   0.397013, 26295.424385
   0.400519, 26761.968557
   0.404026, 27232.615224
   0.407532, 27707.364386
   0.411039, 28186.216042
   0.414545, 28669.170193
   0.418052, 29156.226838
   0.421558, 29647.385978
   0.425065, 30142.647613
   0.428571, 30642.011742
   0.432078, 31145.478367
   0.435584, 31653.047486
   0.439091, 32164.719099
   0.442597, 32680.493207
   0.446104, 33200.369810
   0.449610, 33724.348908
   0.453117, 34252.430500
   0.456623, 34784.614587
   0.460130, 35320.901169
   0.463636, 35861.290245
   0.467143, 36405.781816
   0.470649, 36954.375881
   0.474156, 37507.072442
   0.477662, 38063.871497
   0.481169, 38624.773046
   0.484675, 39189.777091
   0.488181, 39758.883630
   0.491688, 40332.092663
   0.495194, 40909.404192
   0.498701, 41490.818215
   0.502207, 42076.334733
   0.505714, 42665.953745
   0.509220, 43259.675252
   0.512727, 43857.499254
   0.516233, 44459.425750
   0.519740, 45065.454741
   0.523246, 45675.586227
   0.526753, 46289.820208
   0.530259, 46908.156683
   0.533766, 47530.595653
   0.537272, 48157.137117
   0.540779, 48787.781076
   0.544285, 49422.527530
   0.547792, 50061.376479
   0.551298, 50704.327922
   0.554805, 51351.381860
   0.558311, 52002.538292
   0.561818, 52657.797219
   0.565324, 53317.158641
   0.568831, 53980.622558
   0.572337, 54648.188969
   0.575844, 55319.857875
   0.579350, 55995.629276
   0.582857, 56675.503171
   0.586363, 57359.479561
   0.589870, 58047.558446
   0.593376, 58739.739825
   0.596883, 59436.023699
   0.600389, 60136.410068
   0.603896, 60840.898931
   0.607402, 61549.490289
   0.610909, 62262.184142
   0.614415, 62978.980489
   0.617922, 63699.879331
   0.621428, 64424.880668
   0.624935, 65153.984499
   0.628441, 65887.190826
   0.631948, 66624.499646
   0.635454, 67365.910962
   0.638961, 68111.424772
   0.642467, 68861.041077
   0.645974, 69614.759876
   0.649480, 70372.581170
   0.652987, 71134.504959
   0.656493, 71900.531243
   0.660000, 72670.660021
   0.663506, 73444.891294
   0.667013, 74223.225061
   0.670519, 75005.661324
   0.674026, 75792.200080
   0.677532, 76582.841332
   0.681039, 77377.585078
   0.684545, 78176.431319
   0.688052, 78979.380055
   0.691558, 79786.431285
   0.695065, 80597.585010
   0.698571, 81412.841230
   0.702078, 82232.199944
   0.705584, 83055.661153
   0.709091, 83883.224857
   0.712597, 84714.891055
   0.716104, 85550.659748
   0.719610, 86390.530936
   0.723117, 87234.504618
   0.726623, 88082.580795
   0.730130, 88934.759467
   0.733636, 89791.040633
   0.737143, 90651.424295
   0.740649, 91515.910450
   0.744156, 92384.499101
   0.747662, 93257.190246
   0.751169, 94133.983886
   0.754675, 95014.880020
   0.758182, 95899.878649
   0.761688, 96788.979773
   0.765195, 97682.183392
   0.768701, 98579.489505
   0.772208, 99480.898113
   0.775714, 100386.409215
   0.779221, 101296.022812
   0.782727, 102209.738904
   0.786234, 103127.557491
   0.789740, 104049.478572
   0.793247, 104975.502148
   0.796753, 105905.628219
   0.800260, 106839.856784
   0.803766, 107778.187844
   0.807273, 108720.621398
   0.810779, 109667.157448
   0.814286, 110617.795992
   0.817792, 111572.537030
   0.821299, 112531.380564
   0.824805, 113494.326592
   0.828312, 114461.375114
   0.831818, 115432.526132
   0.835325, 116407.779644
   0.838831, 117387.135651
   0.842337, 118370.594152
   0.845844, 119358.155148
   0.849350, 120349.818639
   0.852857, 121345.584624
   0.856363, 122345.453104
   0.859870, 123349.424079
   0.863376, 124357.497549
   0.866883, 125369.673513
   0.870389, 126385.951972
   0.873896, 127406.332925
   0.877402, 128430.816373
   0.880909, 129459.402316
   0.884415, 130492.090754
   0.887922, 131528.881686
   0.891428, 132569.775113
   0.894935, 133614.771034
   0.898441, 134663.869451
   0.901948, 135717.070361
   0.905454, 136774.373767
   0.908961, 137835.779667
   0.912467, 138901.288062
   0.915974, 139970.898952
   0.919480, 141044.612336
   0.922987, 142122.428215
   0.926493, 143204.346589
   0.930000, 144290.367457
   0.933506, 145380.490820
   0.937013, 146474.716678
   0.940519, 147573.045030
   0.944026, 148675.475877
   0.947532, 149782.009219
   0.951039, 150892.645055
   0.954545, 152007.383386
   0.958052, 153126.224212
   0.961558, 154249.167533
   0.965065, 155376.213348
   0.968571, 156507.361657
   0.972078, 157642.612462
   0.975584, 158781.965761
   0.979091, 159925.421555
   0.982597, 161072.979843
   0.986104, 162224.640626
   0.989610, 163380.403904
   0.993117, 164540.269677
   0.996623, 165704.237944
   1.000130, 166872.308706
   1.003636, 168044.481962
   1.007143, 169220.757714
   1.010649, 170401.135960
   1.014156, 171585.616700
   1.017662, 172774.199935
   1.021169, 173966.885665
   1.024675, 175163.673890
   1.028182, 176364.564609
   1.031688, 177569.557823
   1.035195, 178778.653532
   1.038701, 179991.851735
   1.042208, 181209.152433
   1.045714, 182430.555626
   1.049221, 183656.061313
   1.052727, 184885.669495
   1.056234, 186119.380172
   1.059740, 187357.193343
   1.063247, 188599.109009
   1.066753, 189845.127170
   1.070260, 191095.247825
   1.073766, 192349.470976
   1.077273, 193607.796620
   1.080779, 194870.224760
   1.084286, 196136.755394
   1.087792, 197407.388523
   1.091299, 198682.124146
   1.094805, 199960.962264
   1.098312, 201243.902877
   1.101818, 202530.945985
   1.105325, 203822.091587
   1.108831, 205117.339684
   1.112338, 206416.690275
   1.115844, 207720.143361
   1.119351, 209027.698942
   1.122857, 210339.357018
   1.126364, 211655.117588
   1.129870, 212974.980653
   1.133377, 214298.946213
   1.136883, 215627.014267
   1.140390, 216959.184816
   1.143896, 218295.457860
   1.147403, 219635.833398
   1.150909, 220980.311431
   1.154416, 222328.891958
   1.157922, 223681.574981
   1.161429, 225038.360498
   1.164935, 226399.248510
   1.168442, 227764.239016
   1.171948, 229133.332017
   1.175455, 230506.527513
   1.178961, 231883.825503
   1.182468, 233265.225988
   1.185974, 234650.728968
   1.189481, 236040.334442
   1.192987, 237434.042411
   1.196494, 238831.852875
   1.200000, 240233.765834
