Time, Vertical Forces
   0.000100, 216385.893179
   0.000546, 216385.893179
   0.002149, 216385.893179
   0.006197, 216385.893179
   0.029562, 216385.893179
   0.060933, 216385.893179
   0.093189, 216385.893179
   0.125348, 216385.893179
   0.157614, 216385.893179
   0.190058, 216385.893179
   0.222468, 216385.893179
   0.254951, 216385.893179
   0.287777, 216385.893179
   0.320857, 216385.893179
   0.354035, 216385.893179
   0.387452, 216385.893179
   0.420615, 216385.893179
   0.454301, 216385.893179
   0.488321, 216385.893179
   0.522251, 216385.893179
   0.556137, 216385.893179
   0.590321, 216385.893179
   0.624928, 216385.893179
   0.660398, 216385.893179
   0.695949, 216385.893179
   0.731740, 216385.893179
   0.768104, 216385.893179
   0.804060, 216385.893179
   0.840370, 216385.893179
   0.876982, 216385.893179
   0.914101, 216385.893179
   0.951658, 216385.893179
   0.988838, 216385.893179
   1.026793, 216385.893179
   1.065397, 216385.893179
   1.103976, 216385.893179
   1.143151, 216385.893179
   1.182394, 216385.893179
   1.222258, 216385.893179
   1.263003, 216385.893179
   1.303129, 216385.893179
   1.343801, 216385.893179
   1.385122, 216385.893179
   1.426504, 216385.893179
   1.468661, 216385.893179
   1.510961, 216385.893179
   1.553611, 216385.893179
   1.597311, 216385.893179
   1.641118, 216385.893179
   1.684728, 216385.893179
   1.729383, 216385.893179
   1.773361, 216385.893179
   1.818570, 216385.893179
   1.864190, 216385.893179
   1.908826, 216385.893179
   1.954874, 216385.893179
   2.001059, 216385.893179
   2.047405, 216385.893179
   2.093693, 216385.893179
   2.141499, 216385.893179
   2.188550, 216385.893179
   2.237237, 216385.893179
   2.285988, 216385.893179
   2.334612, 216385.893179
   2.383876, 216385.893179
   2.433310, 216385.893179
   2.483187, 216385.893179
   2.533685, 216385.893179
   2.584099, 216385.893179
   2.635129, 216385.893179
   2.686124, 216385.893179
   2.737353, 216385.893179
   2.789075, 216385.893179
   2.841924, 216385.893179
   2.894802, 216385.893179
   2.947451, 216385.893179
   3.001070, 216385.893179
   3.054693, 216385.893179
   3.108547, 216385.893179
   3.163056, 216385.893179
   3.218142, 216385.893179
   3.273079, 216385.893179
   3.327817, 216385.893179
   3.383165, 216385.893179
   3.439275, 216385.893179
   3.495146, 216385.893179
   3.551543, 216385.893179
   3.608780, 216385.893179
   3.665993, 216385.893179
   3.724277, 216385.893179
   3.782273, 216385.893179
   3.841024, 216385.893179
   3.899242, 216385.893179
   3.958142, 216385.893179
   4.017452, 216385.893179
   4.077609, 216385.893179
   4.137237, 216385.893179
   4.197381, 216385.893179
   4.257715, 216385.893179
   4.260150, 216385.893179
   4.267618, 216385.893179
   4.268520, 216385.893179
   4.268691, 216385.893179
   4.268895, 216385.893179
   4.268955, 216385.893179
   4.268966, 216385.893179
   4.268972, 216385.893179
   4.268980, 216385.893179
   4.269057, 216385.893179
   4.269829, 216385.893179
   4.273557, 216385.893179
   4.285581, 216385.893179
   4.318262, 216385.893179
   4.374337, 216385.893179
   4.429291, 216385.893179
   4.484291, 216385.893179
   4.539999, 216385.893179
   4.595297, 216385.893179
   4.651143, 216385.893179
   4.707001, 216385.893179
   4.763132, 216385.893179
   4.819552, 216385.893179
   4.876550, 216385.893179
   4.933495, 216385.893179
   4.990711, 216385.893179
   5.048058, 216385.893179
   5.105726, 216385.893179
   5.163870, 216385.893179
   5.221963, 216385.893179
   5.280090, 216385.893179
   5.338750, 216385.893179
   5.397865, 216385.893179
   5.457046, 216385.893179
   5.516149, 216385.893179
   5.575655, 216385.893179
   5.635263, 216385.893179
   5.695222, 216385.893179
   5.755496, 216385.893179
   5.816024, 216385.893179
   5.877001, 216385.893179
   5.938293, 216385.893179
   5.999230, 216385.893179
   6.061523, 216385.893179
   6.123098, 216385.893179
   6.184435, 216385.893179
   6.246819, 216385.893179
   6.309339, 216385.893179
   6.372362, 216385.893179
   6.435312, 216385.893179
   6.498433, 216385.893179
   6.561408, 216385.893179
   6.624804, 216385.893179
   6.688776, 216385.893179
   6.752540, 216385.893179
   6.816650, 216385.893179
   6.881183, 216385.893179
   6.946192, 216385.893179
   7.011132, 216385.893179
   7.075949, 216385.893179
   7.141445, 216385.893179
   7.207512, 216385.893179
   7.273467, 216385.893179
   7.339363, 216385.893179
   7.405607, 216385.893179
   7.471957, 216385.893179
   7.538583, 216385.893179
   7.605485, 216385.893179
   7.672824, 216385.893179
   7.740024, 216385.893179
   7.807374, 216385.893179
   7.875182, 216385.893179
   7.942890, 216385.893179
   8.010981, 216385.893179
   8.079821, 216385.893179
   8.148400, 216385.893179
   8.217422, 216385.893179
   8.286311, 216385.893179
   8.355637, 216385.893179
   8.425094, 216385.893179
   8.494764, 216385.893179
   8.564517, 216385.893179
   8.634688, 216385.893179
   8.705209, 216385.893179
   8.719414, 216385.893179
   8.728740, 216385.893179
   8.734989, 216385.893179
   8.739889, 216385.893179
   8.743890, 216385.893179
   8.747445, 216385.893179
   8.750200, 216385.893179
   8.752477, 216385.893179
   8.755019, 216385.893179
   8.757313, 216385.893179
   8.757748, 216385.893179
   8.758269, 216385.893179
   8.758860, 216385.893179
   8.758999, 216385.893179
   8.759264, 216385.893179
   8.759337, 216385.893179
   8.759373, 216385.893179
   8.759397, 216385.893179
   8.759415, 216385.893179
   8.759420, 216385.893179
   8.759425, 216385.893179
   8.759477, 216385.893179
   8.759975, 216385.893179
   8.762953, 216385.893179
   8.775470, 216385.893179
   8.819804, 216385.893179
   8.884367, 216385.893179
   8.947459, 216385.893179
   9.010910, 216385.893179
   9.074580, 216385.893179
   9.137900, 216385.893179
   9.201689, 216385.893179
   9.265661, 216385.893179
   9.329757, 216385.893179
   9.393985, 216385.893179
   9.458257, 216385.893179
   9.522824, 216385.893179
   9.587698, 216385.893179
   9.652622, 216385.893179
   9.717634, 216385.893179
   9.782724, 216385.893179
   9.848106, 216385.893179
   9.913434, 216385.893179
   9.979129, 216385.893179
  10.044941, 216385.893179
  10.110833, 216385.893179
  10.176844, 216385.893179
  10.243283, 216385.893179
  10.310081, 216385.893179
  10.377004, 216385.893179
  10.443790, 216385.893179
  10.510963, 216385.893179
  10.578576, 216385.893179
  10.645875, 216385.893179
  10.713222, 216385.893179
  10.781019, 216385.893179
  10.848724, 216385.893179
  10.916791, 216385.893179
  10.984924, 216385.893179
  11.053320, 216385.893179
  11.121973, 216385.893179
  11.190637, 216385.893179
  11.259692, 216385.893179
  11.328376, 216385.893179
  11.397776, 216385.893179
  11.467112, 216385.893179
  11.536665, 216385.893179
  11.606470, 216385.893179
  11.676253, 216385.893179
  11.746050, 216385.893179
  11.816291, 216385.893179
  11.886766, 216385.893179
  11.957168, 216385.893179
  12.027854, 216385.893179
  12.098655, 216385.893179
  12.169554, 216385.893179
  12.240655, 216385.893179
  12.311765, 216385.893179
  12.383249, 216385.893179
  12.454988, 216385.893179
  12.526743, 216385.893179
  12.598726, 216385.893179
  12.670788, 216385.893179
  12.742963, 216385.893179
  12.815389, 216385.893179
  12.887931, 216385.893179
  12.960727, 216385.893179
  13.033605, 216385.893179
  13.106450, 216385.893179
  13.179266, 216385.893179
  13.252602, 216385.893179
  13.326057, 216385.893179
  13.399611, 216385.893179
  13.473253, 216385.893179
  13.547129, 216385.893179
  13.562023, 216385.893179
  13.572257, 216385.893179
  13.579362, 216385.893179
  13.580454, 216385.893179
  13.581591, 216385.893179
  13.582803, 216385.893179
  13.584249, 216385.893179
  13.584333, 216385.893179
  13.584384, 216385.893179
  13.584422, 216385.893179
  13.584448, 216385.893179
  13.584466, 216385.893179
  13.584473, 216385.893179
  13.584480, 216385.893179
  13.584554, 216385.893179
  13.585265, 216385.893179
  13.590912, 216385.893179
  13.611203, 216385.893179
  13.681110, 216385.893179
  13.745709, 216385.893179
  13.810481, 216385.893179
  13.875576, 216385.893179
  13.940564, 216385.893179
  14.005666, 216385.893179
  14.071113, 216385.893179
  14.136543, 216385.893179
  14.202122, 216385.893179
  14.267955, 216385.893179
  14.333721, 216385.893179
  14.399396, 216385.893179
  14.465249, 216385.893179
  14.531499, 216385.893179
  14.597693, 216385.893179
  14.664163, 216385.893179
  14.730672, 216385.893179
  14.797245, 216385.893179
  14.863916, 216385.893179
  14.930747, 216385.893179
  14.997677, 216385.893179
  15.064921, 216385.893179
  15.132254, 216385.893179
  15.199598, 216385.893179
  15.267051, 216385.893179
  15.334663, 216385.893179
  15.402457, 216385.893179
  15.470485, 216385.893179
  15.538475, 216385.893179
  15.606752, 216385.893179
  15.674825, 216385.893179
  15.743156, 216385.893179
  15.811697, 216385.893179
  15.880192, 216385.893179
  15.948910, 216385.893179
  16.017936, 216385.893179
  16.086980, 216385.893179
  16.156165, 216385.893179
  16.225322, 216385.893179
  16.294604, 216385.893179
  16.363970, 216385.893179
  16.433600, 216385.893179
  16.503332, 216385.893179
  16.573133, 216385.893179
  16.642821, 216385.893179
  16.713000, 216385.893179
  16.783085, 216385.893179
  16.853222, 216385.893179
  16.923583, 216385.893179
  16.994156, 216385.893179
  17.064798, 216385.893179
  17.135557, 216385.893179
  17.206359, 216385.893179
  17.277380, 216385.893179
  17.348456, 216385.893179
  17.419562, 216385.893179
  17.490900, 216385.893179
  17.562372, 216385.893179
  17.633827, 216385.893179
  17.705545, 216385.893179
  17.777481, 216385.893179
  17.849371, 216385.893179
  17.921447, 216385.893179
  17.993523, 216385.893179
  18.065760, 216385.893179
  18.138061, 216385.893179
  18.210489, 216385.893179
  18.283019, 216385.893179
  18.355620, 216385.893179
  18.428567, 216385.893179
  18.501586, 216385.893179
  18.574741, 216385.893179
  18.647836, 216385.893179
  18.721021, 216385.893179
  18.794379, 216385.893179
  18.867959, 216385.893179
  18.882734, 216385.893179
  18.937349, 216385.893179
  18.937940, 216385.893179
  18.938158, 216385.893179
  18.938210, 216385.893179
  18.938600, 216385.893179
  18.938951, 216385.893179
  18.941266, 216385.893179
  18.954576, 216385.893179
  19.016207, 216385.893179
  19.089339, 216385.893179
  19.162794, 216385.893179
  19.236457, 216385.893179
  19.310218, 216385.893179
  19.384286, 216385.893179
  19.458293, 216385.893179
  19.532334, 216385.893179
  19.606774, 216385.893179
  19.681139, 216385.893179
  19.755596, 216385.893179
  19.830299, 216385.893179
  19.905303, 216385.893179
  19.980103, 216385.893179
  20.055199, 216385.893179
  20.130430, 216385.893179
  20.205699, 216385.893179
  20.280957, 216385.893179
  20.356566, 216385.893179
  20.432251, 216385.893179
  20.507977, 216385.893179
  20.583993, 216385.893179
  20.659965, 216385.893179
  20.735896, 216385.893179
  20.812025, 216385.893179
  20.888320, 216385.893179
  20.964691, 216385.893179
  21.041340, 216385.893179
  21.117940, 216385.893179
  21.194735, 216385.893179
  21.271541, 216385.893179
  21.348616, 216385.893179
  21.425649, 216385.893179
  21.502749, 216385.893179
  21.580068, 216385.893179
  21.657456, 216385.893179
  21.735070, 216385.893179
  21.812696, 216385.893179
  21.890537, 216385.893179
  21.968433, 216385.893179
  22.046599, 216385.893179
  22.124867, 216385.893179
  22.203136, 216385.893179
  22.281493, 216385.893179
  22.359987, 216385.893179
  22.438539, 216385.893179
  22.487865, 216385.893179
  22.517234, 216385.893179
  22.595951, 216385.893179
  22.674895, 216385.893179
  22.754075, 216385.893179
  22.833459, 216385.893179
  22.913037, 216385.893179
  22.992750, 216385.893179
  23.072486, 216385.893179
  23.152534, 216385.893179
  23.232684, 216385.893179
  23.312892, 216385.893179
  23.393223, 216385.893179
  23.473803, 216385.893179
  23.554258, 216385.893179
  23.634908, 216385.893179
  23.715632, 216385.893179
  23.796399, 216385.893179
  23.877468, 216385.893179
  23.958395, 216385.893179
  24.039463, 216385.893179
  24.120523, 216385.893179
  24.201461, 216385.893179
  24.282525, 216385.893179
  24.363519, 216385.893179
  24.444490, 216385.893179
  24.525777, 216385.893179
  24.606852, 216385.893179
  24.687977, 216385.893179
  24.693483, 216385.892938
  24.698992, 216385.892192
  24.704505, 216385.890907
  24.710019, 216385.889049
  24.715519, 216385.886592
  24.721035, 216385.883486
  24.726559, 216385.879697
  24.732066, 216385.875205
  24.737582, 216385.869955
  24.743119, 216385.863891
  24.748654, 216385.856994
  24.754178, 216385.849240
  24.759718, 216385.840550
  24.765268, 216385.830884
  24.770812, 216385.820229
  24.776354, 216385.808534
  24.781916, 216385.795705
  24.787466, 216385.781771
  24.793031, 216385.766615
  24.798603, 216385.750208
  24.804180, 216385.732507
  24.809740, 216385.713535
  24.815324, 216385.693103
  24.820914, 216385.671215
  24.826499, 216385.647863
  24.832094, 216385.622936
  24.837677, 216385.596478
  24.843264, 216385.568367
  24.848860, 216385.538517
  24.854469, 216385.506843
  24.860088, 216385.473292
  24.865698, 216385.437926
  24.871324, 216385.400535
  24.876932, 216385.361274
  24.882560, 216385.319827
  24.888199, 216385.276182
  24.893834, 216385.230388
  24.899483, 216385.182238
  24.905122, 216385.131874
  24.910757, 216385.079185
  24.916418, 216385.023814
  24.922067, 216384.966058
  24.927731, 216384.905570
  24.933414, 216384.842233
  24.939097, 216384.776155
  24.944780, 216384.707298
  24.950469, 216384.635490
  24.956163, 216384.560676
  24.961813, 216384.483472
  24.967506, 216384.402589
  24.973195, 216384.318628
  24.978902, 216384.231155
  24.984626, 216384.140094
  24.990332, 216384.045906
  24.996068, 216383.947755
  25.001786, 216383.846325
  25.007527, 216383.740842
  25.013250, 216383.631960
  25.019000, 216383.518754
  25.024749, 216383.401647
  25.030496, 216383.280581
  25.036262, 216383.155023
  25.042025, 216383.025345
  25.047800, 216382.891133
  25.053585, 216382.752321
  25.059386, 216382.608634
  25.065190, 216382.460279
  25.071009, 216382.306836
  25.076818, 216382.148902
  25.082639, 216381.985758
  25.083805, 216381.952402
  25.084465, 216381.933428
  25.084814, 216381.923391
  25.084867, 216381.921834
  25.084930, 216381.920021
  25.084952, 216381.919396
  25.084964, 216381.919038
  25.084990, 216381.918300
  25.085013, 216381.917632
  25.085205, 216381.912074
  25.085924, 216381.891270
  25.087760, 216381.837760
  25.092163, 216381.707589
  25.097950, 216381.532188
  25.103763, 216381.350780
  25.109578, 216381.164018
  25.115422, 216380.970904
  25.121278, 216380.771810
  25.127106, 216380.569281
  25.132968, 216380.361068
  25.138836, 216380.148100
  25.144726, 216379.929800
  25.150602, 216379.707376
  25.156487, 216379.480004
  25.162346, 216379.248982
  25.168259, 216379.011139
  25.174180, 216378.768163
  25.180074, 216378.521546
  25.185973, 216378.269893
  25.191873, 216378.013346
  25.197804, 216377.750548
  25.203736, 216377.482776
  25.209671, 216377.209884
  25.215631, 216376.930766
  25.221568, 216376.647698
  25.227520, 216376.358806
  25.233488, 216376.063982
  25.239466, 216375.763439
  25.245428, 216375.458459
  25.251384, 216375.148609
  25.257367, 216374.832011
  25.263355, 216374.509816
  25.269367, 216374.180878
  25.275354, 216373.847944
  25.281360, 216373.508447
  25.287372, 216373.163072
  25.293390, 216372.811793
  25.299422, 216372.454075
  25.305462, 216372.090245
  25.311504, 216371.720588
  25.317546, 216371.345189
  25.323601, 216370.963228
  25.329679, 216370.573911
  25.335764, 216370.178220
  25.341841, 216369.777152
  25.347923, 216369.369738
  25.354015, 216368.955647
  25.360078, 216368.537502
  25.366174, 216368.111020
  25.372295, 216367.676548
  25.378425, 216367.235245
  25.384567, 216366.786816
  25.390712, 216366.331794
  25.396841, 216365.871586
  25.403002, 216365.402565
  25.409145, 216364.928472
  25.415304, 216364.446651
  25.421485, 216363.956544
  25.427655, 216363.460709
  25.433822, 216362.958469
  25.440002, 216362.448529
  25.446230, 216361.927786
  25.452453, 216361.400639
  25.458682, 216360.866021
  25.464936, 216360.322321
  25.471175, 216359.772898
  25.477452, 216359.213039
  25.483702, 216358.648498
  25.489986, 216358.073777
  25.496287, 216357.490116
  25.502586, 216356.899388
  25.508871, 216356.302562
  25.515179, 216355.696244
  25.521503, 216355.080893
  25.527808, 216354.459790
  25.534104, 216353.832174
  25.540419, 216353.195096
  25.546804, 216352.543304
  25.553142, 216351.888426
  25.559448, 216351.229242
  25.565799, 216350.557621
  25.572190, 216349.873748
  25.578572, 216349.182888
  25.584961, 216348.483292
  25.591364, 216347.773985
  25.597788, 216347.054281
  25.604236, 216346.323599
  25.610676, 216345.585470
  25.617142, 216344.835865
  25.621278, 216344.352040
  25.623585, 216344.080703
  25.630085, 216343.310197
  25.636518, 216342.539175
  25.643017, 216341.751542
  25.649524, 216340.954390
  25.656046, 216340.146390
  25.662508, 216339.337277
  25.669023, 216338.512627
  25.675562, 216337.675976
  25.682129, 216336.826609
  25.688699, 216335.967724
  25.695261, 216335.100770
  25.701845, 216334.221665
  25.708451, 216333.330167
  25.715064, 216332.428372
  25.721663, 216331.518950
  25.728297, 216330.595221
  25.734924, 216329.662873
  25.741565, 216328.718733
  25.748254, 216327.758009
  25.754902, 216326.793444
  25.761593, 216325.812645
  25.768262, 216324.824978
  25.774964, 216323.822402
  25.781680, 216322.807692
  25.788406, 216321.781137
  25.795167, 216320.738786
  25.801906, 216319.689532
  25.808682, 216318.623930
  25.815446, 216317.549619
  25.822198, 216316.466772
  25.828988, 216315.366996
  25.835809, 216314.251458
  25.842640, 216313.123325
  25.849468, 216311.984631
  25.856292, 216310.835544
  25.863143, 216309.670874
  25.870040, 216308.487040
  25.876927, 216307.293437
  25.883777, 216306.095058
  25.890680, 216304.875843
  25.897602, 216303.641659
  25.904501, 216302.399980
  25.911424, 216301.142206
  25.918403, 216299.862340
  25.925368, 216298.573002
  25.932345, 216297.269473
  25.939362, 216295.946274
  25.946381, 216294.610402
  25.953394, 216293.263201
  25.960445, 216291.896272
  25.967486, 216290.518663
  25.974564, 216289.121161
  25.981620, 216287.715165
  25.988643, 216286.303253
  25.995738, 216284.863935
  26.002800, 216283.418359
  26.009928, 216281.946093
  26.017063, 216280.459251
  26.024187, 216278.961286
  26.031371, 216277.437385
  26.038509, 216275.909606
  26.045665, 216274.364559
  26.052852, 216272.799014
  26.060089, 216271.208705
  26.067307, 216269.608752
  26.074539, 216267.991524
  26.081780, 216266.358049
  26.089045, 216264.704970
  26.096325, 216263.034205
  26.103610, 216261.347680
  26.110919, 216259.640857
  26.118198, 216257.926722
  26.125513, 216256.189256
  26.132853, 216254.430840
  26.140183, 216252.660005
  26.147526, 216250.870840
  26.154958, 216249.044565
  26.162320, 216247.220346
  26.169693, 216245.377967
  26.177067, 216243.519933
  26.184455, 216241.642769
  26.191912, 216239.732449
  26.199359, 216237.808499
  26.206838, 216235.860564
  26.214273, 216233.907789
  26.221723, 216231.934972
  26.229203, 216229.938061
  26.236766, 216227.902386
  26.244284, 216225.862371
  26.251863, 216223.788837
  26.259447, 216221.696940
  26.267039, 216219.585755
  26.274627, 216217.458367
  26.282220, 216215.312544
  26.289838, 216213.142298
  26.297489, 216210.945193
  26.305117, 216208.736823
  26.312782, 216206.500422
  26.320423, 216204.252876
  26.328135, 216201.966538
  26.335871, 216199.654683
  26.343634, 216197.316518
  26.351350, 216194.973898
  26.359085, 216192.606944
  26.366878, 216190.203732
  26.374670, 216187.781829
  26.382459, 216185.341805
  26.390236, 216182.886450
  26.398092, 216180.387221
  26.405958, 216177.865084
  26.413828, 216175.321788
  26.421674, 216172.767031
  26.429588, 216170.169838
  26.437511, 216167.549848
  26.445428, 216164.911712
  26.453371, 216162.244615
  26.461335, 216159.549771
  26.469299, 216156.834569
  26.477277, 216154.093988
  26.485288, 216151.321040
  26.493301, 216148.526291
  26.501327, 216145.705818
  26.509353, 216142.863959
  26.517379, 216140.001057
  26.525486, 216137.087545
  26.533562, 216134.163342
  26.541677, 216131.202837
  26.549769, 216128.228931
  26.557894, 216125.220652
  26.566011, 216122.193461
  26.574238, 216119.101924
  26.582395, 216116.014429
  26.590616, 216112.879530
  26.598810, 216109.732109
  26.607038, 216106.548115
  26.615249, 216103.347961
  26.623483, 216100.115242
  26.631735, 216096.851653
  26.640044, 216093.541755
  26.648376, 216090.198849
  26.656676, 216086.844555
  26.664931, 216083.484135
  26.673213, 216080.088965
  26.681576, 216076.636332
  26.689956, 216073.151149
  26.698340, 216069.640056
  26.706767, 216066.085410
  26.715186, 216062.509048
  26.723541, 216058.934547
  26.732004, 216055.288118
  26.740435, 216051.630316
  26.748917, 216047.924253
  26.757331, 216044.221981
  26.765857, 216040.444185
  26.774432, 216036.618046
  26.782995, 216032.770493
  26.791579, 216028.886698
  26.800138, 216024.986916
  26.808763, 216021.030015
  26.817372, 216017.052719
  26.825929, 216013.072437
  26.834567, 216009.026961
  26.843298, 216004.909347
  26.851962, 216000.795527
  26.860663, 215996.635538
  26.869301, 215992.477539
  26.877981, 215988.270869
  26.886755, 215983.989851
  26.895485, 215979.701127
  26.904210, 215975.386234
  26.912942, 215971.038352
  26.921728, 215966.634267
  26.930565, 215962.175351
  26.939393, 215957.690236
  26.948266, 215953.152262
  26.957097, 215948.605522
  26.965978, 215944.002618
  26.974756, 215939.422842
  26.983681, 215934.736005
  26.992541, 215930.051868
  27.001408, 215925.333800
  27.010335, 215920.552463
  27.019363, 215915.685030
  27.028318, 215910.825220
  27.037239, 215905.952091
  27.046219, 215901.015000
  27.055169, 215896.062498
  27.064211, 215891.026723
  27.073172, 215886.003554
  27.082229, 215880.893874
  27.091244, 215875.774967
  27.100304, 215870.598291
  27.109287, 215865.432361
  27.118389, 215860.164594
  27.127479, 215854.870286
  27.136595, 215849.527042
  27.145836, 215844.076126
  27.154972, 215838.652486
  27.164103, 215833.197840
  27.173277, 215827.682760
  27.182471, 215822.121455
  27.191665, 215816.524514
  27.200816, 215810.919836
  27.210024, 215805.244584
  27.219299, 215799.492749
  27.228452, 215793.780820
  27.237752, 215787.942102
  27.247106, 215782.032263
  27.256487, 215776.068728
  27.265789, 215770.119218
  27.275168, 215764.083178
  27.284636, 215757.952343
  27.293906, 215751.912996
  27.303274, 215745.772721
  27.312679, 215739.570661
  27.322088, 215733.328207
  27.331517, 215727.034553
  27.340968, 215720.687539
  27.350375, 215714.333095
  27.359822, 215707.912462
  27.369203, 215701.498860
  27.378698, 215694.968460
  27.388162, 215688.421343
  27.397640, 215681.824685
  27.407161, 215675.159527
  27.416655, 215668.473710
  27.426149, 215661.748420
  27.435694, 215654.947340
  27.445268, 215648.085559
  27.454822, 215641.198300
  27.464433, 215634.228983
  27.474014, 215627.240976
  27.483610, 215620.201591
  27.493268, 215613.075727
  27.502855, 215605.961146
  27.512479, 215598.778050
  27.522101, 215591.555873
  27.531734, 215584.283605
  27.541462, 215576.897790
  27.551069, 215569.561969
  27.560800, 215562.089301
  27.570402, 215554.674009
  27.580193, 215547.070518
  27.589945, 215539.453613
  27.599636, 215531.842985
  27.609453, 215524.088752
  27.619204, 215516.344111
  27.629091, 215508.447515
  27.638931, 215500.544401
  27.648810, 215492.565369
  27.658659, 215484.566594
  27.668491, 215476.536815
  27.678320, 215468.465419
  27.688197, 215460.310376
  27.698043, 215452.136137
  27.707917, 215443.894328
  27.717868, 215435.541932
  27.727788, 215427.170846
  27.737711, 215418.751460
  27.747616, 215410.301674
  27.757515, 215401.811628
  27.767489, 215393.211241
  27.777520, 215384.515005
  27.787428, 215375.879704
  27.797267, 215367.259023
  27.807185, 215358.523766
  27.817271, 215349.593056
  27.827185, 215340.768274
  27.837344, 215331.677568
  27.847384, 215322.645674
  27.857303, 215313.675915
  27.867279, 215304.608261
  27.877254, 215295.493884
  27.887297, 215286.270536
  27.897328, 215277.010321
  27.907369, 215267.693173
  27.917385, 215258.352069
  27.927397, 215248.966517
  27.937487, 215239.459076
  27.947640, 215229.844723
  27.957747, 215220.224180
  27.967783, 215210.622943
  27.977876, 215200.918714
  27.988061, 215191.076899
  27.998284, 215181.149148
  28.008478, 215171.198538
  28.018599, 215161.270246
  28.028796, 215151.217166
  28.038984, 215141.123762
  28.049196, 215130.955804
  28.059378, 215120.767311
  28.069663, 215110.426014
  28.079858, 215100.123960
  28.090142, 215089.681727
  28.100464, 215079.148781
  28.110714, 215068.638004
  28.121000, 215058.039207
  28.131323, 215047.351247
  28.141650, 215036.607149
  28.151932, 215025.858258
  28.162178, 215015.094826
  28.172631, 215004.062725
  28.183085, 214992.974805
  28.193412, 214981.969637
  28.203864, 214970.778836
  28.214260, 214959.593841
  28.223527, 214949.579840
