Speed, Forces
  60.411063, 13975.484915
  61.157601, 13841.641494
  61.904140, 13717.437037
  62.650679, 13602.475741
  63.397218, 13496.607765
  64.143757, 13399.956732
  64.890296, 13311.674127
  65.636835, 13231.296876
  66.383374, 13158.342686
  67.129913, 13092.310046
  67.876452, 13032.844243
  68.622991, 12982.580762
  69.369530, 12938.101420
  70.116069, 12898.837435
  70.862608, 12866.898624
  71.609147, 12841.471392
  72.355686, 12819.955534
  73.102225, 12806.185421
  73.848764, 12797.020809
  74.595303, 12792.278929
  75.341842, 12794.638377
  76.088381, 12798.974446
  76.834920, 12811.973107
  77.581459, 12825.762793
  78.327998, 12848.112985
  79.074537, 12870.687992
  79.821076, 12902.069118
  80.567615, 12933.745120
  81.314154, 12972.775732
  82.060693, 13013.536341
  82.807232, 13059.090174
  83.553771, 13108.889004
  84.300310, 13159.792908
  85.046849, 13218.564354
  85.793388, 13277.853968
  86.539927, 13341.246754
  87.286466, 13409.492183
  88.033005, 13478.323803
  88.779544, 13552.637683
  89.526083, 13630.382689
  90.272622, 13708.778709
  91.019161, 13792.330571
  91.765700, 13879.571921
  92.512239, 13967.525901
  93.258778, 14058.517316
  94.005317, 14155.222944
  94.751856, 14252.699617
  95.498395, 14350.947335
  96.244934, 14455.325844
  96.991473, 14562.261111
  97.738012, 14670.022634
  98.484551, 14778.610413
  99.231090, 14893.998658
  99.977629, 15011.177854
 100.724168, 15129.235313
 101.470707, 15248.171036
 102.217246, 15371.999457
 102.963785, 15499.398431
 103.710324, 15627.724473
 104.456863, 15756.977582
 105.203402, 15887.157758
 105.949941, 16024.040580
 106.696480, 16162.569410
 107.443019, 16302.070908
 108.189558, 16442.545074
 108.936097, 16583.991907
 109.682635, 16730.541899
 110.429174, 16880.184348
 111.175713, 17030.841863
 111.922252, 17182.514442
 112.668791, 17335.202087
 113.415330, 17488.904797
 114.161869, 17648.435497
 114.908408, 17810.181537
 115.654947, 17972.981837
 116.401486, 18136.836396
 117.148025, 18301.745214
 117.894564, 18467.708291
 118.641103, 18635.753629
 119.387642, 18809.562906
 120.134181, 18984.462432
 120.880720, 19160.452207
 121.627259, 19337.532233
 122.373798, 19515.702508
 123.120337, 19694.963034
 123.866876, 19875.313809
 124.613415, 20060.064820
 125.359954, 20248.085390
 126.106493, 20437.228997
 126.853032, 20627.495641
 127.599571, 20818.885322
 128.346110, 21011.398040
 129.092649, 21205.033796
 129.839188, 21399.792588
 130.585727, 21595.674418
 131.332266, 21797.003956
 132.078805, 22000.351100
 132.825344, 22204.850865
 133.571883, 22410.503250
 134.318422, 22617.308257
