Speed, Forces
  75.852205, 13975.801461
  76.442773, 13891.333237
  77.033341, 13809.624734
  77.623909, 13730.878522
  78.214477, 13657.911922
  78.805045, 13586.964097
  79.395612, 13520.289416
  79.986180, 13457.241200
  80.576748, 13396.353089
  81.167316, 13340.745674
  81.757884, 13285.918160
  82.348452, 13237.019987
  82.939020, 13188.684166
  83.529587, 13145.576086
  84.120155, 13103.210844
  84.710723, 13065.895402
  85.301291, 13028.956735
  85.891859, 12997.428848
  86.482427, 12965.683435
  87.072994, 12939.596816
  87.663562, 12913.668506
  88.254130, 12891.789183
  88.844698, 12871.656360
  89.435266, 12853.365308
  90.025834, 12838.998728
  90.616402, 12824.537593
  91.206969, 12815.016819
  91.797537, 12806.323500
  92.388105, 12799.001325
  92.978673, 12796.030047
  93.569241, 12793.039837
  94.159809, 12792.909779
  94.750376, 12795.624109
  95.340944, 12798.355410
  95.931512, 12804.541288
  96.522080, 12812.949455
  97.112648, 12821.409226
  97.703216, 12832.989080
  98.293784, 12847.087871
  98.884351, 12861.271625
  99.474919, 12877.277717
 100.065487, 12897.052474
 100.656055, 12916.944282
 101.246623, 12936.953143
 101.837191, 12961.787718
 102.427758, 12987.360206
 103.018326, 13013.080563
 103.608894, 13040.169390
 104.199462, 13071.383739
 104.790030, 13102.775504
 105.380598, 13134.344684
 105.971165, 13167.810561
 106.561733, 13204.822198
 107.152301, 13242.039524
 107.742869, 13279.462539
 108.333437, 13317.936213
 108.924005, 13360.737435
 109.514573, 13403.771349
 110.105140, 13447.037955
 110.695708, 13490.537253
 111.286276, 13537.641721
 111.876844, 13586.467990
 112.467412, 13635.552683
 113.057980, 13684.895798
 113.648547, 13734.497335
 114.239115, 13788.504387
 114.829683, 13843.366402
 115.420251, 13898.511299
 116.010819, 13953.939078
 116.601387, 14009.649739
 117.191955, 14068.716719
 117.782522, 14129.606105
 118.373090, 14190.801560
 118.963658, 14252.303085
 119.554226, 14314.110680
 120.144794, 14376.280491
 120.735362, 14443.169798
 121.325929, 14510.387091
 121.916497, 14577.932369
 122.507065, 14645.805634
 123.097633, 14714.006885
 123.688201, 14782.536122
 124.278769, 14855.040777
 124.869336, 14928.580743
 125.459904, 15002.469340
 126.050472, 15076.706568
 126.641040, 15151.292426
 127.231608, 15226.226915
 127.822176, 15301.811282
 128.412744, 15381.645800
 129.003311, 15461.848321
 129.593879, 15542.418846
 130.184447, 15623.357374
 130.775015, 15704.663907
 131.365583, 15786.338443
 131.956151, 15868.380982
 132.546718, 15953.230496
 133.137286, 16040.080764
 133.727854, 16127.317137
 134.318422, 16214.939616
