Speed, Forces
  65.001770, 13975.801461
  65.701938, 13858.766843
  66.402106, 13749.281908
  67.102274, 13646.966226
  67.802443, 13551.424765
  68.502611, 13462.247889
  69.202779, 13379.011361
  69.902947, 13303.092681
  70.603115, 13233.686564
  71.303284, 13169.263118
  72.003452, 13109.351425
  72.703620, 13057.711881
  73.403788, 13010.007278
  74.103956, 12966.149970
  74.804125, 12930.053766
  75.504293, 12896.754719
  76.204461, 12868.911574
  76.904629, 12845.916427
  77.604797, 12825.947409
  78.304966, 12812.533779
  79.005134, 12800.469563
  79.705302, 12795.871257
  80.405470, 12791.727917
  81.105638, 12795.134931
  81.805807, 12798.913937
  82.505975, 12809.472460
  83.206143, 12821.160677
  83.906311, 12837.973088
  84.606479, 12857.542779
  85.306648, 12879.667647
  86.006816, 12907.076473
  86.706984, 12934.709341
  87.407152, 12968.719572
  88.107320, 13004.193618
  88.807489, 13041.371481
  89.507657, 13084.612723
  90.207825, 13128.193546
  90.907993, 13174.793044
  91.608161, 13226.106597
  92.308330, 13277.813848
  93.008498, 13332.443218
  93.708666, 13391.829263
  94.408834, 13451.660690
  95.109002, 13512.840547
  95.809171, 13580.277361
  96.509339, 13648.208806
  97.209507, 13716.634884
  97.909675, 13789.816100
  98.609844, 13865.801502
  99.310012, 13942.328351
 100.010180, 14019.396649
 100.710348, 14102.650654
 101.410516, 14187.207875
 102.110685, 14272.350926
 102.810853, 14358.079807
 103.511021, 14449.331997
 104.211189, 14542.455061
 104.911357, 14636.205905
 105.611526, 14730.584527
 106.311694, 14827.614266
 107.011862, 14929.267993
 107.712030, 15031.589013
 108.412198, 15134.577327
 109.112367, 15238.232934
 109.812535, 15345.137948
 110.512703, 15455.962323
 111.212871, 15567.491073
 111.913039, 15679.724196
 112.613208, 15792.661694
 113.313376, 15906.554257
 114.013544, 16026.524980
 114.713712, 16147.234723
 115.413880, 16268.683488
 116.114049, 16390.871274
 116.814217, 16513.798081
 117.514385, 16637.700873
 118.214553, 16767.528369
 118.914721, 16898.127098
 119.614890, 17029.497062
 120.315058, 17161.638260
 121.015226, 17294.550692
 121.715394, 17428.234357
 122.415562, 17564.361841
 123.115731, 17704.809364
 123.815899, 17846.057900
 124.516067, 17988.107449
 125.216235, 18130.958012
 125.916404, 18274.609587
 126.616572, 18419.062176
 127.316740, 18564.315777
 128.016908, 18713.966392
 128.717076, 18865.835423
 129.417245, 19018.532813
 130.117413, 19172.058560
 130.817581, 19326.412666
 131.517749, 19481.595131
 132.217917, 19637.605953
 132.918086, 19794.445134
 133.618254, 19952.262150
 134.318422, 20115.524523
