Speed, Forces
  60.411747, 13975.801461
  61.158279, 13841.957563
  61.904811, 13717.752458
  62.651343, 13602.790336
  63.397875, 13496.922232
  64.144407, 13400.270219
  64.890939, 13311.986434
  65.637471, 13231.607796
  66.384003, 13158.652005
  67.130535, 13092.617542
  67.877067, 13033.151745
  68.623599, 12982.886222
  69.370132, 12938.404602
  70.116664, 12899.138096
  70.863196, 12867.199312
  71.609728, 12841.769307
  72.356260, 12820.250418
  73.102792, 12806.480324
  73.849324, 12797.312410
  74.595856, 12792.570539
  75.342388, 12794.926401
  76.088920, 12799.262460
  76.835452, 12812.257241
  77.581984, 12826.042768
  78.328516, 12848.392902
  79.075049, 12870.963442
  79.821581, 12902.344479
  80.568113, 12934.020385
  81.314645, 12973.046184
  82.061177, 13013.806658
  82.807709, 13059.355352
  83.554241, 13109.154005
  84.300773, 13160.052440
  85.047305, 13218.823661
  85.793837, 13278.113041
  86.540369, 13341.499984
  87.286901, 13409.745125
  88.033433, 13478.576447
  88.779965, 13552.884100
  89.526498, 13630.628751
  90.273030, 13709.024403
  91.019562, 13792.569650
  91.766094, 13879.810571
  92.512626, 13967.764109
  93.259158, 14058.748514
  94.005690, 14155.453636
  94.752222, 14252.929788
  95.498754, 14351.176971
  96.245286, 14455.548021
  96.991818, 14562.482684
  97.738350, 14670.243588
  98.484882, 14778.830733
  99.231415, 14894.211065
  99.977947, 15011.389554
 100.724479, 15129.446291
 101.471011, 15248.381274
 102.217543, 15372.201328
 102.964075, 15499.599488
 103.710607, 15627.924698
 104.457139, 15757.176958
 105.203671, 15887.356269
 105.950203, 16024.230213
 106.696735, 16162.758098
 107.443267, 16302.258633
 108.189799, 16442.731818
 108.936331, 16584.177653
 109.682864, 16730.718261
 110.429396, 16880.359630
 111.175928, 17031.016045
 111.922460, 17182.687507
 112.668992, 17335.374016
 113.415524, 17489.075571
 114.162056, 17648.596324
 114.908588, 17810.341126
 115.655120, 17973.140167
 116.401652, 18136.993449
 117.148184, 18301.900969
 117.894716, 18467.862730
 118.641248, 18635.897573
 119.387781, 18809.705447
 120.134313, 18984.603551
 120.880845, 19160.591884
 121.627377, 19337.670447
 122.373909, 19515.839240
 123.120441, 19695.098262
 123.866973, 19875.447514
 124.613505, 20060.187369
 125.360037, 20248.206329
 126.106569, 20437.348304
 126.853101, 20627.613296
 127.599633, 20819.001305
 128.346165, 21011.512329
 129.092697, 21205.146370
 129.839230, 21399.903427
 130.585762, 21595.783501
 131.332294, 21797.101184
 132.078826, 22000.446483
 132.825358, 22204.944381
 133.571890, 22410.594879
 134.318422, 22617.397977
