Speed, Forces
  82.295481, 21254.220175
  82.820965, 21168.856210
  83.346450, 21083.492246
  83.871934, 20998.128281
  84.397418, 20912.764317
  84.922902, 20827.400352
  85.448387, 20742.036388
  85.973871, 20656.672423
  86.499355, 20571.308459
  87.024839, 20485.944494
  87.550324, 20407.595269
  88.075808, 20336.783486
  88.601292, 20265.971704
  89.126776, 20195.159921
  89.652261, 20124.348139
  90.177745, 20053.536357
  90.703229, 19982.724574
  91.228713, 19911.912792
  91.754198, 19841.101009
  92.279682, 19770.289227
  92.805166, 19699.477444
  93.330650, 19628.665662
  93.856135, 19557.853879
  94.381619, 19487.042097
  94.907103, 19416.230314
  95.432587, 19345.418532
  95.958072, 19274.606749
  96.483556, 19203.794967
  97.009040, 19132.983184
  97.534524, 19062.171402
  98.060009, 18991.359619
  98.585493, 18931.628803
  99.110977, 18876.288980
  99.636461, 18820.949157
 100.161946, 18765.609334
 100.687430, 18710.269511
 101.212914, 18654.929688
 101.738398, 18599.589864
 102.263883, 18544.250041
 102.789367, 18488.910218
 103.314851, 18433.570395
 103.840335, 18378.230572
 104.365820, 18322.890749
 104.891304, 18267.550926
 105.416788, 18212.211102
 105.942272, 18156.871279
 106.467757, 18101.531456
 106.993241, 18046.191633
 107.518725, 17990.851810
 108.044209, 17935.511987
 108.569694, 17880.172164
 109.095178, 17824.832340
 109.620662, 17776.166897
 110.146146, 17727.850259
 110.671631, 17679.533621
 111.197115, 17631.216982
 111.722599, 17582.900344
 112.248083, 17534.583706
 112.773568, 17486.267068
 113.299052, 17437.950430
 113.824536, 17389.633792
 114.350020, 17341.317154
 114.875505, 17293.000516
 115.400989, 17244.683878
 115.926473, 17196.367240
 116.451957, 17148.050602
 116.977442, 17099.733964
 117.502926, 17051.417326
 118.028410, 17003.100688
 118.553894, 16954.784050
 119.079379, 16906.467412
 119.604863, 16858.150774
 120.130347, 16810.967411
 120.655831, 16768.793475
 121.181316, 16726.619538
 121.706800, 16684.445601
 122.232284, 16642.271664
 122.757768, 16600.097727
 123.283253, 16557.923790
 123.808737, 16515.749854
 124.334221, 16473.575917
 124.859705, 16431.401980
 125.385190, 16389.228043
 125.910674, 16347.054106
 126.436158, 16304.880169
 126.961642, 16262.706233
 127.487127, 16220.532296
 128.012611, 16178.358359
 128.538095, 16136.184422
 129.063579, 16094.010485
 129.589064, 16051.836548
 130.114548, 16009.662612
 130.640032, 15967.488675
 131.165516, 15927.511757
 131.691001, 15890.585939
 132.216485, 15853.660121
 132.741969, 15816.734303
 133.267453, 15779.808484
 133.792938, 15742.882666
 134.318422, 15705.956848
