Speed, Forces
  82.296413, 21254.068774
  82.821888, 21168.706339
  83.347363, 21083.343904
  83.872838, 20997.981468
  84.398312, 20912.619033
  84.923787, 20827.256598
  85.449262, 20741.894163
  85.974737, 20656.531727
  86.500212, 20571.169292
  87.025687, 20485.806857
  87.551161, 20407.482364
  88.076636, 20336.671850
  88.602111, 20265.861336
  89.127586, 20195.050822
  89.653061, 20124.240308
  90.178536, 20053.429794
  90.704010, 19982.619280
  91.229485, 19911.808767
  91.754960, 19840.998253
  92.280435, 19770.187739
  92.805910, 19699.377225
  93.331385, 19628.566711
  93.856859, 19557.756197
  94.382334, 19486.945683
  94.907809, 19416.135169
  95.433284, 19345.324656
  95.958759, 19274.514142
  96.484234, 19203.703628
  97.009708, 19132.893114
  97.535183, 19062.082600
  98.060658, 18991.272086
  98.586133, 18931.561387
  99.111608, 18876.222555
  99.637083, 18820.883723
 100.162558, 18765.544892
 100.688032, 18710.206060
 101.213507, 18654.867228
 101.738982, 18599.528397
 102.264457, 18544.189565
 102.789932, 18488.850733
 103.315407, 18433.511901
 103.840881, 18378.173070
 104.366356, 18322.834238
 104.891831, 18267.495406
 105.417306, 18212.156575
 105.942781, 18156.817743
 106.468256, 18101.478911
 106.993730, 18046.140079
 107.519205, 17990.801248
 108.044680, 17935.462416
 108.570155, 17880.123584
 109.095630, 17824.784753
 109.621105, 17776.126214
 110.146579, 17727.810441
 110.672054, 17679.494669
 111.197529, 17631.178896
 111.723004, 17582.863124
 112.248479, 17534.547351
 112.773954, 17486.231579
 113.299428, 17437.915807
 113.824903, 17389.600034
 114.350378, 17341.284262
 114.875853, 17292.968489
 115.401328, 17244.652717
 115.926803, 17196.336944
 116.452277, 17148.021172
 116.977752, 17099.705399
 117.503227, 17051.389627
 118.028702, 17003.073855
 118.554177, 16954.758082
 119.079652, 16906.442310
 119.605127, 16858.126537
 120.130601, 16810.947012
 120.656076, 16768.773830
 121.181551, 16726.600649
 121.707026, 16684.427468
 122.232501, 16642.254287
 122.757976, 16600.081105
 123.283450, 16557.907924
 123.808925, 16515.734743
 124.334400, 16473.561561
 124.859875, 16431.388380
 125.385350, 16389.215199
 125.910825, 16347.042017
 126.436299, 16304.868836
 126.961774, 16262.695655
 127.487249, 16220.522474
 128.012724, 16178.349292
 128.538199, 16136.176111
 129.063674, 16094.002930
 129.589148, 16051.829748
 130.114623, 16009.656567
 130.640098, 15967.483386
 131.165573, 15927.507788
 131.691048, 15890.582631
 132.216523, 15853.657474
 132.741997, 15816.732318
 133.267472, 15779.807161
 133.792947, 15742.882005
 134.318422, 15705.956848
