Speed, Forces
  65.001770, 36424.261012
  65.701938, 36205.606102
  66.402106, 35986.951192
  67.102274, 35768.296283
  67.802443, 35549.641373
  68.502611, 35330.986463
  69.202779, 35112.331553
  69.902947, 34932.754076
  70.603115, 34753.275313
  71.303284, 34573.796549
  72.003452, 34394.317786
  72.703620, 34214.839022
  73.403788, 34035.360258
  74.103956, 33855.881495
  74.804125, 33676.402731
  75.504293, 33496.923967
  76.204461, 33317.445204
  76.904629, 33137.966440
  77.604797, 32958.487676
  78.304966, 32779.008913
  79.005134, 32599.530149
  79.705302, 32420.051386
  80.405470, 32240.572622
  81.105638, 32073.345756
  81.805807, 31917.240785
  82.505975, 31761.135814
  83.206143, 31605.030843
  83.906311, 31448.925871
  84.606479, 31292.820900
  85.306648, 31136.715929
  86.006816, 30980.610958
  86.706984, 30824.505986
  87.407152, 30668.401015
  88.107320, 30512.296044
  88.807489, 30356.191073
  89.507657, 30200.086101
  90.207825, 30043.981130
  90.907993, 29887.876159
  91.608161, 29731.771188
  92.308330, 29576.139274
  93.008498, 29429.335928
  93.708666, 29282.532582
  94.408834, 29135.729236
  95.109002, 28988.925890
  95.809171, 28842.122544
  96.509339, 28695.319198
  97.209507, 28548.515851
  97.909675, 28401.712505
  98.609844, 28254.909159
  99.310012, 28108.105813
 100.010180, 27961.302467
 100.710348, 27814.499121
 101.410516, 27667.695775
 102.110685, 27520.892429
 102.810853, 27374.089083
 103.511021, 27227.285737
 104.211189, 27080.299824
 104.911357, 26933.180373
 105.611526, 26786.060922
 106.311694, 26638.941471
 107.011862, 26491.822020
 107.712030, 26344.702568
 108.412198, 26197.583117
 109.112367, 26050.463666
 109.812535, 25903.344215
 110.512703, 25756.224764
 111.212871, 25609.105312
 111.913039, 25461.985861
 112.613208, 25314.866410
 113.313376, 25167.746959
 114.013544, 25020.627508
 114.713712, 24873.508057
 115.413880, 24728.332721
 116.114049, 24599.865864
 116.814217, 24471.399006
 117.514385, 24342.932149
 118.214553, 24214.465292
 118.914721, 24085.998435
 119.614890, 23957.531577
 120.315058, 23829.064720
 121.015226, 23700.597863
 121.715394, 23572.131006
 122.415562, 23443.664148
 123.115731, 23315.197291
 123.815899, 23186.730434
 124.516067, 23058.263577
 125.216235, 22929.796719
 125.916404, 22801.329862
 126.616572, 22672.863005
 127.316740, 22553.291386
 128.016908, 22438.923372
 128.717076, 22324.555357
 129.417245, 22210.187342
 130.117413, 22095.819327
 130.817581, 21981.451313
 131.517749, 21867.083298
 132.217917, 21752.715283
 132.918086, 21638.347268
 133.618254, 21523.979253
 134.318422, 21409.611239
