Speed, Forces
  70.119992, 30988.476529
  70.768461, 30834.214790
  71.416930, 30679.953052
  72.065399, 30525.691314
  72.713868, 30371.429575
  73.362337, 30217.167837
  74.010806, 30062.906098
  74.659275, 29908.644360
  75.307744, 29754.382622
  75.956213, 29600.120883
  76.604682, 29445.859145
  77.253151, 29291.597407
  77.901620, 29137.335668
  78.550089, 28983.073930
  79.198558, 28828.812191
  79.847027, 28695.385718
  80.495496, 28566.436757
  81.143965, 28437.487795
  81.792434, 28308.538833
  82.440903, 28179.589872
  83.089372, 28050.640910
  83.737841, 27921.691949
  84.386310, 27792.742987
  85.034779, 27663.794025
  85.683248, 27534.845064
  86.331717, 27405.896102
  86.980186, 27276.947140
  87.628655, 27147.998179
  88.277124, 27019.049217
  88.925593, 26890.100256
  89.574062, 26761.151294
  90.222531, 26632.202332
  90.871000, 26509.189283
  91.519469, 26397.177379
  92.167938, 26285.165475
  92.816406, 26173.153571
  93.464875, 26061.141667
  94.113344, 25949.129763
  94.761813, 25837.117859
  95.410282, 25725.105955
  96.058751, 25613.094051
  96.707220, 25501.082148
  97.355689, 25389.070244
  98.004158, 25277.058340
  98.652627, 25165.046436
  99.301096, 25053.034532
  99.949565, 24941.022628
 100.598034, 24829.010724
 101.246503, 24716.998820
 101.894972, 24604.986916
 102.543441, 24502.925823
 103.191910, 24402.249576
 103.840379, 24301.573328
 104.488848, 24200.897081
 105.137317, 24100.220833
 105.785786, 23999.544586
 106.434255, 23898.868338
 107.082724, 23798.192091
 107.731193, 23697.515843
 108.379662, 23596.839596
 109.028131, 23496.163348
 109.676600, 23395.487101
 110.325069, 23294.810853
 110.973538, 23194.134606
 111.622007, 23093.458358
 112.270476, 22992.782111
 112.918945, 22892.105863
 113.567414, 22797.618636
 114.215883, 22712.217072
 114.864352, 22626.815508
 115.512821, 22541.413944
 116.161290, 22456.012381
 116.809759, 22370.610817
 117.458228, 22285.209253
 118.106697, 22199.807690
 118.755166, 22114.406126
 119.403635, 22029.004562
 120.052104, 21943.602998
 120.700573, 21858.201435
 121.349042, 21772.799871
 121.997511, 21687.398307
 122.645980, 21601.996744
 123.294449, 21516.595180
 123.942918, 21431.193616
 124.591387, 21345.792052
 125.239856, 21271.637149
 125.888325, 21198.295759
 126.536794, 21124.954370
 127.185263, 21051.612981
 127.833732, 20978.271591
 128.482201, 20904.930202
 129.130670, 20831.588812
 129.779139, 20758.247423
 130.427608, 20684.906034
 131.076077, 20611.564644
 131.724546, 20538.223255
 132.373015, 20464.881865
 133.021484, 20391.540476
 133.669953, 20318.199087
 134.318422, 20244.857697
