Speed, Forces
  70.120786, 30988.287622
  70.769247, 30834.027792
  71.417708, 30679.767961
  72.066169, 30525.508131
  72.714630, 30371.248301
  73.363091, 30216.988471
  74.011552, 30062.728640
  74.660013, 29908.468810
  75.308474, 29754.208980
  75.956935, 29599.949150
  76.605396, 29445.689320
  77.253857, 29291.429489
  77.902318, 29137.169659
  78.550779, 28982.909829
  79.199239, 28828.649999
  79.847700, 28695.251735
  80.496161, 28566.304368
  81.144622, 28437.357001
  81.793083, 28308.409635
  82.441544, 28179.462268
  83.090005, 28050.514902
  83.738466, 27921.567535
  84.386927, 27792.620169
  85.035388, 27663.672802
  85.683849, 27534.725435
  86.332310, 27405.778069
  86.980771, 27276.830702
  87.629232, 27147.883336
  88.277693, 27018.935969
  88.926154, 26889.988603
  89.574615, 26761.041236
  90.223076, 26632.093869
  90.871537, 26509.096452
  91.519998, 26397.085933
  92.168459, 26285.075415
  92.816920, 26173.064896
  93.465381, 26061.054378
  94.113842, 25949.043860
  94.762303, 25837.033341
  95.410764, 25725.022823
  96.059225, 25613.012305
  96.707686, 25501.001786
  97.356147, 25388.991268
  98.004608, 25276.980750
  98.653069, 25164.970231
  99.301530, 25052.959713
  99.949991, 24940.949195
 100.598452, 24828.938676
 101.246912, 24716.928158
 101.895373, 24604.917640
 102.543834, 24502.864802
 103.192295, 24402.189800
 103.840756, 24301.514798
 104.489217, 24200.839796
 105.137678, 24100.164794
 105.786139, 23999.489792
 106.434600, 23898.814789
 107.083061, 23798.139787
 107.731522, 23697.464785
 108.379983, 23596.789783
 109.028444, 23496.114781
 109.676905, 23395.439779
 110.325366, 23294.764776
 110.973827, 23194.089774
 111.622288, 23093.414772
 112.270749, 22992.739770
 112.919210, 22892.064768
 113.567671, 22797.584831
 114.216132, 22712.184324
 114.864593, 22626.783817
 115.513054, 22541.383309
 116.161515, 22455.982802
 116.809976, 22370.582295
 117.458437, 22285.181787
 118.106898, 22199.781280
 118.755359, 22114.380773
 119.403820, 22028.980265
 120.052281, 21943.579758
 120.700742, 21858.179251
 121.349203, 21772.778743
 121.997664, 21687.378236
 122.646125, 21601.977729
 123.294585, 21516.577221
 123.943046, 21431.176714
 124.591507, 21345.776207
 125.239968, 21271.624448
 125.888429, 21198.283966
 126.536890, 21124.943483
 127.185351, 21051.603001
 127.833812, 20978.262519
 128.482273, 20904.922037
 129.130734, 20831.581555
 129.779195, 20758.241073
 130.427656, 20684.900590
 131.076117, 20611.560108
 131.724578, 20538.219626
 132.373039, 20464.879144
 133.021500, 20391.538662
 133.669961, 20318.198180
 134.318422, 20244.857697
