Speed, Forces
  75.851346, 26078.193508
  76.441923, 25951.262208
  77.032499, 25824.330909
  77.623076, 25697.399610
  78.213652, 25585.765962
  78.804229, 25484.562599
  79.394806, 25383.359236
  79.985382, 25282.155874
  80.575959, 25180.952511
  81.166535, 25079.749148
  81.757112, 24978.545785
  82.347688, 24877.342423
  82.938265, 24776.139060
  83.528841, 24674.935697
  84.119418, 24573.732335
  84.709994, 24472.528972
  85.300571, 24371.325609
  85.891147, 24270.122246
  86.481724, 24168.918884
  87.072300, 24067.715521
  87.662877, 23966.512158
  88.253453, 23865.308796
  88.844030, 23764.105433
  89.434606, 23674.901026
  90.025183, 23589.483907
  90.615759, 23504.066788
  91.206336, 23418.649669
  91.796912, 23333.232549
  92.387489, 23247.815430
  92.978066, 23162.398311
  93.568642, 23076.981192
  94.159219, 22991.564073
  94.749795, 22906.146954
  95.340372, 22820.729835
  95.930948, 22735.312715
  96.521525, 22649.895596
  97.112101, 22564.478477
  97.702678, 22479.061358
  98.293254, 22393.644239
  98.883831, 22308.227120
  99.474407, 22222.810001
 100.064984, 22137.392881
 100.655560, 22060.593167
 101.246137, 21984.486185
 101.836713, 21908.379202
 102.427290, 21832.272220
 103.017866, 21756.165237
 103.608443, 21680.058255
 104.199019, 21603.951272
 104.789596, 21527.844289
 105.380172, 21451.737307
 105.970749, 21375.630324
 106.561326, 21299.523342
 107.151902, 21223.416359
 107.742479, 21147.309377
 108.333055, 21071.202394
 108.923632, 20995.095411
 109.514208, 20918.988429
 110.104785, 20842.881446
 110.695361, 20766.774464
 111.285938, 20691.416702
 111.876514, 20623.535492
 112.467091, 20555.654282
 113.057667, 20487.773073
 113.648244, 20419.891863
 114.238820, 20352.010653
 114.829397, 20284.129444
 115.419973, 20216.248234
 116.010550, 20148.367025
 116.601126, 20080.485815
 117.191703, 20012.604605
 117.782279, 19944.723396
 118.372856, 19876.842186
 118.963432, 19808.960977
 119.554009, 19741.079767
 120.144585, 19673.198557
 120.735162, 19605.317348
 121.325739, 19537.436138
 121.916315, 19469.554928
 122.506892, 19403.871978
 123.097468, 19344.558087
 123.688045, 19285.244197
 124.278621, 19225.930307
 124.869198, 19166.616417
 125.459774, 19107.302526
 126.050351, 19047.988636
 126.640927, 18988.674746
 127.231504, 18929.360855
 127.822080, 18870.046965
 128.412657, 18810.733075
 129.003233, 18751.419184
 129.593810, 18692.105294
 130.184386, 18632.791404
 130.774963, 18573.477513
 131.365539, 18514.163623
 131.956116, 18454.849733
 132.546692, 18395.535842
 133.137269, 18336.221952
 133.727845, 18280.077539
 134.318422, 18228.272928
