Time, Forces
   0.000000,    0.000000
   0.001667,    0.292560
   0.003333,    3.187772
   0.005000,    6.403849
   0.006667,    9.619926
   0.008333,   12.836004
   0.010000,   16.052081
   0.011667,   19.268158
   0.013333,   22.484236
   0.015000,   25.700313
   0.016667,   28.916390
   0.018333,   32.132468
   0.020000,   39.902747
   0.021667,   48.241661
   0.023333,   56.580575
   0.025000,   64.919489
   0.026667,   73.258403
   0.028333,   81.597317
   0.030000,   89.936231
   0.031667,   98.275145
   0.033333,  106.614060
   0.035000,  114.952974
   0.036667,  127.673566
   0.038333,  140.941252
   0.040000,  154.208939
   0.041667,  167.476625
   0.043333,  180.744311
   0.045000,  194.011997
   0.046667,  207.279684
   0.048333,  220.547370
   0.050000,  233.815056
   0.051667,  247.082743
   0.053333,  264.555465
   0.055000,  282.553225
   0.056667,  300.550985
   0.058333,  318.548746
   0.060000,  336.546506
   0.061667,  354.544266
   0.063333,  372.542026
   0.065000,  390.539787
   0.066667,  408.537547
   0.068333,  426.535307
   0.070000,  448.558094
   0.071667,  471.083443
   0.073333,  493.608792
   0.075000,  516.134141
   0.076667,  538.659491
   0.078333,  561.184840
   0.080000,  583.710189
   0.081667,  606.235538
   0.083333,  628.760887
   0.085000,  651.286236
   0.086667,  677.610450
   0.088333,  704.408988
   0.090000,  731.207526
   0.091667,  758.006064
   0.093333,  784.804602
   0.095000,  811.603140
   0.096667,  838.401678
   0.098333,  865.200216
   0.100000,  891.998754
   0.101667,  918.797292
   0.103333,  949.086430
   0.105000,  979.811402
   0.106667, 1010.536374
   0.108333, 1041.261346
   0.110000, 1071.986318
   0.111667, 1102.711290
   0.113333, 1133.436262
   0.115000, 1164.161234
   0.116667, 1194.886206
   0.118333, 1225.611178
   0.120000, 1259.583842
   0.121667, 1293.962011
   0.123333, 1328.340180
   0.125000, 1362.718349
   0.126667, 1397.096518
   0.128333, 1431.474687
   0.130000, 1465.852855
   0.131667, 1500.231024
   0.133333, 1534.609193
   0.135000, 1568.987362
   0.136667, 1606.377109
   0.138333, 1644.142880
   0.140000, 1681.908650
   0.141667, 1719.674421
   0.143333, 1757.440191
   0.145000, 1795.205962
   0.146667, 1832.971733
   0.148333, 1870.737503
   0.150000, 1908.503274
   0.151667, 1946.269045
   0.153333, 1986.815681
   0.155000, 2027.709535
   0.156667, 2068.603388
   0.158333, 2109.497242
   0.160000, 2150.391095
   0.161667, 2191.284949
   0.163333, 2232.178803
   0.165000, 2273.072656
   0.166667, 2313.966510
   0.168333, 2354.860363
   0.170000, 2398.310288
   0.171667, 2442.079362
   0.173333, 2485.848436
   0.175000, 2529.617510
   0.176667, 2573.386584
   0.178333, 2617.155658
   0.180000, 2660.924731
   0.181667, 2704.693805
   0.183333, 2748.462879
   0.185000, 2792.231953
   0.186667, 2838.199932
   0.188333, 2884.442464
   0.190000, 2930.684997
   0.191667, 2976.927529
   0.193333, 3023.170061
   0.195000, 3069.412594
   0.196667, 3115.655126
   0.198333, 3161.897659
   0.200000, 3208.140191
   0.201667, 3254.382724
   0.203333, 3302.418741
   0.205000, 3350.678692
   0.206667, 3398.938643
   0.208333, 3447.198594
   0.210000, 3495.458545
   0.211667, 3543.718496
   0.213333, 3591.978447
   0.215000, 3640.238398
   0.216667, 3688.498349
   0.218333, 3736.758300
   0.220000, 3786.563496
   0.221667, 3836.561631
   0.223333, 3886.559766
   0.225000, 3936.557901
   0.226667, 3986.556036
   0.228333, 4036.554170
   0.230000, 4086.552305
   0.231667, 4136.550440
   0.233333, 4186.548575
   0.235000, 4236.546710
   0.236667, 4287.857682
   0.238333, 4339.332573
   0.240000, 4390.807465
   0.241667, 4442.282357
   0.243333, 4493.757249
   0.245000, 4545.232141
   0.246667, 4596.707033
   0.248333, 4648.181924
   0.250000, 4699.656816
   0.251667, 4751.131708
   0.253333, 4803.701508
   0.255000, 4856.408018
   0.256667, 4909.114528
   0.258333, 4961.821038
   0.260000, 5014.527548
   0.261667, 5067.234058
   0.263333, 5119.940567
   0.265000, 5172.647077
   0.266667, 5225.353587
   0.268333, 5278.060097
   0.270000, 5331.657749
   0.271667, 5385.366668
   0.273333, 5439.075587
   0.275000, 5492.784506
   0.276667, 5546.493426
   0.278333, 5600.202345
   0.280000, 5653.911264
   0.281667, 5707.620183
   0.283333, 5761.329102
   0.285000, 5815.038021
   0.286667, 5869.448214
   0.288333, 5923.945967
   0.290000, 5978.443719
   0.291667, 6032.941472
   0.293333, 6087.439225
   0.295000, 6141.936978
   0.296667, 6196.434731
   0.298333, 6250.932484
   0.300000, 6305.430237
   0.301667, 6359.927989
   0.303333, 6414.881824
   0.305000, 6469.892605
   0.306667, 6524.903386
   0.308333, 6579.914167
   0.310000, 6634.924948
   0.311667, 6689.935729
   0.312642, 6722.126846
   0.314309, 7024.370697
   0.315975, 7326.614548
   0.317642, 7628.858399
   0.319309, 7842.895606
   0.320975, 7959.119483
   0.322642, 8075.343359
   0.324309, 8191.567235
   0.325975, 8307.791112
   0.327642, 8424.014988
   0.329309, 8540.238865
   0.330975, 8656.462741
   0.332642, 8772.686618
   0.334309, 8888.910494
   0.335975, 9068.870850
   0.337642, 9319.509300
   0.339309, 9570.147750
   0.340975, 9820.786200
   0.342642, 10071.424649
   0.344309, 10322.063099
   0.345975, 10572.701549
   0.347642, 10823.339999
   0.349309, 11073.978448
   0.350975, 11324.616898
   0.352642, 11587.440238
   0.354309, 11863.775537
   0.355975, 12140.110837
   0.357642, 12416.446137
   0.359309, 12692.781437
   0.360975, 12969.116736
   0.362642, 13245.452036
   0.364309, 13521.787336
   0.365975, 13798.122635
   0.367642, 14074.457935
   0.368518, 14219.761020
   0.370185, 15190.254417
   0.371852, 16160.747813
   0.373518, 17131.241210
   0.375185, 18101.734606
   0.376852, 19072.228003
   0.378518, 20042.721399
   0.380185, 21013.214796
   0.381852, 21983.708192
   0.383518, 22954.201588
   0.385185, 23924.694985
   0.386852, 23969.997610
   0.388518, 24015.300235
   0.390185, 24060.602860
   0.391852, 24105.905485
   0.393518, 24151.208110
   0.395185, 24172.982150
   0.396852, 24194.756190
   0.398518, 24216.530230
   0.400185, 24238.304270
   0.401852, 24260.078311
   0.403518, 24256.953914
   0.405185, 24253.829518
   0.406852, 24250.705122
   0.408518, 24247.580726
   0.410185, 24244.456330
   0.410185, 13405.177753
   1.605400, 13405.166864
   2.825139, 13405.133203
   4.084250, 13405.138098
   5.433948, 13405.098807
   6.920962, 13405.114703
   8.567151, 13405.121336
  10.405942, 13405.114631
  12.496124, 13405.114815
  14.982109, 13405.105568
  14.982109, 15440.528957
  15.801212, 15437.085129
  16.620315, 15433.641861
  17.439418, 15430.199152
  18.258522, 15426.757003
  19.077625, 15423.315413
  19.896728, 15419.874383
  20.715832, 15416.433913
  21.534935, 15412.994002
  22.354038, 15409.554650
  23.173141, 15406.115858
  23.992245, 15402.677626
  24.811348, 15399.239952
  25.630451, 15395.802839
  26.449554, 15392.366285
  27.268658, 15388.930291
  28.087761, 15385.494856
  28.906864, 15382.059980
  29.725967, 15378.625665
  30.545071, 15375.191908
  31.364174, 15371.758712
  32.183277, 15368.326074
  33.002380, 15364.893997
  33.821484, 15361.462479
  34.640587, 15358.031520
  35.459690, 15354.601121
  36.278793, 15351.171281
  37.097897, 15347.742001
  37.917000, 15344.313281
  38.736103, 15340.885120
  38.736103, 17282.079083
  39.896032, 17279.281220
  41.058764, 17276.667878
  42.220084, 17274.002232
  43.376236, 17271.307135
  44.524976, 17268.592738
  45.661995, 17265.813613
  46.783206, 17262.985218
  47.900611, 17260.380156
  49.010509, 17257.694186
  49.010509, 13140.120509
  49.589924, 13140.049250
  50.174964, 13139.842546
  50.765469, 13139.888046
  51.364214, 13139.908901
  51.981985, 13139.903199
  52.628108, 13139.876065
  53.305596, 13139.888073
  54.016769, 13139.877963
  54.763442, 13139.864019
  54.763442, 12337.470725
  56.615618, 12326.701586
  58.468603, 12315.936594
  60.322397, 12305.175758
  62.177002, 12294.419084
  64.032418, 12283.666578
  65.888646, 12272.918250
  67.745686, 12262.174104
  69.603540, 12251.434149
  71.462208, 12240.698390
  71.462208, 17197.445913
  72.108615, 17196.251643
  72.744854, 17194.390050
  73.383630, 17193.004104
  74.025084, 17191.616853
  74.669359, 17190.232061
  75.316244, 17188.838088
  75.965602, 17187.432410
  76.616971, 17186.005731
  77.269434, 17184.545645
  77.269434, 12213.964904
  82.269434, 12185.564726
  87.269434, 12157.220024
  92.269434, 12129.200004
  97.269434, 12101.948120
 102.269434, 12074.747752
 107.269434, 12047.598846
 112.269434, 12020.501349
 117.269434, 11993.455205
 122.269434, 11966.460362
 122.269434, 20703.782467
 122.271101, 20569.529776
 122.272767, 20570.345423
 122.274434, 20571.161069
 122.276101, 20570.919070
 122.277767, 20570.470905
 122.279434, 20570.022739
 122.281101, 20569.574573
 122.282767, 20569.126407
 122.284434, 20568.678242
 122.286101, 20568.230076
 122.287767, 20567.781910
 122.289434, 20567.333744
 122.291101, 20566.885579
 122.292767, 20566.424819
 122.294434, 20565.961603
 122.296101, 20565.498388
 122.297767, 20565.035173
 122.299434, 20564.571958
 122.301101, 20564.108743
 122.302767, 20563.645528
 122.304434, 20563.182313
 122.306101, 20562.719098
 122.307767, 20562.255883
 122.309434, 20562.819646
 122.311101, 20563.583599
 122.312767, 20564.347551
 122.314434, 20565.111503
 122.316101, 20565.875456
 122.317767, 20566.639408
 122.319434, 20567.403360
 122.321101, 20568.167313
 122.322767, 20568.931265
 122.324434, 20569.695217
 122.326101, 20568.342650
 122.327767, 20566.577511
 122.329434, 20564.812371
 122.331101, 20563.047231
 122.332767, 20561.282091
 122.334434, 20559.516951
 122.336101, 20557.751811
 122.337767, 20555.986671
 122.339434, 20554.221531
 122.341101, 20552.456391
 122.342767, 20552.799319
 122.344434, 20553.553172
 122.346101, 20554.307026
 122.347767, 20555.060879
 122.349434, 20555.814732
 122.351101, 20556.568586
 122.352767, 20557.322439
 122.354434, 20558.076292
 122.356101, 20558.830146
 122.357767, 20559.583999
 122.359434, 20560.318038
 122.361101, 20561.048215
 122.362767, 20561.778392
 122.364434, 20562.508569
 122.366101, 20563.238745
 122.367767, 20563.968922
 122.369434, 20564.699099
 122.371101, 20565.429276
 122.372767, 20566.159453
 122.374434, 20566.889630
 122.376101, 20565.562078
 122.377767, 20563.833415
 122.379434, 20562.104751
 122.381101, 20560.376087
 122.382767, 20558.647423
 122.384434, 20556.918759
 122.386101, 20555.190095
 122.387767, 20553.461431
 122.389434, 20551.732767
 122.391101, 20550.004103
 122.392767, 20550.362330
 122.394434, 20551.127354
 122.396101, 20551.892379
 122.397767, 20552.657404
 122.399434, 20553.422429
 122.401101, 20554.187453
 122.402767, 20554.952478
 122.404434, 20555.717503
 122.406101, 20556.482527
 122.407767, 20557.247552
 122.409434, 20556.956537
 122.411101, 20556.459668
 122.412767, 20555.962799
 122.414434, 20555.465930
 122.416101, 20554.969061
 122.417767, 20554.472192
 122.419434, 20553.975323
 122.421101, 20553.478454
 122.422767, 20552.981585
 122.424434, 20552.484716
 122.426101, 20553.017778
 122.427767, 20553.751604
 122.429434, 20554.485430
 122.431101, 20555.219257
 122.432767, 20555.953083
 122.434434, 20556.686909
 122.436101, 20557.420736
 122.437767, 20558.154562
 122.439434, 20558.888388
 122.441101, 20559.622215
 122.442767, 20559.268073
 122.444434, 20558.701854
 122.446101, 20558.135634
 122.447767, 20557.569415
 122.449434, 20557.003195
 122.451101, 20556.436976
 122.452767, 20555.870757
 122.454434, 20555.304537
 122.456101, 20554.738318
 122.457767, 20554.172098
 122.459434, 20554.627097
 122.461101, 20555.281163
 122.462767, 20555.935228
 122.464434, 20556.589293
 122.466101, 20557.243358
 122.467767, 20557.897423
 122.469434, 20558.551489
 122.471101, 20559.205554
 122.472767, 20559.859619
 122.474434, 20560.513684
 122.476101, 20559.100246
 122.477767, 20557.283789
 122.479434, 20555.467332
 122.481101, 20553.650875
 122.482767, 20551.834418
 122.484434, 20550.017961
 122.486101, 20548.201503
 122.487767, 20546.385046
 122.489434, 20544.568589
 122.491101, 20542.752132
 122.492767, 20543.025941
 122.494434, 20543.707206
 122.496101, 20544.388471
 122.497767, 20545.069736
 122.499434, 20545.751001
 122.501101, 20546.432265
 122.502767, 20547.113530
 122.504434, 20547.794795
 122.506101, 20548.476060
 122.507767, 20549.157325
 122.509434, 20549.813165
 122.511101, 20550.464050
 122.512767, 20551.114934
 122.514434, 20551.765819
 122.516101, 20552.416703
 122.517767, 20553.067588
 122.519434, 20553.718472
 122.521101, 20554.369357
 122.522767, 20555.020241
 122.524434, 20555.671126
 122.526101, 20554.256956
 122.527767, 20552.440244
 122.529434, 20550.623533
 122.531101, 20548.806822
 122.532767, 20546.990111
 122.534434, 20545.173399
 122.536101, 20543.356688
 122.537767, 20541.539977
 122.539434, 20539.723265
 122.541101, 20537.906554
 122.542767, 20538.186282
 122.544434, 20538.874669
 122.546101, 20539.563056
 122.547767, 20540.251443
 122.549434, 20540.939830
 122.551101, 20541.628217
 122.552767, 20542.316604
 122.554434, 20543.004990
 122.556101, 20543.693377
 122.557767, 20544.381764
 122.559434, 20545.048353
 122.561101, 20545.710693
 122.562767, 20546.373032
 122.564434, 20547.035372
 122.566101, 20547.697712
 122.567767, 20548.360051
 122.569434, 20549.022391
 122.571101, 20549.684731
 122.572767, 20550.347070
 122.574434, 20551.009410
 122.576101, 20549.607641
 122.577767, 20547.803515
 122.579434, 20545.999389
 122.581101, 20544.195263
 122.582767, 20542.391137
 122.584434, 20540.587011
 122.586101, 20538.782885
 122.587767, 20536.978759
 122.589434, 20535.174633
 122.591101, 20533.370507
 122.592767, 20533.666824
 122.594434, 20534.372581
 122.596101, 20535.078338
 122.597767, 20535.784096
 122.599434, 20536.489853
 122.601101, 20537.195610
 122.602767, 20537.901367
 122.604434, 20538.607124
 122.606101, 20539.312881
 122.607767, 20540.018638
 122.609434, 20540.703658
 122.611101, 20541.384636
 122.612767, 20542.065614
 122.614434, 20542.746592
 122.616101, 20543.427569
 122.617767, 20544.108547
 122.619434, 20544.789525
 122.621101, 20545.470503
 122.622767, 20546.151481
 122.624434, 20546.832459
 122.626101, 20545.447331
 122.627767, 20543.659458
 122.629434, 20541.871585
 122.631101, 20540.083712
 122.632767, 20538.295839
 122.634434, 20536.507966
 122.636101, 20534.720093
 122.637767, 20532.932220
 122.639434, 20531.144347
 122.641101, 20529.356474
 122.642767, 20529.670278
 122.644434, 20530.393762
 122.646101, 20531.117246
 122.647767, 20531.840730
 122.649434, 20532.564214
 122.651101, 20533.287698
 122.652767, 20534.011183
 122.654434, 20534.734667
 122.656101, 20535.458151
 122.657767, 20536.181635
 122.659434, 20536.882658
 122.661101, 20537.579302
 122.662767, 20538.275947
 122.664434, 20538.972591
 122.666101, 20539.669235
 122.667767, 20540.365880
 122.669434, 20541.062524
 122.671101, 20541.759169
 122.672767, 20542.455813
 122.674434, 20543.152458
 122.676101, 20541.778383
 122.677767, 20540.000664
 122.679434, 20538.222944
 122.681101, 20536.445225
 122.682767, 20534.667505
 122.684434, 20532.889786
 122.686101, 20531.112067
 122.687767, 20529.334347
 122.689434, 20527.556628
 122.691101, 20525.778908
 122.692767, 20526.102138
 122.694434, 20526.834907
 122.696101, 20527.567675
 122.697767, 20528.300443
 122.699434, 20529.033211
 122.701101, 20529.765980
 122.702767, 20530.498748
 122.704434, 20531.231516
 122.706101, 20531.964285
 122.707767, 20532.697053
 122.709434, 20533.404080
 122.711101, 20534.106089
 122.712767, 20534.808097
 122.714434, 20535.510106
 122.716101, 20536.212115
 122.717767, 20536.914124
 122.719434, 20537.616133
 122.721101, 20538.318142
 122.722767, 20539.020150
 122.724434, 20539.722159
 122.726101, 20538.347924
 122.727767, 20536.568966
 122.729434, 20534.790007
 122.731101, 20533.011049
 122.732767, 20531.232091
 122.734434, 20529.453133
 122.736101, 20527.674175
 122.737767, 20525.895217
 122.739434, 20524.116259
 122.741101, 20522.337301
 122.742767, 20522.658207
 122.744434, 20523.388439
 122.746101, 20524.118671
 122.747767, 20524.848904
 122.749434, 20525.579136
 122.751101, 20526.309369
 122.752767, 20527.039601
 122.754434, 20527.769833
 122.756101, 20528.500066
 122.757767, 20529.230298
 122.759434, 20529.931814
 122.761101, 20530.627732
 122.762767, 20531.323650
 122.764434, 20532.019568
 122.766101, 20532.715486
 122.767767, 20533.411405
 122.769434, 20534.107323
 122.771101, 20534.803241
 122.772767, 20535.499159
 122.774434, 20536.195077
 122.776101, 20534.887932
 122.777767, 20533.190330
 122.779434, 20531.492728
 122.781101, 20529.795126
 122.782767, 20528.097524
 122.784434, 20526.399923
 122.786101, 20524.702321
 122.787767, 20523.004719
 122.789434, 20521.307117
 122.791101, 20519.609515
 122.792767, 20519.998338
 122.794434, 20520.793869
 122.796101, 20521.589399
 122.797767, 20522.384929
 122.799434, 20523.180460
 122.801101, 20523.975990
 122.802767, 20524.771521
 122.804434, 20525.567051
 122.806101, 20526.362582
 122.807767, 20527.158112
 122.809434, 20526.876547
 122.811101, 20526.385025
 122.812767, 20525.893502
 122.814434, 20525.401979
 122.816101, 20524.910457
 122.817767, 20524.418934
 122.819434, 20523.927411
 122.821101, 20523.435889
 122.822767, 20522.944366
 122.824434, 20522.452843
 122.826101, 20522.987245
 122.827767, 20523.721631
 122.829434, 20524.456017
 122.831101, 20525.190402
 122.832767, 20525.924788
 122.834434, 20526.659174
 122.836101, 20527.393560
 122.837767, 20528.127945
 122.839434, 20528.862331
 122.841101, 20529.596717
 122.842767, 20528.248661
 122.844434, 20526.494674
 122.846101, 20524.740687
 122.847767, 20522.986701
 122.849434, 20521.232714
 122.851101, 20519.478727
 122.852767, 20517.724741
 122.854434, 20515.970754
 122.856101, 20514.216767
 122.857767, 20512.462781
 122.859434, 20512.811535
 122.861101, 20513.570178
 122.862767, 20514.328820
 122.864434, 20515.087462
 122.866101, 20515.846104
 122.867767, 20516.604747
 122.869434, 20517.363389
 122.871101, 20518.122031
 122.872767, 20518.880673
 122.874434, 20519.639316
 122.876101, 20519.328388
 122.877767, 20518.808970
 122.879434, 20518.289552
 122.881101, 20517.770133
 122.882767, 20517.250715
 122.884434, 20516.731297
 122.886101, 20516.211878
 122.887767, 20515.692460
 122.889434, 20515.173042
 122.891101, 20514.653623
 122.892767, 20515.171680
 122.894434, 20515.891972
 122.896101, 20516.612263
 122.897767, 20517.332555
 122.899434, 20518.052846
 122.901101, 20518.773138
 122.902767, 20519.493430
 122.904434, 20520.213721
 122.906101, 20520.934013
 122.907767, 20521.654304
 122.909434, 20521.275008
 122.911101, 20520.681368
 122.912767, 20520.087729
 122.914434, 20519.494090
 122.916101, 20518.900450
 122.917767, 20518.306811
 122.919434, 20517.713172
 122.921101, 20517.119532
 122.922767, 20516.525893
 122.924434, 20515.932253
 122.926101, 20516.369537
 122.927767, 20517.007779
 122.929434, 20517.646021
 122.931101, 20518.284263
 122.932767, 20518.922504
 122.934434, 20519.560746
 122.936101, 20520.198988
 122.937767, 20520.837230
 122.939434, 20521.475472
 122.941101, 20522.113713
 122.942767, 20520.665445
 122.944434, 20518.810452
 122.946101, 20516.955460
 122.947767, 20515.100468
 122.949434, 20513.245475
 122.951101, 20511.390483
 122.952767, 20509.535491
 122.954434, 20507.680498
 122.956101, 20505.825506
 122.957767, 20503.970514
 122.959434, 20504.227725
 122.961101, 20504.896668
 122.962767, 20505.565612
 122.964434, 20506.234555
 122.966101, 20506.903498
 122.967767, 20507.572441
 122.969434, 20508.241385
 122.971101, 20508.910328
 122.972767, 20509.579271
 122.974434, 20510.248214
 122.976101, 20510.894280
 122.977767, 20511.535886
 122.979434, 20512.177491
 122.981101, 20512.819097
 122.982767, 20513.460703
 122.984434, 20514.102308
 122.986101, 20514.743914
 122.987767, 20515.385520
 122.989434, 20516.027126
 122.991101, 20516.668731
 122.992767, 20515.228804
 122.994434, 20513.383123
 122.996101, 20511.537442
 122.997767, 20509.691762
 122.999434, 20507.846081
 123.001101, 20506.000400
 123.002767, 20504.154719
 123.004434, 20502.309039
 123.006101, 20500.463358
 123.007767, 20498.617677
 123.009434, 20498.892152
 123.011101, 20499.579910
 123.012767, 20500.267667
 123.014434, 20500.955424
 123.016101, 20501.643181
 123.017767, 20502.330938
 123.019434, 20503.018695
 123.021101, 20503.706452
 123.022767, 20504.394210
 123.024434, 20505.081967
 123.026101, 20505.751649
 123.027767, 20506.417807
 123.029434, 20507.083966
 123.031101, 20507.750124
 123.032767, 20508.416283
 123.034434, 20509.082441
 123.036101, 20509.748600
 123.037767, 20510.414758
 123.039434, 20511.080917
 123.041101, 20511.747075
 123.042767, 20511.310899
 123.044434, 20510.659844
 123.046101, 20510.008790
 123.047767, 20509.357735
 123.049434, 20508.706681
 123.051101, 20508.055626
 123.052767, 20507.404571
 123.054434, 20506.753517
 123.056101, 20506.102462
 123.057767, 20505.451408
 123.059434, 20505.836790
 123.061101, 20506.424205
 123.062767, 20507.011619
 123.064434, 20507.599034
 123.066101, 20508.186449
 123.067767, 20508.773864
 123.069434, 20509.361279
 123.071101, 20509.948693
 123.072767, 20510.536108
 123.074434, 20511.123523
 123.076101, 20509.624689
 123.077767, 20507.719182
 123.079434, 20505.813676
 123.081101, 20503.908169
 123.082767, 20502.002662
 123.084434, 20500.097156
 123.086101, 20498.191649
 123.087767, 20496.286142
 123.089434, 20494.380636
 123.091101, 20492.475129
 123.092767, 20492.694655
 123.094434, 20493.328414
 123.096101, 20493.962173
 123.097767, 20494.595932
 123.099434, 20495.229691
 123.101101, 20495.863450
 123.102767, 20496.497209
 123.104434, 20497.130968
 123.106101, 20497.764727
 123.107767, 20498.398486
 123.109434, 20499.018454
 123.111101, 20499.635734
 123.112767, 20500.253013
 123.114434, 20500.870293
 123.116101, 20501.487572
 123.117767, 20502.104852
 123.119434, 20502.722132
 123.121101, 20503.339411
 123.122767, 20503.956691
 123.124434, 20504.573970
 123.126101, 20504.185556
 123.127767, 20503.601101
 123.129434, 20503.016646
 123.131101, 20502.432191
 123.132767, 20501.847737
 123.134434, 20501.263282
 123.136101, 20500.678827
 123.137767, 20500.094372
 123.139434, 20499.509918
 123.141101, 20498.925463
 123.142767, 20499.366600
 123.144434, 20500.007657
 123.146101, 20500.648713
 123.147767, 20501.289769
 123.149434, 20501.930825
 123.151101, 20502.571881
 123.152767, 20503.212938
 123.154434, 20503.853994
 123.156101, 20504.495050
 123.157767, 20505.136106
 123.159434, 20503.684369
 123.161101, 20501.824684
 123.162767, 20499.964999
 123.164434, 20498.105314
 123.166101, 20496.245628
 123.167767, 20494.385943
 123.169434, 20492.526258
 123.171101, 20490.666573
 123.172767, 20488.806888
 123.174434, 20486.947203
 123.176101, 20487.210130
 123.177767, 20487.886818
 123.179434, 20488.563506
 123.181101, 20489.240194
 123.182767, 20489.916882
 123.184434, 20490.593570
 123.186101, 20491.270258
 123.187767, 20491.946946
 123.189434, 20492.623635
 123.191101, 20493.300323
 123.192767, 20493.955594
 123.194434, 20494.606690
 123.196101, 20495.257786
 123.197767, 20495.908882
 123.199434, 20496.559979
 123.201101, 20497.211075
 123.202767, 20497.862171
 123.204434, 20498.513267
 123.206101, 20499.164363
 123.207767, 20499.815460
 123.209434, 20498.377633
 123.211101, 20496.532613
 123.212767, 20494.687593
 123.214434, 20492.842573
 123.216101, 20490.997553
 123.217767, 20489.152532
 123.219434, 20487.307512
 123.221101, 20485.462492
 123.222767, 20483.617472
 123.224434, 20481.772452
 123.226101, 20482.056730
 123.227767, 20482.756072
 123.229434, 20483.455414
 123.231101, 20484.154755
 123.232767, 20484.854097
 123.234434, 20485.553439
 123.236101, 20486.252781
 123.237767, 20486.952123
 123.239434, 20487.651465
 123.241101, 20488.350807
 123.242767, 20489.032093
 123.244434, 20489.709859
 123.246101, 20490.387626
 123.247767, 20491.065392
 123.249434, 20491.743158
 123.251101, 20492.420925
 123.252767, 20493.098691
 123.254434, 20493.776457
 123.256101, 20494.454224
 123.257767, 20495.131990
 123.259434, 20494.702572
 123.261101, 20494.057331
 123.262767, 20493.412091
 123.264434, 20492.766850
 123.266101, 20492.121609
 123.267767, 20491.476368
 123.269434, 20490.831127
 123.271101, 20490.185886
 123.272767, 20489.540645
 123.274434, 20488.895405
 123.276101, 20489.289966
 123.277767, 20489.887215
 123.279434, 20490.484465
 123.281101, 20491.081715
 123.282767, 20491.678964
 123.284434, 20492.276214
 123.286101, 20492.873464
 123.287767, 20493.470713
 123.289434, 20494.067963
 123.291101, 20494.665213
 123.292767, 20493.166434
 123.294434, 20491.259075
 123.296101, 20489.351717
 123.297767, 20487.444359
 123.299434, 20485.537000
 123.301101, 20483.629642
 123.302767, 20481.722284
 123.304434, 20479.814926
 123.306101, 20477.907567
 123.307767, 20476.000209
 123.309434, 20476.225005
 123.311101, 20476.865422
 123.312767, 20477.505838
 123.314434, 20478.146255
 123.316101, 20478.786672
 123.317767, 20479.427088
 123.319434, 20480.067505
 123.321101, 20480.707922
 123.322767, 20481.348338
 123.324434, 20481.988755
 123.326101, 20482.613651
 123.327767, 20483.235521
 123.329434, 20483.857392
 123.331101, 20484.479262
 123.332767, 20485.101132
 123.334434, 20485.723003
 123.336101, 20486.344873
 123.337767, 20486.966743
 123.339434, 20487.588614
 123.341101, 20488.210484
 123.342767, 20487.820673
 123.344434, 20487.233654
 123.346101, 20486.646636
 123.347767, 20486.059617
 123.349434, 20485.472599
 123.351101, 20484.885580
 123.352767, 20484.298562
 123.354434, 20483.711543
 123.356101, 20483.124524
 123.357767, 20482.537506
 123.359434, 20482.978680
 123.361101, 20483.620279
 123.362767, 20484.261878
 123.364434, 20484.903477
 123.366101, 20485.545077
 123.367767, 20486.186676
 123.369434, 20486.828275
 123.371101, 20487.469874
 123.372767, 20488.111473
 123.374434, 20488.753073
 123.376101, 20487.342642
 123.377767, 20485.532210
 123.379434, 20483.721778
 123.381101, 20481.911345
 123.382767, 20480.100913
 123.384434, 20478.290481
 123.386101, 20476.480048
 123.387767, 20474.669616
 123.389434, 20472.859184
 123.391101, 20471.048751
 123.392767, 20471.315702
 123.394434, 20471.987598
 123.396101, 20472.659493
 123.397767, 20473.331389
 123.399434, 20474.003284
 123.401101, 20474.675179
 123.402767, 20475.347075
 123.404434, 20476.018970
 123.406101, 20476.690865
 123.407767, 20477.362761
 123.409434, 20478.012403
 123.411101, 20478.657708
 123.412767, 20479.303013
 123.414434, 20479.948318
 123.416101, 20480.593623
 123.417767, 20481.238927
 123.419434, 20481.884232
 123.421101, 20482.529537
 123.422767, 20483.174842
 123.424434, 20483.820147
 123.426101, 20482.434066
 123.427767, 20480.652006
 123.429434, 20478.869947
 123.431101, 20477.087888
 123.432767, 20475.305828
 123.434434, 20473.523769
 123.436101, 20471.741710
 123.437767, 20469.959650
 123.439434, 20468.177591
 123.441101, 20466.395532
 123.442767, 20466.682920
 123.444434, 20467.373705
 123.446101, 20468.064490
 123.447767, 20468.755275
 123.449434, 20469.446060
 123.451101, 20470.136845
 123.452767, 20470.827630
 123.454434, 20471.518415
 123.456101, 20472.209200
 123.457767, 20472.899985
 123.459434, 20473.573486
 123.461101, 20474.243619
 123.462767, 20474.913751
 123.464434, 20475.583883
 123.466101, 20476.254015
 123.467767, 20476.924148
 123.469434, 20477.594280
 123.471101, 20478.264412
 123.472767, 20478.934544
 123.474434, 20479.604677
 123.476101, 20479.198233
 123.477767, 20478.581933
 123.479434, 20477.965632
 123.481101, 20477.349332
 123.482767, 20476.733032
 123.484434, 20476.116731
 123.486101, 20475.500431
 123.487767, 20474.884130
 123.489434, 20474.267830
 123.491101, 20473.651529
 123.492767, 20474.046030
 123.494434, 20474.637567
 123.496101, 20475.229104
 123.497767, 20475.820640
 123.499434, 20476.412177
 123.501101, 20477.003714
 123.502767, 20477.595250
 123.504434, 20478.186787
 123.506101, 20478.778323
 123.507767, 20479.369860
 123.509434, 20477.925388
 123.511101, 20476.084037
 123.512767, 20474.242685
 123.514434, 20472.401334
 123.516101, 20470.559983
 123.517767, 20468.718631
 123.519434, 20466.877280
 123.521101, 20465.035928
 123.522767, 20463.194577
 123.524434, 20461.353226
 123.526101, 20461.586160
 123.527767, 20462.223434
 123.529434, 20462.860709
 123.531101, 20463.497983
 123.532767, 20464.135258
 123.534434, 20464.772532
 123.536101, 20465.409807
 123.537767, 20466.047081
 123.539434, 20466.684356
 123.541101, 20467.321630
 123.542767, 20467.945894
 123.544434, 20468.567621
 123.546101, 20469.189349
 123.547767, 20469.811076
 123.549434, 20470.432804
 123.551101, 20471.054531
 123.552767, 20471.676259
 123.554434, 20472.297986
 123.556101, 20472.919714
 123.557767, 20473.541441
 123.559434, 20473.182037
 123.561101, 20472.631380
 123.562767, 20472.080723
 123.564434, 20471.530066
 123.566101, 20470.979410
 123.567767, 20470.428753
 123.569434, 20469.878096
 123.571101, 20469.327439
 123.572767, 20468.776783
 123.574434, 20468.226126
 123.576101, 20468.677113
 123.577767, 20469.323351
 123.579434, 20469.969588
 123.581101, 20470.615826
 123.582767, 20471.262064
 123.584434, 20471.908301
 123.586101, 20472.554539
 123.587767, 20473.200777
 123.589434, 20473.847014
 123.591101, 20474.493252
 123.592767, 20473.096948
 123.594434, 20471.302491
 123.596101, 20469.508034
 123.597767, 20467.713577
 123.599434, 20465.919120
 123.601101, 20464.124663
 123.602767, 20462.330207
 123.604434, 20460.535750
 123.606101, 20458.741293
 123.607767, 20456.946836
 123.609434, 20457.224105
 123.611101, 20457.905215
 123.612767, 20458.586326
 123.614434, 20459.267436
 123.616101, 20459.948547
 123.617767, 20460.629657
 123.619434, 20461.310767
 123.621101, 20461.991878
 123.622767, 20462.672988
 123.624434, 20463.354099
 123.626101, 20464.014445
 123.627767, 20464.670744
 123.629434, 20465.327042
 123.631101, 20465.983341
 123.632767, 20466.639640
 123.634434, 20467.295939
 123.636101, 20467.952237
 123.637767, 20468.608536
 123.639434, 20469.264835
 123.641101, 20469.921133
 123.642767, 20468.538752
 123.644434, 20466.758970
 123.646101, 20464.979189
 123.647767, 20463.199407
 123.649434, 20461.419626
 123.651101, 20459.639844
 123.652767, 20457.860063
 123.654434, 20456.080281
 123.656101, 20454.300500
 123.657767, 20452.520718
 123.659434, 20452.819282
 123.661101, 20453.522977
 123.662767, 20454.226673
 123.664434, 20454.930369
 123.666101, 20455.634064
 123.667767, 20456.337760
 123.669434, 20457.041456
 123.671101, 20457.745151
 123.672767, 20458.448847
 123.674434, 20459.152542
 123.676101, 20459.838808
 123.677767, 20460.521675
 123.679434, 20461.204543
 123.681101, 20461.887411
 123.682767, 20462.570278
 123.684434, 20463.253146
 123.686101, 20463.936014
 123.687767, 20464.618881
 123.689434, 20465.301749
 123.691101, 20465.984617
 123.692767, 20465.585912
 123.694434, 20464.976376
 123.696101, 20464.366840
 123.697767, 20463.757305
 123.699434, 20463.147769
 123.701101, 20462.538233
 123.702767, 20461.928697
 123.704434, 20461.319162
 123.706101, 20460.709626
 123.707767, 20460.100090
 123.709434, 20460.504413
 123.711101, 20461.106368
 123.712767, 20461.708322
 123.714434, 20462.310277
 123.716101, 20462.912231
 123.717767, 20463.514186
 123.719434, 20464.116140
 123.721101, 20464.718095
 123.722767, 20465.320049
 123.724434, 20465.922003
 123.726101, 20464.478053
 123.727767, 20462.635294
 123.729434, 20460.792536
 123.731101, 20458.949777
 123.732767, 20457.107019
 123.734434, 20455.264260
 123.736101, 20453.421501
 123.737767, 20451.578743
 123.739434, 20449.735984
 123.741101, 20447.893225
 123.742767, 20448.131493
 123.744434, 20448.775416
 123.746101, 20449.419339
 123.747767, 20450.063262
 123.749434, 20450.707185
 123.751101, 20451.351107
 123.752767, 20451.995030
 123.754434, 20452.638953
 123.756101, 20453.282876
 123.757767, 20453.926798
 123.759434, 20454.555750
 123.761101, 20455.181783
 123.762767, 20455.807816
 123.764434, 20456.433849
 123.766101, 20457.059882
 123.767767, 20457.685915
 123.769434, 20458.311948
 123.771101, 20458.937981
 123.772767, 20459.564014
 123.774434, 20460.190047
 123.776101, 20459.828900
 123.777767, 20459.275321
 123.779434, 20458.721743
 123.781101, 20458.168164
 123.782767, 20457.614586
 123.784434, 20457.061007
 123.786101, 20456.507429
 123.787767, 20455.953850
 123.789434, 20455.400271
 123.791101, 20454.846693
 123.792767, 20455.297062
 123.794434, 20455.943131
 123.796101, 20456.589201
 123.797767, 20457.235270
 123.799434, 20457.881339
 123.801101, 20458.527408
 123.802767, 20459.173477
 123.804434, 20459.819546
 123.806101, 20460.465615
 123.807767, 20461.111684
 123.809434, 20459.705123
 123.811101, 20457.898442
 123.812767, 20456.091762
 123.814434, 20454.285082
 123.816101, 20452.478401
 123.817767, 20450.671721
 123.819434, 20448.865040
 123.821101, 20447.058360
 123.822767, 20445.251680
 123.824434, 20443.444999
 123.826101, 20443.717222
 123.827767, 20444.394686
 123.829434, 20445.072149
 123.831101, 20445.749613
 123.832767, 20446.427077
 123.834434, 20447.104540
 123.836101, 20447.782004
 123.837767, 20448.459468
 123.839434, 20449.136931
 123.841101, 20449.814395
 123.842767, 20450.470050
 123.844434, 20451.121453
 123.846101, 20451.772857
 123.847767, 20452.424260
 123.849434, 20453.075664
 123.851101, 20453.727067
 123.852767, 20454.378471
 123.854434, 20455.029874
 123.856101, 20455.681278
 123.857767, 20456.332681
 123.859434, 20454.936418
 123.861101, 20453.141003
 123.862767, 20451.345588
 123.864434, 20449.550172
 123.866101, 20447.754757
 123.867767, 20445.959342
 123.869434, 20444.163927
 123.871101, 20442.368512
 123.872767, 20440.573097
 123.874434, 20438.777682
 123.876101, 20439.069013
 123.877767, 20439.767114
 123.879434, 20440.465216
 123.881101, 20441.163317
 123.882767, 20441.861418
 123.884434, 20442.559519
 123.886101, 20443.257620
 123.887767, 20443.955721
 123.889434, 20444.653823
 123.891101, 20445.351924
 123.892767, 20446.032824
 123.894434, 20446.710372
 123.896101, 20447.387919
 123.897767, 20448.065467
 123.899434, 20448.743014
 123.901101, 20449.420562
 123.902767, 20450.098110
 123.904434, 20450.775657
 123.906101, 20451.453205
 123.907767, 20452.130752
 123.909434, 20451.723007
 123.911101, 20451.103705
 123.912767, 20450.484403
 123.914434, 20449.865101
 123.916101, 20449.245799
 123.917767, 20448.626497
 123.919434, 20448.007195
 123.921101, 20447.387893
 123.922767, 20446.768591
 123.924434, 20446.149289
 123.926101, 20446.549024
 123.927767, 20447.147401
 123.929434, 20447.745778
 123.931101, 20448.344154
 123.932767, 20448.942531
 123.934434, 20449.540908
 123.936101, 20450.139284
 123.937767, 20450.737661
 123.939434, 20451.336038
 123.941101, 20451.934414
 123.942767, 20450.479702
 123.944434, 20448.624780
 123.946101, 20446.769859
 123.947767, 20444.914938
 123.949434, 20443.060016
 123.951101, 20441.205095
 123.952767, 20439.350174
 123.954434, 20437.495252
 123.956101, 20435.640331
 123.957767, 20433.785410
 123.959434, 20434.021444
 123.961101, 20434.665068
 123.962767, 20435.308691
 123.964434, 20435.952315
 123.966101, 20436.595939
 123.967767, 20437.239563
 123.969434, 20437.883187
 123.971101, 20438.526811
 123.972767, 20439.170434
 123.974434, 20439.814058
 123.976101, 20440.444136
 123.977767, 20441.071573
 123.979434, 20441.699010
 123.981101, 20442.326447
 123.982767, 20442.953884
 123.984434, 20443.581321
 123.986101, 20444.208757
 123.987767, 20444.836194
 123.989434, 20445.463631
 123.991101, 20446.091068
 123.992767, 20445.728661
 123.994434, 20445.173304
 123.996101, 20444.617946
 123.997767, 20444.062589
 123.999434, 20443.507232
 124.001101, 20442.951874
 124.002767, 20442.396517
 124.004434, 20441.841159
 124.006101, 20441.285802
 124.007767, 20440.730445
 124.009434, 20441.184526
 124.011101, 20441.835376
 124.012767, 20442.486227
 124.014434, 20443.137078
 124.016101, 20443.787929
 124.017767, 20444.438779
 124.019434, 20445.089630
 124.021101, 20445.740481
 124.022767, 20446.391332
 124.024434, 20447.042182
 124.026101, 20445.633084
 124.027767, 20443.822439
 124.029434, 20442.011795
 124.031101, 20440.201150
 124.032767, 20438.390506
 124.034434, 20436.579861
 124.036101, 20434.769217
 124.037767, 20432.958572
 124.039434, 20431.147928
 124.041101, 20429.337283
 124.042767, 20429.614970
 124.044434, 20430.299735
 124.046101, 20430.984500
 124.047767, 20431.669265
 124.049434, 20432.354030
 124.051101, 20433.038795
 124.052767, 20433.723560
 124.054434, 20434.408325
 124.056101, 20435.093090
 124.057767, 20435.777855
 124.059434, 20436.441343
 124.061101, 20437.100684
 124.062767, 20437.760025
 124.064434, 20438.419365
 124.066101, 20439.078706
 124.067767, 20439.738047
 124.069434, 20440.397387
 124.071101, 20441.056728
 124.072767, 20441.716069
 124.074434, 20442.375409
 124.076101, 20440.978884
 124.077767, 20439.181608
 124.079434, 20437.384332
 124.081101, 20435.587057
 124.082767, 20433.789781
 124.084434, 20431.992505
 124.086101, 20430.195230
 124.087767, 20428.397954
 124.089434, 20426.600678
 124.091101, 20424.803403
 124.092767, 20425.101413
 124.094434, 20425.807858
 124.096101, 20426.514302
 124.097767, 20427.220747
 124.099434, 20427.927192
 124.101101, 20428.633636
 124.102767, 20429.340081
 124.104434, 20430.046526
 124.106101, 20430.752970
 124.107767, 20431.459415
 124.109434, 20432.148258
 124.111101, 20432.833670
 124.112767, 20433.519082
 124.114434, 20434.204494
 124.116101, 20434.889906
 124.117767, 20435.575318
 124.119434, 20436.260730
 124.121101, 20436.946142
 124.122767, 20437.631554
 124.124434, 20438.316966
 124.126101, 20437.912031
 124.127767, 20437.294554
 124.129434, 20436.677076
 124.131101, 20436.059599
 124.132767, 20435.442122
 124.134434, 20434.824645
 124.136101, 20434.207168
 124.137767, 20433.589691
 124.139434, 20432.972214
 124.141101, 20432.354737
 124.142767, 20432.759690
 124.144434, 20433.363945
 124.146101, 20433.968200
 124.147767, 20434.572455
 124.149434, 20435.176711
 124.151101, 20435.780966
 124.152767, 20436.385221
 124.154434, 20436.989476
 124.156101, 20437.593732
 124.157767, 20438.197987
 124.159434, 20436.739617
 124.161101, 20434.879179
 124.162767, 20433.018741
 124.164434, 20431.158303
 124.166101, 20429.297865
 124.167767, 20427.437427
 124.169434, 20425.576989
 124.171101, 20423.716551
 124.172767, 20421.856113
 124.174434, 20419.995675
 124.176101, 20420.233740
 124.177767, 20420.880866
 124.179434, 20421.527992
 124.181101, 20422.175118
 124.182767, 20422.822244
 124.184434, 20423.469370
 124.186101, 20424.116496
 124.187767, 20424.763621
 124.189434, 20425.410747
 124.191101, 20426.057873
 124.192767, 20426.690300
 124.194434, 20427.319862
 124.196101, 20427.949424
 124.197767, 20428.578985
 124.199434, 20429.208547
 124.201101, 20429.838109
 124.202767, 20430.467670
 124.204434, 20431.097232
 124.206101, 20431.726794
 124.207767, 20432.356355
 124.209434, 20431.990851
 124.211101, 20431.431378
 124.212767, 20430.871905
 124.214434, 20430.312433
 124.216101, 20429.752960
 124.217767, 20429.193487
 124.219434, 20428.634014
 124.221101, 20428.074542
 124.222767, 20427.515069
 124.224434, 20426.955596
 124.226101, 20427.408835
 124.227767, 20428.059482
 124.229434, 20428.710130
 124.231101, 20429.360777
 124.232767, 20430.011424
 124.234434, 20430.662071
 124.236101, 20431.312718
 124.237767, 20431.963365
 124.239434, 20432.614012
 124.241101, 20433.264660
 124.242767, 20431.846017
 124.244434, 20430.024008
 124.246101, 20428.201999
 124.247767, 20426.379990
 124.249434, 20424.557981
 124.251101, 20422.735971
 124.252767, 20420.913962
 124.254434, 20419.091953
 124.256101, 20417.269944
 124.257767, 20415.447935
 124.259434, 20415.722340
 124.261101, 20416.405400
 124.262767, 20417.088460
 124.264434, 20417.771519
 124.266101, 20418.454579
 124.267767, 20419.137638
 124.269434, 20419.820698
 124.271101, 20420.503758
 124.272767, 20421.186817
 124.274434, 20421.869877
 124.276101, 20422.531264
 124.277767, 20423.188427
 124.279434, 20423.845591
 124.281101, 20424.502754
 124.282767, 20425.159917
 124.284434, 20425.817080
 124.286101, 20426.474243
 124.287767, 20427.131406
 124.289434, 20427.788569
 124.291101, 20428.445732
 124.292767, 20427.038392
 124.294434, 20425.228619
 124.296101, 20423.418846
 124.297767, 20421.609073
 124.299434, 20419.799300
 124.301101, 20417.989527
 124.302767, 20416.179754
 124.304434, 20414.369981
 124.306101, 20412.560208
 124.307767, 20410.750435
 124.309434, 20411.044771
 124.311101, 20411.749261
 124.312767, 20412.453751
 124.314434, 20413.158241
 124.316101, 20413.862731
 124.317767, 20414.567221
 124.319434, 20415.271711
 124.321101, 20415.976201
 124.322767, 20416.680691
 124.324434, 20417.385181
 124.326101, 20418.072391
 124.327767, 20418.756234
 124.329434, 20419.440076
 124.331101, 20420.123918
 124.332767, 20420.807761
 124.334434, 20421.491603
 124.336101, 20422.175446
 124.337767, 20422.859288
 124.339434, 20423.543130
 124.341101, 20424.226973
 124.342767, 20423.816571
 124.344434, 20423.192869
 124.346101, 20422.569166
 124.347767, 20421.945463
 124.349434, 20421.321760
 124.351101, 20420.698058
 124.352767, 20420.074355
 124.354434, 20419.450652
 124.356101, 20418.826950
 124.357767, 20418.203247
 124.359434, 20418.606938
 124.361101, 20419.210900
 124.362767, 20419.814861
 124.364434, 20420.418823
 124.366101, 20421.022784
 124.367767, 20421.626745
 124.369434, 20422.230707
 124.371101, 20422.834668
 124.372767, 20423.438629
 124.374434, 20424.042591
 124.376101, 20422.576151
 124.377767, 20420.706129
 124.379434, 20418.836106
 124.381101, 20416.966084
 124.382767, 20415.096061
 124.384434, 20413.226039
 124.386101, 20411.356016
 124.387767, 20409.485993
 124.389434, 20407.615971
 124.391101, 20405.745948
 124.392767, 20405.983942
 124.394434, 20406.632851
 124.396101, 20407.281760
 124.397767, 20407.930668
 124.399434, 20408.579577
 124.401101, 20409.228486
 124.402767, 20409.877395
 124.404434, 20410.526304
 124.406101, 20411.175213
 124.407767, 20411.824122
 124.409434, 20412.459112
 124.411101, 20413.091389
 124.412767, 20413.723666
 124.414434, 20414.355943
 124.416101, 20414.988220
 124.417767, 20415.620497
 124.419434, 20416.252773
 124.421101, 20416.885050
 124.422767, 20417.517327
 124.424434, 20418.149604
 124.426101, 20417.783393
 124.427767, 20417.222546
 124.429434, 20416.661699
 124.431101, 20416.100852
 124.432767, 20415.540005
 124.434434, 20414.979158
 124.436101, 20414.418311
 124.437767, 20413.857465
 124.439434, 20413.296618
 124.441101, 20412.735771
 124.442767, 20413.192525
 124.444434, 20413.847641
 124.446101, 20414.502756
 124.447767, 20415.157872
 124.449434, 20415.812988
 124.451101, 20416.468103
 124.452767, 20417.123219
 124.454434, 20417.778334
 124.456101, 20418.433450
 124.457767, 20419.088565
 124.459434, 20417.666290
 124.461101, 20415.839070
 124.462767, 20414.011849
 124.464434, 20412.184628
 124.466101, 20410.357407
 124.467767, 20408.530187
 124.469434, 20406.702966
 124.471101, 20404.875745
 124.472767, 20403.048525
 124.474434, 20401.221304
 124.476101, 20401.499535
 124.477767, 20402.188183
 124.479434, 20402.876830
 124.481101, 20403.565477
 124.482767, 20404.254124
 124.484434, 20404.942772
 124.486101, 20405.631419
 124.487767, 20406.320066
 124.489434, 20407.008713
 124.491101, 20407.697361
 124.492767, 20408.364437
 124.494434, 20409.027308
 124.496101, 20409.690180
 124.497767, 20410.353051
 124.499434, 20411.015923
 124.501101, 20411.678794
 124.502767, 20412.341666
 124.504434, 20413.004537
 124.506101, 20413.667409
 124.507767, 20414.330280
 124.509434, 20412.920008
 124.511101, 20411.105619
 124.512767, 20409.291229
 124.514434, 20407.476839
 124.516101, 20405.662450
 124.517767, 20403.848060
 124.519434, 20402.033670
 124.521101, 20400.219281
 124.522767, 20398.404891
 124.524434, 20396.590501
 124.526101, 20396.888763
 124.527767, 20397.598844
 124.529434, 20398.308925
 124.531101, 20399.019006
 124.532767, 20399.729087
 124.534434, 20400.439168
 124.536101, 20401.149249
 124.537767, 20401.859330
 124.539434, 20402.569411
 124.541101, 20403.279492
 124.542767, 20403.971896
 124.544434, 20404.660855
 124.546101, 20405.349813
 124.547767, 20406.038772
 124.549434, 20406.727730
 124.551101, 20407.416689
 124.552767, 20408.105647
 124.554434, 20408.794606
 124.556101, 20409.483564
 124.557767, 20410.172523
 124.559434, 20409.762261
 124.561101, 20409.137728
 124.562767, 20408.513196
 124.564434, 20407.888663
 124.566101, 20407.264130
 124.567767, 20406.639597
 124.569434, 20406.015064
 124.571101, 20405.390531
 124.572767, 20404.765998
 124.574434, 20404.141466
 124.576101, 20404.548066
 124.577767, 20405.155666
 124.579434, 20405.763265
 124.581101, 20406.370865
 124.582767, 20406.978464
 124.584434, 20407.586064
 124.586101, 20408.193663
 124.587767, 20408.801263
 124.589434, 20409.408862
 124.591101, 20410.016461
 124.592767, 20408.544370
 124.594434, 20406.666885
 124.596101, 20404.789399
 124.597767, 20402.911914
 124.599434, 20401.034428
 124.601101, 20399.156943
 124.602767, 20397.279457
 124.604434, 20395.401972
 124.606101, 20393.524486
 124.607767, 20391.647001
 124.609434, 20391.885674
 124.611101, 20392.536849
 124.612767, 20393.188025
 124.614434, 20393.839201
 124.616101, 20394.490376
 124.617767, 20395.141552
 124.619434, 20395.792727
 124.621101, 20396.443903
 124.622767, 20397.095079
 124.624434, 20397.746254
 124.626101, 20398.382862
 124.627767, 20399.016629
 124.629434, 20399.650397
 124.631101, 20400.284164
 124.632767, 20400.917932
 124.634434, 20401.551699
 124.636101, 20402.185467
 124.637767, 20402.819235
 124.639434, 20403.453002
 124.641101, 20404.086770
 124.642767, 20403.717276
 124.644434, 20403.152217
 124.646101, 20402.587158
 124.647767, 20402.022099
 124.649434, 20401.457040
 124.651101, 20400.891981
 124.652767, 20400.326922
 124.654434, 20399.761863
 124.656101, 20399.196804
 124.657767, 20398.631745
 124.659434, 20399.088123
 124.661101, 20399.743610
 124.662767, 20400.399097
 124.664434, 20401.054584
 124.666101, 20401.710071
 124.667767, 20402.365557
 124.669434, 20403.021044
 124.671101, 20403.676531
 124.672767, 20404.332018
 124.674434, 20404.987505
 124.676101, 20403.556572
 124.677767, 20401.718933
 124.679434, 20399.881295
 124.681101, 20398.043656
 124.682767, 20396.206017
 124.684434, 20394.368379
 124.686101, 20392.530740
 124.687767, 20390.693102
 124.689434, 20388.855463
 124.691101, 20387.017824
 124.692767, 20387.294227
 124.694434, 20387.982719
 124.696101, 20388.671212
 124.697767, 20389.359704
 124.699434, 20390.048196
 124.701101, 20390.736689
 124.702767, 20391.425181
 124.704434, 20392.113674
 124.706101, 20392.802166
 124.707767, 20393.490659
 124.709434, 20394.157461
 124.711101, 20394.820035
 124.712767, 20395.482609
 124.714434, 20396.145183
 124.716101, 20396.807757
 124.717767, 20397.470331
 124.719434, 20398.132906
 124.721101, 20398.795480
 124.722767, 20399.458054
 124.724434, 20400.120628
 124.726101, 20398.701450
 124.727767, 20396.876476
 124.729434, 20395.051503
 124.731101, 20393.226529
 124.732767, 20391.401555
 124.734434, 20389.576582
 124.736101, 20387.751608
 124.737767, 20385.926634
 124.739434, 20384.101661
 124.741101, 20382.276687
 124.742767, 20382.573382
 124.744434, 20383.283655
 124.746101, 20383.993927
 124.747767, 20384.704199
 124.749434, 20385.414472
 124.751101, 20386.124744
 124.752767, 20386.835016
 124.754434, 20387.545288
 124.756101, 20388.255561
 124.757767, 20388.965833
 124.759434, 20389.658694
 124.761101, 20390.348161
 124.762767, 20391.037628
 124.764434, 20391.727095
 124.766101, 20392.416562
 124.767767, 20393.106029
 124.769434, 20393.795496
 124.771101, 20394.484963
 124.772767, 20395.174430
 124.774434, 20395.863898
 124.776101, 20395.450014
 124.777767, 20394.821054
 124.779434, 20394.192095
 124.781101, 20393.563135
 124.782767, 20392.934176
 124.784434, 20392.305216
 124.786101, 20391.676256
 124.787767, 20391.047297
 124.789434, 20390.418337
 124.791101, 20389.789378
 124.792767, 20390.196340
 124.794434, 20390.805235
 124.796101, 20391.414130
 124.797767, 20392.023025
 124.799434, 20392.631920
 124.801101, 20393.240815
 124.802767, 20393.849710
 124.804434, 20394.458605
 124.806101, 20395.067500
 124.807767, 20395.676394
 124.809434, 20394.197354
 124.811101, 20392.311313
 124.812767, 20390.425272
 124.814434, 20388.539230
 124.816101, 20386.653189
 124.817767, 20384.767148
 124.819434, 20382.881106
 124.821101, 20380.995065
 124.822767, 20379.109024
 124.824434, 20377.222983
 124.826101, 20377.462397
 124.827767, 20378.116127
 124.829434, 20378.769857
 124.831101, 20379.423587
 124.832767, 20380.077317
 124.834434, 20380.731047
 124.836101, 20381.384778
 124.837767, 20382.038508
 124.839434, 20382.692238
 124.841101, 20383.345968
 124.842767, 20383.995611
 124.844434, 20384.644457
 124.846101, 20385.293304
 124.846511, 20385.453104
 124.848178, 20414.997589
 124.849844, 20444.542075
 124.851511, 20474.086561
 124.853178, 20503.631046
 124.854844, 20533.175532
 124.856511, 20562.720018
 124.858178, 20590.828764
 124.859844, 20603.106748
 124.861511, 20615.384731
 124.863178, 20627.662714
 124.864844, 20639.940698
 124.866511, 20652.218681
 124.868178, 20664.496664
 124.869844, 20676.774648
 124.871511, 20689.052631
 124.873178, 20701.330614
 124.874844, 20714.013095
 124.876511, 20731.155654
 124.878178, 20748.298214
 124.879844, 20765.440773
 124.881511, 20782.583332
 124.883178, 20799.725891
 124.884844, 20816.868450
 124.886511, 20834.011009
 124.888178, 20851.153569
 124.889844, 20868.296128
 124.891511, 20885.406315
 124.893178, 20902.159565
 124.894844, 20918.912814
 124.896511, 20935.666064
 124.898178, 20952.419314
 124.899844, 20969.172564
 124.901134, 20982.133337
 124.902801, 21398.078233
 124.904467, 21814.023129
 124.906134, 22229.968025
 124.907801, 22645.912921
 124.909467, 22702.959344
 124.911134, 22708.631032
 124.912801, 22714.302720
 124.914467, 22719.974408
 124.916134, 22725.646097
 124.917801, 22731.317785
 124.919467, 22736.989473
 124.921134, 22742.661161
 124.922801, 22748.332850
 124.924467, 22754.004538
 124.926134, 22871.184467
 124.927801, 23004.326310
 124.929467, 23137.468153
 124.931134, 23270.609996
 124.932801, 23403.751839
 124.934467, 23536.893682
 124.936134, 23670.035525
 124.937801, 23803.177368
 124.939467, 23936.319210
 124.941134, 24069.461053
 124.942801, 24094.403851
 124.944467, 24103.858432
 124.946134, 24113.313013
 124.947801, 24122.767595
 124.949467, 24132.222176
 124.951134, 24141.676757
 124.952801, 24151.131338
 124.954467, 24160.585920
 124.956134, 24170.040501
 124.957801, 24179.495082
 124.959467, 18955.689746
 124.961134, 12982.766317
 124.962081, 9588.238778
 124.963748, 9441.164570
 124.965414, 9294.090362
 124.967081, 9147.016154
 124.968748, 8999.941946
 124.970414, 8852.867738
 124.972081, 8705.793530
 124.973748, 8558.719322
 124.975414, 8442.355367
 124.977081, 8364.589120
 124.978748, 8286.822873
 124.980414, 8209.056626
 124.982081, 8131.290379
 124.983748, 8053.524131
 124.985414, 7975.757884
 124.987081, 7897.991637
 124.988748, 7820.225390
 124.990414, 7742.459143
 124.992081, 7634.629420
 124.993748, 7489.014882
 124.995414, 7343.400343
 124.997081, 7197.785805
 124.998748, 7052.171266
 125.000414, 6906.556728
 125.002081, 6760.942189
 125.003748, 6615.327651
 125.005414, 6473.460040
 125.007081, 6333.163183
 125.008748, 6192.866325
 125.010414, 6052.569467
 125.012081, 5912.272610
 125.013748, 5771.975752
 125.015414, 5631.678894
 125.017081, 5500.821434
 125.018748, 5375.224368
 125.020414, 5249.627302
 125.022081, 5124.030235
 125.023748, 4998.433169
 125.025414, 4872.836103
 125.027081, 4747.239037
 125.028748, 4621.641971
 125.030414, 4496.044904
 125.032081, 4370.447838
 125.033748, 4256.004669
 125.035414, 4147.777352
 125.037081, 4039.550035
 125.038748, 3931.322717
 125.040414, 3823.095400
 125.042081, 3714.868083
 125.043748, 3606.640766
 125.045414, 3498.413449
 125.047081, 3390.186131
 125.048748, 3281.958814
 125.050414, 3184.279288
 125.052081, 3092.477843
 125.053748, 3000.676399
 125.055414, 2908.874954
 125.057081, 2817.073509
 125.058748, 2725.272064
 125.060414, 2633.470619
 125.062081, 2541.669174
 125.063748, 2449.867730
 125.065414, 2358.066285
 125.067081, 2275.964573
 125.068748, 2199.268335
 125.070414, 2122.572097
 125.072081, 2045.875860
 125.073748, 1969.179622
 125.075414, 1892.483384
 125.077081, 1815.787147
 125.078748, 1739.090909
 125.080414, 1662.394671
 125.082081, 1585.698434
 125.083748, 1518.936574
 125.085414, 1457.710953
 125.087081, 1396.485331
 125.088748, 1335.259709
 125.090414, 1274.034087
 125.092081, 1212.808466
 125.093748, 1151.582844
 125.095414, 1090.357222
 125.097081, 1029.131600
 125.098748,  967.905979
 125.100414,  916.656590
 125.102081,  870.966763
 125.103748,  825.276937
 125.105414,  779.587111
 125.107081,  733.897284
 125.108748,  688.207458
 125.110414,  642.517631
 125.112081,  596.827805
 125.113748,  551.137979
 125.115414,  505.448152
 125.117081,  469.561814
 125.118748,  439.138771
 125.120414,  408.715727
 125.122081,  378.292684
 125.123748,  347.869641
 125.125414,  317.446597
 125.127081,  287.023554
 125.128748,  256.600511
 125.130414,  226.177467
 125.132081,  195.754424
 125.133748,  174.762014
 125.135414,  159.025115
 125.137081,  143.288216
 125.138748,  127.551317
 125.140414,  111.814418
 125.142081,   96.077519
 125.143748,   80.340619
 125.145414,   64.603720
 125.147081,   48.866821
 125.148748,   33.129922
 125.150414,   24.749370
 125.152081,   20.468368
 125.153748,   16.187367
 125.155414,   11.906366
 125.157081,    7.625364
 125.158748,    3.344363
 125.160050,    0.000053
