Time, Forces
   0.000000, 73982.742174
   0.001667, 73903.141671
   0.003333, 73823.924058
   0.005000, 73744.763497
   0.006667, 73665.602937
   0.008333, 73586.442376
   0.010000, 73507.281815
   0.011667, 73428.121254
   0.013333, 73348.960693
   0.015000, 73269.800132
   0.016667, 73190.639571
   0.018333, 73111.479010
   0.020000, 73033.168243
   0.021667, 72954.963580
   0.023333, 72876.758918
   0.025000, 72798.554255
   0.026667, 72720.349592
   0.028333, 72642.144930
   0.030000, 72563.940267
   0.031667, 72485.735604
   0.033333, 72407.530942
   0.035000, 72329.326279
   0.036667, 72251.997270
   0.038333, 72174.777594
   0.040000, 72097.557919
   0.041667, 72020.338243
   0.043333, 71943.118567
   0.045000, 71865.898892
   0.046667, 71788.679216
   0.048333, 71711.459541
   0.050000, 71634.239865
   0.051667, 71557.020189
   0.053333, 71480.700339
   0.055000, 71404.492840
   0.056667, 71328.285341
   0.058333, 71252.077842
   0.060000, 71175.870344
   0.061667, 71099.662845
   0.063333, 71023.455346
   0.065000, 70947.247847
   0.066667, 70871.040348
   0.068333, 70794.832850
   0.070000, 70719.547649
   0.071667, 70644.377606
   0.073333, 70569.207563
   0.075000, 70494.037520
   0.076667, 70418.867477
   0.078333, 70343.697434
   0.080000, 70268.527392
   0.081667, 70193.357349
   0.083333, 70118.187306
   0.085000, 70043.017263
   0.086667, 69944.666310
   0.088333, 69843.421003
   0.090000, 69742.175696
   0.091667, 69640.930389
   0.093333, 69539.685083
   0.095000, 69438.439776
   0.096667, 69337.194469
   0.098333, 69235.949162
   0.100000, 69134.703855
   0.101667, 69033.458548
   0.103333, 68927.946724
   0.105000, 68821.902185
   0.106667, 68715.857646
   0.108333, 68609.813107
   0.110000, 68503.768569
   0.111667, 68397.724030
   0.113333, 68291.679491
   0.115000, 68185.634952
   0.116667, 68079.590413
   0.118333, 67973.545874
   0.120000, 67869.418806
   0.121667, 67765.531152
   0.123333, 67661.643498
   0.125000, 67557.755844
   0.126667, 67453.868190
   0.128333, 67349.980536
   0.130000, 67246.092883
   0.131667, 67142.205229
   0.133333, 67038.317575
   0.135000, 66934.429921
   0.136667, 66832.463985
   0.138333, 66730.737994
   0.140000, 66629.012004
   0.141667, 66527.286013
   0.143333, 66425.560022
   0.145000, 66323.834031
   0.146667, 66222.108040
   0.148333, 66120.382049
   0.150000, 66018.656058
   0.151667, 65916.930068
   0.153333, 65817.127259
   0.155000, 65717.564577
   0.156667, 65618.001896
   0.158333, 65518.439215
   0.160000, 65418.876533
   0.161667, 65319.313852
   0.163333, 65219.751170
   0.165000, 65120.188489
   0.166667, 65020.625808
   0.168333, 64921.063126
   0.170000, 64823.422419
   0.171667, 64726.021688
   0.173333, 64628.620956
   0.175000, 64531.220225
   0.176667, 64433.819494
   0.178333, 64336.418763
   0.180000, 64239.018032
   0.181667, 64141.617301
   0.183333, 64044.216570
   0.185000, 63946.815839
   0.186667, 63817.763687
   0.188333, 63684.759558
   0.190000, 63551.755429
   0.191667, 63418.751300
   0.193333, 63285.747171
   0.195000, 63152.743042
   0.196667, 63019.738913
   0.198333, 62886.734784
   0.200000, 62753.730655
   0.201667, 62620.726527
   0.203333, 62489.610132
   0.205000, 62358.729439
   0.206667, 62227.848746
   0.208333, 62096.968053
   0.210000, 61966.087360
   0.211667, 61835.206667
   0.213333, 61704.325974
   0.215000, 61573.445281
   0.216667, 61442.564588
   0.218333, 61311.683895
   0.220000, 61184.285059
   0.221667, 61057.320964
   0.223333, 60930.356870
   0.225000, 60803.392776
   0.226667, 60676.428681
   0.228333, 60549.464587
   0.230000, 60422.500492
   0.231667, 60295.536398
   0.233333, 60168.572304
   0.235000, 60041.608209
   0.236667, 59918.066834
   0.238333, 59794.952817
   0.240000, 59671.838800
   0.241667, 59548.724783
   0.243333, 59425.610766
   0.245000, 59302.496749
   0.246667, 59179.382732
   0.248333, 59056.268715
   0.250000, 58933.154698
   0.251667, 58810.040681
   0.253333, 58690.287945
   0.255000, 58570.954897
   0.256667, 58451.621849
   0.258333, 58332.288800
   0.260000, 58212.955752
   0.261667, 58093.622703
   0.263333, 57974.289655
   0.265000, 57854.956606
   0.266667, 57735.623558
   0.268333, 57616.290509
   0.270000, 57500.255294
   0.271667, 57384.631843
   0.273333, 57269.008393
   0.275000, 57153.384942
   0.276667, 57037.761492
   0.278333, 56922.138041
   0.280000, 56806.514591
   0.281667, 56690.891140
   0.283333, 56575.267689
   0.285000, 56459.644239
   0.286667, 56347.335640
   0.288333, 56235.440932
   0.290000, 56123.546224
   0.291667, 56011.651516
   0.293333, 55899.756808
   0.295000, 55787.862099
   0.296667, 55675.967391
   0.298333, 55564.072683
   0.300000, 55452.177975
   0.301667, 55340.283267
   0.303333, 55232.624144
   0.305000, 55125.493875
   0.306667, 55018.363605
   0.308333, 54911.233335
   0.310000, 54804.103066
   0.311667, 54696.972796
   0.312642, 54634.282482
   0.314309, 54528.858589
   0.315975, 54423.434696
   0.317642, 54318.010803
   0.319309, 54214.315833
   0.320975, 54112.538087
   0.322642, 54010.760341
   0.324309, 53908.982594
   0.325975, 53807.204848
   0.327642, 53705.427101
   0.329309, 53603.649355
   0.330975, 53501.871609
   0.332642, 53400.093862
   0.334309, 53298.316116
   0.335975, 53199.440358
   0.337642, 53103.782647
   0.339309, 53008.124936
   0.340975, 52912.467225
   0.342642, 52816.809514
   0.344309, 52721.151803
   0.345975, 52625.494092
   0.347642, 52529.836381
   0.349309, 52434.178670
   0.350975, 52338.520960
   0.352642, 52246.125713
   0.354309, 52157.348249
   0.355975, 52068.570786
   0.357642, 51979.793322
   0.359309, 51891.015859
   0.360975, 51802.238395
   0.362642, 51713.460932
   0.364309, 51624.683468
   0.365975, 51535.906005
   0.367642, 51447.128541
   0.368518, 51400.447428
   0.370185, 51345.067865
   0.371852, 51289.688302
   0.373518, 51234.308739
   0.375185, 51178.929176
   0.376852, 51123.549612
   0.378518, 51068.170049
   0.380185, 51012.790486
   0.381852, 50957.410923
   0.383518, 50902.031360
   0.385185, 50846.651797
   0.386852, 50817.734439
   0.388518, 50788.817081
   0.390185, 50759.899723
   0.391852, 50730.982365
   0.393518, 50702.065007
   0.395185, 50687.311376
   0.396852, 50672.557744
   0.398518, 50657.804112
   0.400185, 50643.050480
   0.401852, 50628.296849
   0.403518, 50628.414058
   0.405185, 50628.531267
   0.406852, 50628.648476
   0.408518, 50628.765685
   0.410185, 50628.882894
   0.410185, 32286.622934
   1.605400, 31388.999276
   2.825139, 30548.958408
   4.084250, 29358.645968
   5.433948, 27517.053159
   6.920962, 25809.260397
   8.567151, 24263.042562
  10.405942, 22777.171833
  12.496124, 21324.660975
  14.982109, 19670.252993
  14.982109, 15440.528957
  15.801212, 15437.085129
  16.620315, 15433.641861
  17.439418, 15430.199152
  18.258522, 15426.757003
  19.077625, 15423.315413
  19.896728, 15419.874383
  20.715832, 15416.433913
  21.534935, 15412.994002
  22.354038, 15409.554650
  23.173141, 15406.115858
  23.992245, 15402.677626
  24.811348, 15399.239952
  25.630451, 15395.802839
  26.449554, 15392.366285
  27.268658, 15388.930291
  28.087761, 15385.494856
  28.906864, 15382.059980
  29.725967, 15378.625665
  30.545071, 15375.191908
  31.364174, 15371.758712
  32.183277, 15368.326074
  33.002380, 15364.893997
  33.821484, 15361.462479
  34.640587, 15358.031520
  35.459690, 15354.601121
  36.278793, 15351.171281
  37.097897, 15347.742001
  37.917000, 15344.313281
  38.736103, 15340.885120
  38.736103, 7207.615518
  39.896032, 6817.964967
  41.058764, 6549.401669
  42.220084, 6237.923906
  43.376236, 5884.495748
  44.524976, 5500.682236
  45.661995, 5061.356288
  46.783206, 4562.227239
  47.900611, 4186.673444
  49.010509, 3759.117623
  49.010509, 31584.172372
  49.589924, 31149.308231
  50.174964, 30729.210663
  50.765469, 30324.470291
  51.364214, 29769.719226
  51.981985, 28832.251445
  52.628108, 27910.527684
  53.305596, 27005.191090
  54.016769, 26157.998261
  54.763442, 25353.085041
  54.763442, 12337.470725
  56.615618, 12326.701586
  58.468603, 12315.936594
  60.322397, 12305.175758
  62.177002, 12294.419084
  64.032418, 12283.666578
  65.888646, 12272.918250
  67.745686, 12262.174104
  69.603540, 12251.434149
  71.462208, 12240.698390
  71.462208, 5900.485245
  72.108615, 6006.297755
  72.744854, 5661.338183
  73.383630, 5540.002481
  74.025084, 5420.829234
  74.669359, 5304.026695
  75.316244, 5183.130173
  75.965602, 5059.387786
  76.616971, 4926.665701
  77.269434, 4776.102069
  77.269434, 12213.964904
  82.269434, 12185.564726
  87.269434, 12157.220024
  92.269434, 12129.200004
  97.269434, 12101.948120
 102.269434, 12074.747752
 107.269434, 12047.598846
 112.269434, 12020.501349
 117.269434, 11993.455205
 122.269434, 11966.460362
 122.269434, 10092.422815
 122.271101, 10092.422815
 122.272767, 10092.422815
 122.274434, 10092.422815
 122.276101, 10092.422815
 122.277767, 10092.422815
 122.279434, 10092.422815
 122.281101, 10092.422815
 122.282767, 10092.422815
 122.284434, 10092.422815
 122.286101, 10092.422815
 122.287767, 10092.422815
 122.289434, 10092.422815
 122.291101, 10092.422815
 122.292767, 10092.422815
 122.294434, 10092.422815
 122.296101, 10092.422815
 122.297767, 10092.422815
 122.299434, 10092.422815
 122.301101, 10092.422815
 122.302767, 10092.422815
 122.304434, 10092.422815
 122.306101, 10092.422815
 122.307767, 10092.422815
 122.309434, 10092.422815
 122.311101, 10092.422815
 122.312767, 10092.422815
 122.314434, 10092.422815
 122.316101, 10092.422815
 122.317767, 10092.422815
 122.319434, 10092.422815
 122.321101, 10092.422815
 122.322767, 10092.422815
 122.324434, 10092.422815
 122.326101, 10092.422815
 122.327767, 10092.422815
 122.329434, 10092.422815
 122.331101, 10092.422815
 122.332767, 10092.422815
 122.334434, 10092.422815
 122.336101, 10092.422815
 122.337767, 10092.422815
 122.339434, 10092.422815
 122.341101, 10092.422815
 122.342767, 10092.422815
 122.344434, 10092.422815
 122.346101, 10092.422815
 122.347767, 10092.422815
 122.349434, 10092.422815
 122.351101, 10092.422815
 122.352767, 10092.422815
 122.354434, 10092.422815
 122.356101, 10092.422815
 122.357767, 10092.422815
 122.359434, 10092.422815
 122.361101, 10092.422815
 122.362767, 10092.422815
 122.364434, 10092.422815
 122.366101, 10092.422815
 122.367767, 10092.422815
 122.369434, 10092.422815
 122.371101, 10092.422815
 122.372767, 10092.422815
 122.374434, 10092.422815
 122.376101, 10092.422815
 122.377767, 10092.422815
 122.379434, 10092.422815
 122.381101, 10092.422815
 122.382767, 10092.422815
 122.384434, 10092.422815
 122.386101, 10092.422815
 122.387767, 10092.422815
 122.389434, 10092.422815
 122.391101, 10092.422815
 122.392767, 10092.422815
 122.394434, 10092.422815
 122.396101, 10092.422815
 122.397767, 10092.422815
 122.399434, 10092.422815
 122.401101, 10092.422815
 122.402767, 10092.422815
 122.404434, 10092.422815
 122.406101, 10092.422815
 122.407767, 10092.422815
 122.409434, 10092.422815
 122.411101, 10092.422815
 122.412767, 10092.422815
 122.414434, 10092.422815
 122.416101, 10092.422815
 122.417767, 10092.422815
 122.419434, 10092.422815
 122.421101, 10092.422815
 122.422767, 10092.422815
 122.424434, 10092.422815
 122.426101, 10092.422815
 122.427767, 10092.422815
 122.429434, 10092.422815
 122.431101, 10092.422815
 122.432767, 10092.422815
 122.434434, 10092.422815
 122.436101, 10092.422815
 122.437767, 10092.422815
 122.439434, 10092.422815
 122.441101, 10092.422815
 122.442767, 10092.422815
 122.444434, 10092.422815
 122.446101, 10092.422815
 122.447767, 10092.422815
 122.449434, 10092.422815
 122.451101, 10092.422815
 122.452767, 10092.422815
 122.454434, 10092.422815
 122.456101, 10092.422815
 122.457767, 10092.422815
 122.459434, 10092.422815
 122.461101, 10092.422815
 122.462767, 10092.422815
 122.464434, 10092.422815
 122.466101, 10092.422815
 122.467767, 10092.422815
 122.469434, 10092.422815
 122.471101, 10092.422815
 122.472767, 10092.422815
 122.474434, 10092.422815
 122.476101, 10092.422815
 122.477767, 10092.422815
 122.479434, 10092.422815
 122.481101, 10092.422815
 122.482767, 10092.422815
 122.484434, 10092.422815
 122.486101, 10092.422815
 122.487767, 10092.422815
 122.489434, 10092.422815
 122.491101, 10092.422815
 122.492767, 10092.422815
 122.494434, 10092.422815
 122.496101, 10092.422815
 122.497767, 10092.422815
 122.499434, 10092.422815
 122.501101, 10092.422815
 122.502767, 10092.422815
 122.504434, 10092.422815
 122.506101, 10092.422815
 122.507767, 10092.422815
 122.509434, 10092.422815
 122.511101, 10092.422815
 122.512767, 10092.422815
 122.514434, 10092.422815
 122.516101, 10092.422815
 122.517767, 10092.422815
 122.519434, 10092.422815
 122.521101, 10092.422815
 122.522767, 10092.422815
 122.524434, 10092.422815
 122.526101, 10092.422815
 122.527767, 10092.422815
 122.529434, 10092.422815
 122.531101, 10092.422815
 122.532767, 10092.422815
 122.534434, 10092.422815
 122.536101, 10092.422815
 122.537767, 10092.422815
 122.539434, 10092.422815
 122.541101, 10092.422815
 122.542767, 10092.422815
 122.544434, 10092.422815
 122.546101, 10092.422815
 122.547767, 10092.422815
 122.549434, 10092.422815
 122.551101, 10092.422815
 122.552767, 10092.422815
 122.554434, 10092.422815
 122.556101, 10092.422815
 122.557767, 10092.422815
 122.559434, 10092.422815
 122.561101, 10092.422815
 122.562767, 10092.422815
 122.564434, 10092.422815
 122.566101, 10092.422815
 122.567767, 10092.422815
 122.569434, 10092.422815
 122.571101, 10092.422815
 122.572767, 10092.422815
 122.574434, 10092.422815
 122.576101, 10092.422815
 122.577767, 10092.422815
 122.579434, 10092.422815
 122.581101, 10092.422815
 122.582767, 10092.422815
 122.584434, 10092.422815
 122.586101, 10092.422815
 122.587767, 10092.422815
 122.589434, 10092.422815
 122.591101, 10092.422815
 122.592767, 10092.422815
 122.594434, 10092.422815
 122.596101, 10092.422815
 122.597767, 10092.422815
 122.599434, 10092.422815
 122.601101, 10092.422815
 122.602767, 10092.422815
 122.604434, 10092.422815
 122.606101, 10092.422815
 122.607767, 10092.422815
 122.609434, 10092.422815
 122.611101, 10092.422815
 122.612767, 10092.422815
 122.614434, 10092.422815
 122.616101, 10092.422815
 122.617767, 10092.422815
 122.619434, 10092.422815
 122.621101, 10092.422815
 122.622767, 10092.422815
 122.624434, 10092.422815
 122.626101, 10092.422815
 122.627767, 10092.422815
 122.629434, 10092.422815
 122.631101, 10092.422815
 122.632767, 10092.422815
 122.634434, 10092.422815
 122.636101, 10092.422815
 122.637767, 10092.422815
 122.639434, 10092.422815
 122.641101, 10092.422815
 122.642767, 10092.422815
 122.644434, 10092.422815
 122.646101, 10092.422815
 122.647767, 10092.422815
 122.649434, 10092.422815
 122.651101, 10092.422815
 122.652767, 10092.422815
 122.654434, 10092.422815
 122.656101, 10092.422815
 122.657767, 10092.422815
 122.659434, 10092.422815
 122.661101, 10092.422815
 122.662767, 10092.422815
 122.664434, 10092.422815
 122.666101, 10092.422815
 122.667767, 10092.422815
 122.669434, 10092.422815
 122.671101, 10092.422815
 122.672767, 10092.422815
 122.674434, 10092.422815
 122.676101, 10092.422815
 122.677767, 10092.422815
 122.679434, 10092.422815
 122.681101, 10092.422815
 122.682767, 10092.422815
 122.684434, 10092.422815
 122.686101, 10092.422815
 122.687767, 10092.422815
 122.689434, 10092.422815
 122.691101, 10092.422815
 122.692767, 10092.422815
 122.694434, 10092.422815
 122.696101, 10092.422815
 122.697767, 10092.422815
 122.699434, 10092.422815
 122.701101, 10092.422815
 122.702767, 10092.422815
 122.704434, 10092.422815
 122.706101, 10092.422815
 122.707767, 10092.422815
 122.709434, 10092.422815
 122.711101, 10092.422815
 122.712767, 10092.422815
 122.714434, 10092.422815
 122.716101, 10092.422815
 122.717767, 10092.422815
 122.719434, 10092.422815
 122.721101, 10092.422815
 122.722767, 10092.422815
 122.724434, 10092.422815
 122.726101, 10092.422815
 122.727767, 10092.422815
 122.729434, 10092.422815
 122.731101, 10092.422815
 122.732767, 10092.422815
 122.734434, 10092.422815
 122.736101, 10092.422815
 122.737767, 10092.422815
 122.739434, 10092.422815
 122.741101, 10092.422815
 122.742767, 10092.422815
 122.744434, 10092.422815
 122.746101, 10092.422815
 122.747767, 10092.422815
 122.749434, 10092.422815
 122.751101, 10092.422815
 122.752767, 10092.422815
 122.754434, 10092.422815
 122.756101, 10092.422815
 122.757767, 10092.422815
 122.759434, 10092.422815
 122.761101, 10092.422815
 122.762767, 10092.422815
 122.764434, 10092.422815
 122.766101, 10092.422815
 122.767767, 10092.422815
 122.769434, 10092.422815
 122.771101, 10092.422815
 122.772767, 10092.422815
 122.774434, 10092.422815
 122.776101, 10092.422815
 122.777767, 10092.422815
 122.779434, 10092.422815
 122.781101, 10092.422815
 122.782767, 10092.422815
 122.784434, 10092.422815
 122.786101, 10092.422815
 122.787767, 10092.422815
 122.789434, 10092.422815
 122.791101, 10092.422815
 122.792767, 10092.422815
 122.794434, 10092.422815
 122.796101, 10092.422815
 122.797767, 10092.422815
 122.799434, 10092.422815
 122.801101, 10092.422815
 122.802767, 10092.422815
 122.804434, 10092.422815
 122.806101, 10092.422815
 122.807767, 10092.422815
 122.809434, 10092.422815
 122.811101, 10092.422815
 122.812767, 10092.422815
 122.814434, 10092.422815
 122.816101, 10092.422815
 122.817767, 10092.422815
 122.819434, 10092.422815
 122.821101, 10092.422815
 122.822767, 10092.422815
 122.824434, 10092.422815
 122.826101, 10092.422815
 122.827767, 10092.422815
 122.829434, 10092.422815
 122.831101, 10092.422815
 122.832767, 10092.422815
 122.834434, 10092.422815
 122.836101, 10092.422815
 122.837767, 10092.422815
 122.839434, 10092.422815
 122.841101, 10092.422815
 122.842767, 10092.422815
 122.844434, 10092.422815
 122.846101, 10092.422815
 122.847767, 10092.422815
 122.849434, 10092.422815
 122.851101, 10092.422815
 122.852767, 10092.422815
 122.854434, 10092.422815
 122.856101, 10092.422815
 122.857767, 10092.422815
 122.859434, 10092.422815
 122.861101, 10092.422815
 122.862767, 10092.422815
 122.864434, 10092.422815
 122.866101, 10092.422815
 122.867767, 10092.422815
 122.869434, 10092.422815
 122.871101, 10092.422815
 122.872767, 10092.422815
 122.874434, 10092.422815
 122.876101, 10092.422815
 122.877767, 10092.422815
 122.879434, 10092.422815
 122.881101, 10092.422815
 122.882767, 10092.422815
 122.884434, 10092.422815
 122.886101, 10092.422815
 122.887767, 10092.422815
 122.889434, 10092.422815
 122.891101, 10092.422815
 122.892767, 10092.422815
 122.894434, 10092.422815
 122.896101, 10092.422815
 122.897767, 10092.422815
 122.899434, 10092.422815
 122.901101, 10092.422815
 122.902767, 10092.422815
 122.904434, 10092.422815
 122.906101, 10092.422815
 122.907767, 10092.422815
 122.909434, 10092.422815
 122.911101, 10092.422815
 122.912767, 10092.422815
 122.914434, 10092.422815
 122.916101, 10092.422815
 122.917767, 10092.422815
 122.919434, 10092.422815
 122.921101, 10092.422815
 122.922767, 10092.422815
 122.924434, 10092.422815
 122.926101, 10092.422815
 122.927767, 10092.422815
 122.929434, 10092.422815
 122.931101, 10092.422815
 122.932767, 10092.422815
 122.934434, 10092.422815
 122.936101, 10092.422815
 122.937767, 10092.422815
 122.939434, 10092.422815
 122.941101, 10092.422815
 122.942767, 10092.422815
 122.944434, 10092.422815
 122.946101, 10092.422815
 122.947767, 10092.422815
 122.949434, 10092.422815
 122.951101, 10092.422815
 122.952767, 10092.422815
 122.954434, 10092.422815
 122.956101, 10092.422815
 122.957767, 10092.422815
 122.959434, 10092.422815
 122.961101, 10092.422815
 122.962767, 10092.422815
 122.964434, 10092.422815
 122.966101, 10092.422815
 122.967767, 10092.422815
 122.969434, 10092.422815
 122.971101, 10092.422815
 122.972767, 10092.422815
 122.974434, 10092.422815
 122.976101, 10092.422815
 122.977767, 10092.422815
 122.979434, 10092.422815
 122.981101, 10092.422815
 122.982767, 10092.422815
 122.984434, 10092.422815
 122.986101, 10092.422815
 122.987767, 10092.422815
 122.989434, 10092.422815
 122.991101, 10092.422815
 122.992767, 10092.422815
 122.994434, 10092.422815
 122.996101, 10092.422815
 122.997767, 10092.422815
 122.999434, 10092.422815
 123.001101, 10092.422815
 123.002767, 10092.422815
 123.004434, 10092.422815
 123.006101, 10092.422815
 123.007767, 10092.422815
 123.009434, 10092.422815
 123.011101, 10092.422815
 123.012767, 10092.422815
 123.014434, 10092.422815
 123.016101, 10092.422815
 123.017767, 10092.422815
 123.019434, 10092.422815
 123.021101, 10092.422815
 123.022767, 10092.422815
 123.024434, 10092.422815
 123.026101, 10092.422815
 123.027767, 10092.422815
 123.029434, 10092.422815
 123.031101, 10092.422815
 123.032767, 10092.422815
 123.034434, 10092.422815
 123.036101, 10092.422815
 123.037767, 10092.422815
 123.039434, 10092.422815
 123.041101, 10092.422815
 123.042767, 10092.422815
 123.044434, 10092.422815
 123.046101, 10092.422815
 123.047767, 10092.422815
 123.049434, 10092.422815
 123.051101, 10092.422815
 123.052767, 10092.422815
 123.054434, 10092.422815
 123.056101, 10092.422815
 123.057767, 10092.422815
 123.059434, 10092.422815
 123.061101, 10092.422815
 123.062767, 10092.422815
 123.064434, 10092.422815
 123.066101, 10092.422815
 123.067767, 10092.422815
 123.069434, 10092.422815
 123.071101, 10092.422815
 123.072767, 10092.422815
 123.074434, 10092.422815
 123.076101, 10092.422815
 123.077767, 10092.422815
 123.079434, 10092.422815
 123.081101, 10092.422815
 123.082767, 10092.422815
 123.084434, 10092.422815
 123.086101, 10092.422815
 123.087767, 10092.422815
 123.089434, 10092.422815
 123.091101, 10092.422815
 123.092767, 10092.422815
 123.094434, 10092.422815
 123.096101, 10092.422815
 123.097767, 10092.422815
 123.099434, 10092.422815
 123.101101, 10092.422815
 123.102767, 10092.422815
 123.104434, 10092.422815
 123.106101, 10092.422815
 123.107767, 10092.422815
 123.109434, 10092.422815
 123.111101, 10092.422815
 123.112767, 10092.422815
 123.114434, 10092.422815
 123.116101, 10092.422815
 123.117767, 10092.422815
 123.119434, 10092.422815
 123.121101, 10092.422815
 123.122767, 10092.422815
 123.124434, 10092.422815
 123.126101, 10092.422815
 123.127767, 10092.422815
 123.129434, 10092.422815
 123.131101, 10092.422815
 123.132767, 10092.422815
 123.134434, 10092.422815
 123.136101, 10092.422815
 123.137767, 10092.422815
 123.139434, 10092.422815
 123.141101, 10092.422815
 123.142767, 10092.422815
 123.144434, 10092.422815
 123.146101, 10092.422815
 123.147767, 10092.422815
 123.149434, 10092.422815
 123.151101, 10092.422815
 123.152767, 10092.422815
 123.154434, 10092.422815
 123.156101, 10092.422815
 123.157767, 10092.422815
 123.159434, 10092.422815
 123.161101, 10092.422815
 123.162767, 10092.422815
 123.164434, 10092.422815
 123.166101, 10092.422815
 123.167767, 10092.422815
 123.169434, 10092.422815
 123.171101, 10092.422815
 123.172767, 10092.422815
 123.174434, 10092.422815
 123.176101, 10092.422815
 123.177767, 10092.422815
 123.179434, 10092.422815
 123.181101, 10092.422815
 123.182767, 10092.422815
 123.184434, 10092.422815
 123.186101, 10092.422815
 123.187767, 10092.422815
 123.189434, 10092.422815
 123.191101, 10092.422815
 123.192767, 10092.422815
 123.194434, 10092.422815
 123.196101, 10092.422815
 123.197767, 10092.422815
 123.199434, 10092.422815
 123.201101, 10092.422815
 123.202767, 10092.422815
 123.204434, 10092.422815
 123.206101, 10092.422815
 123.207767, 10092.422815
 123.209434, 10092.422815
 123.211101, 10092.422815
 123.212767, 10092.422815
 123.214434, 10092.422815
 123.216101, 10092.422815
 123.217767, 10092.422815
 123.219434, 10092.422815
 123.221101, 10092.422815
 123.222767, 10092.422815
 123.224434, 10092.422815
 123.226101, 10092.422815
 123.227767, 10092.422815
 123.229434, 10092.422815
 123.231101, 10092.422815
 123.232767, 10092.422815
 123.234434, 10092.422815
 123.236101, 10092.422815
 123.237767, 10092.422815
 123.239434, 10092.422815
 123.241101, 10092.422815
 123.242767, 10092.422815
 123.244434, 10092.422815
 123.246101, 10092.422815
 123.247767, 10092.422815
 123.249434, 10092.422815
 123.251101, 10092.422815
 123.252767, 10092.422815
 123.254434, 10092.422815
 123.256101, 10092.422815
 123.257767, 10092.422815
 123.259434, 10092.422815
 123.261101, 10092.422815
 123.262767, 10092.422815
 123.264434, 10092.422815
 123.266101, 10092.422815
 123.267767, 10092.422815
 123.269434, 10092.422815
 123.271101, 10092.422815
 123.272767, 10092.422815
 123.274434, 10092.422815
 123.276101, 10092.422815
 123.277767, 10092.422815
 123.279434, 10092.422815
 123.281101, 10092.422815
 123.282767, 10092.422815
 123.284434, 10092.422815
 123.286101, 10092.422815
 123.287767, 10092.422815
 123.289434, 10092.422815
 123.291101, 10092.422815
 123.292767, 10092.422815
 123.294434, 10092.422815
 123.296101, 10092.422815
 123.297767, 10092.422815
 123.299434, 10092.422815
 123.301101, 10092.422815
 123.302767, 10092.422815
 123.304434, 10092.422815
 123.306101, 10092.422815
 123.307767, 10092.422815
 123.309434, 10092.422815
 123.311101, 10092.422815
 123.312767, 10092.422815
 123.314434, 10092.422815
 123.316101, 10092.422815
 123.317767, 10092.422815
 123.319434, 10092.422815
 123.321101, 10092.422815
 123.322767, 10092.422815
 123.324434, 10092.422815
 123.326101, 10092.422815
 123.327767, 10092.422815
 123.329434, 10092.422815
 123.331101, 10092.422815
 123.332767, 10092.422815
 123.334434, 10092.422815
 123.336101, 10092.422815
 123.337767, 10092.422815
 123.339434, 10092.422815
 123.341101, 10092.422815
 123.342767, 10092.422815
 123.344434, 10092.422815
 123.346101, 10092.422815
 123.347767, 10092.422815
 123.349434, 10092.422815
 123.351101, 10092.422815
 123.352767, 10092.422815
 123.354434, 10092.422815
 123.356101, 10092.422815
 123.357767, 10092.422815
 123.359434, 10092.422815
 123.361101, 10092.422815
 123.362767, 10092.422815
 123.364434, 10092.422815
 123.366101, 10092.422815
 123.367767, 10092.422815
 123.369434, 10092.422815
 123.371101, 10092.422815
 123.372767, 10092.422815
 123.374434, 10092.422815
 123.376101, 10092.422815
 123.377767, 10092.422815
 123.379434, 10092.422815
 123.381101, 10092.422815
 123.382767, 10092.422815
 123.384434, 10092.422815
 123.386101, 10092.422815
 123.387767, 10092.422815
 123.389434, 10092.422815
 123.391101, 10092.422815
 123.392767, 10092.422815
 123.394434, 10092.422815
 123.396101, 10092.422815
 123.397767, 10092.422815
 123.399434, 10092.422815
 123.401101, 10092.422815
 123.402767, 10092.422815
 123.404434, 10092.422815
 123.406101, 10092.422815
 123.407767, 10092.422815
 123.409434, 10092.422815
 123.411101, 10092.422815
 123.412767, 10092.422815
 123.414434, 10092.422815
 123.416101, 10092.422815
 123.417767, 10092.422815
 123.419434, 10092.422815
 123.421101, 10092.422815
 123.422767, 10092.422815
 123.424434, 10092.422815
 123.426101, 10092.422815
 123.427767, 10092.422815
 123.429434, 10092.422815
 123.431101, 10092.422815
 123.432767, 10092.422815
 123.434434, 10092.422815
 123.436101, 10092.422815
 123.437767, 10092.422815
 123.439434, 10092.422815
 123.441101, 10092.422815
 123.442767, 10092.422815
 123.444434, 10092.422815
 123.446101, 10092.422815
 123.447767, 10092.422815
 123.449434, 10092.422815
 123.451101, 10092.422815
 123.452767, 10092.422815
 123.454434, 10092.422815
 123.456101, 10092.422815
 123.457767, 10092.422815
 123.459434, 10092.422815
 123.461101, 10092.422815
 123.462767, 10092.422815
 123.464434, 10092.422815
 123.466101, 10092.422815
 123.467767, 10092.422815
 123.469434, 10092.422815
 123.471101, 10092.422815
 123.472767, 10092.422815
 123.474434, 10092.422815
 123.476101, 10092.422815
 123.477767, 10092.422815
 123.479434, 10092.422815
 123.481101, 10092.422815
 123.482767, 10092.422815
 123.484434, 10092.422815
 123.486101, 10092.422815
 123.487767, 10092.422815
 123.489434, 10092.422815
 123.491101, 10092.422815
 123.492767, 10092.422815
 123.494434, 10092.422815
 123.496101, 10092.422815
 123.497767, 10092.422815
 123.499434, 10092.422815
 123.501101, 10092.422815
 123.502767, 10092.422815
 123.504434, 10092.422815
 123.506101, 10092.422815
 123.507767, 10092.422815
 123.509434, 10092.422815
 123.511101, 10092.422815
 123.512767, 10092.422815
 123.514434, 10092.422815
 123.516101, 10092.422815
 123.517767, 10092.422815
 123.519434, 10092.422815
 123.521101, 10092.422815
 123.522767, 10092.422815
 123.524434, 10092.422815
 123.526101, 10092.422815
 123.527767, 10092.422815
 123.529434, 10092.422815
 123.531101, 10092.422815
 123.532767, 10092.422815
 123.534434, 10092.422815
 123.536101, 10092.422815
 123.537767, 10092.422815
 123.539434, 10092.422815
 123.541101, 10092.422815
 123.542767, 10092.422815
 123.544434, 10092.422815
 123.546101, 10092.422815
 123.547767, 10092.422815
 123.549434, 10092.422815
 123.551101, 10092.422815
 123.552767, 10092.422815
 123.554434, 10092.422815
 123.556101, 10092.422815
 123.557767, 10092.422815
 123.559434, 10092.422815
 123.561101, 10092.422815
 123.562767, 10092.422815
 123.564434, 10092.422815
 123.566101, 10092.422815
 123.567767, 10092.422815
 123.569434, 10092.422815
 123.571101, 10092.422815
 123.572767, 10092.422815
 123.574434, 10092.422815
 123.576101, 10092.422815
 123.577767, 10092.422815
 123.579434, 10092.422815
 123.581101, 10092.422815
 123.582767, 10092.422815
 123.584434, 10092.422815
 123.586101, 10092.422815
 123.587767, 10092.422815
 123.589434, 10092.422815
 123.591101, 10092.422815
 123.592767, 10092.422815
 123.594434, 10092.422815
 123.596101, 10092.422815
 123.597767, 10092.422815
 123.599434, 10092.422815
 123.601101, 10092.422815
 123.602767, 10092.422815
 123.604434, 10092.422815
 123.606101, 10092.422815
 123.607767, 10092.422815
 123.609434, 10092.422815
 123.611101, 10092.422815
 123.612767, 10092.422815
 123.614434, 10092.422815
 123.616101, 10092.422815
 123.617767, 10092.422815
 123.619434, 10092.422815
 123.621101, 10092.422815
 123.622767, 10092.422815
 123.624434, 10092.422815
 123.626101, 10092.422815
 123.627767, 10092.422815
 123.629434, 10092.422815
 123.631101, 10092.422815
 123.632767, 10092.422815
 123.634434, 10092.422815
 123.636101, 10092.422815
 123.637767, 10092.422815
 123.639434, 10092.422815
 123.641101, 10092.422815
 123.642767, 10092.422815
 123.644434, 10092.422815
 123.646101, 10092.422815
 123.647767, 10092.422815
 123.649434, 10092.422815
 123.651101, 10092.422815
 123.652767, 10092.422815
 123.654434, 10092.422815
 123.656101, 10092.422815
 123.657767, 10092.422815
 123.659434, 10092.422815
 123.661101, 10092.422815
 123.662767, 10092.422815
 123.664434, 10092.422815
 123.666101, 10092.422815
 123.667767, 10092.422815
 123.669434, 10092.422815
 123.671101, 10092.422815
 123.672767, 10092.422815
 123.674434, 10092.422815
 123.676101, 10092.422815
 123.677767, 10092.422815
 123.679434, 10092.422815
 123.681101, 10092.422815
 123.682767, 10092.422815
 123.684434, 10092.422815
 123.686101, 10092.422815
 123.687767, 10092.422815
 123.689434, 10092.422815
 123.691101, 10092.422815
 123.692767, 10092.422815
 123.694434, 10092.422815
 123.696101, 10092.422815
 123.697767, 10092.422815
 123.699434, 10092.422815
 123.701101, 10092.422815
 123.702767, 10092.422815
 123.704434, 10092.422815
 123.706101, 10092.422815
 123.707767, 10092.422815
 123.709434, 10092.422815
 123.711101, 10092.422815
 123.712767, 10092.422815
 123.714434, 10092.422815
 123.716101, 10092.422815
 123.717767, 10092.422815
 123.719434, 10092.422815
 123.721101, 10092.422815
 123.722767, 10092.422815
 123.724434, 10092.422815
 123.726101, 10092.422815
 123.727767, 10092.422815
 123.729434, 10092.422815
 123.731101, 10092.422815
 123.732767, 10092.422815
 123.734434, 10092.422815
 123.736101, 10092.422815
 123.737767, 10092.422815
 123.739434, 10092.422815
 123.741101, 10092.422815
 123.742767, 10092.422815
 123.744434, 10092.422815
 123.746101, 10092.422815
 123.747767, 10092.422815
 123.749434, 10092.422815
 123.751101, 10092.422815
 123.752767, 10092.422815
 123.754434, 10092.422815
 123.756101, 10092.422815
 123.757767, 10092.422815
 123.759434, 10092.422815
 123.761101, 10092.422815
 123.762767, 10092.422815
 123.764434, 10092.422815
 123.766101, 10092.422815
 123.767767, 10092.422815
 123.769434, 10092.422815
 123.771101, 10092.422815
 123.772767, 10092.422815
 123.774434, 10092.422815
 123.776101, 10092.422815
 123.777767, 10092.422815
 123.779434, 10092.422815
 123.781101, 10092.422815
 123.782767, 10092.422815
 123.784434, 10092.422815
 123.786101, 10092.422815
 123.787767, 10092.422815
 123.789434, 10092.422815
 123.791101, 10092.422815
 123.792767, 10092.422815
 123.794434, 10092.422815
 123.796101, 10092.422815
 123.797767, 10092.422815
 123.799434, 10092.422815
 123.801101, 10092.422815
 123.802767, 10092.422815
 123.804434, 10092.422815
 123.806101, 10092.422815
 123.807767, 10092.422815
 123.809434, 10092.422815
 123.811101, 10092.422815
 123.812767, 10092.422815
 123.814434, 10092.422815
 123.816101, 10092.422815
 123.817767, 10092.422815
 123.819434, 10092.422815
 123.821101, 10092.422815
 123.822767, 10092.422815
 123.824434, 10092.422815
 123.826101, 10092.422815
 123.827767, 10092.422815
 123.829434, 10092.422815
 123.831101, 10092.422815
 123.832767, 10092.422815
 123.834434, 10092.422815
 123.836101, 10092.422815
 123.837767, 10092.422815
 123.839434, 10092.422815
 123.841101, 10092.422815
 123.842767, 10092.422815
 123.844434, 10092.422815
 123.846101, 10092.422815
 123.847767, 10092.422815
 123.849434, 10092.422815
 123.851101, 10092.422815
 123.852767, 10092.422815
 123.854434, 10092.422815
 123.856101, 10092.422815
 123.857767, 10092.422815
 123.859434, 10092.422815
 123.861101, 10092.422815
 123.862767, 10092.422815
 123.864434, 10092.422815
 123.866101, 10092.422815
 123.867767, 10092.422815
 123.869434, 10092.422815
 123.871101, 10092.422815
 123.872767, 10092.422815
 123.874434, 10092.422815
 123.876101, 10092.422815
 123.877767, 10092.422815
 123.879434, 10092.422815
 123.881101, 10092.422815
 123.882767, 10092.422815
 123.884434, 10092.422815
 123.886101, 10092.422815
 123.887767, 10092.422815
 123.889434, 10092.422815
 123.891101, 10092.422815
 123.892767, 10092.422815
 123.894434, 10092.422815
 123.896101, 10092.422815
 123.897767, 10092.422815
 123.899434, 10092.422815
 123.901101, 10092.422815
 123.902767, 10092.422815
 123.904434, 10092.422815
 123.906101, 10092.422815
 123.907767, 10092.422815
 123.909434, 10092.422815
 123.911101, 10092.422815
 123.912767, 10092.422815
 123.914434, 10092.422815
 123.916101, 10092.422815
 123.917767, 10092.422815
 123.919434, 10092.422815
 123.921101, 10092.422815
 123.922767, 10092.422815
 123.924434, 10092.422815
 123.926101, 10092.422815
 123.927767, 10092.422815
 123.929434, 10092.422815
 123.931101, 10092.422815
 123.932767, 10092.422815
 123.934434, 10092.422815
 123.936101, 10092.422815
 123.937767, 10092.422815
 123.939434, 10092.422815
 123.941101, 10092.422815
 123.942767, 10092.422815
 123.944434, 10092.422815
 123.946101, 10092.422815
 123.947767, 10092.422815
 123.949434, 10092.422815
 123.951101, 10092.422815
 123.952767, 10092.422815
 123.954434, 10092.422815
 123.956101, 10092.422815
 123.957767, 10092.422815
 123.959434, 10092.422815
 123.961101, 10092.422815
 123.962767, 10092.422815
 123.964434, 10092.422815
 123.966101, 10092.422815
 123.967767, 10092.422815
 123.969434, 10092.422815
 123.971101, 10092.422815
 123.972767, 10092.422815
 123.974434, 10092.422815
 123.976101, 10092.422815
 123.977767, 10092.422815
 123.979434, 10092.422815
 123.981101, 10092.422815
 123.982767, 10092.422815
 123.984434, 10092.422815
 123.986101, 10092.422815
 123.987767, 10092.422815
 123.989434, 10092.422815
 123.991101, 10092.422815
 123.992767, 10092.422815
 123.994434, 10092.422815
 123.996101, 10092.422815
 123.997767, 10092.422815
 123.999434, 10092.422815
 124.001101, 10092.422815
 124.002767, 10092.422815
 124.004434, 10092.422815
 124.006101, 10092.422815
 124.007767, 10092.422815
 124.009434, 10092.422815
 124.011101, 10092.422815
 124.012767, 10092.422815
 124.014434, 10092.422815
 124.016101, 10092.422815
 124.017767, 10092.422815
 124.019434, 10092.422815
 124.021101, 10092.422815
 124.022767, 10092.422815
 124.024434, 10092.422815
 124.026101, 10092.422815
 124.027767, 10092.422815
 124.029434, 10092.422815
 124.031101, 10092.422815
 124.032767, 10092.422815
 124.034434, 10092.422815
 124.036101, 10092.422815
 124.037767, 10092.422815
 124.039434, 10092.422815
 124.041101, 10092.422815
 124.042767, 10092.422815
 124.044434, 10092.422815
 124.046101, 10092.422815
 124.047767, 10092.422815
 124.049434, 10092.422815
 124.051101, 10092.422815
 124.052767, 10092.422815
 124.054434, 10092.422815
 124.056101, 10092.422815
 124.057767, 10092.422815
 124.059434, 10092.422815
 124.061101, 10092.422815
 124.062767, 10092.422815
 124.064434, 10092.422815
 124.066101, 10092.422815
 124.067767, 10092.422815
 124.069434, 10092.422815
 124.071101, 10092.422815
 124.072767, 10092.422815
 124.074434, 10092.422815
 124.076101, 10092.422815
 124.077767, 10092.422815
 124.079434, 10092.422815
 124.081101, 10092.422815
 124.082767, 10092.422815
 124.084434, 10092.422815
 124.086101, 10092.422815
 124.087767, 10092.422815
 124.089434, 10092.422815
 124.091101, 10092.422815
 124.092767, 10092.422815
 124.094434, 10092.422815
 124.096101, 10092.422815
 124.097767, 10092.422815
 124.099434, 10092.422815
 124.101101, 10092.422815
 124.102767, 10092.422815
 124.104434, 10092.422815
 124.106101, 10092.422815
 124.107767, 10092.422815
 124.109434, 10092.422815
 124.111101, 10092.422815
 124.112767, 10092.422815
 124.114434, 10092.422815
 124.116101, 10092.422815
 124.117767, 10092.422815
 124.119434, 10092.422815
 124.121101, 10092.422815
 124.122767, 10092.422815
 124.124434, 10092.422815
 124.126101, 10092.422815
 124.127767, 10092.422815
 124.129434, 10092.422815
 124.131101, 10092.422815
 124.132767, 10092.422815
 124.134434, 10092.422815
 124.136101, 10092.422815
 124.137767, 10092.422815
 124.139434, 10092.422815
 124.141101, 10092.422815
 124.142767, 10092.422815
 124.144434, 10092.422815
 124.146101, 10092.422815
 124.147767, 10092.422815
 124.149434, 10092.422815
 124.151101, 10092.422815
 124.152767, 10092.422815
 124.154434, 10092.422815
 124.156101, 10092.422815
 124.157767, 10092.422815
 124.159434, 10092.422815
 124.161101, 10092.422815
 124.162767, 10092.422815
 124.164434, 10092.422815
 124.166101, 10092.422815
 124.167767, 10092.422815
 124.169434, 10092.422815
 124.171101, 10092.422815
 124.172767, 10092.422815
 124.174434, 10092.422815
 124.176101, 10092.422815
 124.177767, 10092.422815
 124.179434, 10092.422815
 124.181101, 10092.422815
 124.182767, 10092.422815
 124.184434, 10092.422815
 124.186101, 10092.422815
 124.187767, 10092.422815
 124.189434, 10092.422815
 124.191101, 10092.422815
 124.192767, 10092.422815
 124.194434, 10092.422815
 124.196101, 10092.422815
 124.197767, 10092.422815
 124.199434, 10092.422815
 124.201101, 10092.422815
 124.202767, 10092.422815
 124.204434, 10092.422815
 124.206101, 10092.422815
 124.207767, 10092.422815
 124.209434, 10092.422815
 124.211101, 10092.422815
 124.212767, 10092.422815
 124.214434, 10092.422815
 124.216101, 10092.422815
 124.217767, 10092.422815
 124.219434, 10092.422815
 124.221101, 10092.422815
 124.222767, 10092.422815
 124.224434, 10092.422815
 124.226101, 10092.422815
 124.227767, 10092.422815
 124.229434, 10092.422815
 124.231101, 10092.422815
 124.232767, 10092.422815
 124.234434, 10092.422815
 124.236101, 10092.422815
 124.237767, 10092.422815
 124.239434, 10092.422815
 124.241101, 10092.422815
 124.242767, 10092.422815
 124.244434, 10092.422815
 124.246101, 10092.422815
 124.247767, 10092.422815
 124.249434, 10092.422815
 124.251101, 10092.422815
 124.252767, 10092.422815
 124.254434, 10092.422815
 124.256101, 10092.422815
 124.257767, 10092.422815
 124.259434, 10092.422815
 124.261101, 10092.422815
 124.262767, 10092.422815
 124.264434, 10092.422815
 124.266101, 10092.422815
 124.267767, 10092.422815
 124.269434, 10092.422815
 124.271101, 10092.422815
 124.272767, 10092.422815
 124.274434, 10092.422815
 124.276101, 10092.422815
 124.277767, 10092.422815
 124.279434, 10092.422815
 124.281101, 10092.422815
 124.282767, 10092.422815
 124.284434, 10092.422815
 124.286101, 10092.422815
 124.287767, 10092.422815
 124.289434, 10092.422815
 124.291101, 10092.422815
 124.292767, 10092.422815
 124.294434, 10092.422815
 124.296101, 10092.422815
 124.297767, 10092.422815
 124.299434, 10092.422815
 124.301101, 10092.422815
 124.302767, 10092.422815
 124.304434, 10092.422815
 124.306101, 10092.422815
 124.307767, 10092.422815
 124.309434, 10092.422815
 124.311101, 10092.422815
 124.312767, 10092.422815
 124.314434, 10092.422815
 124.316101, 10092.422815
 124.317767, 10092.422815
 124.319434, 10092.422815
 124.321101, 10092.422815
 124.322767, 10092.422815
 124.324434, 10092.422815
 124.326101, 10092.422815
 124.327767, 10092.422815
 124.329434, 10092.422815
 124.331101, 10092.422815
 124.332767, 10092.422815
 124.334434, 10092.422815
 124.336101, 10092.422815
 124.337767, 10092.422815
 124.339434, 10092.422815
 124.341101, 10092.422815
 124.342767, 10092.422815
 124.344434, 10092.422815
 124.346101, 10092.422815
 124.347767, 10092.422815
 124.349434, 10092.422815
 124.351101, 10092.422815
 124.352767, 10092.422815
 124.354434, 10092.422815
 124.356101, 10092.422815
 124.357767, 10092.422815
 124.359434, 10092.422815
 124.361101, 10092.422815
 124.362767, 10092.422815
 124.364434, 10092.422815
 124.366101, 10092.422815
 124.367767, 10092.422815
 124.369434, 10092.422815
 124.371101, 10092.422815
 124.372767, 10092.422815
 124.374434, 10092.422815
 124.376101, 10092.422815
 124.377767, 10092.422815
 124.379434, 10092.422815
 124.381101, 10092.422815
 124.382767, 10092.422815
 124.384434, 10092.422815
 124.386101, 10092.422815
 124.387767, 10092.422815
 124.389434, 10092.422815
 124.391101, 10092.422815
 124.392767, 10092.422815
 124.394434, 10092.422815
 124.396101, 10092.422815
 124.397767, 10092.422815
 124.399434, 10092.422815
 124.401101, 10092.422815
 124.402767, 10092.422815
 124.404434, 10092.422815
 124.406101, 10092.422815
 124.407767, 10092.422815
 124.409434, 10092.422815
 124.411101, 10092.422815
 124.412767, 10092.422815
 124.414434, 10092.422815
 124.416101, 10092.422815
 124.417767, 10092.422815
 124.419434, 10092.422815
 124.421101, 10092.422815
 124.422767, 10092.422815
 124.424434, 10092.422815
 124.426101, 10092.422815
 124.427767, 10092.422815
 124.429434, 10092.422815
 124.431101, 10092.422815
 124.432767, 10092.422815
 124.434434, 10092.422815
 124.436101, 10092.422815
 124.437767, 10092.422815
 124.439434, 10092.422815
 124.441101, 10092.422815
 124.442767, 10092.422815
 124.444434, 10092.422815
 124.446101, 10092.422815
 124.447767, 10092.422815
 124.449434, 10092.422815
 124.451101, 10092.422815
 124.452767, 10092.422815
 124.454434, 10092.422815
 124.456101, 10092.422815
 124.457767, 10092.422815
 124.459434, 10092.422815
 124.461101, 10092.422815
 124.462767, 10092.422815
 124.464434, 10092.422815
 124.466101, 10092.422815
 124.467767, 10092.422815
 124.469434, 10092.422815
 124.471101, 10092.422815
 124.472767, 10092.422815
 124.474434, 10092.422815
 124.476101, 10092.422815
 124.477767, 10092.422815
 124.479434, 10092.422815
 124.481101, 10092.422815
 124.482767, 10092.422815
 124.484434, 10092.422815
 124.486101, 10092.422815
 124.487767, 10092.422815
 124.489434, 10092.422815
 124.491101, 10092.422815
 124.492767, 10092.422815
 124.494434, 10092.422815
 124.496101, 10092.422815
 124.497767, 10092.422815
 124.499434, 10092.422815
 124.501101, 10092.422815
 124.502767, 10092.422815
 124.504434, 10092.422815
 124.506101, 10092.422815
 124.507767, 10092.422815
 124.509434, 10092.422815
 124.511101, 10092.422815
 124.512767, 10092.422815
 124.514434, 10092.422815
 124.516101, 10092.422815
 124.517767, 10092.422815
 124.519434, 10092.422815
 124.521101, 10092.422815
 124.522767, 10092.422815
 124.524434, 10092.422815
 124.526101, 10092.422815
 124.527767, 10092.422815
 124.529434, 10092.422815
 124.531101, 10092.422815
 124.532767, 10092.422815
 124.534434, 10092.422815
 124.536101, 10092.422815
 124.537767, 10092.422815
 124.539434, 10092.422815
 124.541101, 10092.422815
 124.542767, 10092.422815
 124.544434, 10092.422815
 124.546101, 10092.422815
 124.547767, 10092.422815
 124.549434, 10092.422815
 124.551101, 10092.422815
 124.552767, 10092.422815
 124.554434, 10092.422815
 124.556101, 10092.422815
 124.557767, 10092.422815
 124.559434, 10092.422815
 124.561101, 10092.422815
 124.562767, 10092.422815
 124.564434, 10092.422815
 124.566101, 10092.422815
 124.567767, 10092.422815
 124.569434, 10092.422815
 124.571101, 10092.422815
 124.572767, 10092.422815
 124.574434, 10092.422815
 124.576101, 10092.422815
 124.577767, 10092.422815
 124.579434, 10092.422815
 124.581101, 10092.422815
 124.582767, 10092.422815
 124.584434, 10092.422815
 124.586101, 10092.422815
 124.587767, 10092.422815
 124.589434, 10092.422815
 124.591101, 10092.422815
 124.592767, 10092.422815
 124.594434, 10092.422815
 124.596101, 10092.422815
 124.597767, 10092.422815
 124.599434, 10092.422815
 124.601101, 10092.422815
 124.602767, 10092.422815
 124.604434, 10092.422815
 124.606101, 10092.422815
 124.607767, 10092.422815
 124.609434, 10092.422815
 124.611101, 10092.422815
 124.612767, 10092.422815
 124.614434, 10092.422815
 124.616101, 10092.422815
 124.617767, 10092.422815
 124.619434, 10092.422815
 124.621101, 10092.422815
 124.622767, 10092.422815
 124.624434, 10092.422815
 124.626101, 10092.422815
 124.627767, 10092.422815
 124.629434, 10092.422815
 124.631101, 10092.422815
 124.632767, 10092.422815
 124.634434, 10092.422815
 124.636101, 10092.422815
 124.637767, 10092.422815
 124.639434, 10092.422815
 124.641101, 10092.422815
 124.642767, 10092.422815
 124.644434, 10092.422815
 124.646101, 10092.422815
 124.647767, 10092.422815
 124.649434, 10092.422815
 124.651101, 10092.422815
 124.652767, 10092.422815
 124.654434, 10092.422815
 124.656101, 10092.422815
 124.657767, 10092.422815
 124.659434, 10092.422815
 124.661101, 10092.422815
 124.662767, 10092.422815
 124.664434, 10092.422815
 124.666101, 10092.422815
 124.667767, 10092.422815
 124.669434, 10092.422815
 124.671101, 10092.422815
 124.672767, 10092.422815
 124.674434, 10092.422815
 124.676101, 10092.422815
 124.677767, 10092.422815
 124.679434, 10092.422815
 124.681101, 10092.422815
 124.682767, 10092.422815
 124.684434, 10092.422815
 124.686101, 10092.422815
 124.687767, 10092.422815
 124.689434, 10092.422815
 124.691101, 10092.422815
 124.692767, 10092.422815
 124.694434, 10092.422815
 124.696101, 10092.422815
 124.697767, 10092.422815
 124.699434, 10092.422815
 124.701101, 10092.422815
 124.702767, 10092.422815
 124.704434, 10092.422815
 124.706101, 10092.422815
 124.707767, 10092.422815
 124.709434, 10092.422815
 124.711101, 10092.422815
 124.712767, 10092.422815
 124.714434, 10092.422815
 124.716101, 10092.422815
 124.717767, 10092.422815
 124.719434, 10092.422815
 124.721101, 10092.422815
 124.722767, 10092.422815
 124.724434, 10092.422815
 124.726101, 10092.422815
 124.727767, 10092.422815
 124.729434, 10092.422815
 124.731101, 10092.422815
 124.732767, 10092.422815
 124.734434, 10092.422815
 124.736101, 10092.422815
 124.737767, 10092.422815
 124.739434, 10092.422815
 124.741101, 10092.422815
 124.742767, 10092.422815
 124.744434, 10092.422815
 124.746101, 10092.422815
 124.747767, 10092.422815
 124.749434, 10092.422815
 124.751101, 10092.422815
 124.752767, 10092.422815
 124.754434, 10092.422815
 124.756101, 10092.422815
 124.757767, 10092.422815
 124.759434, 10092.422815
 124.761101, 10092.422815
 124.762767, 10092.422815
 124.764434, 10092.422815
 124.766101, 10092.422815
 124.767767, 10092.422815
 124.769434, 10092.422815
 124.771101, 10092.422815
 124.772767, 10092.422815
 124.774434, 10092.422815
 124.776101, 10092.422815
 124.777767, 10092.422815
 124.779434, 10092.422815
 124.781101, 10092.422815
 124.782767, 10092.422815
 124.784434, 10092.422815
 124.786101, 10092.422815
 124.787767, 10092.422815
 124.789434, 10092.422815
 124.791101, 10092.422815
 124.792767, 10092.422815
 124.794434, 10092.422815
 124.796101, 10092.422815
 124.797767, 10092.422815
 124.799434, 10092.422815
 124.801101, 10092.422815
 124.802767, 10092.422815
 124.804434, 10092.422815
 124.806101, 10092.422815
 124.807767, 10092.422815
 124.809434, 10092.422815
 124.811101, 10092.422815
 124.812767, 10092.422815
 124.814434, 10092.422815
 124.816101, 10092.422815
 124.817767, 10092.422815
 124.819434, 10092.422815
 124.821101, 10092.422815
 124.822767, 10092.422815
 124.824434, 10092.422815
 124.826101, 10092.422815
 124.827767, 10092.422815
 124.829434, 10092.422815
 124.831101, 10092.422815
 124.832767, 10092.422815
 124.834434, 10092.422815
 124.836101, 10092.422815
 124.837767, 10092.422815
 124.839434, 10092.422815
 124.841101, 10092.422815
 124.842767, 10092.422815
 124.844434, 10092.422815
 124.846101, 10092.422815
 124.846511, 10092.422815
 124.848178, 7418.140301
 124.849844, 4743.857788
 124.851511, 2069.575275
 124.853178, -604.707238
 124.854844, -3278.989752
 124.856511, -5953.272265
 124.858178, -8406.135418
 124.859844, -8417.581720
 124.861511, -8429.028022
 124.863178, -8440.474324
 124.864844, -8451.920626
 124.866511, -8463.366928
 124.868178, -8474.813230
 124.869844, -8486.259532
 124.871511, -8497.705834
 124.873178, -8509.152136
 124.874844, -8520.612720
 124.876511, -8532.230785
 124.878178, -8543.848850
 124.879844, -8555.466915
 124.881511, -8567.084980
 124.883178, -8578.703045
 124.884844, -8590.321110
 124.886511, -8601.939175
 124.888178, -8613.557241
 124.889844, -8625.175306
 124.891511, -8636.805052
 124.893178, -8648.563599
 124.894844, -8660.322146
 124.896511, -8672.080693
 124.898178, -8683.839240
 124.899844, -8695.597787
 124.901134, -8704.694521
 124.902801, -9807.067702
 124.904467, -10909.440883
 124.906134, -12011.814064
 124.907801, -13114.187246
 124.909467, -14216.560427
 124.911134, -15318.933608
 124.912801, -16421.306789
 124.914467, -17523.679970
 124.916134, -18626.053151
 124.917801, -19728.426333
 124.919467, -20830.799514
 124.921134, -21933.172695
 124.922801, -23035.545876
 124.924467, -24137.919057
 124.926134, -25240.292239
 124.927801, -26342.665420
 124.929467, -27445.038601
 124.931134, -28547.411782
 124.932801, -29649.784963
 124.934467, -30752.158144
 124.936134, -31854.531326
 124.937801, -32956.904507
 124.939467, -34059.277688
 124.941134, -35161.650869
 124.942801, -35866.215338
 124.944467, -36513.835243
 124.946134, -37161.455148
 124.947801, -37809.075052
 124.949467, -38456.694957
 124.951134, -39104.314862
 124.952801, -39751.934767
 124.954467, -40399.554671
 124.956134, -41047.174576
 124.957801, -41694.794481
 124.959467, -41775.889956
 124.961134, -41775.889956
 124.962081, -41775.889956
 124.963748, -40425.391564
 124.965414, -39074.893172
 124.967081, -37724.394779
 124.968748, -36373.896387
 124.970414, -35023.397995
 124.972081, -33672.899602
 124.973748, -32322.401210
 124.975414, -31468.007645
 124.977081, -31237.135788
 124.978748, -31006.263931
 124.980414, -30775.392074
 124.982081, -30544.520217
 124.983748, -30313.648360
 124.985414, -30082.776502
 124.987081, -29851.904645
 124.988748, -29621.032788
 124.990414, -29390.160931
 124.992081, -29057.555566
 124.993748, -28597.088010
 124.995414, -28136.620453
 124.997081, -27676.152896
 124.998748, -27215.685340
 125.000414, -26755.217783
 125.002081, -26294.750226
 125.003748, -25834.282670
 125.005414, -25359.505121
 125.007081, -24878.728668
 125.008748, -24397.952214
 125.010414, -23917.175760
 125.012081, -23436.399307
 125.013748, -22955.622853
 125.015414, -22474.846400
 125.017081, -21996.313125
 125.018748, -21519.029930
 125.020414, -21041.746736
 125.022081, -20564.463541
 125.023748, -20087.180347
 125.025414, -19609.897152
 125.027081, -19132.613957
 125.028748, -18655.330763
 125.030414, -18178.047568
 125.032081, -17700.764374
 125.033748, -17227.646510
 125.035414, -16756.849906
 125.037081, -16286.053302
 125.038748, -15815.256698
 125.040414, -15344.460093
 125.042081, -14873.663489
 125.043748, -14402.866885
 125.045414, -13932.070280
 125.047081, -13461.273676
 125.048748, -12990.477072
 125.050414, -12642.358192
 125.052081, -12362.605247
 125.053748, -12082.852301
 125.055414, -11803.099355
 125.057081, -11523.346409
 125.058748, -11243.593463
 125.060414, -10963.840518
 125.062081, -10684.087572
 125.063748, -10404.334626
 125.065414, -10124.581680
 125.067081, -9871.454770
 125.068748, -9633.166036
 125.070414, -9394.877303
 125.072081, -9156.588570
 125.073748, -8918.299836
 125.075414, -8680.011103
 125.077081, -8441.722369
 125.078748, -8203.433636
 125.080414, -7965.144903
 125.082081, -7726.856169
 125.083748, -7489.059424
 125.085414, -7251.536853
 125.087081, -7014.014283
 125.088748, -6776.491712
 125.090414, -6538.969142
 125.092081, -6301.446572
 125.093748, -6063.924001
 125.095414, -5826.401431
 125.097081, -5588.878860
 125.098748, -5351.356290
 125.100414, -5115.166248
 125.102081, -4879.718798
 125.103748, -4644.271348
 125.105414, -4408.823898
 125.107081, -4173.376448
 125.108748, -3937.928999
 125.110414, -3702.481549
 125.112081, -3467.034099
 125.113748, -3231.586649
 125.115414, -2996.139199
 125.117081, -2762.835564
 125.118748, -2530.726637
 125.120414, -2298.617709
 125.122081, -2066.508781
 125.123748, -1834.399853
 125.125414, -1602.290926
 125.127081, -1370.181998
 125.128748, -1138.073070
 125.130414, -905.964142
 125.132081, -673.855215
 125.133748, -444.655131
 125.135414, -217.076090
 125.137081,   10.502950
 125.138748,  238.081991
 125.140414,  465.661032
 125.142081,  693.240073
 125.143748,  920.819113
 125.145414, 1148.398154
 125.147081, 1375.977195
 125.148748, 1603.556236
 125.150414, 1516.546552
 125.152081, 1254.222631
 125.153748,  991.898709
 125.155414,  729.574787
 125.157081,  467.250865
 125.158748,  204.926944
 125.160050,    0.000000
