Time, Vertical Forces
   0.000100,    0.000000
   0.000834,    0.000000
   0.003455,    0.000000
   0.013481,    0.000000
   0.041935,    0.000000
   0.074333,    0.000000
   0.106675,    0.000000
   0.139111,    0.000000
   0.171528,    0.000000
   0.204109,    0.000000
   0.236729,    0.000000
   0.269690,    0.000000
   0.302865,    0.000000
   0.336067,    0.000000
   0.369308,    0.000000
   0.402497,    0.000000
   0.436116,    0.000000
   0.469867,    0.000000
   0.504170,    0.000000
   0.538666,    0.000000
   0.573178,    0.000000
   0.607951,    0.000000
   0.642782,    0.000000
   0.677934,    0.000000
   0.713709,    0.000000
   0.749855,    0.000000
   0.786376,    0.000000
   0.822939,    0.000000
   0.860079,    0.000000
   0.897345,    0.000000
   0.935352,    0.000000
   0.972769,    0.000000
   1.010422,    0.000000
   1.049205,    0.000000
   1.088346,    0.000000
   1.127532,    0.000000
   1.166502,    0.000000
   1.206849,    0.000000
   1.246713,    0.000000
   1.287332,    0.000000
   1.327658,    0.000000
   1.369212,    0.000000
   1.411386,    0.000000
   1.453819,    0.000000
   1.496743,    0.000000
   1.538956,    0.000000
   1.581694,    0.000000
   1.624900,    0.000000
   1.668517,    0.000000
   1.712480,    0.000000
   1.757238,    0.000000
   1.801894,    0.000000
   1.847149,    0.000000
   1.893257,    0.000000
   1.939800,    0.000000
   1.985995,    0.000000
   2.032742,    0.000000
   2.079120,    0.000000
   2.126742,    0.000000
   2.174492,    0.000000
   2.222404,    0.000000
   2.270863,    0.000000
   2.319781,    0.000000
   2.368896,    0.000000
   2.419044,    0.000000
   2.468881,    0.000000
   2.519665,    0.000000
   2.570700,    0.000000
   2.622152,    0.000000
   2.673377,    0.000000
   2.725123,    0.000000
   2.777272,    0.000000
   2.830107,    0.000000
   2.883263,    0.000000
   2.936304,    0.000000
   2.989817,    0.000000
   3.044474,    0.000000
   3.099543,    0.000000
   3.154329,    0.000000
   3.209607,    0.000000
   3.265053,    0.000000
   3.320065,    0.000000
   3.376196,    0.000000
   3.432074,    0.000000
   3.488376,    0.000000
   3.544829,    0.000000
   3.601954,    0.000000
   3.659424,    0.000000
   3.717406,    0.000000
   3.775571,    0.000000
   3.833604,    0.000000
   3.892167,    0.000000
   3.951315,    0.000000
   4.010898,    0.000000
   4.070940,    0.000000
   4.131217,    0.000000
   4.191371,    0.000000
   4.252592,    0.000000
   4.264912,    0.000000
   4.266236,    0.000000
   4.267386,    0.000000
   4.268463,    0.000000
   4.268692,    0.000000
   4.268748,    0.000000
   4.268860,    0.000000
   4.268867,    0.000000
   4.268882,    0.000000
   4.268896,    0.000000
   4.269036,    0.000000
   4.269933,    0.000000
   4.274232,    0.000000
   4.290868,    0.000000
   4.331364,    0.000000
   4.385933,    0.000000
   4.440866,    0.000000
   4.495908,    0.000000
   4.551586,    0.000000
   4.606841,    0.000000
   4.662584,    0.000000
   4.718355,    0.000000
   4.774835,    0.000000
   4.831694,    0.000000
   4.888503,    0.000000
   4.945978,    0.000000
   5.003862,    0.000000
   5.061447,    0.000000
   5.119727,    0.000000
   5.178012,    0.000000
   5.236721,    0.000000
   5.295174,    0.000000
   5.354041,    0.000000
   5.413287,    0.000000
   5.472676,    0.000000
   5.532094,    0.000000
   5.591980,    0.000000
   5.652111,    0.000000
   5.712514,    0.000000
   5.773343,    0.000000
   5.834037,    0.000000
   5.895350,    0.000000
   5.957178,    0.000000
   6.018925,    0.000000
   6.080182,    0.000000
   6.142006,    0.000000
   6.204184,    0.000000
   6.266517,    0.000000
   6.329607,    0.000000
   6.392447,    0.000000
   6.455824,    0.000000
   6.519303,    0.000000
   6.583197,    0.000000
   6.647166,    0.000000
   6.711354,    0.000000
   6.775940,    0.000000
   6.840683,    0.000000
   6.905644,    0.000000
   6.970879,    0.000000
   7.036113,    0.000000
   7.101258,    0.000000
   7.167290,    0.000000
   7.233220,    0.000000
   7.299399,    0.000000
   7.365894,    0.000000
   7.432768,    0.000000
   7.499521,    0.000000
   7.566937,    0.000000
   7.634106,    0.000000
   7.701694,    0.000000
   7.769566,    0.000000
   7.837622,    0.000000
   7.905678,    0.000000
   7.974398,    0.000000
   8.042962,    0.000000
   8.112278,    0.000000
   8.181158,    0.000000
   8.250483,    0.000000
   8.320048,    0.000000
   8.389907,    0.000000
   8.459650,    0.000000
   8.529942,    0.000000
   8.600092,    0.000000
   8.670887,    0.000000
   8.741817,    0.000000
   8.756001,    0.000000
   8.757697,    0.000000
   8.758031,    0.000000
   8.758158,    0.000000
   8.758399,    0.000000
   8.758478,    0.000000
   8.758500,    0.000000
   8.758510,    0.000000
   8.758526,    0.000000
   8.758540,    0.000000
   8.758683,    0.000000
   8.759801,    0.000000
   8.766457,    0.000000
   8.791821,    0.000000
   8.855031,    0.000000
   8.918150,    0.000000
   8.981219,    0.000000
   9.044774,    0.000000
   9.108539,    0.000000
   9.172471,    0.000000
   9.236587,    0.000000
   9.300808,    0.000000
   9.365268,    0.000000
   9.429759,    0.000000
   9.494452,    0.000000
   9.559497,    0.000000
   9.624499,    0.000000
   9.689786,    0.000000
   9.755122,    0.000000
   9.820802,    0.000000
   9.886639,    0.000000
   9.952294,    0.000000
  10.018325,    0.000000
  10.084664,    0.000000
  10.151141,    0.000000
  10.217537,    0.000000
  10.284353,    0.000000
  10.351222,    0.000000
  10.418440,    0.000000
  10.485619,    0.000000
  10.552848,    0.000000
  10.620291,    0.000000
  10.687956,    0.000000
  10.755962,    0.000000
  10.824091,    0.000000
  10.892249,    0.000000
  10.960832,    0.000000
  11.029522,    0.000000
  11.098145,    0.000000
  11.166941,    0.000000
  11.236113,    0.000000
  11.305225,    0.000000
  11.374671,    0.000000
  11.444232,    0.000000
  11.513975,    0.000000
  11.583859,    0.000000
  11.654133,    0.000000
  11.724494,    0.000000
  11.794720,    0.000000
  11.865064,    0.000000
  11.935919,    0.000000
  12.006704,    0.000000
  12.077673,    0.000000
  12.148965,    0.000000
  12.220172,    0.000000
  12.291717,    0.000000
  12.363510,    0.000000
  12.435420,    0.000000
  12.507277,    0.000000
  12.579455,    0.000000
  12.651782,    0.000000
  12.724307,    0.000000
  12.797182,    0.000000
  12.870078,    0.000000
  12.942913,    0.000000
  13.015993,    0.000000
  13.089288,    0.000000
  13.162551,    0.000000
  13.236228,    0.000000
  13.310034,    0.000000
  13.383724,    0.000000
  13.458069,    0.000000
  13.532170,    0.000000
  13.547070,    0.000000
  13.556968,    0.000000
  13.564963,    0.000000
  13.570884,    0.000000
  13.575559,    0.000000
  13.576705,    0.000000
  13.578352,    0.000000
  13.580236,    0.000000
  13.580657,    0.000000
  13.580775,    0.000000
  13.581012,    0.000000
  13.581032,    0.000000
  13.581047,    0.000000
  13.581053,    0.000000
  13.581060,    0.000000
  13.581125,    0.000000
  13.581705,    0.000000
  13.584970,    0.000000
  13.599294,    0.000000
  13.657272,    0.000000
  13.722141,    0.000000
  13.787294,    0.000000
  13.852390,    0.000000
  13.917662,    0.000000
  13.982989,    0.000000
  14.048495,    0.000000
  14.113986,    0.000000
  14.179942,    0.000000
  14.246087,    0.000000
  14.311999,    0.000000
  14.378247,    0.000000
  14.444544,    0.000000
  14.510960,    0.000000
  14.577300,    0.000000
  14.643653,    0.000000
  14.710345,    0.000000
  14.776962,    0.000000
  14.843989,    0.000000
  14.911116,    0.000000
  14.978115,    0.000000
  15.045418,    0.000000
  15.112842,    0.000000
  15.180379,    0.000000
  15.248207,    0.000000
  15.315969,    0.000000
  15.383801,    0.000000
  15.451813,    0.000000
  15.519863,    0.000000
  15.588168,    0.000000
  15.656475,    0.000000
  15.725022,    0.000000
  15.793732,    0.000000
  15.862598,    0.000000
  15.931667,    0.000000
  16.000621,    0.000000
  16.069699,    0.000000
  16.139120,    0.000000
  16.208576,    0.000000
  16.278219,    0.000000
  16.347779,    0.000000
  16.417701,    0.000000
  16.487626,    0.000000
  16.557658,    0.000000
  16.627902,    0.000000
  16.698239,    0.000000
  16.768528,    0.000000
  16.839154,    0.000000
  16.909748,    0.000000
  16.980498,    0.000000
  17.051415,    0.000000
  17.122430,    0.000000
  17.193669,    0.000000
  17.264890,    0.000000
  17.336148,    0.000000
  17.407561,    0.000000
  17.479120,    0.000000
  17.550827,    0.000000
  17.622742,    0.000000
  17.694782,    0.000000
  17.766949,    0.000000
  17.839165,    0.000000
  17.911444,    0.000000
  17.983929,    0.000000
  18.056605,    0.000000
  18.129428,    0.000000
  18.202084,    0.000000
  18.275076,    0.000000
  18.348193,    0.000000
  18.421288,    0.000000
  18.494517,    0.000000
  18.567901,    0.000000
  18.641457,    0.000000
  18.715045,    0.000000
  18.788791,    0.000000
  18.862591,    0.000000
  18.877359,    0.000000
  18.927244,    0.000000
  18.927834,    0.000000
  18.928260,    0.000000
  18.928468,    0.000000
  18.928618,    0.000000
  18.928763,    0.000000
  18.928917,    0.000000
  18.929057,    0.000000
  18.930456,    0.000000
  18.938447,    0.000000
  18.983577,    0.000000
  19.057331,    0.000000
  19.131291,    0.000000
  19.205262,    0.000000
  19.279156,    0.000000
  19.353278,    0.000000
  19.427635,    0.000000
  19.502040,    0.000000
  19.576679,    0.000000
  19.651527,    0.000000
  19.726410,    0.000000
  19.801287,    0.000000
  19.876363,    0.000000
  19.951546,    0.000000
  20.026843,    0.000000
  20.102184,    0.000000
  20.177586,    0.000000
  20.253233,    0.000000
  20.328965,    0.000000
  20.404910,    0.000000
  20.480793,    0.000000
  20.556999,    0.000000
  20.633281,    0.000000
  20.709666,    0.000000
  20.786032,    0.000000
  20.862507,    0.000000
  20.939307,    0.000000
  21.016119,    0.000000
  21.092920,    0.000000
  21.170066,    0.000000
  21.247279,    0.000000
  21.324518,    0.000000
  21.402028,    0.000000
  21.479691,    0.000000
  21.557293,    0.000000
  21.634958,    0.000000
  21.712784,    0.000000
  21.790703,    0.000000
  21.868714,    0.000000
  21.946919,    0.000000
  22.025400,    0.000000
  22.103939,    0.000000
  22.142906,    0.000000
  22.182647,    0.000000
  22.261432,  104.133275
  22.340333,  309.152674
  22.419280,  511.947704
  22.498424,  712.353939
  22.577692,  910.769153
  22.657150, 1107.021299
  22.736932, 1301.281843
  22.816704, 1493.891622
  22.896719, 1684.036131
  22.976852, 1872.344360
  23.057129, 2058.529777
  23.137635, 2242.662194
  23.218303, 2424.952425
  23.298964, 2605.258590
  23.379577, 2783.219905
  23.460250, 2958.764167
  23.541282, 3132.140018
  23.622187, 3304.044748
  23.703260, 3473.414696
  23.784288, 3640.923223
  23.865399, 3806.126182
  23.946417, 3969.332756
  24.027784, 4130.166270
  24.108982, 4289.592542
  24.190269, 4446.553860
  24.271523, 4601.605613
  24.352718, 4754.532715
  24.358186, 4911.843859
  24.363651, 4921.895302
  24.369124, 4931.932132
  24.374600, 4941.975235
  24.380081, 4952.014487
  24.385556, 4962.055357
  24.391044, 4972.074923
  24.396531, 4982.109825
  24.402027, 4992.134836
  24.407521, 5002.167663
  24.413020, 5012.187863
  24.418498, 5022.209274
  24.424001, 5032.181067
  24.429515, 5042.189748
  24.435023, 5052.211986
  24.440544, 5062.212245
  24.446068, 5072.228660
  24.451570, 5082.244080
  24.457089, 5092.206415
  24.462620, 5102.192234
  24.468161, 5112.189421
  24.473692, 5122.199373
  24.479190, 5132.183539
  24.484744, 5142.093516
  24.490291, 5152.100069
  24.495850, 5162.083307
  24.501416, 5172.079690
  24.506984, 5182.079246
  24.512543, 5192.076436
  24.518110, 5202.046581
  24.523652, 5212.024572
  24.529237, 5221.944719
  24.534803, 5231.937022
  24.540395, 5241.883784
  24.545971, 5251.871055
  24.551566, 5261.817702
  24.557159, 5271.791379
  24.562758, 5281.751705
  24.568354, 5291.716792
  24.573963, 5301.664720
  24.579577, 5311.626334
  24.585195, 5321.591234
  24.590816, 5331.552563
  24.596446, 5341.509533
  24.602094, 5351.474583
  24.607747, 5361.461686
  24.613397, 5371.452118
  24.619055, 5381.425881
  24.624705, 5391.406611
  24.630376, 5401.360621
  24.636017, 5411.349232
  24.641680, 5421.270096
  24.647363, 5431.221993
  24.653059, 5441.200961
  24.658760, 5451.193832
  24.664442, 5461.188084
  24.670145, 5471.137911
  24.675867, 5481.116551
  24.681556, 5491.122510
  24.687268, 5501.057463
  24.693013, 5511.023699
  24.698730, 5521.044018
  24.704469, 5531.001759
  24.710179, 5540.993424
  24.715948, 5550.917282
  24.721704, 5560.941870
  24.727442, 5570.936262
  24.733216, 5580.883795
  24.739008, 5590.887737
  24.744774, 5600.919145
  24.750577, 5610.889130
  24.756348, 5620.921378
  24.762160, 5630.881850
  24.767941, 5640.910508
  24.773769, 5650.871637
  24.779572, 5650.338188
  24.785413, 5649.801768
  24.791258, 5649.265595
  24.797092, 5648.731038
  24.802939, 5648.195740
  24.808789, 5647.660743
  24.814659, 5647.124556
  24.820540, 5646.587939
  24.826411, 5646.052699
  24.832276, 5645.518605
  24.838175, 5644.982060
  24.844068, 5644.446577
  24.849959, 5643.911886
  24.855788, 5643.383379
  24.861712, 5642.846800
  24.867634, 5642.311060
  24.873565, 5641.774958
  24.879492, 5641.239968
  24.885373, 5640.709631
  24.891306, 5640.175148
  24.897247, 5639.640626
  24.903202, 5639.105437
  24.909181, 5638.568602
  24.915130, 5638.035101
  24.921107, 5637.499721
  24.927078, 5636.965508
  24.933044, 5636.432315
  24.939034, 5635.897521
  24.945007, 5635.364927
  24.951026, 5634.828865
  24.957019, 5634.295702
  24.963048, 5633.759907
  24.969070, 5633.225442
  24.975107, 5632.690262
  24.981118, 5632.157955
  24.987136, 5631.625650
  24.993177, 5631.092012
  24.999238, 5630.557151
  25.005314, 5630.021670
  25.011371, 5629.488498
  25.017431, 5628.955611
  25.023537, 5628.419395
  25.029634, 5627.884619
  25.035722, 5627.351355
  25.041842, 5626.815827
  25.047955, 5626.281579
  25.054066, 5625.748169
  25.060212, 5625.212439
  25.066330, 5624.679765
  25.072467, 5624.146057
  25.078578, 5623.615287
  25.084743, 5623.080458
  25.090889, 5622.548025
  25.092125, 5622.441069
  25.092983, 5622.366809
  25.093595, 5622.313823
  25.094099, 5622.270211
  25.095520, 5622.147300
  25.095690, 5622.132534
  25.095714, 5622.130497
  25.095721, 5622.129893
  25.095728, 5622.129309
  25.095780, 5622.125186
  25.096050, 5622.103689
  25.097024, 5622.026093
  25.099401, 5621.836702
  25.104719, 5621.413350
  25.110867, 5620.924553
  25.117063, 5620.432532
  25.123265, 5619.940632
  25.129502, 5619.446611
  25.135726, 5618.954232
  25.141965, 5618.461384
  25.148221, 5617.967707
  25.154460, 5617.476134
  25.160708, 5616.984417
  25.166990, 5616.490721
  25.173259, 5615.998643
  25.179547, 5615.505780
  25.185837, 5615.013341
  25.192142, 5614.520483
  25.198457, 5614.027421
  25.204804, 5613.532602
  25.211118, 5613.040941
  25.217457, 5612.548060
  25.223808, 5612.054922
  25.230154, 5611.562786
  25.236525, 5611.069412
  25.242904, 5610.576166
  25.249281, 5610.083704
  25.255665, 5609.591348
  25.262098, 5609.095961
  25.268510, 5608.602930
  25.273769, 5608.199032
  25.274931, 5608.109830
  25.281361, 5607.616726
  25.287786, 5607.124758
  25.294261, 5606.629683
  25.300727, 5606.135951
  25.307217, 5605.641096
  25.313699, 5605.147612
  25.320169, 5604.655722
  25.326676, 5604.161764
  25.333208, 5603.666618
  25.339759, 5603.170801
  25.346309, 5602.675760
  25.352860, 5602.181448
  25.359432, 5601.686223
  25.365996, 5601.192368
  25.372593, 5600.696781
  25.379198, 5600.201335
  25.385796, 5599.707214
  25.392391, 5599.214038
  25.399010, 5598.719790
  25.405663, 5598.223843
  25.412311, 5597.729020
  25.418964, 5597.234565
  25.425642, 5596.738995
  25.432314, 5596.244764
  25.438993, 5595.750690
  25.445686, 5595.256392
  25.452397, 5594.761578
  25.459138, 5594.265370
  25.465864, 5593.771007
  25.472624, 5593.275034
  25.479369, 5592.780889
  25.486127, 5592.286600
  25.492896, 5591.792348
  25.499720, 5591.294941
  25.506544, 5590.798297
  25.513350, 5590.303830
  25.520164, 5589.809571
  25.526979, 5589.316075
  25.533822, 5588.821417
  25.540703, 5588.324794
  25.547527, 5587.833192
  25.554435, 5587.336378
  25.561320, 5586.842033
  25.568241, 5586.345987
  25.575137, 5585.852594
  25.582063, 5585.357873
  25.588991, 5584.863954
  25.595970, 5584.367214
  25.602914, 5583.873907
  25.609904, 5583.378151
  25.616878, 5582.884439
  25.623890, 5582.388913
  25.630937, 5581.891841
  25.637962, 5581.397220
  25.645050, 5580.899047
  25.652112, 5580.403623
  25.659209, 5579.906731
  25.666254, 5579.414277
  25.673371, 5578.917842
  25.680488, 5578.422242
  25.687627, 5577.926118
  25.694756, 5577.431553
  25.701896, 5576.937211
  25.709037, 5576.443746
  25.716194, 5575.950106
  25.723403, 5575.453805
  25.730586, 5574.960340
  25.737817, 5574.464436
  25.745065, 5573.968419
  25.752265, 5573.476667
  25.759560, 5572.979396
  25.766783, 5572.487991
  25.774096, 5571.991469
  25.781358, 5571.499365
  25.788658, 5571.005758
  25.795969, 5570.512364
  25.803278, 5570.020086
  25.810652, 5569.524506
  25.818029, 5569.029680
  25.825447, 5568.533171
  25.832814, 5568.041155
  25.840185, 5567.549849
  25.847545, 5567.060289
  25.854954, 5566.568558
  25.862389, 5566.076146
  25.869854, 5565.582732
  25.877326, 5565.089992
  25.884787, 5564.599038
  25.892318, 5564.104486
  25.899888, 5563.608508
  25.907400, 5563.117407
  25.914933, 5562.626037
  25.922465, 5562.135825
  25.930048, 5561.643399
  25.937670, 5561.149527
  25.945249, 5560.659534
  25.952855, 5560.168949
  25.960490, 5559.677597
  25.968168, 5559.184646
  25.975834, 5558.693540
  25.983518, 5558.202440
  25.991245, 5557.709811
  25.998953, 5557.219466
  26.006713, 5556.727004
  26.014459, 5556.236639
  26.022186, 5555.748626
  26.029992, 5555.256777
  26.037758, 5554.768651
  26.045595, 5554.277218
  26.053435, 5553.786897
  26.061233, 5553.300306
  26.069095, 5552.810948
  26.076940, 5552.323894
  26.084835, 5551.834900
  26.092731, 5551.347152
  26.100697, 5550.856263
  26.108677, 5550.365782
  26.116636, 5549.877870
  26.124579, 5549.392146
  26.132512, 5548.908318
  26.140501, 5548.422324
  26.148468, 5547.938923
  26.156547, 5547.450027
  26.164571, 5546.965733
  26.172568, 5546.484338
  26.180568, 5546.004028
  26.188609, 5545.522578
  26.196670, 5545.041241
  26.204702, 5544.562859
  26.212846, 5544.079216
  26.220912, 5543.601470
  26.229039, 5543.121429
  26.237240, 5542.638357
  26.245414, 5542.158225
  26.253609, 5541.678213
  26.261840, 5541.197495
  26.270026, 5540.720724
  26.278272, 5540.241849
  26.286492, 5539.765836
  26.294696, 5539.292072
  26.302988, 5538.814686
  26.311316, 5538.336610
  26.319576, 5537.863830
  26.327818, 5537.393428
  26.336119, 5536.921142
  26.344411, 5536.450703
  26.352670, 5535.983515
  26.361100, 5535.508133
  26.369443, 5535.039082
  26.377858, 5534.567439
  26.386272, 5534.097279
  26.394659, 5533.630080
  26.403188, 5533.156497
  26.411690, 5532.685819
  26.420130, 5532.220114
  26.428583, 5531.755158
  26.437121, 5531.286999
  26.445671, 5530.819683
  26.454193, 5530.355427
  26.462690, 5529.893998
  26.471222, 5529.432216
  26.479807, 5528.969015
  26.488403, 5528.506842
  26.497022, 5528.044930
  26.505639, 5527.584676
  26.514237, 5527.126965
  26.522872, 5526.668849
  26.531611, 5526.206773
  26.540221, 5525.753086
  26.548951, 5525.294673
  26.557724, 5524.835604
  26.566506, 5524.377692
  26.575252, 5523.923232
  26.583993, 5523.470693
  26.592746, 5523.019095
  26.601513, 5522.568378
  26.610255, 5522.120597
  26.619064, 5521.670969
  26.627887, 5521.222282
  26.636695, 5520.776026
  26.645624, 5520.325290
  26.654418, 5519.883008
  26.663239, 5519.441039
  26.672203, 5518.993570
  26.681142, 5518.549040
  26.690084, 5518.106033
  26.699010, 5517.665550
  26.707927, 5517.227223
  26.717015, 5516.782219
  26.726023, 5516.342827
  26.734985, 5515.907454
  26.744097, 5515.466494
  26.753095, 5515.032820
  26.762163, 5514.597501
  26.771191, 5514.165899
  26.780408, 5513.727028
  26.789491, 5513.296331
  26.798572, 5512.867458
  26.807752, 5512.435754
  26.816871, 5512.008718
  26.826009, 5511.582554
  26.835258, 5511.153024
  26.844477, 5510.726768
  26.853596, 5510.306925
  26.862812, 5509.884451
  26.872039, 5509.463291
  26.881224, 5509.045879
  26.890397, 5508.630845
  26.899646, 5508.214196
  26.908910, 5507.798767
  26.918212, 5507.383449
  26.927501, 5506.970629
  26.936808, 5506.558899
  26.946079, 5506.150610
  26.955331, 5505.745020
  26.964680, 5505.337073
  26.974025, 5504.931188
  26.983440, 5504.524232
  26.992799, 5504.121588
  27.002242, 5503.717262
  27.011702, 5503.314172
  27.021110, 5502.915222
  27.030543, 5502.517183
  27.040057, 5502.117677
  27.049546, 5501.721248
  27.059060, 5501.325720
  27.068610, 5500.930663
  27.078062, 5500.541682
  27.087626, 5500.150076
  27.097240, 5499.758474
  27.106780, 5499.371874
  27.116189, 5498.992555
  27.125650, 5498.613093
  27.135320, 5498.227283
  27.144918, 5497.846399
  27.154444, 5497.470398
  27.164002, 5497.095169
  27.173582, 5496.721076
  27.183104, 5496.351246
  27.192768, 5495.977974
  27.202455, 5495.605917
  27.212068, 5495.238726
  27.221714, 5494.872340
  27.231455, 5494.504476
  27.241133, 5494.141027
  27.250834, 5493.778834
  27.260497, 5493.420162
  27.270178, 5493.062891
  27.279861, 5492.707627
  27.289513, 5492.355611
  27.299283, 5492.001385
  27.309042, 5491.649672
  27.318745, 5491.302112
  27.328595, 5490.951439
  27.338440, 5490.603104
  27.348202, 5490.259847
  27.358006, 5489.917287
  27.367897, 5489.573856
  27.377789, 5489.232574
  27.387564, 5488.897469
  27.397434, 5488.561332
  27.407257, 5488.228937
  27.417178, 5487.895420
  27.427134, 5487.562983
  27.437005, 5487.235572
  27.446901, 5486.909511
  27.456765, 5486.586728
  27.466721, 5486.263152
  27.476721, 5485.940390
  27.486724, 5485.619816
  27.496628, 5485.304606
  27.506646, 5484.988034
  27.516554, 5484.677169
  27.526558, 5484.365530
  27.536558, 5484.056310
  27.546534, 5483.750057
  27.556525, 5483.445618
  27.566613, 5483.140530
  27.576741, 5482.836533
  27.586686, 5482.540312
  27.596854, 5482.239754
  27.606893, 5481.945307
  27.616906, 5481.653917
  27.626948, 5481.363947
  27.637089, 5481.073483
  27.647137, 5480.787961
  27.657210, 5480.504046
  27.667309, 5480.221692
  27.677410, 5479.941642
  27.687541, 5479.663053
  27.697622, 5479.388188
  27.707898, 5479.110406
  27.718054, 5478.838201
  27.728326, 5478.565312
  27.738563, 5478.295715
  27.748721, 5478.030600
  27.758901, 5477.767249
  27.769061, 5477.506798
  27.779241, 5477.248174
  27.789424, 5476.991861
  27.799688, 5476.735917
  27.809889, 5476.483930
  27.820112, 5476.233785
  27.830301, 5475.986837
  27.836774, 5475.831203
