Time, Vertical Forces
   0.000100, 216385.893179
   0.000597, 216385.893179
   0.002392, 216385.893179
   0.006974, 216385.893179
   0.016377, 216385.893179
   0.034078, 216385.893179
   0.063604, 216385.893179
   0.096023, 216385.893179
   0.128452, 216385.893179
   0.161053, 216385.893179
   0.193653, 216385.893179
   0.226468, 216385.893179
   0.259202, 216385.893179
   0.292503, 216385.893179
   0.325629, 216385.893179
   0.358802, 216385.893179
   0.392241, 216385.893179
   0.425732, 216385.893179
   0.459758, 216385.893179
   0.493740, 216385.893179
   0.528330, 216385.893179
   0.562764, 216385.893179
   0.597767, 216385.893179
   0.632774, 216385.893179
   0.667956, 216385.893179
   0.703758, 216385.893179
   0.739898, 216385.893179
   0.776337, 216385.893179
   0.812986, 216385.893179
   0.849915, 216385.893179
   0.886491, 216385.893179
   0.924440, 216385.893179
   0.962032, 216385.893179
   0.999614, 216385.893179
   1.038244, 216385.893179
   1.076645, 216385.893179
   1.115591, 216385.893179
   1.154782, 216385.893179
   1.194042, 216385.893179
   1.233750, 216385.893179
   1.273723, 216385.893179
   1.315168, 216385.893179
   1.356920, 216385.893179
   1.398228, 216385.893179
   1.439980, 216385.893179
   1.481903, 216385.893179
   1.525108, 216385.893179
   1.568276, 216385.893179
   1.611860, 216385.893179
   1.655209, 216385.893179
   1.699566, 216385.893179
   1.743785, 216385.893179
   1.788902, 216385.893179
   1.833559, 216385.893179
   1.879015, 216385.893179
   1.924644, 216385.893179
   1.970775, 216385.893179
   2.017824, 216385.893179
   2.064621, 216385.893179
   2.112018, 216385.893179
   2.160241, 216385.893179
   2.208480, 216385.893179
   2.256813, 216385.893179
   2.306638, 216385.893179
   2.355748, 216385.893179
   2.405071, 216385.893179
   2.455014, 216385.893179
   2.505146, 216385.893179
   2.555962, 216385.893179
   2.607133, 216385.893179
   2.658752, 216385.893179
   2.710109, 216385.893179
   2.762266, 216385.893179
   2.814727, 216385.893179
   2.868121, 216385.893179
   2.921458, 216385.893179
   2.974693, 216385.893179
   3.028536, 216385.893179
   3.082243, 216385.893179
   3.136836, 216385.893179
   3.191380, 216385.893179
   3.246506, 216385.893179
   3.302702, 216385.893179
   3.359124, 216385.893179
   3.415440, 216385.893179
   3.471838, 216385.893179
   3.528943, 216385.893179
   3.585889, 216385.893179
   3.643185, 216385.893179
   3.701148, 216385.893179
   3.759460, 216385.893179
   3.817885, 216385.893179
   3.876241, 216385.893179
   3.935576, 216385.893179
   3.995724, 216385.893179
   4.055255, 216385.893179
   4.115501, 216385.893179
   4.175729, 216385.893179
   4.236852, 216385.893179
   4.249161, 216385.893179
   4.255122, 216385.893179
   4.258582, 216385.893179
   4.261158, 216385.893179
   4.263377, 216385.893179
   4.265215, 216385.893179
   4.266629, 216385.893179
   4.267721, 216385.893179
   4.268699, 216385.893179
   4.268753, 216385.893179
   4.268835, 216385.893179
   4.268850, 216385.893179
   4.268858, 216385.893179
   4.268862, 216385.893179
   4.268867, 216385.893179
   4.268917, 216385.893179
   4.269391, 216385.893179
   4.271699, 216385.893179
   4.281614, 216385.893179
   4.308113, 216385.893179
   4.362934, 216385.893179
   4.417353, 216385.893179
   4.472610, 216385.893179
   4.528144, 216385.893179
   4.583630, 216385.893179
   4.639876, 216385.893179
   4.695728, 216385.893179
   4.752144, 216385.893179
   4.808457, 216385.893179
   4.865440, 216385.893179
   4.923039, 216385.893179
   4.980557, 216385.893179
   5.038308, 216385.893179
   5.096308, 216385.893179
   5.154278, 216385.893179
   5.212626, 216385.893179
   5.270886, 216385.893179
   5.329702, 216385.893179
   5.388881, 216385.893179
   5.448366, 216385.893179
   5.507676, 216385.893179
   5.567463, 216385.893179
   5.627660, 216385.893179
   5.688024, 216385.893179
   5.748526, 216385.893179
   5.809440, 216385.893179
   5.870466, 216385.893179
   5.931680, 216385.893179
   5.993469, 216385.893179
   6.055182, 216385.893179
   6.117082, 216385.893179
   6.179101, 216385.893179
   6.241612, 216385.893179
   6.304196, 216385.893179
   6.367605, 216385.893179
   6.430783, 216385.893179
   6.494015, 216385.893179
   6.557606, 216385.893179
   6.621439, 216385.893179
   6.685501, 216385.893179
   6.749745, 216385.893179
   6.814197, 216385.893179
   6.878524, 216385.893179
   6.943786, 216385.893179
   7.008955, 216385.893179
   7.074565, 216385.893179
   7.139962, 216385.893179
   7.205823, 216385.893179
   7.271955, 216385.893179
   7.338511, 216385.893179
   7.405580, 216385.893179
   7.472471, 216385.893179
   7.539507, 216385.893179
   7.606710, 216385.893179
   7.674112, 216385.893179
   7.742236, 216385.893179
   7.810576, 216385.893179
   7.878760, 216385.893179
   7.947050, 216385.893179
   8.015902, 216385.893179
   8.084694, 216385.893179
   8.153590, 216385.893179
   8.222851, 216385.893179
   8.292531, 216385.893179
   8.362432, 216385.893179
   8.432688, 216385.893179
   8.502842, 216385.893179
   8.573314, 216385.893179
   8.643966, 216385.893179
   8.714840, 216385.893179
   8.729016, 216385.893179
   8.739147, 216385.893179
   8.745994, 216385.893179
   8.751709, 216385.893179
   8.756329, 216385.893179
   8.757006, 216385.893179
   8.757675, 216385.893179
   8.758403, 216385.893179
   8.758425, 216385.893179
   8.758437, 216385.893179
   8.758446, 216385.893179
   8.758455, 216385.893179
   8.758536, 216385.893179
   8.759348, 216385.893179
   8.763824, 216385.893179
   8.781215, 216385.893179
   8.841057, 216385.893179
   8.904071, 216385.893179
   8.967163, 216385.893179
   9.030928, 216385.893179
   9.094586, 216385.893179
   9.158103, 216385.893179
   9.222161, 216385.893179
   9.286171, 216385.893179
   9.350420, 216385.893179
   9.415017, 216385.893179
   9.479469, 216385.893179
   9.544394, 216385.893179
   9.609457, 216385.893179
   9.674551, 216385.893179
   9.740241, 216385.893179
   9.805762, 216385.893179
   9.871547, 216385.893179
   9.937692, 216385.893179
  10.003918, 216385.893179
  10.070337, 216385.893179
  10.136694, 216385.893179
  10.203499, 216385.893179
  10.270098, 216385.893179
  10.337036, 216385.893179
  10.404331, 216385.893179
  10.471558, 216385.893179
  10.538669, 216385.893179
  10.606195, 216385.893179
  10.673693, 216385.893179
  10.741617, 216385.893179
  10.809652, 216385.893179
  10.877810, 216385.893179
  10.946437, 216385.893179
  11.015054, 216385.893179
  11.084118, 216385.893179
  11.153004, 216385.893179
  11.222129, 216385.893179
  11.291215, 216385.893179
  11.360446, 216385.893179
  11.430326, 216385.893179
  11.500312, 216385.893179
  11.570201, 216385.893179
  11.640344, 216385.893179
  11.710587, 216385.893179
  11.780809, 216385.893179
  11.851302, 216385.893179
  11.922132, 216385.893179
  11.992775, 216385.893179
  12.063836, 216385.893179
  12.134990, 216385.893179
  12.206206, 216385.893179
  12.277864, 216385.893179
  12.349638, 216385.893179
  12.421416, 216385.893179
  12.493390, 216385.893179
  12.565563, 216385.893179
  12.637819, 216385.893179
  12.710241, 216385.893179
  12.782939, 216385.893179
  12.855818, 216385.893179
  12.928682, 216385.893179
  13.001733, 216385.893179
  13.074772, 216385.893179
  13.148205, 216385.893179
  13.221590, 216385.893179
  13.295700, 216385.893179
  13.369620, 216385.893179
  13.443608, 216385.893179
  13.517698, 216385.893179
  13.532585, 216385.893179
  13.542569, 216385.893179
  13.551344, 216385.893179
  13.578981, 216385.893179
  13.579531, 216385.893179
  13.580220, 216385.893179
  13.580385, 216385.893179
  13.580671, 216385.893179
  13.580757, 216385.893179
  13.580774, 216385.893179
  13.580781, 216385.893179
  13.580789, 216385.893179
  13.580876, 216385.893179
  13.581647, 216385.893179
  13.586421, 216385.893179
  13.613916, 216385.893179
  13.680197, 216385.893179
  13.744943, 216385.893179
  13.809859, 216385.893179
  13.875169, 216385.893179
  13.940590, 216385.893179
  14.005909, 216385.893179
  14.071491, 216385.893179
  14.136989, 216385.893179
  14.202827, 216385.893179
  14.268711, 216385.893179
  14.334806, 216385.893179
  14.401015, 216385.893179
  14.467307, 216385.893179
  14.533700, 216385.893179
  14.600144, 216385.893179
  14.666843, 216385.893179
  14.733780, 216385.893179
  14.800773, 216385.893179
  14.867648, 216385.893179
  14.934620, 216385.893179
  15.001870, 216385.893179
  15.069226, 216385.893179
  15.136938, 216385.893179
  15.204594, 216385.893179
  15.272417, 216385.893179
  15.340409, 216385.893179
  15.408556, 216385.893179
  15.476504, 216385.893179
  15.544824, 216385.893179
  15.613351, 216385.893179
  15.681825, 216385.893179
  15.750328, 216385.893179
  15.819152, 216385.893179
  15.888010, 216385.893179
  15.956870, 216385.893179
  16.026057, 216385.893179
  16.095130, 216385.893179
  16.164526, 216385.893179
  16.234203, 216385.893179
  16.303739, 216385.893179
  16.373492, 216385.893179
  16.443361, 216385.893179
  16.513458, 216385.893179
  16.583381, 216385.893179
  16.653454, 216385.893179
  16.723765, 216385.893179
  16.794119, 216385.893179
  16.864607, 216385.893179
  16.935351, 216385.893179
  17.006122, 216385.893179
  17.077114, 216385.893179
  17.148116, 216385.893179
  17.219572, 216385.893179
  17.290926, 216385.893179
  17.362372, 216385.893179
  17.433996, 216385.893179
  17.505589, 216385.893179
  17.577313, 216385.893179
  17.649196, 216385.893179
  17.721313, 216385.893179
  17.793465, 216385.893179
  17.865501, 216385.893179
  17.938070, 216385.893179
  18.010562, 216385.893179
  18.083112, 216385.893179
  18.155847, 216385.893179
  18.228872, 216385.893179
  18.301769, 216385.893179
  18.374780, 216385.893179
  18.447924, 216385.893179
  18.521205, 216385.893179
  18.594655, 216385.893179
  18.668244, 216385.893179
  18.742025, 216385.893179
  18.815746, 216385.893179
  18.889717, 216385.893179
  18.904510, 216385.893179
  18.916914, 216385.893179
  18.926588, 216385.893179
  18.926970, 216385.893179
  18.927718, 216385.893179
  18.927945, 216385.893179
  18.928007, 216385.893179
  18.928060, 216385.893179
  18.928107, 216385.893179
  18.928583, 216385.893179
  18.932224, 216385.893179
  18.952685, 216385.893179
  19.016695, 216385.893179
  19.090689, 216385.893179
  19.164534, 216385.893179
  19.238717, 216385.893179
  19.312711, 216385.893179
  19.387062, 216385.893179
  19.461287, 216385.893179
  19.535766, 216385.893179
  19.610345, 216385.893179
  19.685058, 216385.893179
  19.760074, 216385.893179
  19.835267, 216385.893179
  19.910426, 216385.893179
  19.985505, 216385.893179
  20.061009, 216385.893179
  20.136376, 216385.893179
  20.212143, 216385.893179
  20.287917, 216385.893179
  20.363775, 216385.893179
  20.439810, 216385.893179
  20.515965, 216385.893179
  20.592064, 216385.893179
  20.668352, 216385.893179
  20.744733, 216385.893179
  20.821231, 216385.893179
  20.897923, 216385.893179
  20.974721, 216385.893179
  21.051632, 216385.893179
  21.128601, 216385.893179
  21.205575, 216385.893179
  21.282808, 216385.893179
  21.360104, 216385.893179
  21.437649, 216385.893179
  21.515250, 216385.893179
  21.592848, 216385.893179
  21.670580, 216385.893179
  21.748642, 216385.893179
  21.826568, 216385.893179
  21.904790, 216385.893179
  21.983048, 216385.893179
  22.061493, 216385.893179
  22.081734, 216385.893179
  22.140016, 216385.893179
  22.218560, 216385.893179
  22.297360, 216385.893179
  22.376454, 216385.893179
  22.455767, 216385.893179
  22.535080, 216385.893179
  22.614552, 216385.893179
  22.694254, 216385.893179
  22.774279, 216385.893179
  22.854183, 216385.893179
  22.934432, 216385.893179
  23.014658, 216385.893179
  23.095132, 216385.893179
  23.175666, 216385.893179
  23.256355, 216385.893179
  23.337140, 216385.893179
  23.417991, 216385.893179
  23.498695, 216385.893179
  23.579589, 216385.893179
  23.660336, 216385.893179
  23.741318, 216385.893179
  23.822305, 216385.893179
  23.903334, 216385.893179
  23.984409, 216385.893179
  24.065579, 216385.893179
  24.146649, 216385.893179
  24.227669, 216385.893179
  24.308708, 216385.893179
  24.314170, 216385.892881
  24.319636, 216385.891962
  24.325077, 216385.890394
  24.330531, 216385.888131
  24.336004, 216385.885128
  24.341467, 216385.881358
  24.346945, 216385.876765
  24.352432, 216385.871308
  24.357918, 216385.864953
  24.363409, 216385.857653
  24.368903, 216385.849362
  24.374397, 216385.840041
  24.379897, 216385.829638
  24.385397, 216385.818113
  24.390880, 216385.805461
  24.396397, 216385.791519
  24.401893, 216385.776366
  24.407414, 216385.759833
  24.412902, 216385.742044
  24.418429, 216385.722713
  24.423947, 216385.701950
  24.429447, 216385.679743
  24.434961, 216385.655922
  24.440472, 216385.630497
  24.445985, 216385.603394
  24.451529, 216385.574398
  24.457074, 216385.543600
  24.462638, 216385.510837
  24.468203, 216385.476144
  24.473764, 216385.439495
  24.479335, 216385.400734
  24.484915, 216385.359797
  24.490501, 216385.316646
  24.496084, 216385.271286
  24.501680, 216385.223507
  24.507269, 216385.173419
  24.512874, 216385.120747
  24.518474, 216385.065628
  24.524071, 216385.007954
  24.529660, 216384.947745
  24.535284, 216384.884440
  24.540898, 216384.818468
  24.546521, 216384.749519
  24.552159, 216384.677449
  24.557797, 216384.602368
  24.563417, 216384.524439
  24.569043, 216384.443286
  24.574642, 216384.359321
  24.580293, 216384.271265
  24.585964, 216384.179471
  24.591625, 216384.084371
  24.597306, 216383.985341
  24.602996, 216383.882479
  24.608672, 216383.776102
  24.614347, 216383.665946
  24.620034, 216383.551635
  24.625729, 216383.433162
  24.631436, 216383.310331
  24.637158, 216383.182988
  24.642853, 216383.051946
  24.648556, 216382.916380
  24.654280, 216382.775834
  24.659988, 216382.631142
  24.665722, 216382.481124
  24.671488, 216382.325504
  24.677247, 216382.165132
  24.682972, 216382.000788
  24.688746, 216381.829968
  24.694504, 216381.654432
  24.700261, 216381.473671
  24.706038, 216381.286900
  24.711829, 216381.094168
  24.717638, 216380.895220
  24.723459, 216380.690077
  24.729255, 216380.479945
  24.735074, 216380.263072
  24.740919, 216380.039090
  24.746752, 216379.809334
  24.752587, 216379.574536
  24.758450, 216379.333577
  24.764285, 216379.088663
  24.770135, 216378.838052
  24.775999, 216378.581666
  24.781870, 216378.319803
  24.787724, 216378.053449
  24.793609, 216377.780442
  24.799498, 216377.501884
  24.805413, 216377.216689
  24.811295, 216376.927725
  24.817189, 216376.632678
  24.823107, 216376.330995
  24.829049, 216376.022446
  24.834981, 216375.708851
  24.840913, 216375.389606
  24.846861, 216375.063779
  24.852808, 216374.732241
  24.858766, 216374.394352
  24.864723, 216374.050739
  24.870658, 216373.702504
  24.876624, 216373.346574
  24.882620, 216372.982872
  24.888589, 216372.614793
  24.894582, 216372.239257
  24.900599, 216371.856046
  24.906592, 216371.468194
  24.912595, 216371.073496
  24.918609, 216370.671895
  24.924634, 216370.263261
  24.930653, 216369.848664
  24.936696, 216369.426061
  24.942756, 216368.995771
  24.948821, 216368.558645
  24.954908, 216368.113350
  24.960965, 216367.663548
  24.967042, 216367.205677
  24.973104, 216366.742321
  24.979193, 216366.270122
  24.985294, 216365.790138
  24.991423, 216365.301118
  24.997527, 216364.807100
  25.003621, 216364.307032
  25.009751, 216363.796969
  25.015886, 216363.279394
  25.022027, 216362.754229
  25.028183, 216362.220581
  25.034335, 216361.680037
  25.040519, 216361.129426
  25.046685, 216360.572959
  25.052859, 216360.008441
  25.059059, 216359.434069
  25.065268, 216358.851293
  25.071457, 216358.262781
  25.077689, 216357.662599
  25.083911, 216357.055594
  25.090136, 216356.440624
  25.096361, 216355.817883
  25.097606, 216355.692351
  25.100395, 216355.410102
  25.100630, 216355.386229
  25.100818, 216355.367110
  25.100975, 216355.351165
  25.101081, 216355.340424
  25.101174, 216355.330992
  25.101262, 216355.322075
  25.101339, 216355.314182
  25.101367, 216355.311383
  25.101383, 216355.309680
  25.101393, 216355.308661
  25.101403, 216355.307733
  25.101471, 216355.300741
  25.101742, 216355.273186
  25.102595, 216355.186287
  25.105896, 216354.848710
  25.111327, 216354.288445
  25.117615, 216353.632222
  25.123885, 216352.969891
  25.130177, 216352.296992
  25.136478, 216351.614847
  25.142770, 216350.925507
  25.149059, 216350.228152
  25.155351, 216349.522128
  25.161650, 216348.806941
  25.167969, 216348.081036
  25.174287, 216347.346790
  25.180660, 216346.597377
  25.186993, 216345.843999
  25.193338, 216345.080510
  25.199703, 216344.305740
  25.206093, 216343.519155
  25.212478, 216342.724124
  25.218909, 216341.914221
  25.225308, 216341.099393
  25.231708, 216340.275238
  25.238135, 216339.438356
  25.244586, 216338.588915
  25.246752, 216338.301655
  25.251053, 216337.728166
  25.257515, 216336.858379
  25.264003, 216335.975707
  25.270466, 216335.086654
  25.276947, 216334.185587
  25.283458, 216333.270622
  25.289950, 216332.348457
  25.296474, 216331.411814
  25.303023, 216330.461657
  25.309591, 216329.498547
  25.316133, 216328.529105
  25.322684, 216327.548127
  25.329248, 216326.554998
  25.335831, 216325.548554
  25.342422, 216324.530403
  25.349054, 216323.495501
  25.355683, 216322.450264
  25.362285, 216321.398670
  25.368933, 216320.328873
  25.375565, 216319.250885
  25.382201, 216318.161530
  25.388860, 216317.057266
  25.395549, 216315.936892
  25.402237, 216314.805512
  25.408971, 216313.654931
  25.415721, 216312.490265
  25.422446, 216311.318279
  25.429185, 216310.132425
  25.435926, 216308.934597
  25.442727, 216307.714300
  25.449537, 216306.480311
  25.456342, 216305.235338
  25.463141, 216303.979393
  25.469975, 216302.704898
  25.476841, 216301.412002
  25.483701, 216300.107997
  25.490585, 216298.786757
  25.497442, 216297.458294
  25.504310, 216296.115012
  25.511208, 216294.753286
  25.518132, 216293.373461
  25.525076, 216291.976821
  25.532016, 216290.567811
  25.538993, 216289.138104
  25.545945, 216287.700317
  25.552910, 216286.246440
  25.559877, 216284.778786
  25.566859, 216283.294685
  25.573871, 216281.790441
  25.580897, 216280.269463
  25.587909, 216278.737894
  25.594954, 216277.184978
  25.601976, 216275.623250
  25.609023, 216274.042159
  25.616150, 216272.428416
  25.623265, 216270.803174
  25.630357, 216269.168538
  25.637480, 216267.512389
  25.644650, 216265.830577
  25.651805, 216264.137199
  25.658975, 216262.425425
  25.666137, 216260.700565
  25.673267, 216258.968559
  25.680450, 216257.208398
  25.687686, 216255.419907
  25.694927, 216253.614690
  25.702176, 216251.791576
  25.709418, 216249.954830
  25.716689, 216248.094706
  25.723950, 216246.221321
  25.731170, 216244.342841
  25.738517, 216242.415015
  25.745775, 216240.494274
  25.753146, 216238.527184
  25.760519, 216236.542997
  25.767857, 216234.551386
  25.775228, 216232.534132
  25.782590, 216230.502800
  25.789989, 216228.443852
  25.797394, 216226.366339
  25.804879, 216224.248856
  25.812339, 216222.120746
  25.819848, 216219.961076
  25.827356, 216217.783970
  25.834828, 216215.599221
  25.842310, 216213.393611
  25.849857, 216211.150862
  25.857401, 216208.890471
  25.864957, 216206.608311
  25.872471, 216204.320320
  25.880035, 216201.998688
  25.887614, 216199.653740
  25.895238, 216197.275679
  25.902830, 216194.888923
  25.910497, 216192.458884
  25.918124, 216190.022568
  25.925794, 216187.553032
  25.933416, 216185.079205
  25.941087, 216182.569995
  25.948792, 216180.029952
  25.956495, 216177.470482
  25.964259, 216174.870597
  25.972011, 216172.254087
  25.979773, 216169.613946
  25.987567, 216166.942161
  25.995250, 216164.288047
  26.003097, 216161.556155
  26.010925, 216158.809970
  26.018790, 216156.029343
  26.026647, 216153.230009
  26.034476, 216150.419606
  26.042369, 216147.564032
  26.050314, 216144.667948
  26.058236, 216141.757975
  26.066131, 216138.835968
  26.074075, 216135.873736
  26.082002, 216132.895377
  26.089911, 216129.901207
  26.097862, 216126.868816
  26.105869, 216123.791981
  26.113869, 216120.695103
  26.121869, 216117.574985
  26.129952, 216114.398985
  26.138002, 216111.211967
  26.146091, 216107.986281
  26.154234, 216104.714472
  26.162379, 216101.417622
  26.170435, 216098.132878
  26.178519, 216094.812982
  26.186720, 216091.419700
  26.194871, 216088.022494
  26.203039, 216084.593712
  26.211261, 216081.116709
  26.219408, 216077.646725
  26.227611, 216074.127560
  26.235845, 216070.569435
  26.244111, 216066.971508
  26.252375, 216063.348937
  26.260638, 216059.700512
  26.268911, 216056.021784
  26.277227, 216052.297363
  26.285524, 216048.555145
  26.293813, 216044.790262
  26.302215, 216040.946338
  26.310605, 216037.081001
  26.318968, 216033.200906
  26.327366, 216029.277175
  26.335839, 216025.290478
  26.344306, 216021.278269
  26.352779, 216017.235191
  26.361239, 216013.169714
  26.369730, 216009.061239
  26.378195, 216004.936972
  26.386672, 216000.777961
  26.395261, 215996.534995
  26.403810, 215992.282124
  26.412390, 215987.984786
  26.420902, 215983.692305
  26.429492, 215979.330193
  26.438112, 215974.923766
  26.446673, 215970.516799
  26.455382, 215966.003742
  26.464041, 215961.485471
  26.472703, 215956.935393
  26.481402, 215952.334525
  26.490061, 215947.724124
  26.498704, 215943.091309
  26.507407, 215938.395060
  26.516065, 215933.691992
  26.524804, 215928.913281
  26.533557, 215924.095149
  26.542327, 215919.235738
  26.551099, 215914.342559
  26.559832, 215909.439116
  26.568657, 215904.451572
  26.577476, 215899.434429
  26.586319, 215894.370914
  26.595148, 215889.282166
  26.604030, 215884.128982
  26.612930, 215878.932206
  26.621823, 215873.705136
  26.630712, 215868.446696
  26.639651, 215863.124977
  26.648572, 215857.778719
  26.657530, 215852.376578
  26.666442, 215846.967204
  26.675447, 215841.466195
  26.684506, 215835.897415
  26.693553, 215830.299231
  26.702543, 215824.701346
  26.711644, 215818.998585
  26.720663, 215813.311214
  26.729699, 215807.576948
  26.738758, 215801.792090
  26.747881, 215795.929543
  26.756994, 215790.036346
  26.766115, 215784.101315
  26.775271, 215778.106081
  26.784381, 215772.103838
  26.793559, 215766.019816
  26.802714, 215759.912290
  26.811950, 215753.713692
  26.821109, 215747.528003
  26.830355, 215741.245172
  26.839573, 215734.943430
  26.848872, 215728.546666
  26.858090, 215722.167143
  26.867321, 215715.739700
  26.876614, 215709.229985
  26.885856, 215702.716775
  26.895116, 215696.151012
  26.904429, 215689.508259
  26.913686, 215682.866477
  26.923090, 215676.078140
  26.932344, 215669.357996
  26.941588, 215662.606066
  26.950941, 215655.733845
  26.960279, 215648.831657
  26.969678, 215641.844117
  26.979086, 215634.808148
  26.988508, 215627.719801
  26.997908, 215620.606873
  27.007340, 215613.428186
  27.016859, 215606.140678
  27.026381, 215598.808177
  27.035917, 215591.421857
  27.045413, 215584.023492
  27.054946, 215576.553635
  27.064437, 215569.073342
  27.073998, 215561.494387
  27.083460, 215553.951374
  27.093051, 215546.261716
  27.102593, 215538.568225
  27.112261, 215530.727413
  27.121874, 215522.887650
  27.131411, 215515.065170
  27.141079, 215507.090965
  27.150652, 215499.150649
  27.160293, 215491.108609
  27.170021, 215482.948498
  27.179657, 215474.820481
  27.189382, 215466.571163
  27.199036, 215458.336311
  27.208696, 215450.051740
  27.218479, 215441.614473
  27.228177, 215433.204003
  27.237856, 215424.764581
  27.247478, 215416.328746
  27.257241, 215407.723322
  27.267015, 215399.060637
  27.276861, 215390.286186
  27.286592, 215381.567923
  27.296416, 215372.717839
  27.306170, 215363.883659
  27.316031, 215354.904464
  27.325876, 215345.892525
  27.335694, 215336.855789
  27.345452, 215327.827731
  27.355314, 215318.654812
  27.365200, 215309.410424
  27.375142, 215300.064289
  27.384948, 215290.797100
  27.394830, 215281.409137
  27.404714, 215271.970418
  27.414621, 215262.460419
  27.424577, 215252.853965
  27.434524, 215243.205655
  27.444520, 215233.458498
  27.454538, 215223.640141
  27.464522, 215213.804601
  27.474532, 215203.891452
  27.484548, 215193.922017
  27.494495, 215183.970895
  27.504517, 215173.893820
  27.514510, 215163.794793
  27.524424, 215153.724483
  27.534412, 215143.528827
  27.544431, 215133.249332
  27.554473, 215122.894685
  27.564535, 215112.468562
  27.574666, 215101.916756
  27.584751, 215091.361329
  27.594778, 215080.815171
  27.604844, 215070.174986
  27.614911, 215059.481364
  27.624930, 215048.786603
  27.634900, 215038.093371
  27.645169, 215027.024916
  27.655251, 215016.105102
  27.665469, 215004.983680
  27.675574, 214993.932551
  27.685715, 214982.787822
  27.695838, 214971.610776
  27.706032, 214960.300623
  27.716226, 214948.936349
  27.726450, 214937.483294
  27.736659, 214925.993117
  27.746806, 214914.519445
  27.757027, 214902.906533
  27.767221, 214891.270724
  27.777496, 214879.486437
  27.780883, 214875.589813
