Ground distance, Thrust
   0.000000, 2396.136399
  18.623565, 2396.136399
  37.247175, 2396.136399
  55.870786, 2396.136399
  74.494962, 2396.136399
  93.119186, 2396.136399
 111.743410, 2396.136399
 130.367634, 2396.136399
 148.991858, 2396.136399
 167.616082, 2396.136399
 186.240306, 2396.136399
 204.864530, 2396.136399
 223.488754, 2396.136399
 242.112977, 2396.136399
 260.737998, 2396.136399
 279.363086, 2396.136399
 297.988174, 2396.136399
 316.613263, 2396.136399
 335.238351, 2396.136399
 353.863439, 2396.136399
 372.488528, 2396.136399
 391.113616, 2396.136399
 409.738704, 2396.136399
 428.363793, 2396.136399
 446.989654, 2396.136399
 465.615581, 2396.136399
 484.241508, 2396.136399
 502.867434, 2396.136399
 521.493361, 2396.136399
 540.119288, 2396.136399
 558.745215, 2396.136399
 577.371142, 2396.136399
 595.997069, 2396.136399
 614.622996, 2396.136399
 633.249675, 2396.136399
 651.876418, 2396.136399
 670.503161, 2396.136399
 689.129904, 2396.136399
 707.756647, 2396.136399
 726.383391, 2396.136399
 745.010134, 2396.136399
 763.636877, 2396.136399
 782.263620, 2396.136399
 800.890363, 2396.136399
 819.517981, 2396.136399
 838.145674, 2396.136399
 856.773367, 2396.136399
 875.401060, 2396.136399
 894.028753, 2396.136399
 912.656445, 2396.136399
 931.284138, 2396.136399
 949.911831, 2396.136399
 968.539524, 2396.136399
 987.167217, 2396.136399
1005.795774, 2396.136399
1024.424405, 2396.136399
1043.053035, 2396.136399
1061.681666, 2396.136399
1080.310297, 2396.136399
1098.938928, 2396.136399
1117.567558, 2396.136399
1136.196189, 2396.136399
1154.824820, 2396.136399
1173.453451, 2396.136399
1192.082866, 2396.136399
1210.712349, 2396.136399
1229.341832, 2396.136399
1247.971314, 2396.136399
1266.600797, 2396.136399
1285.230280, 2396.136399
1303.859762, 2396.136399
1322.489245, 2396.136399
1341.118728, 2396.136399
1359.748210, 2396.136399
1378.378445, 2396.136399
1397.008744, 2396.136399
1415.639042, 2396.136399
1434.269341, 2396.136399
1452.899640, 2396.136399
1471.529938, 2396.136399
1490.160237, 2396.136399
1508.790536, 2396.136399
1527.420834, 2396.136399
1546.051133, 2396.136399
1564.682295, 2396.136399
1583.313531, 2396.136399
1601.944767, 2396.136399
1620.576003, 2396.136399
1639.207239, 2396.136399
1657.838475, 2396.136399
1676.469711, 2396.136399
1695.100947, 2396.136399
1713.732183, 2396.136399
1732.363419, 2396.136399
1750.995497, 2396.136399
1769.627648, 2396.136399
1788.259798, 2396.136399
1806.891949, 2396.136399
1825.524100, 2396.136399
1844.156250, 2396.136399
1862.788401, 2396.136399
1881.420551, 2396.136399
1900.052702, 2396.136399
1918.684852, 2396.136399
1937.317759, 2396.136399
1955.950729, 2396.136399
1974.583700, 2396.136399
1993.216670, 2396.136399
2011.849641, 2396.136399
2030.482612, 2396.136399
2049.115582, 2396.136399
2067.748553, 2396.136399
2086.381523, 2396.136399
2105.014494, 2396.136399
2123.648181, 2396.136399
2142.281929, 2396.136399
2160.915678, 2396.136399
2179.549426, 2396.136399
2198.183174, 2396.136399
2216.816923, 2396.136399
2235.450671, 2396.136399
2254.084419, 2396.136399
2272.718168, 2396.136399
2291.351916, 2396.136399
2309.986491, 2396.136399
2328.621136, 2396.136399
2347.255781, 2396.136399
2365.890427, 2396.136399
2384.525072, 2396.136399
2403.159717, 2396.136399
2421.794362, 2396.136399
2440.429008, 2396.136399
2459.063653, 2396.136399
2477.698298, 2396.136399
2496.333749, 2396.136399
2514.969268, 2396.136399
2533.604788, 2396.136399
2552.240307, 2396.136399
2570.875826, 2396.136399
2589.511346, 2396.136399
2608.146865, 2396.136399
2626.782384, 2396.136399
2645.417904, 2396.136399
2664.053423, 2396.136399
2682.689663, 2396.136399
2701.325965, 2396.136399
2719.962266, 2396.136399
2738.598568, 2396.136399
2757.234869, 2396.136399
2775.871171, 2396.136399
2794.507472, 2396.136399
2813.143774, 2396.136399
2831.780075, 2396.136399
2850.416377, 2396.136399
2869.053365, 2396.136399
2887.690413, 2396.136399
2906.327460, 2396.136399
2924.964507, 2396.136399
2943.601554, 2396.136399
2962.238601, 2396.136399
2980.875648, 2396.136399
2999.512696, 2396.136399
3018.149743, 2396.136399
3036.786790, 2396.136399
3055.424640, 2396.136399
3074.062559, 2396.136399
3092.700478, 2396.136399
3111.338397, 2396.136399
3129.976316, 2396.136399
3148.614234, 2396.136399
3167.252153, 2396.136399
3185.890072, 2396.136399
3204.527991, 2396.136399
3223.165910, 2396.136399
3241.804619, 2396.136399
3260.443396, 2396.136399
3279.082173, 2396.136399
3297.720950, 2396.136399
3316.359727, 2396.136399
3334.998504, 2396.136399
3353.637280, 2396.136399
3372.276057, 2396.136399
3390.914834, 2396.136399
3409.553611, 2396.136399
3428.193103, 2396.136399
3446.832656, 2396.136399
3465.472208, 2396.136399
3484.111761, 2396.136399
3502.751314, 2396.136399
3521.390867, 2396.136399
3540.030420, 2396.136399
3558.669972, 2396.136399
3577.309525, 2396.136399
3595.949078, 2396.136399
3614.589321, 2396.136399
3633.229624, 2396.136399
3651.869926, 2396.136399
3670.510229, 2396.136399
3689.150531, 2396.136399
3707.790834, 2396.136399
3726.431136, 2396.136399
3745.071439, 2396.136399
3763.711741, 2396.136399
3782.352043, 2396.136399
3800.993162, 2396.136399
3819.634351, 2396.136399
3838.275539, 2396.136399
3856.916727, 2396.136399
3875.557916, 2396.136399
3894.199104, 2396.136399
3912.840293, 2396.136399
3931.481481, 2396.136399
3950.122669, 2396.136399
3968.763858, 2396.136399
3987.405858, 2396.136399
4006.047928, 2396.136399
4024.689998, 2396.136399
4043.332068, 2396.136399
4061.974138, 2396.136399
4080.616208, 2396.136399
4099.258278, 2396.136399
4117.900347, 2396.136399
4136.542417, 2396.136399
4155.184487, 2396.136399
4173.827301, 2396.136399
4192.470178, 2396.136399
4211.113055, 2396.136399
4229.755932, 2396.136399
4248.398809, 2396.136399
4267.041685, 2396.136399
4285.684562, 2396.136399
4304.327439, 2396.136399
4322.970316, 2396.136399
4341.613193, 2396.136399
4360.256795, 2396.136399
4378.900459, 2396.136399
4397.544123, 2396.136399
4416.187787, 2396.136399
4434.831451, 2396.136399
4453.475115, 2396.136399
4472.118779, 2396.136399
4490.762443, 2396.136399
4509.406106, 2396.136399
4528.049770, 2396.136399
4546.694289, 2396.136399
4565.338880, 2396.136399
4583.983471, 2396.136399
4602.628063, 2396.136399
4621.272654, 2396.136399
4639.917245, 2396.136399
4658.561837, 2396.136399
4677.206428, 2396.136399
4695.851019, 2396.136399
4714.495611, 2396.136399
4733.141054, 2396.136399
4751.786570, 2396.136399
4770.432086, 2396.136399
4789.077603, 2396.136399
4807.723119, 2396.136399
4826.368635, 2396.136399
4845.014151, 2396.136399
4863.659667, 2396.136399
4882.305183, 2396.136399
4900.950700, 2396.136399
4919.596999, 2396.136399
4938.243365, 2396.136399
4956.889731, 2396.136399
4975.536097, 2396.136399
4994.182464, 2396.136399
5012.828830, 2396.136399
5031.475196, 2396.136399
5050.121562, 2396.136399
5068.767928, 2396.136399
5087.414294, 2396.136399
5106.061423, 2396.136399
5124.708617, 2396.136399
5143.355810, 2396.136399
5162.003004, 2396.136399
5180.650197, 2396.136399
5199.297391, 2396.136399
5217.944584, 2396.136399
5236.591778, 2396.136399
5255.238972, 2396.136399
5273.886165, 2396.136399
5292.534247, 2396.136399
5311.182404, 2396.136399
5329.830562, 2396.136399
5348.478719, 2396.136399
5367.126877, 2396.136399
5385.775034, 2396.136399
5404.423191, 2396.136399
5423.071349, 2396.136399
5441.719506, 2396.136399
5460.367664, 2396.136399
5479.016701, 2396.136399
5497.665814, 2396.136399
5516.314927, 2396.136399
5534.964040, 2396.136399
5553.613153, 2396.136399
5572.262265, 2396.136399
5590.911378, 2396.136399
5609.560491, 2396.136399
5628.209604, 2396.136399
5646.858717, 2396.136399
5665.508634, 2396.136399
5684.158621, 2396.136399
5702.808607, 2396.136399
5721.458594, 2396.136399
5740.108580, 2396.136399
5758.758566, 2396.136399
5777.408553, 2396.136399
5796.058539, 2396.136399
5814.708526, 2396.136399
5833.358512, 2396.136399
5852.009276, 2396.136399
5870.660105, 2396.136399
5889.310935, 2396.136399
5907.961765, 2396.136399
5926.612594, 2396.136399
5945.263424, 2396.136399
5963.914254, 2396.136399
5982.565084, 2396.136399
6001.215913, 2396.136399
6019.866743, 2396.136399
6038.518469, 2396.136399
6057.170271, 2396.136399
6075.822073, 2396.136399
6094.473875, 2396.136399
6113.125677, 2396.136399
6131.777478, 2396.136399
6150.429280, 2396.136399
6169.081082, 2396.136399
6187.732884, 2396.136399
6206.384686, 2396.136399
6225.037369, 2396.136399
6243.690127, 2396.136399
6262.342886, 2396.136399
6280.995644, 2396.136399
6299.648402, 2396.136399
6318.301160, 2396.136399
6336.953918, 2396.136399
6355.606677, 2396.136399
6374.259435, 2396.136399
6392.912193, 2396.136399
6411.565751, 2396.136399
6430.219376, 2396.136399
6448.873002, 2396.136399
6467.526628, 2396.136399
6486.180253, 2396.136399
6504.833879, 2396.136399
6523.487505, 2396.136399
6542.141130, 2396.136399
6560.794756, 2396.136399
6579.448382, 2396.136399
6598.102774, 2396.136399
6616.757231, 2396.136399
6635.411688, 2396.136399
6654.066145, 2396.136399
6672.720603, 2396.136399
6691.375060, 2396.136399
6710.029517, 2396.136399
6728.683974, 2396.136399
6747.338431, 2396.136399
6765.992889, 2396.136399
6784.648227, 2396.136399
6803.303640, 2396.136399
6821.959054, 2396.136399
6840.614467, 2396.136399
6859.269880, 2396.136399
6877.925294, 2396.136399
6896.580707, 2396.136399
6915.236121, 2396.136399
6933.891534, 2396.136399
6952.546947, 2396.136399
6971.203225, 2396.136399
6989.859575, 2396.136399
7008.515926, 2396.136399
7027.172277, 2396.136399
7045.828628, 2396.136399
7064.484979, 2396.136399
7083.141329, 2396.136399
7101.797680, 2396.136399
7120.454031, 2396.136399
7139.110382, 2396.136399
7157.767513, 2396.136399
7176.424712, 2396.136399
7195.081910, 2396.136399
7213.739108, 2396.136399
7232.396306, 2396.136399
7251.053504, 2396.136399
7269.710703, 2396.136399
7288.367901, 2396.136399
7307.025099, 2396.136399
7325.682297, 2396.136399
7344.340244, 2396.136399
7362.998254, 2396.136399
7381.656264, 2396.136399
7400.314274, 2396.136399
7418.972284, 2396.136399
7437.630294, 2396.136399
7456.288304, 2396.136399
7474.946314, 2396.136399
7493.604324, 2396.136399
7512.262334, 2396.136399
7530.921209, 2396.136399
7549.580158, 2396.136399
7568.239107, 2396.136399
7586.898055, 2396.136399
7605.557004, 2396.136399
7624.215953, 2396.136399
7642.874902, 2396.136399
7661.533851, 2396.136399
7680.192800, 2396.136399
7698.851748, 2396.136399
7717.511548, 2396.136399
7736.171420, 2396.136399
7754.831292, 2396.136399
7773.491165, 2396.136399
7792.151037, 2396.136399
7810.810909, 2396.136399
7829.470781, 2396.136399
7848.130653, 2396.136399
7866.790526, 2396.136399
7885.450398, 2396.136399
7904.111042, 2396.136399
7922.771752, 2396.136399
7941.432462, 2396.136399
7960.093172, 2396.136399
7978.753882, 2396.136399
7997.414592, 2396.136399
8016.075302, 2396.136399
8034.736012, 2396.136399
8053.396722, 2396.136399
8072.057432, 2396.136399
8090.718886, 2396.136399
8109.380403, 2396.136399
8128.041921, 2396.136399
8146.703438, 2396.136399
8165.364956, 2396.136399
8184.026473, 2396.136399
8202.687990, 2396.136399
8221.349508, 2396.136399
8240.011025, 2396.136399
8258.672543, 2396.136399
8277.334927, 2396.136399
8295.997385, 2396.136399
8314.659843, 2396.136399
8333.322300, 2396.136399
8351.984758, 2396.136399
8370.647216, 2396.136399
8389.309674, 2396.136399
8407.972132, 2396.136399
8426.634590, 2396.136399
8445.297047, 2396.136399
8463.960363, 2396.136399
8482.623752, 2396.136399
8501.287140, 2396.136399
8519.950529, 2396.136399
8538.613917, 2396.136399
8557.277306, 2396.136399
8575.940695, 2396.136399
8594.604083, 2396.136399
8613.267472, 2396.136399
8631.930861, 2396.136399
8650.595033, 2396.136399
8669.259273, 2396.136399
8687.923512, 2396.136399
8706.587751, 2396.136399
8725.251991, 2396.136399
8743.916230, 2396.136399
8762.580469, 2396.136399
8781.244709, 2396.136399
8799.908948, 2396.136399
8818.573187, 2396.136399
8837.238187, 2396.136399
8855.903252, 2396.136399
8874.568317, 2396.136399
8893.233381, 2396.136399
8911.898446, 2396.136399
8930.563511, 2396.136399
8949.228575, 2396.136399
8967.893640, 2396.136399
8986.558705, 2396.136399
9005.223770, 2396.136399
9023.889721, 2396.136399
9042.555749, 2396.136399
9061.221776, 2396.136399
9079.887804, 2396.136399
9098.553831, 2396.136399
9117.219858, 2396.136399
9135.885886, 2396.136399
9154.551913, 2396.136399
9173.217940, 2396.136399
9191.883968, 2396.136399
9210.550876, 2396.136399
9229.217860, 2396.136399
9247.884843, 2396.136399
9266.551827, 2396.136399
9285.218810, 2396.136399
9303.885794, 2396.136399
9322.552777, 2396.136399
9341.219761, 2396.136399
9359.886744, 2396.136399
9378.553728, 2396.136399
9397.221520, 2396.136399
9415.889382, 2396.136399
9434.557243, 2396.136399
9453.225105, 2396.136399
9471.892966, 2396.136399
9490.560827, 2396.136399
9509.228689, 2396.136399
9527.896550, 2396.136399
9546.564412, 2396.136399
9565.232273, 2396.136399
9583.900921, 2396.136399
9602.569635, 2396.136399
9621.238350, 2396.136399
9639.907065, 2396.136399
9658.575779, 2396.136399
9677.244494, 2396.136399
9695.913209, 2396.136399
9714.581923, 2396.136399
9733.250638, 2396.136399
9751.919353, 2396.136399
9770.588980, 2396.136399
9789.258684, 2396.136399
9807.928389, 2396.136399
9826.598094, 2396.136399
9845.267799, 2396.136399
9863.937503, 2396.136399
9882.607208, 2396.136399
9901.276913, 2396.136399
9919.946618, 2396.136399
9938.616323, 2396.136399
9957.286932, 2396.136399
9975.957619, 2396.136399
9994.628305, 2396.136399
10013.298992, 2396.136399
10031.969679, 2396.136399
10050.640366, 2396.136399
10069.311052, 2396.136399
10087.981739, 2396.136399
10106.652426, 2396.136399
10125.323112, 2396.136399
10143.994629, 2396.136399
10162.666217, 2396.136399
10181.337804, 2396.136399
10200.009392, 2396.136399
10218.680979, 2396.136399
10237.352567, 2396.136399
10256.024154, 2396.136399
10274.695742, 2396.136399
10293.367329, 2396.136399
10312.038917, 2396.136399
10330.711308, 2396.136399
10349.383768, 2396.136399
10368.056228, 2396.136399
10386.728689, 2396.136399
10405.401149, 2396.136399
10424.073609, 2396.136399
10442.746069, 2396.136399
10461.418529, 2396.136399
10480.090989, 2396.136399
10498.763449, 2396.136399
10517.436836, 2396.136399
10536.110302, 2396.136399
10554.783768, 2396.136399
10573.457233, 2396.136399
10592.130699, 2396.136399
10610.804165, 2396.136399
10629.477631, 2396.136399
10648.151096, 2396.136399
10666.824562, 2396.136399
10685.498028, 2396.136399
10704.172409, 2396.136399
10722.846868, 2396.136399
10741.521326, 2396.136399
10760.195785, 2396.136399
10778.870244, 2396.136399
10797.544703, 2396.136399
10816.219162, 2396.136399
10834.893620, 2396.136399
10853.568079, 2396.136399
10872.242538, 2396.136399
10890.917831, 2396.136399
10909.593195, 2396.136399
10928.268559, 2396.136399
10946.943924, 2396.136399
10965.619288, 2396.136399
10984.294652, 2396.136399
11002.970016, 2396.136399
11021.645380, 2396.136399
11040.320745, 2396.136399
11058.996109, 2396.136399
11077.672274, 2396.136399
11096.348508, 2396.136399
11115.024741, 2396.136399
11133.700974, 2396.136399
11152.377208, 2396.136399
11171.053441, 2396.136399
11189.729675, 2396.136399
11208.405908, 2396.136399
11227.082142, 2396.136399
11245.758375, 2396.136399
11264.435523, 2396.136399
11283.112748, 2396.136399
11301.789974, 2396.136399
11320.467199, 2396.136399
11339.144424, 2396.136399
11357.821650, 2396.136399
11376.498875, 2396.136399
11395.176101, 2396.136399
11413.853326, 2396.136399
11432.530552, 2396.136399
11451.208676, 2396.136399
11469.886877, 2396.136399
11488.565077, 2396.136399
11507.243278, 2396.136399
11525.921479, 2396.136399
11544.599680, 2396.136399
11563.277881, 2396.136399
11581.956081, 2396.136399
11600.634282, 2396.136399
11619.312483, 2396.136399
11637.991500, 2396.136399
11656.670587, 2396.136399
11675.349674, 2396.136399
11694.028761, 2396.136399
11712.707848, 2396.136399
11731.386934, 2396.136399
11750.066021, 2396.136399
11768.745108, 2396.136399
11787.424195, 2396.136399
11806.103282, 2396.136399
11824.783152, 2396.136399
11843.463089, 2396.136399
11862.143027, 2396.136399
11880.822964, 2396.136399
11899.502901, 2396.136399
11918.182838, 2396.136399
11936.862775, 2396.136399
11955.542713, 2396.136399
11974.222650, 2396.136399
11992.902587, 2396.136399
12011.583424, 2396.136399
12030.264338, 2396.136399
12048.945251, 2396.136399
12067.626165, 2396.136399
12086.307079, 2396.136399
12104.987992, 2396.136399
12123.668906, 2396.136399
12142.349819, 2396.136399
12161.030733, 2396.136399
12179.711647, 2396.136399
12198.393449, 2396.136399
12217.075327, 2396.136399
12235.757205, 2396.136399
12254.439083, 2396.136399
12273.120961, 2396.136399
12291.802839, 2396.136399
12310.484717, 2396.136399
12329.166595, 2396.136399
12347.848473, 2396.136399
12366.530350, 2396.136399
12385.213039, 2396.136399
12403.895797, 2396.136399
12422.578555, 2396.136399
12441.261313, 2396.136399
12459.944071, 2396.136399
12478.626829, 2396.136399
12497.309587, 2396.136399
12515.992345, 2396.136399
12534.675103, 2396.136399
12553.357861, 2396.136399
12572.041403, 2396.136399
12590.725011, 2396.136399
12609.408619, 2396.136399
12628.092228, 2396.136399
12646.775836, 2396.136399
12665.459444, 2396.136399
12684.143052, 2396.136399
12702.826660, 2396.136399
12721.510269, 2396.136399
12740.193877, 2396.136399
12758.878390, 2396.136399
12777.562981, 2396.136399
12796.247572, 2396.136399
12814.932162, 2396.136399
12833.616753, 2396.136399
12852.301344, 2396.136399
12870.985934, 2396.136399
12889.670525, 2396.136399
12908.355116, 2396.136399
12927.039706, 2396.136399
12945.725196, 2396.136399
12964.410763, 2396.136399
12983.096330, 2396.136399
13001.781897, 2396.136399
13020.467463, 2396.136399
13039.153030, 2396.136399
13057.838597, 2396.136399
13076.524164, 2396.136399
13095.209730, 2396.136399
13113.895297, 2396.136399
13132.581690, 2396.136399
13151.268154, 2396.136399
13169.954618, 2396.136399
13188.641082, 2396.136399
13207.327545, 2396.136399
13226.014009, 2396.136399
13244.700473, 2396.136399
13263.386937, 2396.136399
13282.073400, 2396.136399
13300.759864, 2396.136399
13319.447010, 2396.136399
13338.134214, 2396.136399
13356.821418, 2396.136399
13375.508621, 2396.136399
13394.195825, 2396.136399
13412.883029, 2396.136399
13431.570233, 2396.136399
13450.257437, 2396.136399
13468.944641, 2396.136399
13487.631844, 2396.136399
13506.319671, 2396.136399
13525.007551, 2396.136399
13543.695431, 2396.136399
13562.383311, 2396.136399
13581.071191, 2396.136399
13599.759071, 2396.136399
13618.446951, 2396.136399
13637.134832, 2396.136399
13655.822712, 2396.136399
13674.510592, 2396.136399
13693.199200, 2396.136399
13711.887870, 2396.136399
13730.576541, 2396.136399
13749.265211, 2396.136399
13767.953882, 2396.136399
13786.642552, 2396.136399
13805.331223, 2396.136399
13824.019893, 2396.136399
13842.708564, 2396.136399
13861.397234, 2396.136399
13880.086544, 2396.136399
13898.775908, 2396.136399
13917.465272, 2396.136399
13936.154637, 2396.136399
13954.844001, 2396.136399
13973.533365, 2396.136399
13992.222729, 2396.136399
14010.912093, 2396.136399
14029.601457, 2396.136399
14048.290822, 2396.136399
14066.980938, 2396.136399
14085.671119, 2396.136399
14104.361300, 2396.136399
14123.051480, 2396.136399
14141.741661, 2396.136399
14160.431842, 2396.136399
14179.122023, 2396.136399
14197.812203, 2396.136399
14216.502384, 2396.136399
14235.192565, 2396.136399
14253.883492, 2396.136399
14272.574483, 2396.136399
14291.265475, 2396.136399
14309.956466, 2396.136399
14328.647457, 2396.136399
14347.338448, 2396.136399
14366.029439, 2396.136399
14384.720430, 2396.136399
14403.411421, 2396.136399
14422.102412, 2396.136399
14440.794120, 2396.136399
14459.485889, 2396.136399
14478.177657, 2396.136399
14496.869426, 2396.136399
14515.561194, 2396.136399
14534.252963, 2396.136399
14552.944731, 2396.136399
14571.636500, 2396.136399
14590.328269, 2396.136399
14609.020037, 2396.136399
14627.712941, 2396.136399
14646.405942, 2396.136399
14665.098944, 2396.136399
14683.791945, 2396.136399
14702.484946, 2396.136399
14721.177947, 2396.136399
14739.870948, 2396.136399
14758.563949, 2396.136399
14777.256950, 2396.136399
14795.949951, 2396.136399
14814.643995, 2396.136399
14833.338128, 2396.136399
14852.032261, 2396.136399
14870.726394, 2396.136399
14889.420527, 2396.136399
14908.114659, 2396.136399
14926.808792, 2396.136399
14945.502925, 2396.136399
14964.197058, 2396.136399
14982.891191, 2396.136399
15001.586727, 2396.136399
15020.282382, 2396.136399
15038.978037, 2396.136399
15057.673692, 2396.136399
15076.369347, 2396.136399
15095.065003, 2396.136399
15113.760658, 2396.136399
15132.456313, 2396.136399
15151.151968, 2396.136399
15169.847624, 2396.136399
15188.544619, 2396.136399
15207.241728, 2396.136399
15225.938837, 2396.136399
15244.635946, 2396.136399
15263.333055, 2396.136399
15282.030164, 2396.136399
15300.727274, 2396.136399
15319.424383, 2396.136399
15338.121492, 2396.136399
15356.818601, 2396.136399
15375.516958, 2396.136399
15394.215421, 2396.136399
15412.913884, 2396.136399
15431.612347, 2396.136399
15450.310810, 2396.136399
15469.009273, 2396.136399
15487.707735, 2396.136399
15506.406198, 2396.136399
15525.104661, 2396.136399
15543.803124, 2396.136399
15562.502864, 2396.136399
15581.202712, 2396.136399
15599.902560, 2396.136399
15618.602408, 2396.136399
15637.302257, 2396.136399
15656.002105, 2396.136399
15674.701953, 2396.136399
15693.401801, 2396.136399
15712.101649, 2396.136399
15730.801498, 2396.136399
15749.503027, 2396.136399
15768.204700, 2396.136399
15786.906373, 2396.136399
15805.608046, 2396.136399
15824.309719, 2396.136399
15843.011393, 2396.136399
15861.713066, 2396.136399
15880.414739, 2396.136399
15899.116412, 2396.136399
15917.818085, 2396.136399
15936.521309, 2396.136399
15955.224666, 2396.136399
15973.928023, 2396.136399
15992.631380, 2396.136399
16011.334737, 2396.136399
16030.038094, 2396.136399
16048.741451, 2396.136399
16067.444808, 2396.136399
16086.148165, 2396.136399
16104.851522, 2396.136399
16123.556521, 2396.136399
16142.261661, 2396.136399
16160.966800, 2396.136399
16179.671939, 2396.136399
16198.377078, 2396.136399
16217.082217, 2396.136399
16235.787356, 2396.136399
16254.492495, 2396.136399
16273.197635, 2396.136399
16291.902774, 2396.136399
16310.609572, 2396.136399
16329.316512, 2396.136399
16348.023452, 2396.136399
16366.730392, 2396.136399
16385.437331, 2396.136399
16404.144271, 2396.136399
16422.851211, 2396.136399
16441.558151, 2396.136399
16460.265091, 2396.136399
16478.972030, 2396.136399
16497.680956, 2396.136399
16516.390051, 2396.136399
16535.099146, 2396.136399
16553.808241, 2396.136399
16572.517336, 2396.136399
16591.226431, 2396.136399
16609.935526, 2396.136399
16628.644621, 2396.136399
16647.353716, 2396.136399
16666.062811, 2396.136399
16684.773858, 2396.136399
16703.485072, 2396.136399
16722.196285, 2396.136399
16740.907498, 2396.136399
16759.618712, 2396.136399
16778.329925, 2396.136399
16797.041139, 2396.136399
16815.752352, 2396.136399
16834.463565, 2396.136399
16853.174779, 2396.136399
16871.888266, 2396.136399
16890.601947, 2396.136399
16909.315627, 2396.136399
16928.029308, 2396.136399
16946.742989, 2396.136399
16965.456670, 2396.136399
16984.170350, 2396.136399
17002.884031, 2396.136399
17021.597712, 2396.136399
17040.311393, 2396.136399
17059.027178, 2396.136399
17077.743143, 2396.136399
17096.459108, 2396.136399
17115.175073, 2396.136399
17133.891038, 2396.136399
17152.607003, 2396.136399
17171.322968, 2396.136399
17190.038933, 2396.136399
17208.754898, 2396.136399
17227.470863, 2396.136399
17246.188868, 2396.136399
17264.907046, 2396.136399
17283.625224, 2396.136399
17302.343402, 2396.136399
17321.061580, 2396.136399
17339.779758, 2396.136399
17358.497936, 2396.136399
17377.216114, 2396.136399
17395.934292, 2396.136399
17414.652470, 2396.136399
17433.372651, 2396.136399
17452.093004, 2396.136399
17470.813356, 2396.136399
17489.533708, 2396.136399
17508.254060, 2396.136399
17526.974413, 2396.136399
17545.694765, 2396.136399
17564.415117, 2396.136399
17583.135470, 2396.136399
17601.855822, 2396.136399
17620.578118, 2396.136399
17639.300581, 2396.136399
17658.023043, 2396.136399
17676.745506, 2396.136399
17695.467968, 2396.136399
17714.190431, 2396.136399
17732.912893, 2396.136399
17751.635356, 2396.136399
17770.357818, 2396.136399
17789.080281, 2396.136399
17807.804664, 2396.136399
17826.529211, 2396.136399
17845.253758, 2396.136399
17863.978305, 2396.136399
17882.702852, 2396.136399
17901.427399, 2396.136399
17920.151946, 2396.136399
17938.876493, 2396.136399
17957.601040, 2396.136399
17976.325587, 2396.136399
17995.051980, 2396.136399
18013.778531, 2396.136399
18032.505082, 2396.136399
18051.231632, 2396.136399
18069.958183, 2396.136399
18088.684734, 2396.136399
18107.411285, 2396.136399
18126.137835, 2396.136399
18144.864386, 2396.136399
18163.590937, 2396.136399
18182.319452, 2396.136399
18201.048135, 2396.136399
18219.776818, 2396.136399
18238.505501, 2396.136399
18257.234184, 2396.136399
18275.962867, 2396.136399
18294.691550, 2396.136399
18313.420233, 2396.136399
18332.148915, 2396.136399
18350.877598, 2396.136399
18369.608583, 2396.136399
18388.339763, 2396.136399
18407.070944, 2396.136399
18425.802124, 2396.136399
18444.533305, 2396.136399
18463.264486, 2396.136399
18481.995666, 2396.136399
18500.726847, 2396.136399
18519.458027, 2396.136399
18538.189208, 2396.136399
18556.922534, 2396.136399
18575.656042, 2396.136399
18594.389551, 2396.136399
18613.123060, 2396.136399
18631.856569, 2396.136399
18650.590078, 2396.136399
18669.323586, 2396.136399
18688.057095, 2396.136399
18706.790604, 2396.136399
18725.524113, 2396.136399
18744.259713, 2396.136399
18762.995491, 2396.136399
18781.731270, 2396.136399
18800.467048, 2396.136399
18819.202826, 2396.136399
18837.938605, 2396.136399
18856.674383, 2396.136399
18875.410162, 2396.136399
18894.145940, 2396.136399
18912.881718, 2396.136399
18931.619562, 2396.136399
18950.357581, 2396.136399
18969.095600, 2396.136399
18987.833619, 2396.136399
19006.571639, 2396.136399
19025.309658, 2396.136399
19044.047677, 2396.136399
19062.785696, 2396.136399
19081.523716, 2396.136399
19100.261735, 2396.136399
19119.001767, 2396.136399
19137.741970, 2396.136399
19156.482174, 2396.136399
19175.222377, 2396.136399
19193.962580, 2396.136399
19212.702784, 2396.136399
19231.442987, 2396.136399
19250.183191, 2396.136399
19268.923394, 2396.136399
19287.663597, 2396.136399
19306.405793, 2396.136399
19325.148159, 2396.136399
19343.890525, 2396.136399
19362.632891, 2396.136399
19381.375257, 2396.136399
19400.117623, 2396.136399
19418.859989, 2396.136399
19437.602354, 2396.136399
19456.344720, 2396.136399
19475.087086, 2396.136399
19493.831371, 2396.136399
19512.575819, 2396.136399
19531.320267, 2396.136399
19550.064715, 2396.136399
19568.809163, 2396.136399
19587.553612, 2396.136399
19606.298060, 2396.136399
19625.042508, 2396.136399
19643.786956, 2396.136399
19662.531404, 2396.136399
19681.277888, 2396.136399
19700.024545, 2396.136399
19718.771202, 2396.136399
19737.517859, 2396.136399
19756.264516, 2396.136399
19775.011173, 2396.136399
19793.757830, 2396.136399
19812.504487, 2396.136399
19831.251143, 2396.136399
19849.997800, 2396.136399
19868.746826, 2396.136399
19887.496053, 2396.136399
19906.245280, 2396.136399
19924.994507, 2396.136399
19943.743735, 2396.136399
19962.492962, 2396.136399
19981.242189, 2396.136399
19999.991416, 2396.136399
20018.740643, 2396.136399
20037.489871, 2396.136399
20056.241302, 2396.136399
20074.992922, 2396.136399
20093.744541, 2396.136399
20112.496160, 2396.136399
20131.247780, 2396.136399
20149.999399, 2396.136399
20168.751019, 2396.136399
20187.502638, 2396.136399
20206.254258, 2396.136399
20225.005877, 2396.136399
20243.759638, 2396.136399
20262.513581, 2396.136399
20281.267524, 2396.136399
20300.021467, 2396.136399
20318.775411, 2396.136399
20337.529354, 2396.136399
20356.283297, 2396.136399
20375.037240, 2396.136399
20393.791184, 2396.136399
20412.545127, 2396.136399
20431.301175, 2396.136399
20450.057402, 2396.136399
20468.813629, 2396.136399
20487.569856, 2396.136399
20506.326083, 2396.136399
20525.082310, 2396.136399
20543.838537, 2396.136399
20562.594764, 2396.136399
20581.350991, 2396.136399
20600.107218, 2396.136399
20618.865487, 2396.136399
20637.623929, 2396.136399
20656.382372, 2396.136399
20675.140814, 2396.136399
20693.899257, 2396.136399
20712.657699, 2396.136399
20731.416142, 2396.136399
20750.174584, 2396.136399
20768.933027, 2396.136399
20787.691469, 2396.136399
20806.451922, 2396.136399
20825.212547, 2396.136399
20843.973171, 2396.136399
20862.733796, 2396.136399
20881.494420, 2396.136399
20900.255045, 2396.136399
20919.015670, 2396.136399
20937.776294, 2396.136399
20956.536919, 2396.136399
20975.297543, 2396.136399
20994.060127, 2396.136399
21012.822878, 2396.136399
21031.585628, 2396.136399
21050.348379, 2396.136399
21069.111130, 2396.136399
21087.873881, 2396.136399
21106.636631, 2396.136399
21125.399382, 2396.136399
21144.162133, 2396.136399
21162.924884, 2396.136399
21181.689694, 2396.136399
21200.454679, 2396.136399
21219.219665, 2396.136399
21237.984650, 2396.136399
21256.749636, 2396.136399
21275.514621, 2396.136399
21294.279607, 2396.136399
21313.044592, 2396.136399
21331.809578, 2396.136399
21350.574563, 2396.136399
21369.341931, 2396.136399
21388.109502, 2396.136399
21406.877073, 2396.136399
21425.644643, 2396.136399
21444.412214, 2396.136399
21463.179785, 2396.136399
21481.947356, 2396.136399
21500.714926, 2396.136399
21519.482497, 2396.136399
21538.250068, 2396.136399
21557.019846, 2396.136399
21575.789812, 2396.136399
21594.559779, 2396.136399
21613.329745, 2396.136399
21632.099711, 2396.136399
21650.869677, 2396.136399
21669.639643, 2396.136399
21688.409610, 2396.136399
21707.179576, 2396.136399
21725.949542, 2396.136399
21744.721644, 2396.136399
21763.493928, 2396.136399
21782.266211, 2396.136399
21801.038495, 2396.136399
21819.810779, 2396.136399
21838.583063, 2396.136399
21857.355347, 2396.136399
21876.127631, 2396.136399
21894.899914, 2396.136399
21913.672198, 2396.136399
21932.446574, 2396.136399
21951.221128, 2396.136399
21969.995682, 2396.136399
21988.770237, 2396.136399
22007.544791, 2396.136399
22026.319345, 2396.136399
22045.093899, 2396.136399
22063.868453, 2396.136399
22082.643008, 2396.136399
22101.417562, 2396.136399
22120.194141, 2396.136399
22138.970892, 2396.136399
22157.747643, 2396.136399
22176.524395, 2396.136399
22195.301146, 2396.136399
22214.077898, 2396.136399
22232.854649, 2396.136399
22251.631401, 2396.136399
22270.408152, 2396.136399
22289.184903, 2396.136399
22307.963647, 2396.136399
22326.742560, 2396.136399
22345.521474, 2396.136399
22364.300387, 2396.136399
22383.079300, 2396.136399
22401.858214, 2396.136399
22420.637127, 2396.136399
22439.416040, 2396.136399
22458.194954, 2396.136399
22476.973867, 2396.136399
22495.754721, 2396.136399
22514.535742, 2396.136399
22533.316762, 2396.136399
22552.097782, 2396.136399
22570.878802, 2396.136399
22589.659822, 2396.136399
22608.440842, 2396.136399
22627.221862, 2396.136399
22646.002882, 2396.136399
22664.783902, 2396.136399
22683.566967, 2396.136399
22702.350206, 2396.136399
22721.133445, 2396.136399
22739.916684, 2396.136399
22758.699923, 2396.136399
22777.483162, 2396.136399
22796.266401, 2396.136399
22815.049640, 2396.136399
22833.832880, 2396.136399
22852.616119, 2396.136399
22871.401732, 2396.136399
22890.187547, 2396.136399
22908.973362, 2396.136399
22927.759178, 2396.136399
22946.544993, 2396.136399
22965.330808, 2396.136399
22984.116624, 2396.136399
23002.902439, 2396.136399
23021.688254, 2396.136399
23040.474070, 2396.136399
23059.262090, 2396.136399
23078.050298, 2396.136399
23096.838507, 2396.136399
23115.626715, 2396.136399
23134.414924, 2396.136399
23153.203132, 2396.136399
23171.991340, 2396.136399
23190.779549, 2396.136399
23209.567757, 2396.136399
23228.355966, 2396.136399
23247.146315, 2396.136399
23265.936847, 2396.136399
23284.727379, 2396.136399
23303.517911, 2396.136399
23322.308444, 2396.136399
23341.098976, 2396.136399
23359.889508, 2396.136399
23378.680040, 2396.136399
23397.470572, 2396.136399
23416.261104, 2396.136399
23435.053742, 2396.136399
23453.846560, 2396.136399
23472.639378, 2396.136399
23491.432196, 2396.136399
23510.225014, 2396.136399
23529.017831, 2396.136399
23547.810649, 2396.136399
23566.603467, 2396.136399
23585.396285, 2396.136399
23604.189103, 2396.136399
23622.983968, 2396.136399
23641.779008, 2396.136399
23660.574048, 2396.136399
23679.369087, 2396.136399
23698.164127, 2396.136399
23716.959167, 2396.136399
23735.754207, 2396.136399
23754.549247, 2396.136399
23773.344286, 2396.136399
23792.139326, 2396.136399
23810.936389, 2396.136399
23829.733625, 2396.136399
23848.530860, 2396.136399
23867.328096, 2396.136399
23886.125331, 2396.136399
23904.922567, 2396.136399
23923.719802, 2396.136399
23942.517038, 2396.136399
23961.314273, 2396.136399
23980.111508, 2396.136399
23998.910721, 2396.136399
24017.710102, 2396.136399
24036.509483, 2396.136399
24055.308864, 2396.136399
24074.108246, 2396.136399
24092.907627, 2396.136399
24111.707008, 2396.136399
24130.506389, 2396.136399
24149.305770, 2396.136399
24168.105151, 2396.136399
24186.906615, 2396.136399
24205.708256, 2396.136399
24224.509897, 2396.136399
24243.311538, 2396.136399
24262.113180, 2396.136399
24280.914821, 2396.136399
24299.716462, 2396.136399
24318.518103, 2396.136399
24337.319744, 2396.136399
24356.121386, 2396.136399
24374.925437, 2396.136399
24393.729693, 2396.136399
24412.533949, 2396.136399
24431.338206, 2396.136399
24450.142462, 2396.136399
24468.946719, 2396.136399
24487.750975, 2396.136399
24506.555231, 2396.136399
24525.359488, 2396.136399
24544.163744, 2396.136399
24562.970247, 2396.136399
24581.776941, 2396.136399
24600.583635, 2396.136399
24619.390329, 2396.136399
24638.197023, 2396.136399
24657.003717, 2396.136399
24675.810411, 2396.136399
24694.617105, 2396.136399
24713.423799, 2396.136399
24732.230493, 2396.136399
24751.039364, 2396.136399
24769.848420, 2396.136399
24788.657477, 2396.136399
24807.466534, 2396.136399
24826.275590, 2396.136399
24845.084647, 2396.136399
24863.893703, 2396.136399
24882.702760, 2396.136399
24901.511816, 2396.136399
24920.320873, 2396.136399
24939.132072, 2396.136399
24957.943453, 2396.136399
24976.754834, 2396.136399
24995.566215, 2396.136399
25014.377596, 2396.136399
25033.188977, 2396.136399
25052.000358, 2396.136399
25070.811739, 2396.136399
25089.623120, 2396.136399
25108.434501, 2396.136399
25127.247958, 2396.136399
25146.061593, 2396.136399
25164.875227, 2396.136399
25183.688862, 2396.136399
25202.502497, 2396.136399
25221.316131, 2396.136399
25240.129766, 2396.136399
25258.943400, 2396.136399
25277.757035, 2396.136399
25296.570669, 2396.136399
25315.386355, 2396.136399
25334.202216, 2396.136399
25353.018076, 2396.136399
25371.833937, 2396.136399
25390.649798, 2396.136399
25409.465658, 2396.136399
25428.281519, 2396.136399
25447.097380, 2396.136399
25465.913240, 2396.136399
25484.729101, 2396.136399
25503.546962, 2396.136399
25522.364994, 2396.136399
25541.183026, 2396.136399
25560.001058, 2396.136399
25578.819090, 2396.136399
25597.637122, 2396.136399
25616.455154, 2396.136399
25635.273186, 2396.136399
25654.091218, 2396.136399
25672.909250, 2396.136399
25691.729388, 2396.136399
25710.549706, 2396.136399
25729.370024, 2396.136399
25748.190342, 2396.136399
25767.010660, 2396.136399
25785.830977, 2396.136399
25804.651295, 2396.136399
25823.471613, 2396.136399
25842.291931, 2396.136399
25861.112249, 2396.136399
25879.935003, 2396.136399
25898.757965, 2396.136399
25917.580927, 2396.136399
25936.403889, 2396.136399
25955.226851, 2396.136399
25974.049813, 2396.136399
25992.872775, 2396.136399
26011.695737, 2396.136399
26030.518699, 2396.136399
26049.341661, 2396.136399
26068.166896, 2396.136399
26086.992326, 2396.136399
26105.817755, 2396.136399
26124.643185, 2396.136399
26143.468614, 2396.136399
26162.294044, 2396.136399
26181.119473, 2396.136399
26199.944903, 2396.136399
26218.770332, 2396.136399
26237.595762, 2396.136399
26256.423397, 2396.136399
26275.251220, 2396.136399
26294.079044, 2396.136399
26312.906867, 2396.136399
26331.734690, 2396.136399
26350.562513, 2396.136399
26369.390337, 2396.136399
26388.218160, 2396.136399
26407.045983, 2396.136399
26425.873806, 2396.136399
26444.703801, 2396.136399
26463.533981, 2396.136399
26482.364160, 2396.136399
26501.194340, 2396.136399
26520.024519, 2396.136399
26538.854699, 2396.136399
26557.684879, 2396.136399
26576.515058, 2396.136399
26595.345238, 2396.136399
26614.175418, 2396.136399
26633.007704, 2396.136399
26651.840169, 2396.136399
26670.672635, 2396.136399
26689.505100, 2396.136399
26708.337566, 2396.136399
26727.170031, 2396.136399
26746.002497, 2396.136399
26764.834962, 2396.136399
26783.667428, 2396.136399
26802.499893, 2396.136399
26821.334440, 2396.136399
26840.169163, 2396.136399
26859.003887, 2396.136399
26877.838611, 2396.136399
26896.673334, 2396.136399
26915.508058, 2396.136399
26934.342782, 2396.136399
26953.177506, 2396.136399
26972.012229, 2396.136399
26990.846953, 2396.136399
27009.683707, 2396.136399
27028.520634, 2396.136399
27047.357560, 2396.136399
27066.194487, 2396.136399
27085.031414, 2396.136399
27103.868341, 2396.136399
27122.705267, 2396.136399
27141.542194, 2396.136399
27160.379121, 2396.136399
27179.216048, 2396.136399
27198.055110, 2396.136399
27216.894353, 2396.136399
27235.733597, 2396.136399
27254.572841, 2396.136399
27273.412085, 2396.136399
27292.251329, 2396.136399
27311.090573, 2396.136399
27329.929816, 2396.136399
27348.769060, 2396.136399
27367.608304, 2396.136399
27386.450013, 2396.136399
27405.291932, 2396.136399
27424.133852, 2396.136399
27442.975771, 2396.136399
27461.817690, 2396.136399
27480.659610, 2396.136399
27499.501529, 2396.136399
27518.343448, 2396.136399
27537.185368, 2396.136399
27556.027287, 2396.136399
27574.871507, 2396.136399
27593.715923, 2396.136399
27612.560339, 2396.136399
27631.404755, 2396.136399
27650.249171, 2396.136399
27669.093587, 2396.136399
27687.938003, 2396.136399
27706.782419, 2396.136399
27725.626835, 2396.136399
27744.471251, 2396.136399
27763.317898, 2396.136399
27782.164735, 2396.136399
27801.011572, 2396.136399
27819.858410, 2396.136399
27838.705247, 2396.136399
27857.552084, 2396.136399
27876.398921, 2396.136399
27895.245758, 2396.136399
27914.092596, 2396.136399
27932.939433, 2396.136399
27943.179841, 2396.136399
27962.029112, 1952.355279
27980.878383, 1508.574158
27999.727654, 1064.793038
28018.576926,  621.011917
28037.426197,  177.230797
28056.275468, -266.550323
28075.124739, -710.331444
28093.974011, -1154.112564
28112.823282, -1597.893684
28131.607117, -1836.564733
28150.315597, -1839.032273
28169.024076, -1841.499813
28187.732556, -1843.967353
28206.441035, -1846.434893
28225.149515, -1848.902434
28243.857994, -1851.369974
28262.566474, -1853.837514
28281.274954, -1856.305054
28299.983433, -1858.772594
28318.559045, -1861.254222
28336.981648, -1863.752075
28355.404250, -1866.249927
28373.826853, -1868.747779
28392.249455, -1871.245631
28410.672058, -1873.743483
28429.094660, -1876.241335
28447.517262, -1878.739187
28465.939865, -1881.237039
28484.362467, -1883.734891
28502.706752, -1886.241130
28520.960846, -1888.757028
28524.968680, -1889.309413
28543.077433, -2153.630436
28561.186186, -2417.951459
28579.294939, -2682.272482
28597.403692, -2946.593505
28615.512444, -3210.914527
28633.621197, -3475.235550
28651.729950, -3739.556573
28669.838703, -4003.877596
28687.667271, -4268.198619
28705.366595, -4532.519642
28723.065919, -4796.840665
28740.765243, -5061.161687
28758.464567, -5325.482710
28776.163890, -5589.803733
28793.863214, -5854.124756
28811.562538, -6118.445779
28829.261862, -6382.766802
28846.961186, -6647.087824
28864.203521, -6911.408847
28881.235054, -7175.729870
28898.266587, -7440.050893
28915.298120, -7704.371916
28932.329653, -7968.692939
28949.361186, -8233.013962
28966.392719, -8497.334984
28983.424252, -8761.656007
28990.451258, -8870.711684
29007.013798, -8946.210545
29023.529048, -9008.359946
29039.603644, -8946.118760
29055.678240, -8883.877575
29071.752836, -8821.636390
29087.827432, -8759.395205
29103.902028, -8697.154020
29119.976623, -8634.912835
29136.051219, -8572.671650
29152.125815, -8510.430465
29168.200411, -8448.189280
29184.200924, -8385.824411
29199.511136, -8322.307053
29214.821348, -8258.789695
29230.131560, -8195.272337
29245.441772, -8131.754979
29260.751983, -8068.237621
29276.062195, -8004.720263
29291.372407, -7941.202905
29306.682619, -7877.685547
29321.992830, -7814.168189
29337.196520, -7746.330030
29351.407628, -7638.230553
29365.618737, -7530.131075
29379.829846, -7422.031598
29394.040955, -7313.932120
29408.252064, -7205.832643
29422.463173, -7097.733165
29436.674282, -6989.633688
29450.885391, -6881.534211
29465.096500, -6773.434733
29478.766369, -6665.311333
29491.623849, -6557.152026
29504.481329, -6448.992720
29517.338809, -6340.833413
29530.196289, -6232.674106
29543.053770, -6124.514799
29555.911250, -6016.355492
29568.768730, -5908.196185
29581.626210, -5800.036878
29594.483690, -5691.877572
29606.792762, -5583.924763
29618.278685, -5476.281905
29629.764608, -5368.639047
29641.250531, -5260.996188
29652.736454, -5153.353330
29664.222378, -5045.710472
29675.708301, -4938.067613
29687.194224, -4830.424755
29698.680147, -4722.781897
29710.166070, -4615.139038
29721.107669, -4507.931396
29731.232248, -4401.377003
29741.356828, -4294.822609
29751.481408, -4188.268216
29761.605988, -4081.713823
29771.730568, -3975.159430
29781.855148, -3868.605037
29791.979728, -3762.050644
29802.104307, -3655.496251
29812.228887, -3548.941858
29821.816079, -3448.004211
29830.596663, -3355.497178
29839.377247, -3262.990145
29848.157831, -3170.483112
29856.938415, -3077.976079
29865.718999, -2985.469046
29874.499583, -2892.962013
29883.280167, -2800.454980
29892.060750, -2707.947947
29900.841334, -2615.440914
29909.089900, -2538.544892
29916.539919, -2485.080656
29923.989937, -2431.616419
29931.439956, -2378.152183
29938.889974, -2324.687947
29946.339992, -2271.223710
29953.790011, -2217.759474
29961.240029, -2164.295238
29968.690048, -2110.831001
29976.140066, -2057.366765
29983.057738, -2003.906632
29989.176370, -1950.452657
29995.295003, -1896.998682
30001.413635, -1843.544707
30007.532267, -1790.090733
30013.650899, -1736.636758
30019.769531, -1683.182783
30025.888164, -1629.728809
30032.006796, -1576.274834
30038.125428, -1522.820859
30043.713207, -1469.482491
30048.504185, -1416.317644
30053.295164, -1363.152798
30058.086143, -1309.987951
30062.877122, -1256.823105
30067.668101, -1203.658258
30072.459080, -1150.493412
30077.250059, -1097.328566
30082.041038, -1044.163719
30086.832017, -990.998873
30091.096385, -938.058735
30094.570323, -885.455882
30098.044261, -832.853028
30101.518199, -780.250174
30104.992137, -727.647321
30108.466075, -675.044467
30111.940013, -622.441613
30115.413951, -569.838759
30118.887888, -517.235906
30122.361826, -464.633052
30125.316060, -412.359401
30127.490229, -360.579877
30129.664399, -308.800353
30131.838568, -257.020829
30134.012737, -205.241305
30136.186906, -153.461780
30138.361075, -101.682256
30140.535245,  -49.902732
30142.709414,    1.876792
30144.883583,   53.656316
30146.547477,  105.008764
30147.445459,  155.720178
30148.343442,  206.431592
30149.241424,  257.143007
30150.139406,  307.854421
30151.037389,  358.565835
30151.935371,  409.277249
30152.833353,  459.988663
30153.731336,  510.700078
30154.629318,  561.411492
30155.223132,  480.197707
30155.360397,  200.967080
30155.459189,    0.000000
