Ground Distance, Speed
   0.000000,    0.000275
   0.000001,    0.001735
   0.000007,    0.006090
   0.000069,    0.019431
   0.000394,    0.046490
   0.001556,    0.092420
   0.004700,    0.160626
   0.010499,    0.240057
   0.018564,    0.319187
   0.029000,    0.398896
   0.041756,    0.478614
   0.056871,    0.558511
   0.074425,    0.638860
   0.094385,    0.719378
   0.116856,    0.800370
   0.141609,    0.880991
   0.168971,    0.962258
   0.198645,    1.043240
   0.231359,    1.125764
   0.266220,    1.207493
   0.304232,    1.290699
   0.344924,    1.374175
   0.387949,    1.457225
   0.434061,    1.541248
   0.483018,    1.625686
   0.534589,    1.710104
   0.589654,    1.795842
   0.647850,    1.882189
   0.709730,    1.969828
   0.774217,    2.057165
   0.842328,    2.145527
   0.913530,    2.234137
   0.988511,    2.323773
   1.066121,    2.413021
   1.147750,    2.503431
   1.232834,    2.594287
   1.321899,    2.686075
   1.414373,    2.778140
   1.510851,    2.871015
   1.610941,    2.964264
   1.715562,    3.058665
   1.824201,    3.153671
   1.937758,    3.249978
   2.056302,    3.347526
   2.179322,    3.445804
   2.305814,    3.543981
   2.435616,    3.641943
   2.572458,    3.742406
   2.712467,    3.842441
   2.856700,    3.942805
   3.005394,    4.043629
   3.158016,    4.144530
   3.315869,    4.246331
   3.481738,    4.350696
   3.652872,    4.455773
   3.825646,    4.559361
   4.004533,    4.664152
   4.187249,    4.768768
   4.376724,    4.874843
   4.572091,    4.981810
   4.774659,    5.090304
   4.981507,    5.198711
   5.194403,    5.307932
   5.414882,    5.418678
   5.643413,    5.531082
   5.876719,    5.643479
   6.113131,    5.755087
   6.356622,    5.867770
   6.607255,    5.981495
   6.862762,    6.095198
   7.128323,    6.211119
   7.398130,    6.326669
   7.675537,    6.443263
   7.961738,    6.561329
   8.252482,    6.679079
   8.548933,    6.796989
   8.854069,    6.916199
   9.166880,    7.036257
   9.485631,    7.156468
   9.809335,    7.276459
  10.144238,    7.398496
  10.486747,    7.521200
  10.832848,    7.643131
  11.190065,    7.766913
  11.554790,    7.891233
  11.925715,    8.015630
  12.302135,    8.139865
  12.684228,    8.264002
  13.079911,    8.390557
  13.480891,    8.516825
  13.890097,    8.643719
  14.310304,    8.772049
  14.737761,    8.900630
  15.174540,    9.030057
  15.621281,    9.160477
  16.072635,    9.290318
  16.530898,    9.420247
  16.999722,    9.551274
  17.476361,    9.682598
  17.960860,    9.814217
  18.460244,    9.947985
  18.968043,   10.082115
  19.481393,   10.215849
  20.008684,   10.351342
  20.539969,   10.486016
  21.079884,   10.621054
  21.628876,   10.756548
  22.185289,   10.892080
  22.757522,   11.029650
  23.338896,   11.167603
  23.926065,   11.305145
  24.527531,   11.444242
  25.137185,   11.583448
  25.761749,   11.724262
  25.786970,   11.729911
  25.791488,   11.730923
  25.796802,   11.732112
  25.802969,   11.733493
  25.804210,   11.733771
  25.806225,   11.734222
  25.806457,   11.734274
  25.806705,   11.734329
  25.806931,   11.734380
  25.809168,   11.734881
  25.825917,   11.738629
  25.904820,   11.756269
  26.162743,   11.813738
  26.696744,   11.931788
  27.288739,   12.061222
  27.890078,   12.191203
  28.499760,   12.321498
  29.117946,   12.452128
  29.743400,   12.582822
  30.379723,   12.714317
  31.024087,   12.846009
  31.678109,   12.978215
  32.339252,   13.110412
  33.013677,   13.243809
  33.695437,   13.377209
  34.386785,   13.511043
  35.083110,   13.644417
  35.785600,   13.777567
  36.500923,   13.911743
  37.227368,   14.046593
  37.967439,   14.182555
  38.715781,   14.318621
  39.470111,   14.454378
  40.233571,   14.590391
  41.007573,   14.726897
  41.796760,   14.864685
  42.593814,   15.002458
  43.393159,   15.139263
  44.206334,   15.277072
  45.037270,   15.416511
  45.873508,   15.555469
  46.719611,   15.694706
  47.574875,   15.834097
  48.443278,   15.974274
  49.323903,   16.115068
  50.208404,   16.255142
  51.109011,   16.396425
  52.016334,   16.537427
  52.932357,   16.678459
  53.862188,   16.820293
  54.806137,   16.962951
  55.758717,   17.105591
  56.719827,   17.248195
  57.691881,   17.391117
  58.676863,   17.534632
  59.678798,   17.679301
  60.680100,   17.822585
  61.697663,   17.966905
  62.725616,   18.111410
  63.759792,   18.255513
  64.806992,   18.400159
  65.869278,   18.545612
  66.946626,   18.691845
  68.032687,   18.837986
  69.131889,   18.984623
  70.238982,   19.131049
  71.356917,   19.277653
  72.487555,   19.424669
  73.630516,   19.572035
  74.789553,   19.720218
  75.954560,   19.867920
  77.129914,   20.015697
  78.325353,   20.164755
  79.530247,   20.313752
  80.743998,   20.462612
  81.977786,   20.612692
  83.212842,   20.761703
  84.461983,   20.911198
  85.725717,   21.061222
  87.001687,   21.211483
  88.291711,   21.362186
  89.586772,   21.512275
  90.902413,   21.663545
  92.222980,   21.814185
  93.562173,   21.965752
  94.911741,   22.117300
  96.270825,   22.268731
  97.637318,   22.419814
  99.023228,   22.571865
 100.420325,   22.723969
 101.832008,   22.876487
 103.258056,   23.029385
 104.699735,   23.182784
 106.156388,   23.336602
 106.448893,   23.367350
 106.650897,   23.388557
 106.810788,   23.405327
 107.376660,   23.464568
 107.388560,   23.465812
 107.401926,   23.467209
 107.404759,   23.467506
 107.409650,   23.468017
 107.411089,   23.468167
 107.413715,   23.468442
 107.414319,   23.468505
 107.414642,   23.468539
 107.414792,   23.468554
 107.414930,   23.468569
 107.416305,   23.468712
 107.427265,   23.469858
 107.487019,   23.476102
 107.715219,   23.499929
 108.475212,   23.579079
 109.788412,   23.715104
 111.152428,   23.855420
 112.524345,   23.995567
 113.911451,   24.136281
 115.305669,   24.276739
 116.716584,   24.417900
 118.136014,   24.558935
 119.564513,   24.699900
 120.997585,   24.840356
 122.448712,   24.981617
 123.909485,   25.122854
 125.383038,   25.264367
 126.860353,   25.405290
 128.356254,   25.547032
 129.864749,   25.689012
 131.382607,   25.830923
 132.914586,   25.973203
 134.459419,   26.115727
 136.018034,   26.258573
 137.587469,   26.401462
 139.162597,   26.543929
 140.752169,   26.686765
 142.355913,   26.829934
 143.975232,   26.973553
 145.602238,   27.116918
 147.237784,   27.260105
 148.887413,   27.403596
 150.553812,   27.547615
 152.224113,   27.691047
 153.901113,   27.834139
 155.601841,   27.978334
 157.309872,   28.122231
 159.030448,   28.266269
 160.759942,   28.410142
 162.505867,   28.554471
 164.258306,   28.698432
 166.036743,   28.843617
 167.822047,   28.988451
 169.613761,   29.132902
 171.422597,   29.277832
 173.241706,   29.422685
 175.074674,   29.567742
 176.926152,   29.713362
 178.778119,   29.858129
 180.644225,   30.003113
 182.522105,   30.148124
 184.412970,   30.293254
 186.319473,   30.438699
 188.239689,   30.584305
 190.166894,   30.729563
 192.107266,   30.874937
 194.060344,   31.020388
 196.028948,   31.166121
 198.012096,   31.312057
 200.007020,   31.457987
 202.011512,   31.603749
 204.036186,   31.750108
 206.070654,   31.896308
 208.117084,   32.042503
 210.178902,   32.188934
 212.254555,   32.335484
 214.339858,   32.481856
 216.434100,   32.628001
 218.539112,   32.774047
 220.662750,   32.920534
 222.797405,   33.066932
 224.946234,   33.213454
 227.102522,   33.359642
 229.273464,   33.505982
 231.454054,   33.652136
 233.651371,   33.798573
 235.863086,   33.945134
 238.088217,   34.091748
 240.332830,   34.238810
 242.580444,   34.385237
 244.846837,   34.532058
 247.128806,   34.679058
 249.419299,   34.825781
 251.726238,   34.972733
 254.050692,   35.119973
 254.516721,   35.149395
 254.877971,   35.172179
 255.118026,   35.187308
 255.301156,   35.198844
 255.332499,   35.200818
 255.340220,   35.201304
 255.352692,   35.202089
 255.355873,   35.202290
 255.362235,   35.202690
 255.364304,   35.202820
 255.364521,   35.202834
 255.364720,   35.202847
 255.366713,   35.202972
 255.385767,   35.204172
 255.526945,   35.213060
 256.323743,   35.263163
 258.422695,   35.394665
 260.533371,   35.526208
 262.655578,   35.657776
 264.786465,   35.789192
 266.928006,   35.920575
 269.078586,   36.051827
 271.246677,   36.183459
 273.423400,   36.314929
 275.608612,   36.446229
 277.805019,   36.577519
 280.012888,   36.708814
 282.229549,   36.839955
 284.455744,   36.970983
 286.697069,   37.102227
 288.945061,   37.233188
 291.211892,   37.364572
 293.493571,   37.496141
 295.783410,   37.627507
 298.076033,   37.758364
 300.384279,   37.889446
 302.702642,   38.020437
 305.029778,   38.151260
 307.370405,   38.282178
 309.724788,   38.413203
 312.090437,   38.544194
 314.465343,   38.675037
 316.849901,   38.805755
 319.252412,   38.936799
 321.665751,   39.067775
 324.094973,   39.198956
 326.530393,   39.329816
 328.976437,   39.460593
 331.431620,   39.591209
 333.900633,   39.721911
 336.383020,   39.852671
 338.877857,   39.983438
 341.381551,   40.114023
 343.898426,   40.244649
 346.427033,   40.375240
 348.972916,   40.506077
 351.529724,   40.636831
 354.089089,   40.767076
 356.661412,   40.897342
 359.243520,   41.027467
 361.842604,   41.157811
 364.455651,   41.288218
 367.073499,   41.418232
 369.713771,   41.548724
 372.362740,   41.679011
 375.018067,   41.808981
 377.686675,   41.938971
 380.362426,   42.068682
 383.052637,   42.198469
 385.758862,   42.328402
 388.472856,   42.458084
 391.197581,   42.587656
 393.932246,   42.717081
 396.681955,   42.846598
 399.448231,   42.976274
 402.224050,   43.105779
 405.006927,   43.234997
 407.815346,   43.364782
 410.626401,   43.494073
 413.454754,   43.623544
 416.290728,   43.752751
 419.138911,   43.881901
 421.997503,   44.010914
 424.868938,   44.139896
 427.755216,   44.268937
 430.652658,   44.397868
 433.562336,   44.526738
 436.479948,   44.655355
 439.416455,   44.784200
 442.353212,   44.912455
 445.306767,   45.040844
 448.274414,   45.169246
 451.255245,   45.297619
 454.242738,   45.425683
 457.245235,   45.553795
 460.265185,   45.682055
 463.288861,   45.809880
 466.329752,   45.937840
 469.379107,   46.065566
 472.441383,   46.193243
 475.516745,   46.320877
 478.600446,   46.448270
 481.706033,   46.575979
 484.820325,   46.703460
 487.951438,   46.831042
 488.578626,   46.856528
 489.072319,   46.876572
 489.473222,   46.892839
 489.826262,   46.907156
 490.125925,   46.919302
 490.387199,   46.929888
 490.430220,   46.931631
 490.479596,   46.933631
 490.557759,   46.936796
 490.564930,   46.937087
 490.568115,   46.937216
 490.571006,   46.937333
 490.599921,   46.938504
 490.812597,   46.947115
 492.941506,   47.033168
 496.086513,   47.159807
 499.246342,   47.286464
 502.417123,   47.412981
 505.595621,   47.539231
 508.790028,   47.665538
 511.992689,   47.791597
 515.208197,   47.917591
 518.437882,   48.043569
 521.679423,   48.169439
 524.935360,   48.295298
 528.208147,   48.421238
 531.485094,   48.546771
 534.782254,   48.672511
 538.084457,   48.797878
 541.400964,   48.923223
 544.729993,   49.048479
 548.073992,   49.173736
 551.430367,   49.298893
 554.793926,   49.423759
 558.178102,   49.548831
 561.574007,   49.673776
 564.976826,   49.798418
 568.395690,   49.923092
 571.823429,   50.047534
 575.265520,   50.171943
 578.716149,   50.296109
 582.189588,   50.420542
 585.668023,   50.544603
 589.164129,   50.668743
 592.670174,   50.792686
 596.184190,   50.916364
 599.709157,   51.039882
 603.247202,   51.163313
 606.803297,   51.286828
 610.370082,   51.410172
 613.943243,   51.533194
 617.540122,   51.656491
 621.148010,   51.779623
 624.765156,   51.902531
 628.398230,   52.025440
 632.037455,   52.148021
 635.690534,   52.270532
 639.365463,   52.393239
 643.045634,   52.515585
 646.742569,   52.637954
 650.446167,   52.760011
 654.167680,   52.882127
 657.904627,   53.004216
 661.647220,   53.125960
 665.408820,   53.247792
 669.184747,   53.369558
 672.965260,   53.490946
 676.758794,   53.612226
 680.568036,   53.733482
 684.382355,   53.854378
 688.217246,   53.975402
 692.058382,   54.096102
 695.918951,   54.216892
 699.790522,   54.337506
 703.679713,   54.458148
 707.579301,   54.578593
 711.487671,   54.698793
 715.413746,   54.819020
 719.353308,   54.939144
 723.299767,   55.058964
 727.265684,   55.178860
 731.235417,   55.298359
 735.227720,   55.418025
 739.226066,   55.537362
 743.241826,   55.656708
 747.262371,   55.775688
 751.298987,   55.894637
 755.353790,   56.013613
 759.419077,   56.132391
 763.497666,   56.251053
 767.087029,   56.355065
 767.587266,   56.369530
 771.681692,   56.487647
 775.798016,   56.605905
 779.929699,   56.724107
 784.074797,   56.842196
 788.226798,   56.959978
 792.395495,   57.077731
 796.573324,   57.195232
 800.759608,   57.312462
 804.960985,   57.429602
 809.181679,   57.546762
 813.409325,   57.663598
 817.651090,   57.780300
 821.913471,   57.897043
 826.180651,   58.013390
 830.458232,   58.129489
 834.748729,   58.245409
 839.051536,   58.361125
 843.361640,   58.476501
 847.684708,   58.591688
 848.550783,   58.614694
 849.224752,   58.632582
 849.804389,   58.647956
 850.268112,   58.660248
 850.381611,   58.663256
 850.581885,   58.668562
 850.617882,   58.669515
 850.670013,   58.670896
 850.684826,   58.671289
 850.687881,   58.671370
 850.689772,   58.671420
 850.691508,   58.671466
 850.708861,   58.671925
 850.853915,   58.675767
 851.566263,   58.694626
 855.752100,   58.805183
 860.259070,   58.923678
 864.774975,   59.041836
 869.292108,   59.159458
 873.822849,   59.276865
 878.371652,   59.394164
 882.925236,   59.511015
 887.487505,   59.627511
 892.065540,   59.743833
 896.649148,   59.859720
 901.237272,   59.975141
 905.830308,   60.090108
 910.444942,   60.205037
 915.076002,   60.319789
 919.705805,   60.433927
 924.340736,   60.547612
 928.996022,   60.661210
 933.646020,   60.774096
 934.006045,   60.782664
 934.366645,   60.791238
 934.725413,   60.799761
 935.086278,   60.808324
 935.447440,   60.816886
 935.807738,   60.825419
 936.168643,   60.833957
 936.528600,   60.842464
 936.889810,   60.850992
 937.252384,   60.859543
 937.615426,   60.868097
 937.978628,   60.876645
 938.342536,   60.885200
 938.706257,   60.893742
 939.070016,   60.902276
 939.433606,   60.910796
 939.795913,   60.919277
 940.161298,   60.927820
 940.525598,   60.936329
 940.891324,   60.944861
 941.257011,   60.953382
 941.622718,   60.961895
 941.989825,   60.970430
 942.356410,   60.978943
 942.723938,   60.987468
 943.091685,   60.995988
 943.459475,   61.004499
 943.826283,   61.012977
 944.195099,   61.021491
 944.564513,   61.030009
 944.931873,   61.038469
 945.301878,   61.046980
 945.672418,   61.055492
 946.042775,   61.063989
 946.411162,   61.072431
 946.781958,   61.080917
 947.154165,   61.089425
 947.526593,   61.097927
 947.897291,   61.106378
 948.271044,   61.114888
 948.643089,   61.123347
 949.017372,   61.131847
 949.392536,   61.140355
 949.767566,   61.148848
 950.142809,   61.157335
 950.518959,   61.165830
 950.893736,   61.174283
 951.269823,   61.182754
 951.646624,   61.191229
 952.020527,   61.199627
 952.398083,   61.208095
 952.774115,   61.216517
 953.151488,   61.224957
 953.532064,   61.233456
 953.910913,   61.241904
 954.291819,   61.250386
 954.673337,   61.258868
 955.054650,   61.267334
 955.434614,   61.275757
 955.816363,   61.284207
 956.196906,   61.292617
 956.578816,   61.301044
 956.962119,   61.309490
 957.345240,   61.317918
 957.730684,   61.326384
 958.116672,   61.334849
 958.503572,   61.343320
 958.888155,   61.351727
 959.274352,   61.360155
 959.660158,   61.368562
 960.046428,   61.376965
 960.434428,   61.385391
 960.823815,   61.393834
 961.212045,   61.402238
 961.600562,   61.410634
 961.989506,   61.419025
 962.380366,   61.427443
 962.770606,   61.435833
 963.160291,   61.444197
 963.551304,   61.452575
 963.944794,   61.460991
 964.338365,   61.469394
 964.731609,   61.477775
 965.124264,   61.486128
 965.519939,   61.494531
 965.915281,   61.502911
 966.312863,   61.511323
 966.709158,   61.519693
 967.106735,   61.528074
 967.507240,   61.536501
 967.906179,   61.544879
 968.306045,   61.553260
 968.706461,   61.561637
 969.108860,   61.570042
 969.513129,   61.578473
 969.916594,   61.586873
 970.318507,   61.595228
 970.722824,   61.603619
 971.126835,   61.611990
 971.529738,   61.620325
 971.933944,   61.628673
 972.339417,   61.637034
 972.745584,   61.645395
 973.153150,   61.653772
 973.560362,   61.662127
 973.966194,   61.670440
 974.376259,   61.678826
 974.786855,   61.687209
 975.197347,   61.695575
 975.607108,   61.703913
 976.017074,   61.712241
 976.428691,   61.720588
 976.840557,   61.728926
 977.255290,   61.737307
 977.670218,   61.745679
 978.083242,   61.753997
 978.496587,   61.762308
 978.914374,   61.770693
 979.330479,   61.779030
 979.747835,   61.787377
 980.166399,   61.795734
 980.586920,   61.804115
 981.004037,   61.812414
 981.424352,   61.820761
 981.842694,   61.829054
 982.264213,   61.837396
 982.686132,   61.845730
 983.108620,   61.854061
 983.531787,   61.862389
 983.956549,   61.870734
 984.382193,   61.879081
 984.807240,   61.887401
 985.234127,   61.895742
 985.661284,   61.904072
 986.090582,   61.912429
 986.519436,   61.920761
 986.947833,   61.929069
 987.377169,   61.937379
 987.806277,   61.945669
 988.234156,   61.953920
 988.665683,   61.962226
 989.097830,   61.970528
 989.532052,   61.978853
 989.966426,   61.987165
 990.398589,   61.995419
 990.834975,   62.003738
 991.268605,   62.011988
 991.701812,   62.020213
 992.140981,   62.028536
 992.579127,   62.036823
 993.016004,   62.045069
 993.457176,   62.053380
 993.897735,   62.061663
 994.338395,   62.069931
 994.782283,   62.078242
 995.225989,   62.086534
 995.671048,   62.094834
 996.114341,   62.103083
 996.558871,   62.111339
 997.008255,   62.119668
 997.456680,   62.127962
 997.905170,   62.136240
 998.355434,   62.144533
 998.803521,   62.152768
 999.252845,   62.161009
 999.642029,   62.168133
 999.703262,   62.169252
1000.154540,   62.177494
1000.608669,   62.185770
1001.065584,   62.194079
1001.521849,   62.202358
1001.976645,   62.210592
1002.434438,   62.218863
1002.890468,   62.227083
1003.352054,   62.235386
1003.812534,   62.243650
1004.275348,   62.251938
1004.738079,   62.260205
1005.201854,   62.268473
1005.666848,   62.276743
1006.132460,   62.285006
1006.600935,   62.293300
1007.069404,   62.301576
1007.541096,   62.309889
1008.008449,   62.318106
1008.478796,   62.326357
1008.949398,   62.334593
1009.420798,   62.342823
1009.891908,   62.351030
1010.364823,   62.359248
1010.839679,   62.367480
1011.314683,   62.375695
1011.793205,   62.383951
1012.274794,   62.392240
1012.752872,   62.400448
1013.233110,   62.408673
1013.712736,   62.416868
1014.194724,   62.425083
1014.675458,   62.433256
1015.159017,   62.441456
1015.647060,   62.449712
1016.133780,   62.457925
1016.622503,   62.466150
1017.109455,   62.474325
1017.598919,   62.482521
1018.087632,   62.490684
1018.576668,   62.498830
1019.066762,   62.506974
1019.559921,   62.515147
1020.055919,   62.523345
1020.553217,   62.531543
1021.051403,   62.539734
1021.549516,   62.547902
1022.047075,   62.556039
1022.543898,   62.564142
1023.043970,   62.572276
1023.545264,   62.580408
1024.047775,   62.588537
1024.551672,   62.596666
1025.054908,   62.604763
1025.559366,   62.612856
1026.067746,   62.620989
1026.575435,   62.629089
1027.083463,   62.637171
1027.597483,   62.645325
1028.109827,   62.653430
1028.625032,   62.661556
1029.135581,   62.669585
1029.649416,   62.677643
1030.162389,   62.685664
1030.676564,   62.693680
1031.195331,   62.701744
1031.714006,   62.709783
1032.232232,   62.717790
1032.751131,   62.725785
1033.269280,   62.733743
1033.790410,   62.741724
1034.315593,   62.749742
1034.840975,   62.757738
1035.372630,   62.765805
1035.897914,   62.773751
1036.425888,   62.781712
1036.957704,   62.789706
1037.487258,   62.797641
1038.022842,   62.805641
1038.558382,   62.813615
1039.092036,   62.821535
1039.623270,   62.829394
1040.154530,   62.837228
1040.694645,   62.845166
1041.235664,   62.853092
1041.772514,   62.860931
1042.314707,   62.868822
1042.854086,   62.876645
1043.398496,   62.884515
1043.946709,   62.892414
1044.497401,   62.900320
1045.042793,   62.908124
1045.587137,   62.915886
1046.135119,   62.923674
1046.687634,   62.931498
1047.242271,   62.939325
1047.795550,   62.947105
1048.354053,   62.954931
1048.906200,   62.962640
1049.460205,   62.970347
1050.020732,   62.978117
1050.581249,   62.985858
1051.133057,   62.993452
1051.695237,   63.001160
1052.255590,   63.008815
1052.822372,   63.016529
1053.383621,   63.024139
1053.948374,   63.031768
1054.515958,   63.039406
1055.079339,   63.046958
1055.641805,   63.054470
1056.213567,   63.062077
1056.786063,   63.069664
1057.359368,   63.077232
1057.933247,   63.084778
1058.508608,   63.092313
1059.078639,   63.099749
1059.652137,   63.107201
1060.234720,   63.114740
1060.806899,   63.122114
1061.388997,   63.129586
1061.974077,   63.137066
1062.556313,   63.144478
1063.141597,   63.151898
1063.722743,   63.159235
1064.309867,   63.166616
1064.899170,   63.173993
1065.488197,   63.181336
1066.074857,   63.188617
1066.661947,   63.195873
1067.259419,   63.203224
1067.848499,   63.210441
1068.438831,   63.217641
1069.027855,   63.224794
1069.627572,   63.232045
1070.222923,   63.239210
1070.816987,   63.246327
1071.411788,   63.253422
1072.007940,   63.260500
1072.606247,   63.267571
1073.208437,   63.274655
1073.814849,   63.281755
1074.417296,   63.288776
1075.024167,   63.295815
1075.628528,   63.302792
1076.235817,   63.309769
1076.838700,   63.316662
1077.444460,   63.323554
1078.058176,   63.330503
1078.671496,   63.337413
1079.281261,   63.344249
1079.890812,   63.351049
1080.499003,   63.357799
1081.114241,   63.364594
1081.738982,   63.371458
1082.354010,   63.378181
1082.972024,   63.384901
1083.585286,   63.391536
1084.204566,   63.398200
1084.821291,   63.404802
1085.440532,   63.411397
1086.061341,   63.417972
1086.680535,   63.424496
1087.315103,   63.431145
1087.936493,   63.437620
1088.561642,   63.444099
1089.192874,   63.450605
1089.817400,   63.457005
1090.443071,   63.463382
1091.071659,   63.469752
1091.703685,   63.476120
1092.329821,   63.482393
1092.959173,   63.488663
1093.590698,   63.494917
1094.223813,   63.501150
1094.860977,   63.507387
1095.491903,   63.513525
1096.127322,   63.519670
1096.768589,   63.525835
1097.401383,   63.531881
1098.035619,   63.537904
1098.674337,   63.543932
1099.315246,   63.549943
1099.957954,   63.555933
1100.598804,   63.561868
1101.242061,   63.567788
1101.887493,   63.573690
1102.541646,   63.579632
1103.189899,   63.585482
1103.837339,   63.591286
1104.475388,   63.596968
1105.118851,   63.602660
1105.769598,   63.608379
1106.428358,   63.614128
1107.070874,   63.619697
1107.716486,   63.625255
1108.369352,   63.630836
1109.016292,   63.636328
1109.672054,   63.641855
1110.327126,   63.647338
1110.979219,   63.652756
1111.635346,   63.658168
1112.288321,   63.663515
1112.947653,   63.668874
1113.605207,   63.674179
1114.260291,   63.679425
1114.917821,   63.684651
1115.576187,   63.689843
1116.230604,   63.694965
1116.888222,   63.700072
1117.552861,   63.705193
1118.215857,   63.710261
1118.881906,   63.715312
1119.543403,   63.720288
1120.204598,   63.725221
1120.875882,   63.730189
1121.543161,   63.735086
1122.210863,   63.739945
1122.879137,   63.744767
1123.552180,   63.749582
1124.221062,   63.754326
1124.888368,   63.759017
1125.554663,   63.763661
1126.222992,   63.768278
1126.894563,   63.772876
1127.567766,   63.777444
1128.242001,   63.781976
1128.922931,   63.786512
1129.597408,   63.790962
1130.271945,   63.795371
1130.942770,   63.799714
1131.620270,   63.804058
1132.293026,   63.808330
1132.975428,   63.812621
1133.652622,   63.816837
1134.329321,   63.821007
1135.009368,   63.825156
1135.688844,   63.829259
1136.364918,   63.833299
1137.049818,   63.837349
1137.734500,   63.841355
1138.414470,   63.845290
1139.099544,   63.849212
1139.779905,   63.853064
1140.461099,   63.856878
1141.144400,   63.860662
1141.827696,   63.864402
1142.511731,   63.868103
1143.203580,   63.871803
1143.891906,   63.875441
1144.581690,   63.879042
1145.266967,   63.882577
1145.951276,   63.886063
1146.639957,   63.889528
1147.324606,   63.892930
1148.008883,   63.896287
1148.700614,   63.899637
1149.393572,   63.902949
1150.092013,   63.906242
1150.791993,   63.909498
1151.486952,   63.912685
1152.181822,   63.915828
1152.881895,   63.918950
1153.583317,   63.922033
1154.273551,   63.925022
1154.968660,   63.927988
1155.651384,   63.930858
1156.346256,   63.933736
1157.043283,   63.936578
1157.745545,   63.939396
1158.437194,   63.942127
1159.135651,   63.944840
1159.841551,   63.947537
1160.542549,   63.950171
1160.927600,   63.951598
