Time, Speed
   0.000000,    0.000366
   0.001667,    0.366123
   0.003333,    0.730120
   0.005000,    1.093855
   0.006667,    1.457590
   0.008333,    1.821325
   0.010000,    2.185060
   0.011667,    2.548796
   0.013333,    2.912531
   0.015000,    3.276266
   0.016667,    3.640001
   0.018333,    4.003736
   0.020000,    4.363566
   0.021667,    4.722909
   0.023333,    5.082252
   0.025000,    5.441595
   0.026667,    5.800938
   0.028333,    6.160280
   0.030000,    6.519623
   0.031667,    6.878966
   0.033333,    7.238309
   0.035000,    7.597652
   0.036667,    7.952971
   0.038333,    8.307788
   0.040000,    8.662605
   0.041667,    9.017422
   0.043333,    9.372239
   0.045000,    9.727055
   0.046667,   10.081872
   0.048333,   10.436689
   0.050000,   10.791506
   0.051667,   11.146323
   0.053333,   11.497005
   0.055000,   11.847171
   0.056667,   12.197337
   0.058333,   12.547504
   0.060000,   12.897670
   0.061667,   13.247836
   0.063333,   13.598002
   0.065000,   13.948168
   0.066667,   14.298334
   0.068333,   14.648500
   0.070000,   14.994428
   0.071667,   15.339827
   0.073333,   15.685226
   0.075000,   16.030625
   0.076667,   16.376024
   0.078333,   16.721423
   0.080000,   17.066822
   0.081667,   17.412221
   0.083333,   17.757620
   0.085000,   18.103019
   0.086667,   18.443577
   0.088333,   18.783529
   0.090000,   19.123482
   0.091667,   19.463435
   0.093333,   19.803387
   0.095000,   20.143340
   0.096667,   20.483293
   0.098333,   20.823246
   0.100000,   21.163198
   0.101667,   21.503151
   0.103333,   21.837128
   0.105000,   22.170359
   0.106667,   22.503590
   0.108333,   22.836821
   0.110000,   23.170052
   0.111667,   23.503283
   0.113333,   23.836514
   0.115000,   24.169745
   0.116667,   24.502976
   0.118333,   24.836207
   0.120000,   25.163413
   0.121667,   25.489866
   0.123333,   25.816319
   0.125000,   26.142772
   0.126667,   26.469226
   0.128333,   26.795679
   0.130000,   27.122132
   0.131667,   27.448585
   0.133333,   27.775039
   0.135000,   28.101492
   0.136667,   28.421906
   0.138333,   28.741567
   0.140000,   29.061227
   0.141667,   29.380888
   0.143333,   29.700548
   0.145000,   30.020209
   0.146667,   30.339869
   0.148333,   30.659530
   0.150000,   30.979191
   0.151667,   31.298851
   0.153333,   31.612468
   0.155000,   31.925331
   0.156667,   32.238193
   0.158333,   32.551056
   0.160000,   32.863919
   0.161667,   33.176781
   0.163333,   33.489644
   0.165000,   33.802506
   0.166667,   34.115369
   0.168333,   34.428232
   0.170000,   34.735055
   0.171667,   35.041124
   0.173333,   35.347193
   0.175000,   35.653262
   0.176667,   35.959330
   0.178333,   36.265399
   0.180000,   36.571468
   0.181667,   36.877537
   0.183333,   37.183606
   0.185000,   37.489675
   0.186667,   37.788855
   0.188333,   38.087174
   0.190000,   38.385493
   0.191667,   38.683812
   0.193333,   38.982131
   0.195000,   39.280450
   0.196667,   39.578769
   0.198333,   39.877088
   0.200000,   40.175407
   0.201667,   40.473726
   0.203333,   40.764225
   0.205000,   41.053747
   0.206667,   41.343270
   0.208333,   41.632792
   0.210000,   41.922315
   0.211667,   42.211838
   0.213333,   42.501360
   0.215000,   42.790883
   0.216667,   43.080405
   0.218333,   43.369928
   0.220000,   43.651748
   0.221667,   43.932607
   0.223333,   44.213466
   0.225000,   44.494324
   0.226667,   44.775183
   0.228333,   45.056042
   0.230000,   45.336900
   0.231667,   45.617759
   0.233333,   45.898617
   0.235000,   46.179476
   0.236667,   46.452763
   0.238333,   46.725105
   0.240000,   46.997447
   0.241667,   47.269789
   0.243333,   47.542131
   0.245000,   47.814473
   0.246667,   48.086814
   0.248333,   48.359156
   0.250000,   48.631498
   0.251667,   48.903840
   0.253333,   49.168746
   0.255000,   49.432724
   0.256667,   49.696702
   0.258333,   49.960680
   0.260000,   50.224658
   0.261667,   50.488636
   0.263333,   50.752614
   0.265000,   51.016592
   0.266667,   51.280570
   0.268333,   51.544548
   0.270000,   51.801230
   0.271667,   52.057002
   0.273333,   52.312774
   0.275000,   52.568546
   0.276667,   52.824318
   0.278333,   53.080090
   0.280000,   53.335862
   0.281667,   53.591634
   0.283333,   53.847405
   0.285000,   54.103177
   0.286667,   54.351799
   0.288333,   54.599527
   0.290000,   54.847256
   0.291667,   55.094984
   0.293333,   55.342713
   0.295000,   55.590441
   0.296667,   55.838170
   0.298333,   56.085899
   0.300000,   56.333627
   0.301667,   56.581356
   0.303333,   56.823334
   0.305000,   57.064595
   0.306667,   57.305856
   0.308333,   57.547116
   0.310000,   57.788377
   0.311667,   58.029637
   0.312642,   58.170818
   0.314309,   58.408236
   0.315975,   58.645654
   0.317642,   58.883071
   0.319309,   59.116596
   0.320975,   59.345802
   0.322642,   59.575009
   0.324309,   59.804215
   0.325975,   60.033422
   0.327642,   60.262629
   0.329309,   60.491835
   0.330975,   60.721042
   0.332642,   60.950248
   0.334309,   61.179455
   0.335975,   61.402126
   0.337642,   61.617550
   0.339309,   61.832974
   0.340975,   62.048398
   0.342642,   62.263823
   0.344309,   62.479247
   0.345975,   62.694671
   0.347642,   62.910095
   0.349309,   63.125519
   0.350975,   63.340943
   0.352642,   63.549020
   0.354309,   63.748949
   0.355975,   63.948879
   0.357642,   64.148809
   0.359309,   64.348738
   0.360975,   64.548668
   0.362642,   64.748597
   0.364309,   64.948527
   0.365975,   65.148456
   0.367642,   65.348386
   0.368518,   65.453513
   0.370185,   65.577412
   0.371852,   65.701310
   0.373518,   65.825209
   0.375185,   65.949107
   0.376852,   66.073006
   0.378518,   66.196904
   0.380185,   66.320803
   0.381852,   66.444701
   0.383518,   66.568600
   0.385185,   66.692498
   0.386852,   66.755492
   0.388518,   66.818486
   0.390185,   66.881480
   0.391852,   66.944474
   0.393518,   67.007468
   0.395185,   67.037640
   0.396852,   67.067813
   0.398518,   67.097985
   0.400185,   67.128157
   0.401852,   67.158329
   0.403518,   67.154003
   0.405185,   67.149678
   0.406852,   67.145353
   0.408518,   67.141027
   0.410185,   67.136702
   0.410185,   87.455556
   1.605400,   87.455556
   2.825139,   87.455556
   4.084250,   87.455556
   5.433948,   87.455556
   6.920962,   87.455556
   8.567151,   87.455556
  10.405942,   87.455556
  12.496124,   87.455556
  14.982109,   87.455556
  14.982109,  103.120633
  15.801212,  103.120633
  16.620315,  103.120633
  17.439418,  103.120633
  18.258522,  103.120633
  19.077625,  103.120633
  19.896728,  103.120633
  20.715832,  103.120633
  21.534935,  103.120633
  22.354038,  103.120633
  23.173141,  103.120633
  23.992245,  103.120633
  24.811348,  103.120633
  25.630451,  103.120633
  26.449554,  103.120633
  27.268658,  103.120633
  28.087761,  103.120633
  28.906864,  103.120633
  29.725967,  103.120633
  30.545071,  103.120633
  31.364174,  103.120633
  32.183277,  103.120633
  33.002380,  103.120633
  33.821484,  103.120633
  34.640587,  103.120633
  35.459690,  103.120633
  36.278793,  103.120633
  37.097897,  103.120633
  37.917000,  103.120633
  38.736103,  103.120633
  38.736103,  113.177778
  39.896032,  113.177778
  41.058764,  113.177778
  42.220084,  113.177778
  43.376236,  113.177778
  44.524976,  113.177778
  45.661995,  113.177778
  46.783206,  113.177778
  47.900611,  113.177778
  49.010509,  113.177778
  49.010509,   87.455556
  49.589924,   87.455556
  50.174964,   87.455556
  50.765469,   87.455556
  51.364214,   87.455556
  51.981985,   87.455556
  52.628108,   87.455556
  53.305596,   87.455556
  54.016769,   87.455556
  54.763442,   87.455556
  54.763442,   73.176313
  56.615618,   73.144369
  58.468603,   73.112423
  60.322397,   73.080476
  62.177002,   73.048527
  64.032418,   73.016576
  65.888646,   72.984624
  67.745686,   72.952670
  69.603540,   72.920715
  71.462208,   72.888759
  71.462208,  113.177778
  72.108615,  113.177778
  72.744854,  113.177778
  73.383630,  113.177778
  74.025084,  113.177778
  74.669359,  113.177778
  75.316244,  113.177778
  75.965602,  113.177778
  76.616971,  113.177778
  77.269434,  113.177778
  77.269434,   73.176313
  82.269434,   73.144369
  87.269434,   73.112423
  92.269434,   73.080476
  97.269434,   73.048527
 102.269434,   73.016576
 107.269434,   72.984624
 112.269434,   72.952670
 117.269434,   72.920715
 122.269434,   72.888759
 122.269434,   48.815592
 122.271101,   59.800288
 122.272767,   59.801474
 122.274434,   59.802660
 122.276101,   59.803802
 122.277767,   59.804936
 122.279434,   59.806071
 122.281101,   59.807205
 122.282767,   59.808339
 122.284434,   59.809473
 122.286101,   59.810607
 122.287767,   59.811742
 122.289434,   59.812876
 122.291101,   59.814010
 122.292767,   59.815127
 122.294434,   59.816240
 122.296101,   59.817354
 122.297767,   59.818467
 122.299434,   59.819581
 122.301101,   59.820694
 122.302767,   59.821807
 122.304434,   59.822921
 122.306101,   59.824034
 122.307767,   59.825148
 122.309434,   59.826259
 122.311101,   59.827371
 122.312767,   59.828482
 122.314434,   59.829593
 122.316101,   59.830704
 122.317767,   59.831816
 122.319434,   59.832927
 122.321101,   59.834038
 122.322767,   59.835149
 122.324434,   59.836261
 122.326101,   59.837287
 122.327767,   59.838297
 122.329434,   59.839308
 122.331101,   59.840318
 122.332767,   59.841328
 122.334434,   59.842338
 122.336101,   59.843348
 122.337767,   59.844358
 122.339434,   59.845369
 122.341101,   59.846379
 122.342767,   59.847462
 122.344434,   59.848559
 122.346101,   59.849657
 122.347767,   59.850754
 122.349434,   59.851852
 122.351101,   59.852949
 122.352767,   59.854047
 122.354434,   59.855144
 122.356101,   59.856242
 122.357767,   59.857339
 122.359434,   59.858408
 122.361101,   59.859471
 122.362767,   59.860533
 122.364434,   59.861596
 122.366101,   59.862659
 122.367767,   59.863722
 122.369434,   59.864785
 122.371101,   59.865848
 122.372767,   59.866910
 122.374434,   59.867973
 122.376101,   59.869040
 122.377767,   59.870108
 122.379434,   59.871176
 122.381101,   59.872243
 122.382767,   59.873311
 122.384434,   59.874379
 122.386101,   59.875447
 122.387767,   59.876515
 122.389434,   59.877582
 122.391101,   59.878650
 122.392767,   59.879757
 122.394434,   59.880871
 122.396101,   59.881986
 122.397767,   59.883100
 122.399434,   59.884215
 122.401101,   59.885329
 122.402767,   59.886444
 122.404434,   59.887558
 122.406101,   59.888673
 122.407767,   59.889787
 122.409434,   59.890865
 122.411101,   59.891936
 122.412767,   59.893007
 122.414434,   59.894078
 122.416101,   59.895149
 122.417767,   59.896220
 122.419434,   59.897290
 122.421101,   59.898361
 122.422767,   59.899432
 122.424434,   59.900503
 122.426101,   59.901573
 122.427767,   59.902642
 122.429434,   59.903711
 122.431101,   59.904780
 122.432767,   59.905850
 122.434434,   59.906919
 122.436101,   59.907988
 122.437767,   59.909058
 122.439434,   59.910127
 122.441101,   59.911196
 122.442767,   59.912183
 122.444434,   59.913155
 122.446101,   59.914126
 122.447767,   59.915097
 122.449434,   59.916069
 122.451101,   59.917040
 122.452767,   59.918011
 122.454434,   59.918983
 122.456101,   59.919954
 122.457767,   59.920925
 122.459434,   59.921882
 122.461101,   59.922835
 122.462767,   59.923788
 122.464434,   59.924742
 122.466101,   59.925695
 122.467767,   59.926648
 122.469434,   59.927601
 122.471101,   59.928555
 122.472767,   59.929508
 122.474434,   59.930461
 122.476101,   59.931411
 122.477767,   59.932359
 122.479434,   59.933308
 122.481101,   59.934257
 122.482767,   59.935205
 122.484434,   59.936154
 122.486101,   59.937103
 122.487767,   59.938051
 122.489434,   59.939000
 122.491101,   59.939949
 122.492767,   59.940935
 122.494434,   59.941929
 122.496101,   59.942923
 122.497767,   59.943917
 122.499434,   59.944910
 122.501101,   59.945904
 122.502767,   59.946898
 122.504434,   59.947892
 122.506101,   59.948886
 122.507767,   59.949880
 122.509434,   59.950836
 122.511101,   59.951786
 122.512767,   59.952735
 122.514434,   59.953684
 122.516101,   59.954634
 122.517767,   59.955583
 122.519434,   59.956532
 122.521101,   59.957482
 122.522767,   59.958431
 122.524434,   59.959380
 122.526101,   59.960332
 122.527767,   59.961285
 122.529434,   59.962237
 122.531101,   59.963190
 122.532767,   59.964142
 122.534434,   59.965095
 122.536101,   59.966047
 122.537767,   59.966999
 122.539434,   59.967952
 122.541101,   59.968904
 122.542767,   59.969901
 122.544434,   59.970906
 122.546101,   59.971911
 122.547767,   59.972916
 122.549434,   59.973920
 122.551101,   59.974925
 122.552767,   59.975930
 122.554434,   59.976935
 122.556101,   59.977940
 122.557767,   59.978945
 122.559434,   59.979918
 122.561101,   59.980885
 122.562767,   59.981852
 122.564434,   59.982818
 122.566101,   59.983785
 122.567767,   59.984752
 122.569434,   59.985719
 122.571101,   59.986686
 122.572767,   59.987652
 122.574434,   59.988619
 122.576101,   59.989593
 122.577767,   59.990568
 122.579434,   59.991543
 122.581101,   59.992518
 122.582767,   59.993493
 122.584434,   59.994468
 122.586101,   59.995443
 122.587767,   59.996418
 122.589434,   59.997393
 122.591101,   59.998368
 122.592767,   59.999390
 122.594434,   60.000421
 122.596101,   60.001452
 122.597767,   60.002483
 122.599434,   60.003514
 122.601101,   60.004545
 122.602767,   60.005576
 122.604434,   60.006607
 122.606101,   60.007638
 122.607767,   60.008669
 122.609434,   60.009670
 122.611101,   60.010664
 122.612767,   60.011659
 122.614434,   60.012654
 122.616101,   60.013648
 122.617767,   60.014643
 122.619434,   60.015638
 122.621101,   60.016632
 122.622767,   60.017627
 122.624434,   60.018622
 122.626101,   60.019623
 122.627767,   60.020627
 122.629434,   60.021630
 122.631101,   60.022633
 122.632767,   60.023636
 122.634434,   60.024639
 122.636101,   60.025642
 122.637767,   60.026645
 122.639434,   60.027648
 122.641101,   60.028651
 122.642767,   60.029700
 122.644434,   60.030758
 122.646101,   60.031815
 122.647767,   60.032873
 122.649434,   60.033931
 122.651101,   60.034988
 122.652767,   60.036046
 122.654434,   60.037104
 122.656101,   60.038161
 122.657767,   60.039219
 122.659434,   60.040244
 122.661101,   60.041262
 122.662767,   60.042280
 122.664434,   60.043299
 122.666101,   60.044317
 122.667767,   60.045335
 122.669434,   60.046353
 122.671101,   60.047372
 122.672767,   60.048390
 122.674434,   60.049408
 122.676101,   60.050430
 122.677767,   60.051452
 122.679434,   60.052474
 122.681101,   60.053497
 122.682767,   60.054519
 122.684434,   60.055541
 122.686101,   60.056564
 122.687767,   60.057586
 122.689434,   60.058609
 122.691101,   60.059631
 122.692767,   60.060695
 122.694434,   60.061767
 122.696101,   60.062839
 122.697767,   60.063911
 122.699434,   60.064983
 122.701101,   60.066055
 122.702767,   60.067127
 122.704434,   60.068199
 122.706101,   60.069271
 122.707767,   60.070343
 122.709434,   60.071377
 122.711101,   60.072404
 122.712767,   60.073430
 122.714434,   60.074457
 122.716101,   60.075484
 122.717767,   60.076511
 122.719434,   60.077538
 122.721101,   60.078564
 122.722767,   60.079591
 122.724434,   60.080618
 122.726101,   60.081643
 122.727767,   60.082668
 122.729434,   60.083693
 122.731101,   60.084718
 122.732767,   60.085743
 122.734434,   60.086768
 122.736101,   60.087793
 122.737767,   60.088818
 122.739434,   60.089843
 122.741101,   60.090868
 122.742767,   60.091930
 122.744434,   60.092999
 122.746101,   60.094068
 122.747767,   60.095137
 122.749434,   60.096206
 122.751101,   60.097275
 122.752767,   60.098344
 122.754434,   60.099413
 122.756101,   60.100482
 122.757767,   60.101551
 122.759434,   60.102578
 122.761101,   60.103597
 122.762767,   60.104615
 122.764434,   60.105634
 122.766101,   60.106653
 122.767767,   60.107671
 122.769434,   60.108690
 122.771101,   60.109708
 122.772767,   60.110727
 122.774434,   60.111746
 122.776101,   60.112873
 122.777767,   60.114022
 122.779434,   60.115170
 122.781101,   60.116319
 122.782767,   60.117468
 122.784434,   60.118616
 122.786101,   60.119765
 122.787767,   60.120914
 122.789434,   60.122062
 122.791101,   60.123211
 122.792767,   60.124374
 122.794434,   60.125539
 122.796101,   60.126704
 122.797767,   60.127870
 122.799434,   60.129035
 122.801101,   60.130201
 122.802767,   60.131366
 122.804434,   60.132531
 122.806101,   60.133697
 122.807767,   60.134862
 122.809434,   60.135972
 122.811101,   60.137072
 122.812767,   60.138171
 122.814434,   60.139271
 122.816101,   60.140370
 122.817767,   60.141470
 122.819434,   60.142569
 122.821101,   60.143669
 122.822767,   60.144768
 122.824434,   60.145867
 122.826101,   60.146947
 122.827767,   60.148023
 122.829434,   60.149099
 122.831101,   60.150175
 122.832767,   60.151252
 122.834434,   60.152328
 122.836101,   60.153404
 122.837767,   60.154480
 122.839434,   60.155556
 122.841101,   60.156632
 122.842767,   60.157705
 122.844434,   60.158778
 122.846101,   60.159850
 122.847767,   60.160923
 122.849434,   60.161996
 122.851101,   60.163068
 122.852767,   60.164141
 122.854434,   60.165214
 122.856101,   60.166286
 122.857767,   60.167359
 122.859434,   60.168465
 122.861101,   60.169577
 122.862767,   60.170690
 122.864434,   60.171803
 122.866101,   60.172915
 122.867767,   60.174028
 122.869434,   60.175140
 122.871101,   60.176253
 122.872767,   60.177365
 122.874434,   60.178478
 122.876101,   60.179548
 122.877767,   60.180611
 122.879434,   60.181673
 122.881101,   60.182735
 122.882767,   60.183798
 122.884434,   60.184860
 122.886101,   60.185923
 122.887767,   60.186985
 122.889434,   60.188047
 122.891101,   60.189110
 122.892767,   60.190167
 122.894434,   60.191224
 122.896101,   60.192280
 122.897767,   60.193337
 122.899434,   60.194394
 122.901101,   60.195450
 122.902767,   60.196507
 122.904434,   60.197563
 122.906101,   60.198620
 122.907767,   60.199676
 122.909434,   60.200648
 122.911101,   60.201603
 122.912767,   60.202558
 122.914434,   60.203513
 122.916101,   60.204468
 122.917767,   60.205423
 122.919434,   60.206378
 122.921101,   60.207333
 122.922767,   60.208288
 122.924434,   60.209243
 122.926101,   60.210183
 122.927767,   60.211119
 122.929434,   60.212056
 122.931101,   60.212992
 122.932767,   60.213929
 122.934434,   60.214865
 122.936101,   60.215802
 122.937767,   60.216738
 122.939434,   60.217675
 122.941101,   60.218611
 122.942767,   60.219545
 122.944434,   60.220478
 122.946101,   60.221412
 122.947767,   60.222345
 122.949434,   60.223278
 122.951101,   60.224212
 122.952767,   60.225145
 122.954434,   60.226078
 122.956101,   60.227011
 122.957767,   60.227945
 122.959434,   60.228919
 122.961101,   60.229902
 122.962767,   60.230884
 122.964434,   60.231866
 122.966101,   60.232849
 122.967767,   60.233831
 122.969434,   60.234814
 122.971101,   60.235796
 122.972767,   60.236778
 122.974434,   60.237761
 122.976101,   60.238710
 122.977767,   60.239652
 122.979434,   60.240594
 122.981101,   60.241536
 122.982767,   60.242478
 122.984434,   60.243420
 122.986101,   60.244362
 122.987767,   60.245304
 122.989434,   60.246246
 122.991101,   60.247189
 122.992767,   60.248138
 122.994434,   60.249089
 122.996101,   60.250041
 122.997767,   60.250992
 122.999434,   60.251943
 123.001101,   60.252894
 123.002767,   60.253845
 123.004434,   60.254796
 123.006101,   60.255748
 123.007767,   60.256699
 123.009434,   60.257700
 123.011101,   60.258711
 123.012767,   60.259721
 123.014434,   60.260732
 123.016101,   60.261743
 123.017767,   60.262754
 123.019434,   60.263765
 123.021101,   60.264775
 123.022767,   60.265786
 123.024434,   60.266797
 123.026101,   60.267781
 123.027767,   60.268760
 123.029434,   60.269739
 123.031101,   60.270718
 123.032767,   60.271696
 123.034434,   60.272675
 123.036101,   60.273654
 123.037767,   60.274633
 123.039434,   60.275612
 123.041101,   60.276591
 123.042767,   60.277484
 123.044434,   60.278361
 123.046101,   60.279238
 123.047767,   60.280115
 123.049434,   60.280992
 123.051101,   60.281869
 123.052767,   60.282746
 123.054434,   60.283623
 123.056101,   60.284500
 123.057767,   60.285377
 123.059434,   60.286243
 123.061101,   60.287106
 123.062767,   60.287970
 123.064434,   60.288833
 123.066101,   60.289697
 123.067767,   60.290560
 123.069434,   60.291424
 123.071101,   60.292287
 123.072767,   60.293150
 123.074434,   60.294014
 123.076101,   60.294883
 123.077767,   60.295753
 123.079434,   60.296622
 123.081101,   60.297492
 123.082767,   60.298362
 123.084434,   60.299232
 123.086101,   60.300102
 123.087767,   60.300972
 123.089434,   60.301842
 123.091101,   60.302711
 123.092767,   60.303634
 123.094434,   60.304566
 123.096101,   60.305498
 123.097767,   60.306431
 123.099434,   60.307363
 123.101101,   60.308296
 123.102767,   60.309228
 123.104434,   60.310161
 123.106101,   60.311093
 123.107767,   60.312025
 123.109434,   60.312937
 123.111101,   60.313845
 123.112767,   60.314753
 123.114434,   60.315661
 123.116101,   60.316570
 123.117767,   60.317478
 123.119434,   60.318386
 123.121101,   60.319294
 123.122767,   60.320202
 123.124434,   60.321110
 123.126101,   60.322077
 123.127767,   60.323055
 123.129434,   60.324034
 123.131101,   60.325013
 123.132767,   60.325991
 123.134434,   60.326970
 123.136101,   60.327949
 123.137767,   60.328927
 123.139434,   60.329906
 123.141101,   60.330885
 123.142767,   60.331834
 123.144434,   60.332777
 123.146101,   60.333720
 123.147767,   60.334664
 123.149434,   60.335607
 123.151101,   60.336550
 123.152767,   60.337494
 123.154434,   60.338437
 123.156101,   60.339380
 123.157767,   60.340323
 123.159434,   60.341267
 123.161101,   60.342211
 123.162767,   60.343155
 123.164434,   60.344099
 123.166101,   60.345043
 123.167767,   60.345987
 123.169434,   60.346931
 123.171101,   60.347875
 123.172767,   60.348819
 123.174434,   60.349763
 123.176101,   60.350751
 123.177767,   60.351747
 123.179434,   60.352744
 123.181101,   60.353740
 123.182767,   60.354737
 123.184434,   60.355734
 123.186101,   60.356730
 123.187767,   60.357727
 123.189434,   60.358724
 123.191101,   60.359720
 123.192767,   60.360685
 123.194434,   60.361644
 123.196101,   60.362603
 123.197767,   60.363561
 123.199434,   60.364520
 123.201101,   60.365479
 123.202767,   60.366438
 123.204434,   60.367396
 123.206101,   60.368355
 123.207767,   60.369314
 123.209434,   60.370282
 123.211101,   60.371252
 123.212767,   60.372222
 123.214434,   60.373191
 123.216101,   60.374161
 123.217767,   60.375131
 123.219434,   60.376101
 123.221101,   60.377070
 123.222767,   60.378040
 123.224434,   60.379010
 123.226101,   60.380031
 123.227767,   60.381062
 123.229434,   60.382092
 123.231101,   60.383123
 123.232767,   60.384154
 123.234434,   60.385184
 123.236101,   60.386215
 123.237767,   60.387246
 123.239434,   60.388277
 123.241101,   60.389307
 123.242767,   60.390311
 123.244434,   60.391310
 123.246101,   60.392309
 123.247767,   60.393308
 123.249434,   60.394307
 123.251101,   60.395305
 123.252767,   60.396304
 123.254434,   60.397303
 123.256101,   60.398302
 123.257767,   60.399300
 123.259434,   60.400213
 123.261101,   60.401108
 123.262767,   60.402004
 123.264434,   60.402899
 123.266101,   60.403795
 123.267767,   60.404691
 123.269434,   60.405586
 123.271101,   60.406482
 123.272767,   60.407377
 123.274434,   60.408273
 123.276101,   60.409156
 123.277767,   60.410036
 123.279434,   60.410916
 123.281101,   60.411797
 123.282767,   60.412677
 123.284434,   60.413558
 123.286101,   60.414438
 123.287767,   60.415318
 123.289434,   60.416199
 123.291101,   60.417079
 123.292767,   60.417963
 123.294434,   60.418848
 123.296101,   60.419732
 123.297767,   60.420617
 123.299434,   60.421502
 123.301101,   60.422386
 123.302767,   60.423271
 123.304434,   60.424156
 123.306101,   60.425040
 123.307767,   60.425925
 123.309434,   60.426860
 123.311101,   60.427805
 123.312767,   60.428750
 123.314434,   60.429695
 123.316101,   60.430640
 123.317767,   60.431585
 123.319434,   60.432529
 123.321101,   60.433474
 123.322767,   60.434419
 123.324434,   60.435364
 123.326101,   60.436286
 123.327767,   60.437203
 123.329434,   60.438121
 123.331101,   60.439038
 123.332767,   60.439956
 123.334434,   60.440873
 123.336101,   60.441790
 123.337767,   60.442708
 123.339434,   60.443625
 123.341101,   60.444543
 123.342767,   60.445517
 123.344434,   60.446502
 123.346101,   60.447487
 123.347767,   60.448472
 123.349434,   60.449458
 123.351101,   60.450443
 123.352767,   60.451428
 123.354434,   60.452413
 123.356101,   60.453399
 123.357767,   60.454384
 123.359434,   60.455337
 123.361101,   60.456284
 123.362767,   60.457230
 123.364434,   60.458177
 123.366101,   60.459124
 123.367767,   60.460071
 123.369434,   60.461017
 123.371101,   60.461964
 123.372767,   60.462911
 123.374434,   60.463858
 123.376101,   60.464802
 123.377767,   60.465745
 123.379434,   60.466689
 123.381101,   60.467632
 123.382767,   60.468576
 123.384434,   60.469519
 123.386101,   60.470463
 123.387767,   60.471406
 123.389434,   60.472350
 123.391101,   60.473293
 123.392767,   60.474277
 123.394434,   60.475270
 123.396101,   60.476262
 123.397767,   60.477254
 123.399434,   60.478247
 123.401101,   60.479239
 123.402767,   60.480232
 123.404434,   60.481224
 123.406101,   60.482216
 123.407767,   60.483209
 123.409434,   60.484168
 123.411101,   60.485121
 123.412767,   60.486074
 123.414434,   60.487027
 123.416101,   60.487980
 123.417767,   60.488933
 123.419434,   60.489886
 123.421101,   60.490838
 123.422767,   60.491791
 123.424434,   60.492744
 123.426101,   60.493704
 123.427767,   60.494666
 123.429434,   60.495627
 123.431101,   60.496588
 123.432767,   60.497549
 123.434434,   60.498511
 123.436101,   60.499472
 123.437767,   60.500433
 123.439434,   60.501394
 123.441101,   60.502356
 123.442767,   60.503367
 123.444434,   60.504388
 123.446101,   60.505409
 123.447767,   60.506430
 123.449434,   60.507451
 123.451101,   60.508472
 123.452767,   60.509493
 123.454434,   60.510514
 123.456101,   60.511535
 123.457767,   60.512556
 123.459434,   60.513551
 123.461101,   60.514541
 123.462767,   60.515532
 123.464434,   60.516522
 123.466101,   60.517512
 123.467767,   60.518502
 123.469434,   60.519493
 123.471101,   60.520483
 123.472767,   60.521473
 123.474434,   60.522464
 123.476101,   60.523369
 123.477767,   60.524257
 123.479434,   60.525146
 123.481101,   60.526035
 123.482767,   60.526923
 123.484434,   60.527812
 123.486101,   60.528701
 123.487767,   60.529589
 123.489434,   60.530478
 123.491101,   60.531366
 123.492767,   60.532243
 123.494434,   60.533118
 123.496101,   60.533992
 123.497767,   60.534866
 123.499434,   60.535741
 123.501101,   60.536615
 123.502767,   60.537490
 123.504434,   60.538364
 123.506101,   60.539238
 123.507767,   60.540113
 123.509434,   60.540992
 123.511101,   60.541872
 123.512767,   60.542752
 123.514434,   60.543632
 123.516101,   60.544513
 123.517767,   60.545393
 123.519434,   60.546273
 123.521101,   60.547153
 123.522767,   60.548033
 123.524434,   60.548913
 123.526101,   60.549846
 123.527767,   60.550789
 123.529434,   60.551732
 123.531101,   60.552675
 123.532767,   60.553617
 123.534434,   60.554560
 123.536101,   60.555503
 123.537767,   60.556446
 123.539434,   60.557389
 123.541101,   60.558332
 123.542767,   60.559255
 123.544434,   60.560175
 123.546101,   60.561094
 123.547767,   60.562014
 123.549434,   60.562934
 123.551101,   60.563854
 123.552767,   60.564773
 123.554434,   60.565693
 123.556101,   60.566613
 123.557767,   60.567532
 123.559434,   60.568510
 123.561101,   60.569500
 123.562767,   60.570489
 123.564434,   60.571479
 123.566101,   60.572468
 123.567767,   60.573457
 123.569434,   60.574447
 123.571101,   60.575436
 123.572767,   60.576425
 123.574434,   60.577415
 123.576101,   60.578376
 123.577767,   60.579333
 123.579434,   60.580289
 123.581101,   60.581245
 123.582767,   60.582201
 123.584434,   60.583158
 123.586101,   60.584114
 123.587767,   60.585070
 123.589434,   60.586026
 123.591101,   60.586982
 123.592767,   60.587939
 123.594434,   60.588895
 123.596101,   60.589851
 123.597767,   60.590807
 123.599434,   60.591763
 123.601101,   60.592719
 123.602767,   60.593675
 123.604434,   60.594631
 123.606101,   60.595587
 123.607767,   60.596543
 123.609434,   60.597544
 123.611101,   60.598552
 123.612767,   60.599561
 123.614434,   60.600570
 123.616101,   60.601578
 123.617767,   60.602587
 123.619434,   60.603596
 123.621101,   60.604605
 123.622767,   60.605613
 123.624434,   60.606622
 123.626101,   60.607600
 123.627767,   60.608572
 123.629434,   60.609543
 123.631101,   60.610515
 123.632767,   60.611487
 123.634434,   60.612459
 123.636101,   60.613431
 123.637767,   60.614402
 123.639434,   60.615374
 123.641101,   60.616346
 123.642767,   60.617326
 123.644434,   60.618308
 123.646101,   60.619290
 123.647767,   60.620272
 123.649434,   60.621255
 123.651101,   60.622237
 123.652767,   60.623219
 123.654434,   60.624201
 123.656101,   60.625183
 123.657767,   60.626165
 123.659434,   60.627198
 123.661101,   60.628241
 123.662767,   60.629283
 123.664434,   60.630326
 123.666101,   60.631369
 123.667767,   60.632412
 123.669434,   60.633455
 123.671101,   60.634498
 123.672767,   60.635541
 123.674434,   60.636584
 123.676101,   60.637601
 123.677767,   60.638612
 123.679434,   60.639624
 123.681101,   60.640636
 123.682767,   60.641648
 123.684434,   60.642660
 123.686101,   60.643672
 123.687767,   60.644683
 123.689434,   60.645695
 123.691101,   60.646707
 123.692767,   60.647633
 123.694434,   60.648541
 123.696101,   60.649450
 123.697767,   60.650358
 123.699434,   60.651266
 123.701101,   60.652175
 123.702767,   60.653083
 123.704434,   60.653992
 123.706101,   60.654900
 123.707767,   60.655809
 123.709434,   60.656704
 123.711101,   60.657596
 123.712767,   60.658488
 123.714434,   60.659380
 123.716101,   60.660273
 123.717767,   60.661165
 123.719434,   60.662057
 123.721101,   60.662949
 123.722767,   60.663841
 123.724434,   60.664734
 123.726101,   60.665629
 123.727767,   60.666524
 123.729434,   60.667419
 123.731101,   60.668315
 123.732767,   60.669210
 123.734434,   60.670105
 123.736101,   60.671001
 123.737767,   60.671896
 123.739434,   60.672791
 123.741101,   60.673687
 123.742767,   60.674632
 123.744434,   60.675588
 123.746101,   60.676543
 123.747767,   60.677498
 123.749434,   60.678453
 123.751101,   60.679409
 123.752767,   60.680364
 123.754434,   60.681319
 123.756101,   60.682274
 123.757767,   60.683230
 123.759434,   60.684163
 123.761101,   60.685091
 123.762767,   60.686020
 123.764434,   60.686948
 123.766101,   60.687877
 123.767767,   60.688806
 123.769434,   60.689734
 123.771101,   60.690663
 123.772767,   60.691591
 123.774434,   60.692520
 123.776101,   60.693504
 123.777767,   60.694500
 123.779434,   60.695495
 123.781101,   60.696490
 123.782767,   60.697485
 123.784434,   60.698480
 123.786101,   60.699476
 123.787767,   60.700471
 123.789434,   60.701466
 123.791101,   60.702461
 123.792767,   60.703426
 123.794434,   60.704384
 123.796101,   60.705343
 123.797767,   60.706301
 123.799434,   60.707260
 123.801101,   60.708219
 123.802767,   60.709177
 123.804434,   60.710136
 123.806101,   60.711094
 123.807767,   60.712053
 123.809434,   60.713009
 123.811101,   60.713964
 123.812767,   60.714920
 123.814434,   60.715876
 123.816101,   60.716831
 123.817767,   60.717787
 123.819434,   60.718742
 123.821101,   60.719698
 123.822767,   60.720653
 123.824434,   60.721609
 123.826101,   60.722606
 123.827767,   60.723613
 123.829434,   60.724619
 123.831101,   60.725625
 123.832767,   60.726631
 123.834434,   60.727637
 123.836101,   60.728643
 123.837767,   60.729649
 123.839434,   60.730655
 123.841101,   60.731661
 123.842767,   60.732634
 123.844434,   60.733602
 123.846101,   60.734569
 123.847767,   60.735536
 123.849434,   60.736503
 123.851101,   60.737470
 123.852767,   60.738438
 123.854434,   60.739405
 123.856101,   60.740372
 123.857767,   60.741339
 123.859434,   60.742314
 123.861101,   60.743290
 123.862767,   60.744267
 123.864434,   60.745243
 123.866101,   60.746220
 123.867767,   60.747196
 123.869434,   60.748173
 123.871101,   60.749149
 123.872767,   60.750126
 123.874434,   60.751102
 123.876101,   60.752130
 123.877767,   60.753167
 123.879434,   60.754205
 123.881101,   60.755242
 123.882767,   60.756279
 123.884434,   60.757317
 123.886101,   60.758354
 123.887767,   60.759392
 123.889434,   60.760429
 123.891101,   60.761467
 123.892767,   60.762478
 123.894434,   60.763485
 123.896101,   60.764492
 123.897767,   60.765498
 123.899434,   60.766505
 123.901101,   60.767512
 123.902767,   60.768519
 123.904434,   60.769525
 123.906101,   60.770532
 123.907767,   60.771539
 123.909434,   60.772459
 123.911101,   60.773363
 123.912767,   60.774267
 123.914434,   60.775171
 123.916101,   60.776075
 123.917767,   60.776979
 123.919434,   60.777883
 123.921101,   60.778787
 123.922767,   60.779691
 123.924434,   60.780595
 123.926101,   60.781487
 123.927767,   60.782376
 123.929434,   60.783265
 123.931101,   60.784155
 123.932767,   60.785044
 123.934434,   60.785933
 123.936101,   60.786823
 123.937767,   60.787712
 123.939434,   60.788601
 123.941101,   60.789491
 123.942767,   60.790385
 123.944434,   60.791279
 123.946101,   60.792174
 123.947767,   60.793069
 123.949434,   60.793963
 123.951101,   60.794858
 123.952767,   60.795753
 123.954434,   60.796648
 123.956101,   60.797542
 123.957767,   60.798437
 123.959434,   60.799384
 123.961101,   60.800342
 123.962767,   60.801299
 123.964434,   60.802257
 123.966101,   60.803214
 123.967767,   60.804171
 123.969434,   60.805129
 123.971101,   60.806086
 123.972767,   60.807044
 123.974434,   60.808001
 123.976101,   60.808938
 123.977767,   60.809872
 123.979434,   60.810805
 123.981101,   60.811738
 123.982767,   60.812671
 123.984434,   60.813605
 123.986101,   60.814538
 123.987767,   60.815471
 123.989434,   60.816404
 123.991101,   60.817338
 123.992767,   60.818329
 123.994434,   60.819332
 123.996101,   60.820335
 123.997767,   60.821337
 123.999434,   60.822340
 124.001101,   60.823343
 124.002767,   60.824346
 124.004434,   60.825349
 124.006101,   60.826351
 124.007767,   60.827354
 124.009434,   60.828328
 124.011101,   60.829296
 124.012767,   60.830265
 124.014434,   60.831233
 124.016101,   60.832201
 124.017767,   60.833170
 124.019434,   60.834138
 124.021101,   60.835106
 124.022767,   60.836075
 124.024434,   60.837043
 124.026101,   60.838010
 124.027767,   60.838978
 124.029434,   60.839945
 124.031101,   60.840912
 124.032767,   60.841880
 124.034434,   60.842847
 124.036101,   60.843814
 124.037767,   60.844782
 124.039434,   60.845749
 124.041101,   60.846716
 124.042767,   60.847727
 124.044434,   60.848747
 124.046101,   60.849767
 124.047767,   60.850786
 124.049434,   60.851806
 124.051101,   60.852826
 124.052767,   60.853845
 124.054434,   60.854865
 124.056101,   60.855885
 124.057767,   60.856904
 124.059434,   60.857892
 124.061101,   60.858874
 124.062767,   60.859856
 124.064434,   60.860837
 124.066101,   60.861819
 124.067767,   60.862801
 124.069434,   60.863782
 124.071101,   60.864764
 124.072767,   60.865746
 124.074434,   60.866727
 124.076101,   60.867717
 124.077767,   60.868709
 124.079434,   60.869700
 124.081101,   60.870692
 124.082767,   60.871683
 124.084434,   60.872675
 124.086101,   60.873666
 124.087767,   60.874658
 124.089434,   60.875649
 124.091101,   60.876640
 124.092767,   60.877683
 124.094434,   60.878736
 124.096101,   60.879789
 124.097767,   60.880841
 124.099434,   60.881894
 124.101101,   60.882947
 124.102767,   60.884000
 124.104434,   60.885052
 124.106101,   60.886105
 124.107767,   60.887158
 124.109434,   60.888184
 124.111101,   60.889205
 124.112767,   60.890226
 124.114434,   60.891248
 124.116101,   60.892269
 124.117767,   60.893290
 124.119434,   60.894311
 124.121101,   60.895332
 124.122767,   60.896354
 124.124434,   60.897375
 124.126101,   60.898309
 124.127767,   60.899225
 124.129434,   60.900142
 124.131101,   60.901059
 124.132767,   60.901975
 124.134434,   60.902892
 124.136101,   60.903809
 124.137767,   60.904726
 124.139434,   60.905642
 124.141101,   60.906559
 124.142767,   60.907462
 124.144434,   60.908363
 124.146101,   60.909263
 124.147767,   60.910164
 124.149434,   60.911065
 124.151101,   60.911965
 124.152767,   60.912866
 124.154434,   60.913766
 124.156101,   60.914667
 124.157767,   60.915567
 124.159434,   60.916471
 124.161101,   60.917375
 124.162767,   60.918279
 124.164434,   60.919183
 124.166101,   60.920088
 124.167767,   60.920992
 124.169434,   60.921896
 124.171101,   60.922800
 124.172767,   60.923704
 124.174434,   60.924608
 124.176101,   60.925564
 124.177767,   60.926529
 124.179434,   60.927494
 124.181101,   60.928460
 124.182767,   60.929425
 124.184434,   60.930390
 124.186101,   60.931356
 124.187767,   60.932321
 124.189434,   60.933286
 124.191101,   60.934251
 124.192767,   60.935195
 124.194434,   60.936134
 124.196101,   60.937073
 124.197767,   60.938012
 124.199434,   60.938951
 124.201101,   60.939890
 124.202767,   60.940829
 124.204434,   60.941768
 124.206101,   60.942706
 124.207767,   60.943645
 124.209434,   60.944641
 124.211101,   60.945648
 124.212767,   60.946655
 124.214434,   60.947662
 124.216101,   60.948670
 124.217767,   60.949677
 124.219434,   60.950684
 124.221101,   60.951691
 124.222767,   60.952698
 124.224434,   60.953705
 124.226101,   60.954681
 124.227767,   60.955652
 124.229434,   60.956623
 124.231101,   60.957593
 124.232767,   60.958564
 124.234434,   60.959535
 124.236101,   60.960505
 124.237767,   60.961476
 124.239434,   60.962447
 124.241101,   60.963418
 124.242767,   60.964386
 124.244434,   60.965354
 124.246101,   60.966323
 124.247767,   60.967291
 124.249434,   60.968259
 124.251101,   60.969228
 124.252767,   60.970196
 124.254434,   60.971164
 124.256101,   60.972132
 124.257767,   60.973101
 124.259434,   60.974112
 124.261101,   60.975132
 124.262767,   60.976152
 124.264434,   60.977172
 124.266101,   60.978192
 124.267767,   60.979212
 124.269434,   60.980232
 124.271101,   60.981252
 124.272767,   60.982272
 124.274434,   60.983292
 124.276101,   60.984279
 124.277767,   60.985260
 124.279434,   60.986241
 124.281101,   60.987223
 124.282767,   60.988204
 124.284434,   60.989185
 124.286101,   60.990166
 124.287767,   60.991147
 124.289434,   60.992128
 124.291101,   60.993109
 124.292767,   60.994098
 124.294434,   60.995089
 124.296101,   60.996080
 124.297767,   60.997071
 124.299434,   60.998062
 124.301101,   60.999053
 124.302767,   61.000044
 124.304434,   61.001034
 124.306101,   61.002025
 124.307767,   61.003016
 124.309434,   61.004059
 124.311101,   61.005111
 124.312767,   61.006164
 124.314434,   61.007217
 124.316101,   61.008270
 124.317767,   61.009322
 124.319434,   61.010375
 124.321101,   61.011428
 124.322767,   61.012480
 124.324434,   61.013533
 124.326101,   61.014560
 124.327767,   61.015582
 124.329434,   61.016603
 124.331101,   61.017625
 124.332767,   61.018647
 124.334434,   61.019668
 124.336101,   61.020690
 124.337767,   61.021712
 124.339434,   61.022733
 124.341101,   61.023755
 124.342767,   61.024690
 124.344434,   61.025607
 124.346101,   61.026525
 124.347767,   61.027442
 124.349434,   61.028360
 124.351101,   61.029278
 124.352767,   61.030195
 124.354434,   61.031113
 124.356101,   61.032031
 124.357767,   61.032948
 124.359434,   61.033853
 124.361101,   61.034756
 124.362767,   61.035658
 124.364434,   61.036561
 124.366101,   61.037464
 124.367767,   61.038366
 124.369434,   61.039269
 124.371101,   61.040171
 124.372767,   61.041074
 124.374434,   61.041977
 124.376101,   61.042883
 124.377767,   61.043791
 124.379434,   61.044699
 124.381101,   61.045606
 124.382767,   61.046514
 124.384434,   61.047422
 124.386101,   61.048329
 124.387767,   61.049237
 124.389434,   61.050145
 124.391101,   61.051052
 124.392767,   61.052013
 124.394434,   61.052983
 124.396101,   61.053954
 124.397767,   61.054925
 124.399434,   61.055895
 124.401101,   61.056866
 124.402767,   61.057837
 124.404434,   61.058807
 124.406101,   61.059778
 124.407767,   61.060749
 124.409434,   61.061698
 124.411101,   61.062644
 124.412767,   61.063590
 124.414434,   61.064535
 124.416101,   61.065481
 124.417767,   61.066427
 124.419434,   61.067372
 124.421101,   61.068318
 124.422767,   61.069264
 124.424434,   61.070209
 124.426101,   61.071213
 124.427767,   61.072229
 124.429434,   61.073244
 124.431101,   61.074260
 124.432767,   61.075275
 124.434434,   61.076291
 124.436101,   61.077306
 124.437767,   61.078321
 124.439434,   61.079337
 124.441101,   61.080352
 124.442767,   61.081338
 124.444434,   61.082318
 124.446101,   61.083298
 124.447767,   61.084278
 124.449434,   61.085258
 124.451101,   61.086239
 124.452767,   61.087219
 124.454434,   61.088199
 124.456101,   61.089179
 124.457767,   61.090159
 124.459434,   61.091138
 124.461101,   61.092116
 124.462767,   61.093095
 124.464434,   61.094073
 124.466101,   61.095052
 124.467767,   61.096030
 124.469434,   61.097009
 124.471101,   61.097987
 124.472767,   61.098966
 124.474434,   61.099945
 124.476101,   61.100967
 124.477767,   61.101998
 124.479434,   61.103029
 124.481101,   61.104061
 124.482767,   61.105092
 124.484434,   61.106123
 124.486101,   61.107154
 124.487767,   61.108185
 124.489434,   61.109216
 124.491101,   61.110248
 124.492767,   61.111246
 124.494434,   61.112239
 124.496101,   61.113231
 124.497767,   61.114223
 124.499434,   61.115216
 124.501101,   61.116208
 124.502767,   61.117201
 124.504434,   61.118193
 124.506101,   61.119185
 124.507767,   61.120178
 124.509434,   61.121178
 124.511101,   61.122180
 124.512767,   61.123183
 124.514434,   61.124185
 124.516101,   61.125187
 124.517767,   61.126189
 124.519434,   61.127191
 124.521101,   61.128193
 124.522767,   61.129195
 124.524434,   61.130198
 124.526101,   61.131252
 124.527767,   61.132316
 124.529434,   61.133380
 124.531101,   61.134444
 124.532767,   61.135508
 124.534434,   61.136572
 124.536101,   61.137636
 124.537767,   61.138700
 124.539434,   61.139764
 124.541101,   61.140828
 124.542767,   61.141865
 124.544434,   61.142897
 124.546101,   61.143929
 124.547767,   61.144962
 124.549434,   61.145994
 124.551101,   61.147026
 124.552767,   61.148058
 124.554434,   61.149090
 124.556101,   61.150122
 124.557767,   61.151155
 124.559434,   61.152099
 124.561101,   61.153025
 124.562767,   61.153952
 124.564434,   61.154879
 124.566101,   61.155805
 124.567767,   61.156732
 124.569434,   61.157659
 124.571101,   61.158585
 124.572767,   61.159512
 124.574434,   61.160439
 124.576101,   61.161352
 124.577767,   61.162262
 124.579434,   61.163173
 124.581101,   61.164084
 124.582767,   61.164994
 124.584434,   61.165905
 124.586101,   61.166815
 124.587767,   61.167726
 124.589434,   61.168636
 124.591101,   61.169547
 124.592767,   61.170461
 124.594434,   61.171375
 124.596101,   61.172290
 124.597767,   61.173204
 124.599434,   61.174119
 124.601101,   61.175034
 124.602767,   61.175948
 124.604434,   61.176863
 124.606101,   61.177777
 124.607767,   61.178692
 124.609434,   61.179658
 124.611101,   61.180635
 124.612767,   61.181612
 124.614434,   61.182589
 124.616101,   61.183565
 124.617767,   61.184542
 124.619434,   61.185519
 124.621101,   61.186496
 124.622767,   61.187472
 124.624434,   61.188449
 124.626101,   61.189404
 124.627767,   61.190354
 124.629434,   61.191305
 124.631101,   61.192255
 124.632767,   61.193206
 124.634434,   61.194156
 124.636101,   61.195107
 124.637767,   61.196057
 124.639434,   61.197008
 124.641101,   61.197958
 124.642767,   61.198967
 124.644434,   61.199987
 124.646101,   61.201006
 124.647767,   61.202026
 124.649434,   61.203046
 124.651101,   61.204066
 124.652767,   61.205085
 124.654434,   61.206105
 124.656101,   61.207125
 124.657767,   61.208145
 124.659434,   61.209134
 124.661101,   61.210117
 124.662767,   61.211101
 124.664434,   61.212084
 124.666101,   61.213067
 124.667767,   61.214051
 124.669434,   61.215034
 124.671101,   61.216017
 124.672767,   61.217001
 124.674434,   61.217984
 124.676101,   61.218966
 124.677767,   61.219947
 124.679434,   61.220928
 124.681101,   61.221910
 124.682767,   61.222891
 124.684434,   61.223872
 124.686101,   61.224853
 124.687767,   61.225834
 124.689434,   61.226816
 124.691101,   61.227797
 124.692767,   61.228822
 124.694434,   61.229856
 124.696101,   61.230890
 124.697767,   61.231924
 124.699434,   61.232957
 124.701101,   61.233991
 124.702767,   61.235025
 124.704434,   61.236059
 124.706101,   61.237093
 124.707767,   61.238126
 124.709434,   61.239127
 124.711101,   61.240122
 124.712767,   61.241117
 124.714434,   61.242112
 124.716101,   61.243106
 124.717767,   61.244101
 124.719434,   61.245096
 124.721101,   61.246090
 124.722767,   61.247085
 124.724434,   61.248080
 124.726101,   61.249083
 124.727767,   61.250088
 124.729434,   61.251092
 124.731101,   61.252097
 124.732767,   61.253102
 124.734434,   61.254106
 124.736101,   61.255111
 124.737767,   61.256116
 124.739434,   61.257120
 124.741101,   61.258125
 124.742767,   61.259182
 124.744434,   61.260249
 124.746101,   61.261317
 124.747767,   61.262384
 124.749434,   61.263451
 124.751101,   61.264518
 124.752767,   61.265586
 124.754434,   61.266653
 124.756101,   61.267720
 124.757767,   61.268788
 124.759434,   61.269828
 124.761101,   61.270864
 124.762767,   61.271900
 124.764434,   61.272936
 124.766101,   61.273972
 124.767767,   61.275008
 124.769434,   61.276043
 124.771101,   61.277079
 124.772767,   61.278115
 124.774434,   61.279151
 124.776101,   61.280099
 124.777767,   61.281029
 124.779434,   61.281960
 124.781101,   61.282890
 124.782767,   61.283820
 124.784434,   61.284751
 124.786101,   61.285681
 124.787767,   61.286612
 124.789434,   61.287542
 124.791101,   61.288473
 124.792767,   61.289390
 124.794434,   61.290305
 124.796101,   61.291220
 124.797767,   61.292135
 124.799434,   61.293051
 124.801101,   61.293966
 124.802767,   61.294881
 124.804434,   61.295796
 124.806101,   61.296711
 124.807767,   61.297626
 124.809434,   61.298545
 124.811101,   61.299465
 124.812767,   61.300385
 124.814434,   61.301305
 124.816101,   61.302225
 124.817767,   61.303144
 124.819434,   61.304064
 124.821101,   61.304984
 124.822767,   61.305904
 124.824434,   61.306824
 124.826101,   61.307797
 124.827767,   61.308780
 124.829434,   61.309764
 124.831101,   61.310747
 124.832767,   61.311731
 124.834434,   61.312714
 124.836101,   61.313697
 124.837767,   61.314681
 124.839434,   61.315664
 124.841101,   61.316647
 124.842767,   61.317624
 124.844434,   61.318600
 124.846101,   61.319576
 124.846511,   61.319816
 124.848178,   61.320766
 124.849844,   61.321716
 124.851511,   61.322665
 124.853178,   61.323615
 124.854844,   61.324565
 124.856511,   61.325514
 124.858178,   61.318124
 124.859844,   61.218777
 124.861511,   61.119429
 124.863178,   61.020082
 124.864844,   60.920735
 124.866511,   60.821388
 124.868178,   60.722040
 124.869844,   60.622693
 124.871511,   60.523346
 124.873178,   60.423999
 124.874844,   60.324524
 124.876511,   60.223649
 124.878178,   60.122773
 124.879844,   60.021898
 124.881511,   59.921022
 124.883178,   59.820146
 124.884844,   59.719271
 124.886511,   59.618395
 124.888178,   59.517520
 124.889844,   59.416644
 124.891511,   59.315664
 124.893178,   59.213529
 124.894844,   59.111394
 124.896511,   59.009259
 124.898178,   58.907125
 124.899844,   58.804990
 124.901134,   58.725975
 124.902801,   58.622884
 124.904467,   58.519793
 124.906134,   58.416702
 124.907801,   58.313611
 124.909467,   58.145311
 124.911134,   57.967677
 124.912801,   57.790043
 124.914467,   57.612409
 124.916134,   57.434775
 124.917801,   57.257141
 124.919467,   57.079507
 124.921134,   56.901873
 124.922801,   56.724239
 124.924467,   56.546605
 124.926134,   56.295639
 124.927801,   56.034176
 124.929467,   55.772713
 124.931134,   55.511249
 124.932801,   55.249786
 124.934467,   54.988323
 124.936134,   54.726860
 124.937801,   54.465396
 124.939467,   54.203933
 124.941134,   53.942470
 124.942801,   53.619988
 124.944467,   53.288773
 124.946134,   52.957557
 124.947801,   52.626341
 124.949467,   52.295125
 124.951134,   51.963909
 124.952801,   51.632693
 124.954467,   51.301477
 124.956134,   50.970261
 124.957801,   50.639046
 124.959467,   50.307802
 124.961134,   49.976556
 124.962081,   49.788302
 124.963748,   49.466593
 124.965414,   49.144884
 124.967081,   48.823175
 124.968748,   48.501466
 124.970414,   48.179757
 124.972081,   47.858049
 124.973748,   47.536340
 124.975414,   47.258611
 124.977081,   47.036160
 124.978748,   46.813708
 124.980414,   46.591256
 124.982081,   46.368804
 124.983748,   46.146352
 124.985414,   45.923900
 124.987081,   45.701448
 124.988748,   45.478996
 124.990414,   45.256544
 124.992081,   44.936069
 124.993748,   44.492395
 124.995414,   44.048721
 124.997081,   43.605046
 124.998748,   43.161372
 125.000414,   42.717698
 125.002081,   42.274024
 125.003748,   41.830350
 125.005414,   41.372887
 125.007081,   40.909645
 125.008748,   40.446402
 125.010414,   39.983160
 125.012081,   39.519918
 125.013748,   39.056675
 125.015414,   38.593433
 125.017081,   38.132352
 125.018748,   37.672475
 125.020414,   37.212598
 125.022081,   36.752722
 125.023748,   36.292845
 125.025414,   35.832969
 125.027081,   35.373092
 125.028748,   34.913216
 125.030414,   34.453339
 125.032081,   33.993462
 125.033748,   33.537599
 125.035414,   33.083973
 125.037081,   32.630346
 125.038748,   32.176720
 125.040414,   31.723093
 125.042081,   31.269466
 125.043748,   30.815840
 125.045414,   30.362213
 125.047081,   29.908587
 125.048748,   29.454960
 125.050414,   29.004317
 125.052081,   28.555336
 125.053748,   28.106355
 125.055414,   27.657374
 125.057081,   27.208393
 125.058748,   26.759413
 125.060414,   26.310432
 125.062081,   25.861451
 125.063748,   25.412470
 125.065414,   24.963489
 125.067081,   24.513950
 125.068748,   24.064100
 125.070414,   23.614250
 125.072081,   23.164400
 125.073748,   22.714550
 125.075414,   22.264699
 125.077081,   21.814849
 125.078748,   21.364999
 125.080414,   20.915149
 125.082081,   20.465299
 125.083748,   20.016378
 125.085414,   19.567974
 125.087081,   19.119570
 125.088748,   18.671167
 125.090414,   18.222763
 125.092081,   17.774359
 125.093748,   17.325955
 125.095414,   16.877552
 125.097081,   16.429148
 125.098748,   15.980744
 125.100414,   15.534856
 125.102081,   15.090370
 125.103748,   14.645884
 125.105414,   14.201397
 125.107081,   13.756911
 125.108748,   13.312425
 125.110414,   12.867939
 125.112081,   12.423452
 125.113748,   11.978966
 125.115414,   11.534480
 125.117081,   11.094041
 125.118748,   10.655857
 125.120414,   10.217674
 125.122081,    9.779490
 125.123748,    9.341306
 125.125414,    8.903123
 125.127081,    8.464939
 125.128748,    8.026755
 125.130414,    7.588572
 125.132081,    7.150388
 125.133748,    6.717696
 125.135414,    6.288064
 125.137081,    5.858432
 125.138748,    5.428800
 125.140414,    4.999168
 125.142081,    4.569536
 125.143748,    4.139904
 125.145414,    3.710272
 125.147081,    3.280640
 125.148748,    2.851008
 125.150414,    2.427243
 125.152081,    2.006746
 125.153748,    1.586250
 125.155414,    1.165753
 125.157081,    0.745257
 125.158748,    0.324761
 125.160050,   -0.003730
