Ground Distance, Angles
   0.000000,    0.000000
   0.000001,    0.000000
   0.000022,    0.000000
   0.000269,    0.000000
   0.001546,    0.000000
   0.008568,    0.000000
   0.025861,    0.000000
   0.052564,    0.000000
   0.088636,    0.000000
   0.134260,    0.000000
   0.189567,    0.000000
   0.254546,    0.000000
   0.329154,    0.000000
   0.413194,    0.000000
   0.507589,    0.000000
   0.612937,    0.000000
   0.728495,    0.000000
   0.855500,    0.000000
   0.992684,    0.000000
   1.141479,    0.000000
   1.301537,    0.000000
   1.473335,    0.000000
   1.657281,    0.000000
   1.856357,    0.000000
   2.064703,    0.000000
   2.284095,    0.000000
   2.519148,    0.000000
   2.764670,    0.000000
   3.025114,    0.000000
   3.302165,    0.000000
   3.594172,    0.000000
   3.901938,    0.000000
   4.223707,    0.000000
   4.559049,    0.000000
   4.906882,    0.000000
   5.272356,    0.000000
   5.658541,    0.000000
   6.056934,    0.000000
   6.471883,    0.000000
   6.914256,    0.000000
   7.365086,    0.000000
   7.844327,    0.000000
   8.339092,    0.000000
   8.847488,    0.000000
   9.384387,    0.000000
   9.940316,    0.000000
  10.520586,    0.000000
  11.118386,    0.000000
  11.730878,    0.000000
  12.372581,    0.000000
  13.033546,    0.000000
  13.713755,    0.000000
  14.415991,    0.000000
  15.134796,    0.000000
  15.881504,    0.000000
  16.651854,    0.000000
  17.454734,    0.000000
  18.270663,    0.000000
  19.120896,    0.000000
  20.005401,    0.000000
  20.896828,    0.000000
  21.831988,    0.000000
  22.782725,    0.000000
  23.761666,    0.000000
  24.782155,    0.000000
  25.821214,    0.000000
  26.888161,    0.000000
  27.977529,    0.000000
  29.101494,    0.000000
  30.257344,    0.000000
  31.455474,    0.000000
  32.675265,    0.000000
  33.922279,    0.000000
  35.206782,    0.000000
  36.525429,    0.000000
  37.871281,    0.000000
  39.245326,    0.000000
  40.668389,    0.000000
  42.108591,    0.000000
  43.587833,    0.000000
  45.102566,    0.000000
  46.646903,    0.000000
  48.222500,    0.000000
  49.859166,    0.000000
  51.506035,    0.000000
  53.200157,    0.000000
  54.948154,    0.000000
  56.724014,    0.000000
  58.542927,    0.000000
  60.382809,    0.000000
  62.296748,    0.000000
  64.221366,    0.000000
  66.185778,    0.000000
  68.186983,    0.000000
  70.214108,    0.000000
  72.307794,    0.000000
  74.437013,    0.000000
  76.609570,    0.000000
  78.816847,    0.000000
  81.065995,    0.000000
  81.523823,    0.000000
  81.752331,    0.000000
  81.890141,    0.000000
  81.979757,    0.000000
  82.288379,    0.000000
  82.290218,    0.000000
  82.293266,    0.000000
  82.294563,    0.000000
  82.294931,    0.000000
  82.295104,    0.000000
  82.295280,    0.000000
  82.297037,    0.000000
  82.311917,    0.000000
  82.403383,    0.000000
  82.742660,    0.000000
  83.750408,    0.000000
  85.765766,    0.000000
  87.880349,    0.000000
  90.049472,    0.000000
  92.241110,    0.000000
  94.472934,    0.000000
  96.738497,    0.000000
  99.038907,    0.000000
 101.372310,    0.000000
 103.759468,    0.000000
 106.184136,    0.000000
 108.669010,    0.000000
 111.180834,    0.000000
 113.727822,    0.000000
 116.315732,    0.000000
 118.941353,    0.000000
 121.594479,    0.000000
 124.303954,    0.000000
 127.055404,    0.000000
 129.818370,    0.000000
 132.652319,    0.000000
 135.502317,    0.000000
 138.399958,    0.000000
 141.328085,    0.000000
 144.323802,    0.000000
 147.354415,    0.000000
 150.420513,    0.000000
 153.533701,    0.000000
 156.688149,    0.000000
 159.869704,    0.000000
 163.108979,    0.000000
 166.387815,    0.000000
 169.716474,    0.000000
 173.096650,    0.000000
 176.510832,    0.000000
 179.991805,    0.000000
 183.532600,    0.000000
 187.090616,    0.000000
 190.684141,    0.000000
 194.356124,    0.000000
 198.062317,    0.000000
 201.829259,    0.000000
 205.639115,    0.000000
 209.462352,    0.000000
 213.366553,    0.000000
 217.297304,    0.000000
 221.309155,    0.000000
 225.342035,    0.000000
 229.449810,    0.000000
 233.586588,    0.000000
 237.773418,    0.000000
 242.015797,    0.000000
 246.313696,    0.000000
 250.667623,    0.000000
 255.034014,    0.000000
 259.483373,    0.000000
 263.953234,    0.000000
 268.483789,    0.000000
 273.079864,    0.000000
 277.722250,    0.000000
 282.401820,    0.000000
 287.170539,    0.000000
 292.003009,    0.000000
 296.873854,    0.000000
 301.781817,    0.000000
 306.728806,    0.000000
 311.775603,    0.000000
 316.881327,    0.000000
 322.010292,    0.000000
 327.195141,    0.000000
 332.428907,    0.000000
 337.733883,    0.000000
 338.798812,    0.000000
 339.429380,    0.000000
 339.793002,    0.000000
 340.127613,    0.000000
 340.389217,    0.000000
 340.602746,    0.000000
 340.757250,    0.000000
 340.907402,    0.000000
 341.078768,    0.000000
 341.109825,    0.000000
 341.117717,    0.000000
 341.119563,    0.000000
 341.120548,    0.000000
 341.120982,    0.000000
 341.121506,    0.000000
 341.126748,    0.000000
 341.179168,    0.000000
 341.551583,    0.000000
 342.888562,    0.000000
 347.509362,    0.000000
 352.360722,    0.000000
 357.245043,    0.000000
 362.195167,    0.000000
 367.169723,    0.000000
 372.191739,    0.000000
 377.233110,    0.000000
 382.370418,    0.000000
 387.540271,    0.000000
 392.746985,    0.000000
 397.983687,    0.000000
 403.294958,    0.000000
 408.632681,    0.000000
 414.019632,    0.000000
 419.476226,    0.000000
 424.964014,    0.000000
 430.501911,    0.000000
 436.084350,    0.000000
 441.700069,    0.000000
 447.374846,    0.000000
 453.121995,    0.000000
 458.929855,    0.000000
 464.751711,    0.000000
 470.640873,    0.000000
 476.577751,    0.000000
 482.560927,    0.000000
 488.584817,    0.000000
 494.658612,    0.000000
 500.801416,    0.000000
 506.989869,    0.000000
 513.245823,    0.000000
 519.532068,    0.000000
 525.854295,    0.000000
 532.247322,    0.000000
 538.711834,    0.000000
 545.202425,    0.000000
 551.769230,    0.000000
 558.361466,    0.000000
 565.019589,    0.000000
 571.736462,    0.000000
 578.489367,    0.000000
 585.288218,    0.000000
 592.121504,    0.000000
 599.048383,    0.000000
 606.001993,    0.000000
 613.016788,    0.000000
 620.075486,    0.000000
 627.200938,    0.000000
 634.366026,    0.000000
 641.594396,    0.000000
 648.902659,    0.000000
 656.261662,    0.000000
 663.678577,    0.000000
 671.134632,    0.000000
 678.667845,    0.000000
 686.221305,    0.000000
 693.850830,    0.000000
 701.525176,    0.000000
 709.266697,    0.000000
 717.076192,    0.000000
 724.915951,    0.000000
 732.855346,    0.000000
 740.822625,    0.000000
 748.841274,    0.000000
 756.937612,    0.000000
 765.081381,    0.000000
 773.288737,    0.000000
 781.572988,    0.000000
 789.887260,    0.000000
 798.252951,    0.000000
 799.931507,    0.000000
 801.052919,    0.000000
 804.574996,    0.000000
 804.644271,    0.000000
 804.661729,    0.000000
 804.689703,    0.000000
 804.693503,    0.000000
 804.695667,    0.000000
 804.697021,    0.000000
 804.698265,    0.000000
 804.710704,    0.000000
 804.819537,    0.000000
 805.412610,    0.000000
 808.390296,    0.000000
 815.755773,    0.000000
 823.198659,    0.000000
 830.690559,    0.000000
 838.221195,    0.000000
 845.788810,    0.000000
 853.386272,    0.000000
 861.039621,    0.000000
 868.741994,    0.000000
 876.485137,    0.000000
 884.276542,    0.000000
 892.126942,    0.000000
 900.025367,    0.000000
 907.986891,    0.000000
 915.999041,    0.000000
 924.015597,    0.000000
 932.116424,    0.000000
 940.248941,    0.000000
 948.422568,    0.000000
 956.669505,    0.000000
 964.956937,    0.000000
 973.252676,    0.000000
 981.602575,    0.000000
 990.018928,    0.000000
 998.500415,    0.000000
1007.030168,    0.000000
1015.607553,    0.000000
1024.200615,    0.000000
1032.859135,    0.000000
1041.555800,    0.000000
1050.303704,    0.000000
1059.113780,    0.000000
1067.979729,    0.000000
1076.872243,    0.000000
1085.837976,    0.000000
1094.830943,    0.000000
1103.900330,    0.000000
1113.019149,    0.000000
1122.156321,    0.000000
1131.379614,    0.000000
1140.629076,    0.000000
1149.909471,    0.000000
1159.235442,    0.000000
1168.622571,    0.000000
1178.062574,    0.000000
1187.549256,    0.000000
1197.101518,    0.000000
1206.689224,    0.000000
1216.342495,    0.000000
1226.034989,    0.000000
1235.800986,    0.000000
1245.563482,    0.000000
1255.398759,    0.000000
1265.302418,    0.000000
1275.247001,    0.000000
1285.250477,    0.000000
1295.298804,    0.000000
1305.429965,    0.000000
1315.565197,    0.000000
1325.745889,    0.000000
1336.010797,    0.000000
1346.319357,    0.000000
1356.680569,    0.000000
1367.100663,    0.000000
1377.565770,    0.000000
1388.081973,    0.000000
1398.661123,    0.000000
1409.268380,    0.000000
1419.956398,    0.000000
1430.677998,    0.000000
1441.465645,    0.000000
1452.319402,    0.000000
1463.210653,    0.000000
1474.135114,    0.000000
1485.133499,    0.000000
1496.167017,    0.000000
1507.281527,    0.000000
1518.428108,    0.000000
1520.670171,    0.000000
1522.282798,    0.000000
1523.391538,    0.000000
1524.418028,    0.000000
1525.276645,    0.000000
1525.435737,    0.000000
1525.617616,    0.000000
1525.656517,    0.000000
1525.695023,    0.000000
1525.708337,    0.000000
1525.713428,    0.000000
1525.719070,    0.000000
1525.775488,    0.000000
1526.239614,    0.000000
1528.752816,    0.000000
1538.092773,    0.000000
1549.302998,    0.000000
1560.609325,    0.000000
1571.977531,    0.000000
1583.346792,    0.000000
1594.792449,    0.000000
1606.298556,    0.000000
1617.875562,    0.000000
1629.508299,    0.000000
1641.158126,    0.000000
1652.892457,    0.000000
1664.688258,    0.000000
1676.493441,    0.000000
1688.351807,    0.000000
1700.283377,    0.000000
1712.260987,    0.000000
1724.299242,    0.000000
1736.396226,    0.000000
1748.551544,    0.000000
1760.739235,    0.000000
1773.005785,    0.000000
1785.326812,    0.000000
1797.677590,    0.000000
1810.099839,    0.000000
1822.578976,    0.000000
1835.106161,    0.000000
1847.698104,    0.000000
1860.357504,    0.000000
1873.056215,    0.000000
1885.823307,    0.000000
1898.648553,    0.000000
1911.507467,    0.000000
1924.433722,    0.000000
1937.443794,    0.000000
1950.485492,    0.000000
1963.583883,    0.000000
1976.724447,    0.000000
1989.945433,    0.000000
2003.200414,    0.000000
2016.507350,    0.000000
2029.878092,    0.000000
2043.299367,    0.000000
2056.767164,    0.000000
2070.299823,    0.000000
2083.936703,    0.000000
2097.592688,    0.000000
2111.289369,    0.000000
2125.048530,    0.000000
2138.859633,    0.000000
2152.775822,    0.000000
2166.696588,    0.000000
2180.704840,    0.000000
2181.652943,    0.000000
2194.761700,    0.000000
2208.865517,    0.218969
2223.040296,    0.451894
2237.262696,    0.683172
2251.604799,    0.912431
2265.994426,    1.140831
2280.425097,    1.367214
2294.937791,    1.591495
2309.518545,    1.814321
2324.130937,    2.035479
2338.840799,    2.254429
2353.592632,    2.472167
2368.384404,    2.687873
2383.265842,    2.901537
2398.145886,    3.113887
2413.085865,    3.323637
2428.076690,    3.531679
2443.169160,    3.737899
2458.275233,    3.943000
2473.412573,    4.145791
2488.603231,    4.346538
2503.828277,    4.545553
2519.088245,    4.742604
2534.397591,    4.937720
2549.724255,    5.131103
2565.115232,    5.322369
2580.521564,    5.512124
2583.613685,    5.699780
2586.478870,    5.737027
2587.542756,    5.771457
2588.607182,    5.784215
2588.820167,    5.796969
2589.433236,    5.799519
2589.442911,    5.806857
2589.456728,    5.806973
2589.459692,    5.807139
2589.460758,    5.807174
2589.461977,    5.807187
2589.470087,    5.807201
2589.512005,    5.807298
2589.677446,    5.807800
2590.122070,    5.809779
2590.847414,    5.815098
2591.910109,    5.823772
2592.974237,    5.836472
2594.039253,    5.849179
2595.106842,    5.861886
2596.175187,    5.874613
2597.244065,    5.887339
2598.313370,    5.900060
2599.383945,    5.912776
2600.450152,    5.925497
2601.516786,    5.938155
2602.587634,    5.950807
2603.660124,    5.963499
2604.734454,    5.976200
2605.809519,    5.988913
2606.884317,    6.001623
2607.961310,    6.014320
2609.038710,    6.027032
2610.114954,    6.039738
2611.194181,    6.052420
2612.274423,    6.065127
2613.355698,    6.077835
2614.438000,    6.090544
2615.517900,    6.103255
2616.600904,    6.115927
2617.680917,    6.128625
2618.766463,    6.141278
2619.853706,    6.153984
2620.941833,    6.166700
2622.024215,    6.179415
2623.114186,    6.192053
2624.203856,    6.204769
2625.291412,    6.217471
2626.384041,    6.230137
2627.477033,    6.242852
2628.570084,    6.255560
2629.664992,    6.268258
2630.761945,    6.280967
2631.859679,    6.293689
2632.955820,    6.306410
2634.053842,    6.319101
2635.151939,    6.331804
2636.248656,    6.344496
2637.345006,    6.357162
2638.449512,    6.369814
2639.553199,    6.382548
2640.659571,    6.395262
2641.767258,    6.407997
2642.871290,    6.420736
2643.981534,    6.433422
2645.091495,    6.446169
2646.200989,    6.458901
2647.314373,    6.471618
2648.422246,    6.484368
2649.533292,    6.497044
2650.649617,    6.509746
2651.767072,    6.522497
2652.885922,    6.535251
2653.999400,    6.548009
2655.119898,    6.560696
2656.243093,    6.573451
2657.368085,    6.586227
2658.495206,    6.599012
2659.612706,    6.611810
2660.740709,    6.624488
2661.864577,    6.637274
2662.994159,    6.650003
2664.119904,    6.662785
2665.253433,    6.675513
2666.380316,    6.688318
2667.513151,    6.701037
2668.648842,    6.713812
2669.785771,    6.726608
2670.924692,    6.739408
2672.066780,    6.752219
2673.208991,    6.765054
2674.348750,    6.777879
2675.488910,    6.790666
2676.637451,    6.803447
2677.779239,    6.816310
2678.928200,    6.829087
2680.081511,    6.841932
2681.234555,    6.854816
2682.384002,    6.867685
2683.536843,    6.880502
2684.687016,    6.893347
2685.844104,    6.906150
2687.006218,    6.919020
2688.162450,    6.931934
2689.322401,    6.944771
2690.471231,    6.957639
2691.639227,    6.970372
2692.798909,    6.983306
2693.969532,    6.983306
2695.139155,    6.983306
2696.307599,    6.983306
2697.479913,    6.983306
2698.653108,    6.983306
2699.827129,    6.983306
2701.006249,    6.983306
2702.189669,    6.983306
2703.370685,    6.983306
2704.551306,    6.983306
2705.730915,    6.983306
2706.913598,    6.983306
2708.097652,    6.983306
2709.288848,    6.983306
2710.475426,    6.983306
2711.670766,    6.983306
2712.867044,    6.983306
2714.061737,    6.983306
2715.257172,    6.983306
2716.451233,    6.983306
2717.650720,    6.983306
2718.851873,    6.983306
2720.048302,    6.983306
2721.251453,    6.983306
2722.456478,    6.983306
2723.658920,    6.983306
2724.865112,    6.983306
2726.071634,    6.983306
2727.282434,    6.983306
2728.494954,    6.983306
2729.711175,    6.983306
2730.925004,    6.983306
2732.143378,    6.983306
2733.360951,    6.983306
2734.579475,    6.983306
2735.805297,    6.983306
2737.031301,    6.983306
2738.256284,    6.983306
2739.481992,    6.983306
2740.706340,    6.983306
2741.936910,    6.983306
2743.161281,    6.983306
2744.392181,    6.983306
2745.627118,    6.983306
2746.862925,    6.983306
2748.109376,    6.983306
2749.354077,    6.983306
2750.596973,    6.983306
2751.840957,    6.983306
2753.086744,    6.983306
2754.334182,    6.983306
2755.590859,    6.983306
2756.847463,    6.983306
2758.101029,    6.983306
2759.357313,    6.983306
2760.612030,    6.983306
2761.872848,    6.983306
2763.133600,    6.983306
2764.404849,    6.983306
2765.676639,    6.983306
2766.948180,    6.983306
2768.216423,    6.983306
2769.493283,    6.983306
2770.772485,    6.983306
2772.047382,    6.983306
2773.321949,    6.983306
2774.603829,    6.983306
2775.895984,    6.983306
2777.185172,    6.983306
2778.473613,    6.983306
2779.764449,    6.983306
2781.061890,    6.983306
2782.359748,    6.983306
2783.658583,    6.983306
2784.957500,    6.983306
2786.252323,    6.983306
2787.559237,    6.983306
2788.870258,    6.983306
2790.186092,    6.983306
2791.143519,    6.983306
2791.494592,    6.983306
2792.810204,    6.983306
2794.130426,    6.983306
2795.449490,    6.983306
2796.772223,    6.983306
2798.095569,    6.983306
2799.419086,    6.983306
2800.737067,    6.983306
2802.068260,    6.983306
2803.392321,    6.983306
2804.727567,    6.983306
2806.065548,    6.983306
2807.405699,    6.983306
2808.743394,    6.983306
2810.079748,    6.983306
2811.414392,    6.983306
2812.762850,    6.983306
2814.111401,    6.983306
2815.463332,    6.983306
2816.818093,    6.983306
2818.178646,    6.983306
2819.536894,    6.983306
2820.896876,    6.983306
2822.257389,    6.983306
2823.618998,    6.983306
2824.983303,    6.983306
2826.351809,    6.983306
2827.725050,    6.983306
2829.102759,    6.983306
2830.485108,    6.983306
2831.871528,    6.983306
2833.255418,    6.983306
2834.639984,    6.983306
2836.035624,    6.983306
2837.426560,    6.983306
2838.826488,    6.983306
2840.224911,    6.983306
2841.621685,    6.983306
2843.032407,    6.983306
2844.441820,    6.983306
2845.850995,    6.983306
2847.263469,    6.983306
2848.674883,    6.983306
2850.094243,    6.983306
2851.510666,    6.983306
2852.941394,    6.983306
2854.372855,    6.983306
2855.796694,    6.983306
2857.232431,    6.983306
2858.658336,    6.983306
2860.094813,    6.983306
2861.528821,    6.983306
2862.966558,    6.983306
2864.405216,    6.983306
2865.857392,    6.983306
2867.312447,    6.983306
2868.768018,    6.983306
2870.225920,    6.983306
2871.685103,    6.983306
2873.145828,    6.983306
2874.621673,    6.983306
2876.095150,    6.983306
2877.566735,    6.983306
2879.042280,    6.983306
2880.520228,    6.983306
2881.998751,    6.983306
2883.490673,    6.983306
2884.973431,    6.983306
2886.463783,    6.983306
2887.943635,    6.983306
2889.440312,    6.983306
2890.942123,    6.983306
2892.435548,    6.983306
2893.940132,    6.983306
2895.454220,    6.983306
2896.963377,    6.983306
2898.481809,    6.983306
2899.996883,    6.983306
2901.507585,    6.983306
2903.032670,    6.983306
2904.562189,    6.983306
2906.094992,    6.983306
2907.629513,    6.983306
2909.168656,    6.983306
2910.709328,    6.983306
2912.246957,    6.983306
2913.792231,    6.983306
2915.342168,    6.983306
2916.893362,    6.983306
2918.448972,    6.983306
2920.004993,    6.983306
2921.567838,    6.983306
2923.137692,    6.983306
2924.712722,    6.983306
2926.284838,    6.983306
2927.853044,    6.983306
2929.436779,    6.983306
2931.019184,    6.983306
2932.611837,    6.983306
2934.198097,    6.983306
2935.797892,    6.983306
2937.391567,    6.983306
2938.988911,    6.983306
2940.596970,    6.983306
2942.200449,    6.983306
2943.809290,    6.983306
2945.421994,    6.983306
2947.030175,    6.983306
2948.652147,    6.983306
2950.274256,    6.983306
2951.905092,    6.983306
2953.527873,    6.983306
2955.153837,    6.983306
2956.788712,    6.983306
2958.429637,    6.983306
2960.066242,    6.983306
2961.706581,    6.983306
2963.358207,    6.983306
2965.005636,    6.983306
2966.659930,    6.983306
2968.323228,    6.983306
2969.978922,    6.983306
2971.652559,    6.983306
2973.312738,    6.983306
2974.987135,    6.983306
2976.669300,    6.983306
2978.347555,    6.983306
2980.031994,    6.983306
2981.704931,    6.983306
2983.395417,    6.983306
2985.080067,    6.983306
2986.782734,    6.983306
2988.485065,    6.983306
2990.193999,    6.983306
2991.895081,    6.983306
2993.599851,    6.983306
2995.306158,    6.983306
2997.021561,    6.983306
2998.735351,    6.983306
3000.457889,    6.983306
3002.177261,    6.983306
3003.896279,    6.983306
3005.620423,    6.983306
3007.358866,    6.983306
3009.089486,    6.983306
3010.835324,    6.983306
3012.568932,    6.983306
3014.306933,    6.983306
3016.073101,    6.983306
3017.817554,    6.983306
3019.579994,    6.983306
3021.327968,    6.983306
3023.095916,    6.983306
3024.866110,    6.983306
3026.640251,    6.983306
3028.416958,    6.983306
3030.190127,    6.983306
3031.980688,    6.983306
3033.773339,    6.983306
3035.555597,    6.983306
3037.351414,    6.983306
3039.154630,    6.983306
3040.942893,    6.983306
3042.750896,    6.983306
3044.564845,    6.983306
3046.370037,    6.983306
3048.180139,    6.983306
3049.993491,    6.983306
3051.818776,    6.983306
3053.636494,    6.983306
3055.462948,    6.983306
3057.304653,    6.983306
3059.146818,    6.983306
3060.978678,    6.983306
3062.809854,    6.983306
3064.664235,    6.983306
3066.508166,    6.983306
3068.350206,    6.983306
3070.204900,    6.983306
3072.079462,    6.983306
3073.924538,    6.983306
3075.793240,    6.983306
3077.657876,    6.983306
3079.527387,    6.983306
3081.402972,    6.983306
3083.279518,    6.983306
3085.171008,    6.983306
3087.053299,    6.983306
3088.942166,    6.983306
3090.841384,    6.983306
3092.749463,    6.983306
3094.643842,    6.983306
3096.540923,    6.983306
3098.436741,    6.983306
3100.350570,    6.983306
3102.242679,    6.983306
3104.174394,    6.983306
3106.097723,    6.983306
3108.003643,    6.983306
3109.927578,    6.983306
3111.859264,    6.983306
3113.784492,    6.983306
3115.718072,    6.983306
3117.624970,    6.983306
3119.545644,    6.983306
3121.476673,    6.983306
3123.424130,    6.983306
3125.369363,    6.983306
3127.325253,    6.983306
3129.289886,    6.983306
3131.243962,    6.983306
3133.188647,    6.983306
3135.135673,    6.983306
3137.093398,    6.983306
3139.052313,    6.983306
3141.035746,    6.983306
3143.007322,    6.983306
3144.978074,    6.983306
3146.956213,    6.983306
3148.944047,    6.983306
3150.937835,    6.983306
3152.919678,    6.983306
3154.909000,    6.983306
3156.899890,    6.983306
3158.884191,    6.983306
3160.854001,    6.983306
3162.848868,    6.983306
3164.861571,    6.983306
3166.847377,    6.983306
3168.857455,    6.983306
3170.873353,    6.983306
3172.889773,    6.983306
3174.907344,    6.983306
3176.922742,    6.983306
3178.928468,    6.983306
3180.958708,    6.983306
3182.957914,    6.983306
3185.000805,    6.983306
3187.010514,    6.983306
3189.046679,    6.983306
3191.068654,    6.983306
3193.095128,    6.983306
3195.122767,    6.983306
3197.158221,    6.983306
3199.203907,    6.983306
3201.249705,    6.983306
3203.276108,    6.983306
3205.331303,    6.983306
3207.397563,    6.983306
3209.451028,    6.983306
3211.521286,    6.983306
3213.581361,    6.983306
3215.652868,    6.983306
3217.724891,    6.983306
3219.779139,    6.983306
3221.840530,    6.983306
3223.906086,    6.983306
3225.948383,    6.983306
3228.037941,    6.983306
3230.120264,    6.983306
3232.185664,    6.983306
3234.255008,    6.983306
3236.352222,    6.983306
3238.446061,    6.983306
3240.547311,    6.983306
3242.629359,    6.983306
3244.710865,    6.983306
3246.805954,    6.983306
3248.911609,    6.983306
3251.007498,    6.983306
3253.126930,    6.983306
3255.249589,    6.983306
3257.360061,    6.983306
3259.488280,    6.983306
3261.610961,    6.983306
3263.699501,    6.983306
3265.807205,    6.983306
3267.923065,    6.983306
3270.051381,    6.983306
3272.166240,    6.983306
3274.291456,    6.983306
3276.403218,    6.983306
3278.533670,    6.983306
3280.655466,    6.983306
3282.817733,    6.983306
3284.946099,    6.983306
3287.077689,    6.983306
3289.234850,    6.983306
3291.384276,    6.983306
3293.516310,    6.983306
3295.662601,    6.983306
3297.798672,    6.983306
3299.934847,    6.983306
3302.088706,    6.983306
3304.213334,    6.983306
3306.381087,    6.983306
3308.524558,    6.983306
3310.696084,    6.983306
3312.710029,    6.983306
