Ground Distance, Angles
   0.000000,    0.000000
   0.000002,    0.000000
   0.000033,    0.000000
   0.000541,    0.000000
   0.002971,    0.000000
   0.012724,    0.000000
   0.030175,    0.000000
   0.055121,    0.000000
   0.087431,    0.000000
   0.127351,    0.000000
   0.175087,    0.000000
   0.230545,    0.000000
   0.293397,    0.000000
   0.364623,    0.000000
   0.443513,    0.000000
   0.530359,    0.000000
   0.626309,    0.000000
   0.729777,    0.000000
   0.842292,    0.000000
   0.963616,    0.000000
   1.092107,    0.000000
   1.229745,    0.000000
   1.378547,    0.000000
   1.536402,    0.000000
   1.702785,    0.000000
   1.880020,    0.000000
   2.066176,    0.000000
   2.263475,    0.000000
   2.469520,    0.000000
   2.687974,    0.000000
   2.915646,    0.000000
   3.153525,    0.000000
   3.404560,    0.000000
   3.665621,    0.000000
   3.939644,    0.000000
   4.226323,    0.000000
   4.526462,    0.000000
   4.834008,    0.000000
   5.151473,    0.000000
   5.483183,    0.000000
   5.829160,    0.000000
   6.193214,    0.000000
   6.569655,    0.000000
   6.958681,    0.000000
   7.362451,    0.000000
   7.781528,    0.000000
   8.217215,    0.000000
   8.664408,    0.000000
   9.129936,    0.000000
   9.607516,    0.000000
  10.098993,    0.000000
  10.614274,    0.000000
  11.146344,    0.000000
  11.686715,    0.000000
  12.245868,    0.000000
  12.820009,    0.000000
  13.423800,    0.000000
  14.037027,    0.000000
  14.668337,    0.000000
  15.312479,    0.000000
  15.979087,    0.000000
  16.665407,    0.000000
  17.369399,    0.000000
  18.093800,    0.000000
  18.833876,    0.000000
  19.591959,    0.000000
  20.369445,    0.000000
  21.183145,    0.000000
  22.002937,    0.000000
  22.847356,    0.000000
  23.710068,    0.000000
  24.594700,    0.000000
  25.508131,    0.000000
  26.440806,    0.000000
  27.392696,    0.000000
  28.376439,    0.000000
  29.370720,    0.000000
  30.386306,    0.000000
  31.437731,    0.000000
  32.505956,    0.000000
  33.595058,    0.000000
  34.722148,    0.000000
  35.854885,    0.000000
  37.013675,    0.000000
  38.196420,    0.000000
  39.405089,    0.000000
  40.647508,    0.000000
  41.900882,    0.000000
  43.179474,    0.000000
  44.514203,    0.000000
  45.859442,    0.000000
  47.224391,    0.000000
  48.628488,    0.000000
  50.052956,    0.000000
  51.505792,    0.000000
  52.986236,    0.000000
  54.503722,    0.000000
  56.045472,    0.000000
  57.603177,    0.000000
  59.199081,    0.000000
  60.807362,    0.000000
  62.453934,    0.000000
  64.126404,    0.000000
  65.835876,    0.000000
  67.565067,    0.000000
  69.327693,    0.000000
  71.134304,    0.000000
  72.979054,    0.000000
  74.841589,    0.000000
  76.727429,    0.000000
  78.653341,    0.000000
  80.636011,    0.000000
  81.033263,    0.000000
  81.360354,    0.000000
  82.361676,    0.000000
  82.376999,    0.000000
  82.390335,    0.000000
  82.393274,    0.000000
  82.394717,    0.000000
  82.397331,    0.000000
  82.397670,    0.000000
  82.397868,    0.000000
  82.398050,    0.000000
  82.399865,    0.000000
  82.416165,    0.000000
  82.520608,    0.000000
  82.937459,    0.000000
  84.229911,    0.000000
  86.170510,    0.000000
  88.073124,    0.000000
  89.990574,    0.000000
  91.955791,    0.000000
  93.930154,    0.000000
  95.949316,    0.000000
  98.000751,    0.000000
 100.078216,    0.000000
 102.188103,    0.000000
 104.330924,    0.000000
 106.490812,    0.000000
 108.673515,    0.000000
 110.897496,    0.000000
 113.151885,    0.000000
 115.441649,    0.000000
 117.761229,    0.000000
 120.124748,    0.000000
 122.493405,    0.000000
 124.904985,    0.000000
 127.345454,    0.000000
 129.808483,    0.000000
 132.308287,    0.000000
 134.852048,    0.000000
 137.425981,    0.000000
 140.011838,    0.000000
 142.645210,    0.000000
 145.317166,    0.000000
 148.010533,    0.000000
 150.726563,    0.000000
 153.495654,    0.000000
 156.293415,    0.000000
 159.125946,    0.000000
 161.982567,    0.000000
 164.876803,    0.000000
 167.790890,    0.000000
 170.756876,    0.000000
 173.759997,    0.000000
 176.773001,    0.000000
 179.820526,    0.000000
 182.913100,    0.000000
 186.042785,    0.000000
 189.210084,    0.000000
 192.421816,    0.000000
 195.648537,    0.000000
 198.925358,    0.000000
 202.244762,    0.000000
 205.607610,    0.000000
 208.999113,    0.000000
 212.433012,    0.000000
 215.894672,    0.000000
 219.378388,    0.000000
 222.916665,    0.000000
 226.462884,    0.000000
 230.066454,    0.000000
 233.703388,    0.000000
 237.375397,    0.000000
 241.101449,    0.000000
 244.865177,    0.000000
 248.657396,    0.000000
 252.491743,    0.000000
 256.379315,    0.000000
 260.305283,    0.000000
 264.249513,    0.000000
 268.230578,    0.000000
 272.255463,    0.000000
 276.311583,    0.000000
 280.408372,    0.000000
 284.551412,    0.000000
 288.751049,    0.000000
 292.996648,    0.000000
 297.265420,    0.000000
 301.555738,    0.000000
 305.882377,    0.000000
 310.280125,    0.000000
 314.691178,    0.000000
 319.154941,    0.000000
 323.664212,    0.000000
 328.194408,    0.000000
 332.785079,    0.000000
 337.425734,    0.000000
 342.107596,    0.000000
 342.295944,    0.000000
 342.456995,    0.000000
 342.613492,    0.000000
 342.804838,    0.000000
 342.847613,    0.000000
 342.899136,    0.000000
 342.910053,    0.000000
 342.915375,    0.000000
 342.926020,    0.000000
 342.927221,    0.000000
 342.927916,    0.000000
 342.934873,    0.000000
 342.943567,    0.000000
 343.030507,    0.000000
 343.519807,    0.000000
 345.252905,    0.000000
 349.286153,    0.000000
 353.638804,    0.000000
 358.031236,    0.000000
 362.451031,    0.000000
 366.909391,    0.000000
 371.380845,    0.000000
 375.913739,    0.000000
 380.479314,    0.000000
 385.083162,    0.000000
 389.713857,    0.000000
 394.386580,    0.000000
 399.078557,    0.000000
 403.820161,    0.000000
 408.590329,    0.000000
 413.414164,    0.000000
 418.262768,    0.000000
 423.136142,    0.000000
 428.061165,    0.000000
 433.013843,    0.000000
 437.995621,    0.000000
 443.029943,    0.000000
 448.087900,    0.000000
 453.184382,    0.000000
 458.340719,    0.000000
 463.523880,    0.000000
 468.759042,    0.000000
 474.006508,    0.000000
 479.285980,    0.000000
 484.631216,    0.000000
 490.019159,    0.000000
 495.421630,    0.000000
 500.896666,    0.000000
 506.388847,    0.000000
 511.928703,    0.000000
 517.499252,    0.000000
 523.093641,    0.000000
 528.715542,    0.000000
 534.408289,    0.000000
 540.130011,    0.000000
 545.897727,    0.000000
 551.699894,    0.000000
 557.535523,    0.000000
 563.438774,    0.000000
 569.369611,    0.000000
 575.341771,    0.000000
 581.326946,    0.000000
 587.356886,    0.000000
 593.450651,    0.000000
 599.580624,    0.000000
 605.745117,    0.000000
 611.953454,    0.000000
 618.188182,    0.000000
 624.479956,    0.000000
 630.801805,    0.000000
 637.171694,    0.000000
 643.568650,    0.000000
 649.998833,    0.000000
 656.482579,    0.000000
 663.011445,    0.000000
 669.584811,    0.000000
 676.203186,    0.000000
 682.841179,    0.000000
 689.507878,    0.000000
 696.259094,    0.000000
 703.027434,    0.000000
 709.843413,    0.000000
 716.701039,    0.000000
 723.612703,    0.000000
 730.571550,    0.000000
 737.550386,    0.000000
 744.557066,    0.000000
 751.633198,    0.000000
 758.743051,    0.000000
 765.909084,    0.000000
 773.105396,    0.000000
 780.331632,    0.000000
 787.613103,    0.000000
 794.927071,    0.000000
 802.302978,    0.000000
 809.702380,    0.000000
 811.195227,    0.000000
 812.212508,    0.000000
 813.021068,    0.000000
 813.586284,    0.000000
 814.010511,    0.000000
 814.439771,    0.000000
 814.801066,    0.000000
 814.905256,    0.000000
 815.060774,    0.000000
 815.093695,    0.000000
 815.106590,    0.000000
 815.132382,    0.000000
 815.134182,    0.000000
 815.135835,    0.000000
 815.152364,    0.000000
 815.289804,    0.000000
 816.137865,    0.000000
 820.714060,    0.000000
 827.442902,    0.000000
 834.219769,    0.000000
 841.014425,    0.000000
 847.832678,    0.000000
 854.691049,    0.000000
 861.592676,    0.000000
 868.516311,    0.000000
 875.496579,    0.000000
 882.503664,    0.000000
 889.523813,    0.000000
 896.584121,    0.000000
 903.687531,    0.000000
 910.842193,    0.000000
 918.009308,    0.000000
 925.231963,    0.000000
 932.495561,    0.000000
 939.791140,    0.000000
 947.102270,    0.000000
 954.472673,    0.000000
 961.856390,    0.000000
 969.287009,    0.000000
 976.747667,    0.000000
 984.250283,    0.000000
 991.772304,    0.000000
 999.365987,    0.000000
1006.967399,    0.000000
1014.618518,    0.000000
1022.316280,    0.000000
1030.028218,    0.000000
1037.783868,    0.000000
1045.591107,    0.000000
1053.424549,    0.000000
1061.293812,    0.000000
1069.188759,    0.000000
1077.131625,    0.000000
1085.120361,    0.000000
1093.142777,    0.000000
1101.199347,    0.000000
1109.291289,    0.000000
1117.424555,    0.000000
1125.581215,    0.000000
1133.762223,    0.000000
1142.036306,    0.000000
1150.329974,    0.000000
1158.618848,    0.000000
1166.975708,    0.000000
1175.366360,    0.000000
1183.800292,    0.000000
1192.252629,    0.000000
1200.772019,    0.000000
1209.310189,    0.000000
1217.874947,    0.000000
1226.486966,    0.000000
1235.173510,    0.000000
1243.882567,    0.000000
1252.624459,    0.000000
1261.388500,    0.000000
1270.193329,    0.000000
1279.047869,    0.000000
1287.933862,    0.000000
1296.867623,    0.000000
1305.839347,    0.000000
1314.864823,    0.000000
1323.885292,    0.000000
1332.942299,    0.000000
1342.077471,    0.000000
1351.257473,    0.000000
1360.460868,    0.000000
1369.664848,    0.000000
1378.949558,    0.000000
1388.282895,    0.000000
1397.640617,    0.000000
1407.027159,    0.000000
1416.447142,    0.000000
1425.926777,    0.000000
1435.421877,    0.000000
1444.976498,    0.000000
1454.552941,    0.000000
1464.171465,    0.000000
1473.844020,    0.000000
1483.562570,    0.000000
1493.292099,    0.000000
1503.068605,    0.000000
1512.888040,    0.000000
1522.752542,    0.000000
1532.662149,    0.000000
1542.621556,    0.000000
1552.597602,    0.000000
1562.603654,    0.000000
1564.618172,    0.000000
1564.945221,    0.000000
1565.303961,    0.000000
1565.384549,    0.000000
1565.439584,    0.000000
1565.467122,    0.000000
1565.486782,    0.000000
1565.498378,    0.000000
1565.505571,    0.000000
1565.512170,    0.000000
1565.578160,    0.000000
1566.111782,    0.000000
1569.384434,    0.000000
1578.246930,    0.000000
1588.354980,    0.000000
1598.453427,    0.000000
1608.612393,    0.000000
1618.800859,    0.000000
1629.039420,    0.000000
1639.320516,    0.000000
1649.634078,    0.000000
1659.983444,    0.000000
1670.364787,    0.000000
1680.794562,    0.000000
1691.268614,    0.000000
1701.766539,    0.000000
1712.297011,    0.000000
1722.860961,    0.000000
1733.474520,    0.000000
1744.144144,    0.000000
1754.831961,    0.000000
1765.581514,    0.000000
1776.356349,    0.000000
1787.186241,    0.000000
1798.046252,    0.000000
1808.964794,    0.000000
1819.903022,    0.000000
1830.889952,    0.000000
1841.906137,    0.000000
1852.967362,    0.000000
1864.073746,    0.000000
1875.232590,    0.000000
1886.402627,    0.000000
1897.645968,    0.000000
1908.910532,    0.000000
1920.208509,    0.000000
1931.542650,    0.000000
1942.909477,    0.000000
1954.356129,    0.000000
1965.806655,    0.000000
1977.317481,    0.000000
1988.856478,    0.000000
2000.440831,    0.000000
2012.071970,    0.000000
2023.743570,    0.000000
2035.462546,    0.000000
2047.203289,    0.000000
2059.002469,    0.000000
2070.829172,    0.000000
2082.699463,    0.000000
2094.602004,    0.000000
2106.578692,    0.000000
2118.577714,    0.000000
2130.618936,    0.000000
2142.693726,    0.000000
2154.814748,    0.000000
2167.000338,    0.000000
2179.194598,    0.000000
2191.411742,    0.000000
2203.690323,    0.000000
2216.019982,    0.000000
2228.358940,    0.000000
2240.768575,    0.000000
2253.200649,    0.000000
2265.699866,    0.000000
2278.213463,    0.000000
2290.809217,    0.000000
2303.404994,    0.000000
2316.042044,    0.000000
2328.724345,    0.000000
2341.465740,    0.000000
2354.245922,    0.000000
2367.069967,    0.000000
2372.492426,    0.000000
2379.923498,    0.000000
2392.843407,    0.121985
2405.785180,    0.332680
2418.773343,    0.541497
2431.813246,    0.748847
2444.881203,    0.954819
2457.972605,    1.159049
2471.119483,    1.361480
2484.314733,    1.562619
2497.560462,    1.762362
2510.830238,    1.960744
2524.116064,    2.157381
2537.468300,    2.352170
2550.840693,    2.545864
2564.259797,    2.737795
2577.699343,    2.928359
2591.169219,    3.117194
2604.704848,    3.304455
2618.263303,    3.490642
2631.872560,    3.675170
2645.511616,    3.858431
2659.177631,    4.040150
2672.898627,    4.220304
2686.651355,    4.399272
2700.411829,    4.576757
2703.172549,    4.752465
2712.901845,    4.787373
2713.453808,    4.910072
2713.626186,    4.916986
2713.848511,    4.919144
2713.901305,    4.921928
2714.002273,    4.922589
2714.026210,    4.923852
2714.033393,    4.924152
2714.040924,    4.924242
2714.048142,    4.924336
2714.120319,    4.924426
2714.618896,    4.925330
2717.388675,    4.931569
2729.523761,    4.966211
2743.872548,    5.117567
2758.233892,    5.294852
2772.636870,    5.470359
2787.057544,    5.644460
2801.510969,    5.816879
2815.998244,    5.987814
2830.547433,    6.157290
2845.120729,    6.325643
2859.717751,    6.492444
2874.314583,    6.657704
2888.973936,    6.821171
2903.645704,    6.983565
2904.799787,    7.144337
2905.954488,    7.156858
2907.111274,    7.169375
2908.268407,    7.181903
2909.425802,    7.194425
2910.584049,    7.206939
2911.738835,    7.219452
2912.898419,    7.231917
2914.059975,    7.244423
2915.219228,    7.256939
2916.381252,    7.269420
2917.541542,    7.281920
2918.703437,    7.294391
2919.866672,    7.306869
2921.034130,    7.319351
2922.198962,    7.331867
2923.364982,    7.344344
2924.535058,    7.356823
2925.702534,    7.369335
2926.875026,    7.381809
2928.049386,    7.394325
2929.223172,    7.406851
2930.398027,    7.419360
2931.571747,    7.431870
2932.748896,    7.444356
2933.919596,    7.456869
2935.099266,    7.469302
2936.272396,    7.481820
2937.453024,    7.494258
2938.631889,    7.506765
2939.814198,    7.519242
2940.998855,    7.531745
2942.184894,    7.544262
2943.372744,    7.556783
2944.561633,    7.569312
2945.749083,    7.581841
2946.942087,    7.594344
2948.137479,    7.606895
2949.330903,    7.619460
2950.525270,    7.631994
2951.719866,    7.644527
2952.914411,    7.657051
2954.114081,    7.669564
2955.314112,    7.682119
2956.510281,    7.694668
2957.714624,    7.707165
2958.909617,    7.719737
2960.113640,    7.732200
2961.315613,    7.744747
2962.520777,    7.757261
2963.726672,    7.769798
2964.935209,    7.782331
2966.144792,    7.794881
2967.358969,    7.807431
2968.578336,    7.820017
2969.795577,    7.832646
2971.012674,    7.845242
2972.227890,    7.857826
2973.444019,    7.870379
2974.667238,    7.882931
2975.890535,    7.895544
2977.116349,    7.908148
2978.342223,    7.920766
2979.569657,    7.933373
2980.802599,    7.945986
2982.036842,    7.958644
2983.270674,    7.971304
2984.510197,    7.983949
2985.751304,    7.996641
2986.989811,    8.009337
2988.226169,    8.021996
2989.474160,    8.034622
2990.720502,    8.047355
2991.965168,    8.060060
2993.203422,    8.072736
2994.446425,    8.085336
2995.700461,    8.097974
2996.950975,    8.110712
2998.206848,    8.123402
2999.461309,    8.136136
3000.719597,    8.148844
3001.985282,    8.161580
3003.245619,    8.174379
3004.514759,    8.187112
3005.786255,    8.199922
3007.048708,    8.212745
3008.319441,    8.225465
3009.590846,    8.238257
3010.866683,    8.251044
3012.146471,    8.263865
3013.427508,    8.276713
3014.708961,    8.289562
3015.992698,    8.302403
3017.274046,    8.315256
3018.567136,    8.328073
3019.856483,    8.340996
3021.146736,    8.353869
3022.438833,    8.366740
3023.728038,    8.379617
3025.022928,    8.392454
3026.323974,    8.405336
3027.637425,    8.418267
3028.940123,    8.418267
3030.256558,    8.418267
3031.571704,    8.418267
3032.882531,    8.418267
3034.188556,    8.418267
3035.505677,    8.418267
3036.824995,    8.418267
3038.143636,    8.418267
3039.457266,    8.418267
3040.773847,    8.418267
3042.106501,    8.418267
3043.441491,    8.418267
3044.775351,    8.418267
3046.106406,    8.418267
3047.437932,    8.418267
3048.780410,    8.418267
3050.123401,    8.418267
3051.466367,    8.418267
3052.814317,    8.418267
3054.165818,    8.418267
3055.511313,    8.418267
3056.858784,    8.418267
3058.214830,    8.418267
3059.568162,    8.418267
3060.926469,    8.418267
3062.282469,    8.418267
3063.648926,    8.418267
3065.009411,    8.418267
3066.375909,    8.418267
3067.748408,    8.418267
3069.124603,    8.418267
3070.499620,    8.418267
3071.872585,    8.418267
3073.248527,    8.418267
3074.633115,    8.418267
3076.023260,    8.418267
3077.403241,    8.418267
3078.787201,    8.418267
3080.183473,    8.418267
3081.577657,    8.418267
3082.969906,    8.418267
3084.369728,    8.418267
3085.776421,    8.418267
3087.169606,    8.418267
3088.579342,    8.418267
3089.990477,    8.418267
3091.397251,    8.418267
3092.807630,    8.418267
3094.228306,    8.418267
3095.644300,    8.418267
3097.070247,    8.418267
3098.499167,    8.418267
3099.923126,    8.418267
3101.340220,    8.418267
3102.778769,    8.418267
3104.214354,    8.418267
3105.649985,    8.418267
3107.090706,    8.418267
3108.524242,    8.418267
3109.965099,    8.418267
3111.407182,    8.418267
3112.856765,    8.418267
3114.313000,    8.418267
3115.769846,    8.418267
3117.235670,    8.418267
3118.695848,    8.418267
3120.164011,    8.418267
3121.630678,    8.418267
3123.096353,    8.418267
3124.567963,    8.418267
3126.049675,    8.418267
3127.531844,    8.418267
3128.361018,    8.418267
3129.027277,    8.418267
3130.518850,    8.418267
3132.013063,    8.418267
3133.504276,    8.418267
3135.002093,    8.418267
3136.498429,    8.418267
3137.999796,    8.418267
3139.504488,    8.418267
3141.011275,    8.418267
3142.529699,    8.418267
3144.039567,    8.418267
3145.559693,    8.418267
3147.074264,    8.418267
3148.591937,    8.418267
3150.116066,    8.418267
3151.635892,    8.418267
3153.176261,    8.418267
3154.716460,    8.418267
3156.253594,    8.418267
3157.808544,    8.418267
3159.354347,    8.418267
3160.910114,    8.418267
3162.466604,    8.418267
3164.023341,    8.418267
3165.589924,    8.418267
3167.149864,    8.418267
3168.713249,    8.418267
3170.284278,    8.418267
3171.857758,    8.418267
3173.436109,    8.418267
3175.015103,    8.418267
3176.600182,    8.418267
3178.185449,    8.418267
3179.770731,    8.418267
3181.359222,    8.418267
3182.943728,    8.418267
3184.542560,    8.418267
3186.137513,    8.418267
3187.754723,    8.418267
3189.356988,    8.418267
3190.973415,    8.418267
3192.593554,    8.418267
3194.208809,    8.418267
3195.833172,    8.418267
3197.448467,    8.418267
3199.066283,    8.418267
3200.694306,    8.418267
3202.335753,    8.418267
3203.983064,    8.418267
3205.641674,    8.418267
3207.280989,    8.418267
3208.935643,    8.418267
3210.581419,    8.418267
3212.235919,    8.418267
3213.894933,    8.418267
3215.557438,    8.418267
3217.230472,    8.418267
3218.892935,    8.418267
3220.562790,    8.418267
3222.249932,    8.418267
3223.933857,    8.418267
3225.624941,    8.418267
3227.308030,    8.418267
3229.004340,    8.418267
3230.704535,    8.418267
3232.414320,    8.418267
3234.113373,    8.418267
3235.821159,    8.418267
3237.532997,    8.418267
3239.245409,    8.418267
3240.975826,    8.418267
3242.698938,    8.418267
3244.423983,    8.418267
3246.154190,    8.418267
3247.880095,    8.418267
3249.613659,    8.418267
3251.362330,    8.418267
3253.099862,    8.418267
3254.841425,    8.418267
3256.600014,    8.418267
3258.362478,    8.418267
3260.136084,    8.418267
3261.901322,    8.418267
3263.672672,    8.418267
3265.431316,    8.418267
3267.208604,    8.418267
3268.984295,    8.418267
3270.767219,    8.418267
3272.544773,    8.418267
3274.345841,    8.418267
3276.132361,    8.418267
3277.929463,    8.418267
3279.730499,    8.418267
3281.524651,    8.418267
3283.332549,    8.418267
3285.149411,    8.418267
3286.970691,    8.418267
3288.793420,    8.418267
3290.618291,    8.418267
3292.431301,    8.418267
3294.254611,    8.418267
3296.095281,    8.418267
3297.925454,    8.418267
3299.766295,    8.418267
3301.597446,    8.418267
3303.438861,    8.418267
3305.289616,    8.418267
3307.146645,    8.418267
3309.019026,    8.418267
3310.887434,    8.418267
3312.731949,    8.418267
3314.600649,    8.418267
3316.466430,    8.418267
3318.346211,    8.418267
3320.237034,    8.418267
3322.109861,    8.418267
3323.994295,    8.418267
3325.889043,    8.418267
3327.781595,    8.418267
3329.700331,    8.418267
3331.600635,    8.418267
3333.500876,    8.418267
3335.420113,    8.418267
3337.327173,    8.418267
3339.240048,    8.418267
3341.139730,    8.418267
3343.051078,    8.418267
3344.963995,    8.418267
3346.885643,    8.418267
3348.820767,    8.418267
3350.745775,    8.418267
3352.686959,    8.418267
3354.603012,    8.418267
3356.528096,    8.418267
3358.492832,    8.418267
3360.442831,    8.418267
3362.387970,    8.418267
3364.360263,    8.418267
3366.315655,    8.418267
3368.285608,    8.418267
3370.266521,    8.418267
3372.239699,    8.418267
3374.198643,    8.418267
3376.197916,    8.418267
3378.174825,    8.418267
3380.142206,    8.418267
3382.119297,    8.418267
3384.112691,    8.418267
3386.096415,    8.418267
3388.082682,    8.418267
3390.069027,    8.418267
3392.069418,    8.418267
3394.052031,    8.418267
3396.059065,    8.418267
3398.064824,    8.418267
3400.076317,    8.418267
3402.080159,    8.418267
3404.104856,    8.418267
3406.106249,    8.418267
3408.121300,    8.418267
3410.138968,    8.418267
3412.155264,    8.418267
3414.192841,    8.418267
3416.242318,    8.418267
3418.284041,    8.418267
3420.337146,    8.418267
3422.370310,    8.418267
3424.428263,    8.418267
3426.474693,    8.418267
3428.522177,    8.418267
3430.583555,    8.418267
3432.636737,    8.418267
3434.691409,    8.418267
3436.752335,    8.418267
3438.798176,    8.418267
3440.863595,    8.418267
3442.926301,    8.418267
3444.985002,    8.418267
3447.072013,    8.418267
3449.156307,    8.418267
3451.234774,    8.418267
3453.333852,    8.418267
3455.406112,    8.418267
3457.496279,    8.418267
3459.587240,    8.418267
3461.692500,    8.418267
3463.783547,    8.418267
3465.878107,    8.418267
3467.976884,    8.418267
3470.083798,    8.418267
3472.213426,    8.418267
3474.342112,    8.418267
3476.447421,    8.418267
3478.548375,    8.418267
3480.639137,    8.418267
3482.749495,    8.418267
3484.861714,    8.418267
3486.982420,    8.418267
3489.087778,    8.418267
3491.198645,    8.418267
3493.365272,    8.418267
3495.492002,    8.418267
3497.620671,    8.418267
3499.742684,    8.418267
3501.843323,    8.418267
3503.985048,    8.418267
3506.132395,    8.418267
3508.261823,    8.418267
3510.390436,    8.418267
3512.513455,    8.418267
3514.651458,    8.418267
3516.795001,    8.418267
3518.934556,    8.418267
3521.083114,    8.418267
3523.238875,    8.418267
3525.392920,    8.418267
3527.551713,    8.418267
3529.707244,    8.418267
3531.905682,    8.418267
3534.074983,    8.418267
3536.235993,    8.418267
3538.408309,    8.418267
3540.576812,    8.418267
3542.752240,    8.418267
3544.928152,    8.418267
3547.091890,    8.418267
3549.267380,    8.418267
3551.450147,    8.418267
3553.639640,    8.418267
3555.836959,    8.418267
3558.041858,    8.418267
3560.239168,    8.418267
3562.433565,    8.418267
3564.627198,    8.418267
3566.814273,    8.418267
3568.998617,    8.418267
3571.213178,    8.418267
3573.411288,    8.418267
3575.622068,    8.418267
3577.834719,    8.418267
3580.041345,    8.418267
3582.260869,    8.418267
3584.467607,    8.418267
3586.668004,    8.418267
3588.860160,    8.418267
3591.081375,    8.418267
3593.295965,    8.418267
3595.523121,    8.418267
3597.751594,    8.418267
3599.968563,    8.418267
3602.198440,    8.418267
3604.425159,    8.418267
3606.645292,    8.418267
3608.872265,    8.418267
3611.086817,    8.418267
3613.324075,    8.418267
3615.566272,    8.418267
3617.814691,    8.418267
3620.066078,    8.418267
3622.304082,    8.418267
3624.553286,    8.418267
3626.801628,    8.418267
3628.265805,    8.418267
