Ground Distance, Angles
   0.000000,    0.000000
   0.000002,    0.000000
   0.000026,    0.000000
   0.000279,    0.000000
   0.001780,    0.000000
   0.009956,    0.000000
   0.028232,    0.000000
   0.055863,    0.000000
   0.093070,    0.000000
   0.139583,    0.000000
   0.195946,    0.000000
   0.262367,    0.000000
   0.338265,    0.000000
   0.424840,    0.000000
   0.521081,    0.000000
   0.626951,    0.000000
   0.743696,    0.000000
   0.872046,    0.000000
   1.010273,    0.000000
   1.159360,    0.000000
   1.320352,    0.000000
   1.494548,    0.000000
   1.681278,    0.000000
   1.880630,    0.000000
   2.092759,    0.000000
   2.317004,    0.000000
   2.553808,    0.000000
   2.805410,    0.000000
   3.068534,    0.000000
   3.346559,    0.000000
   3.639749,    0.000000
   3.948656,    0.000000
   4.275586,    0.000000
   4.616759,    0.000000
   4.969417,    0.000000
   5.337942,    0.000000
   5.727362,    0.000000
   6.136880,    0.000000
   6.564417,    0.000000
   7.000551,    0.000000
   7.459632,    0.000000
   7.941305,    0.000000
   8.437214,    0.000000
   8.962907,    0.000000
   9.499779,    0.000000
  10.058468,    0.000000
  10.630379,    0.000000
  11.225396,    0.000000
  11.843167,    0.000000
  12.487102,    0.000000
  13.152793,    0.000000
  13.840708,    0.000000
  14.554475,    0.000000
  15.291631,    0.000000
  16.053004,    0.000000
  16.828933,    0.000000
  17.633349,    0.000000
  18.464215,    0.000000
  19.326140,    0.000000
  20.212344,    0.000000
  21.124584,    0.000000
  22.063274,    0.000000
  23.038611,    0.000000
  24.030965,    0.000000
  25.054101,    0.000000
  26.107998,    0.000000
  27.188251,    0.000000
  28.286361,    0.000000
  29.428402,    0.000000
  30.597124,    0.000000
  31.815965,    0.000000
  33.046647,    0.000000
  34.309839,    0.000000
  35.598210,    0.000000
  36.925962,    0.000000
  38.285270,    0.000000
  39.682033,    0.000000
  41.111151,    0.000000
  42.572960,    0.000000
  44.090519,    0.000000
  45.627115,    0.000000
  47.211981,    0.000000
  48.819191,    0.000000
  50.461126,    0.000000
  52.135667,    0.000000
  53.850480,    0.000000
  55.582264,    0.000000
  57.391442,    0.000000
  59.218548,    0.000000
  61.097013,    0.000000
  63.007112,    0.000000
  64.973257,    0.000000
  66.974261,    0.000000
  69.001214,    0.000000
  71.066314,    0.000000
  73.172440,    0.000000
  75.323309,    0.000000
  77.520898,    0.000000
  79.760182,    0.000000
  82.058542,    0.000000
  82.519490,    0.000000
  82.821635,    0.000000
  82.998740,    0.000000
  83.107386,    0.000000
  83.123763,    0.000000
  83.142080,    0.000000
  83.145546,    0.000000
  83.151557,    0.000000
  83.153271,    0.000000
  83.156305,    0.000000
  83.157431,    0.000000
  83.158484,    0.000000
  83.167988,    0.000000
  83.245735,    0.000000
  83.573222,    0.000000
  84.501337,    0.000000
  86.402007,    0.000000
  88.531454,    0.000000
  90.708608,    0.000000
  92.916421,    0.000000
  95.190543,    0.000000
  97.492225,    0.000000
  99.833114,    0.000000
 102.198156,    0.000000
 104.597768,    0.000000
 107.045224,    0.000000
 109.521413,    0.000000
 112.055099,    0.000000
 114.626661,    0.000000
 117.228037,    0.000000
 119.878610,    0.000000
 122.559461,    0.000000
 125.256142,    0.000000
 128.014795,    0.000000
 130.816008,    0.000000
 133.660580,    0.000000
 136.555296,    0.000000
 139.465627,    0.000000
 142.439337,    0.000000
 145.451127,    0.000000
 148.505543,    0.000000
 151.614857,    0.000000
 154.742815,    0.000000
 157.933565,    0.000000
 161.148286,    0.000000
 164.420111,    0.000000
 167.731217,    0.000000
 171.091389,    0.000000
 174.485801,    0.000000
 177.949586,    0.000000
 181.441529,    0.000000
 184.981472,    0.000000
 188.573389,    0.000000
 192.173500,    0.000000
 195.848947,    0.000000
 199.597788,    0.000000
 203.374009,    0.000000
 207.204957,    0.000000
 211.086157,    0.000000
 215.000525,    0.000000
 218.969206,    0.000000
 223.000382,    0.000000
 227.086816,    0.000000
 231.226737,    0.000000
 235.417772,    0.000000
 239.640777,    0.000000
 243.902726,    0.000000
 248.252474,    0.000000
 252.635887,    0.000000
 257.029673,    0.000000
 261.515368,    0.000000
 266.074585,    0.000000
 270.666108,    0.000000
 275.292708,    0.000000
 279.997772,    0.000000
 284.737357,    0.000000
 289.536691,    0.000000
 294.406352,    0.000000
 299.288273,    0.000000
 304.256967,    0.000000
 309.245707,    0.000000
 314.340590,    0.000000
 319.446765,    0.000000
 324.626996,    0.000000
 329.889655,    0.000000
 335.161470,    0.000000
 340.510653,    0.000000
 341.593815,    0.000000
 342.426121,    0.000000
 343.039939,    0.000000
 343.457212,    0.000000
 343.769402,    0.000000
 344.009643,    0.000000
 344.247310,    0.000000
 344.443360,    0.000000
 344.594513,    0.000000
 344.621031,    0.000000
 344.650906,    0.000000
 344.697295,    0.000000
 344.700354,    0.000000
 344.702580,    0.000000
 344.703931,    0.000000
 344.704897,    0.000000
 344.705513,    0.000000
 344.706121,    0.000000
 344.712205,    0.000000
 344.765687,    0.000000
 345.037462,    0.000000
 346.053085,    0.000000
 349.509377,    0.000000
 354.341222,    0.000000
 359.298084,    0.000000
 364.256663,    0.000000
 369.258129,    0.000000
 374.297528,    0.000000
 379.403519,    0.000000
 384.530672,    0.000000
 389.731318,    0.000000
 394.972929,    0.000000
 400.262120,    0.000000
 405.585189,    0.000000
 410.959610,    0.000000
 416.404641,    0.000000
 421.913318,    0.000000
 427.456483,    0.000000
 433.029042,    0.000000
 438.652643,    0.000000
 444.323271,    0.000000
 450.060305,    0.000000
 455.825095,    0.000000
 461.660468,    0.000000
 467.526362,    0.000000
 473.447963,    0.000000
 479.417871,    0.000000
 485.442922,    0.000000
 491.529972,    0.000000
 497.645811,    0.000000
 503.841262,    0.000000
 510.047268,    0.000000
 516.302770,    0.000000
 522.625141,    0.000000
 529.004313,    0.000000
 535.448139,    0.000000
 541.899915,    0.000000
 548.436932,    0.000000
 555.029611,    0.000000
 561.673836,    0.000000
 568.379571,    0.000000
 575.152323,    0.000000
 581.968558,    0.000000
 588.829393,    0.000000
 595.732654,    0.000000
 602.692500,    0.000000
 609.735840,    0.000000
 616.813045,    0.000000
 623.945081,    0.000000
 631.139556,    0.000000
 638.371403,    0.000000
 645.685603,    0.000000
 653.012593,    0.000000
 660.430143,    0.000000
 667.892073,    0.000000
 675.395593,    0.000000
 682.998257,    0.000000
 690.658967,    0.000000
 698.364533,    0.000000
 706.129310,    0.000000
 713.946688,    0.000000
 721.816065,    0.000000
 729.729551,    0.000000
 737.689198,    0.000000
 745.736729,    0.000000
 753.815542,    0.000000
 761.935926,    0.000000
 770.125281,    0.000000
 778.374270,    0.000000
 786.680120,    0.000000
 795.040785,    0.000000
 803.441164,    0.000000
 811.917185,    0.000000
 812.259096,    0.000000
 812.542937,    0.000000
 812.808691,    0.000000
 813.068171,    0.000000
 813.127755,    0.000000
 813.141969,    0.000000
 813.170170,    0.000000
 813.177691,    0.000000
 813.179309,    0.000000
 813.180305,    0.000000
 813.181333,    0.000000
 813.191618,    0.000000
 813.290256,    0.000000
 813.819556,    0.000000
 816.053410,    0.000000
 821.912851,    0.000000
 829.483908,    0.000000
 837.020858,    0.000000
 844.616010,    0.000000
 852.254377,    0.000000
 859.959811,    0.000000
 867.694800,    0.000000
 875.463457,    0.000000
 883.260426,    0.000000
 891.142348,    0.000000
 899.047254,    0.000000
 907.004377,    0.000000
 915.025500,    0.000000
 923.105667,    0.000000
 931.216103,    0.000000
 939.364407,    0.000000
 947.559788,    0.000000
 955.816290,    0.000000
 964.111110,    0.000000
 972.447419,    0.000000
 980.836626,    0.000000
 989.267467,    0.000000
 997.778917,    0.000000
1006.321048,    0.000000
1014.925936,    0.000000
1023.557874,    0.000000
1032.232734,    0.000000
1040.978055,    0.000000
1049.751626,    0.000000
1058.584135,    0.000000
1067.460100,    0.000000
1076.386310,    0.000000
1085.361282,    0.000000
1094.370094,    0.000000
1103.442856,    0.000000
1112.552796,    0.000000
1121.727417,    0.000000
1130.962792,    0.000000
1140.227802,    0.000000
1149.555198,    0.000000
1158.930549,    0.000000
1168.378717,    0.000000
1177.841418,    0.000000
1187.362268,    0.000000
1196.945624,    0.000000
1206.564155,    0.000000
1216.234979,    0.000000
1225.973925,    0.000000
1235.747272,    0.000000
1245.570996,    0.000000
1255.453953,    0.000000
1265.390069,    0.000000
1275.380238,    0.000000
1285.441362,    0.000000
1295.525647,    0.000000
1305.674630,    0.000000
1315.865092,    0.000000
1326.098365,    0.000000
1336.392742,    0.000000
1346.735103,    0.000000
1357.170537,    0.000000
1367.623046,    0.000000
1378.139767,    0.000000
1388.718010,    0.000000
1399.358609,    0.000000
1410.039205,    0.000000
1420.781619,    0.000000
1431.543057,    0.000000
1442.375572,    0.000000
1453.275958,    0.000000
1464.222227,    0.000000
1475.202724,    0.000000
1486.252507,    0.000000
1497.360739,    0.000000
1508.501596,    0.000000
1519.681370,    0.000000
1530.942372,    0.000000
1533.202801,    0.000000
1541.821884,    0.000000
1541.845245,    0.000000
1541.861912,    0.000000
1541.871492,    0.000000
1541.883604,    0.000000
1542.004729,    0.000000
1542.835950,    0.000000
1547.248557,    0.000000
1557.450202,    0.000000
1568.872258,    0.000000
1580.311964,    0.000000
1591.781704,    0.000000
1603.328580,    0.000000
1614.879594,    0.000000
1626.514013,    0.000000
1638.199224,    0.000000
1649.937640,    0.000000
1661.709559,    0.000000
1673.573235,    0.000000
1685.465814,    0.000000
1697.418511,    0.000000
1709.419416,    0.000000
1721.473520,    0.000000
1733.606903,    0.000000
1745.792761,    0.000000
1758.011129,    0.000000
1770.312960,    0.000000
1782.697376,    0.000000
1795.119115,    0.000000
1807.570691,    0.000000
1820.069502,    0.000000
1832.625141,    0.000000
1845.273172,    0.000000
1857.971449,    0.000000
1870.707953,    0.000000
1883.484812,    0.000000
1896.348175,    0.000000
1909.254218,    0.000000
1922.225286,    0.000000
1935.234496,    0.000000
1948.320921,    0.000000
1961.459854,    0.000000
1974.670521,    0.000000
1987.901125,    0.000000
2001.212372,    0.000000
2014.596507,    0.000000
2028.000601,    0.000000
2041.461772,    0.000000
2054.992137,    0.000000
2068.600753,    0.000000
2082.244900,    0.000000
2095.920126,    0.000000
2109.651901,    0.000000
2123.464666,    0.000000
2137.327812,    0.000000
2151.273345,    0.000000
2165.277838,    0.000000
2179.337221,    0.000000
2193.455849,    0.000000
2207.595553,    0.000000
2221.797810,    0.000000
2236.093985,    0.000000
2242.322665,    0.000000
2250.401488,    0.000000
2264.815747,    0.134072
2279.277764,    0.371507
2293.813955,    0.606830
2308.399408,    0.840481
2323.088451,    1.072067
2337.796558,    1.302454
2352.589046,    1.530321
2367.439682,    1.756698
2382.344216,    1.981187
2397.334902,    2.203735
2412.343573,    2.424830
2427.438264,    2.643479
2442.539828,    2.860690
2457.759663,    3.075339
2473.024827,    3.289024
2488.327620,    3.500717
2503.665914,    3.710330
2519.063953,    3.917856
2534.488655,    4.123642
2549.987083,    4.327262
2565.513359,    4.529356
2581.076188,    4.729337
2596.678425,    4.927343
2612.307917,    5.123430
2615.435515,    5.317466
2616.089701,    5.355860
2616.754471,    5.363872
2616.767998,    5.372011
2616.779885,    5.372176
2616.782708,    5.372321
2616.785379,    5.372356
2616.812082,    5.372389
2617.062875,    5.372715
2618.718616,    5.375784
2626.393374,    5.396037
2642.704475,    5.489748
2659.084821,    5.687595
2675.490851,    5.883778
2676.582985,    6.077790
2677.674194,    6.090558
2678.768038,    6.103304
2679.859704,    6.116069
2680.947885,    6.128799
2682.043627,    6.141478
2683.135900,    6.154234
2684.234547,    6.166939
2685.333930,    6.179708
2686.429675,    6.192474
2687.530618,    6.205188
2688.631750,    6.217951
2689.734023,    6.230706
2690.832655,    6.243463
2691.933472,    6.256167
2693.039463,    6.268886
2694.144857,    6.281654
2695.247608,    6.294404
2696.351020,    6.307113
2697.457818,    6.319819
2698.567130,    6.332553
2699.677749,    6.345306
2700.785765,    6.358063
2701.896376,    6.370779
2703.008216,    6.383514
2704.118614,    6.396253
2705.230487,    6.408964
2706.346564,    6.421681
2707.462941,    6.434436
2708.582005,    6.447184
2709.703534,    6.459951
2710.823084,    6.472735
2711.941094,    6.485487
2713.064054,    6.498209
2714.190612,    6.510978
2715.308298,    6.523776
2716.430535,    6.536463
2717.555847,    6.549190
2718.686290,    6.561942
2719.816310,    6.574741
2720.947103,    6.587524
2722.081681,    6.600305
2723.216999,    6.613118
2724.350323,    6.625929
2725.483336,    6.638706
2726.619721,    6.651468
2727.757821,    6.664258
2728.901007,    6.677055
2730.041259,    6.689899
2731.178751,    6.702699
2732.321372,    6.715458
2733.469635,    6.728262
2734.619688,    6.741119
2735.761553,    6.753985
2736.909632,    6.766748
2738.060014,    6.779570
2739.212270,    6.792406
2740.368441,    6.805252
2741.526098,    6.818131
2742.683626,    6.831015
2743.840233,    6.843886
2744.994946,    6.856736
2746.152200,    6.869554
2747.313779,    6.882389
2748.476222,    6.895261
2749.639876,    6.895261
2750.801271,    6.895261
2751.966205,    6.895261
2753.134094,    6.895261
2754.300972,    6.895261
2755.468712,    6.895261
2756.644688,    6.895261
2757.811119,    6.895261
2758.986430,    6.895261
2760.163445,    6.895261
2761.343264,    6.895261
2762.521333,    6.895261
2763.706038,    6.895261
2764.889563,    6.895261
2766.067310,    6.895261
2767.248013,    6.895261
2768.432908,    6.895261
2769.618887,    6.895261
2770.806411,    6.895261
2772.000373,    6.895261
2773.192540,    6.895261
2774.384006,    6.895261
2775.577908,    6.895261
2776.771609,    6.895261
2777.970663,    6.895261
2779.169368,    6.895261
2780.367680,    6.895261
2781.568429,    6.895261
2782.764614,    6.895261
2783.968367,    6.895261
2785.171805,    6.895261
2786.380475,    6.895261
2787.590632,    6.895261
2788.798109,    6.895261
2790.009338,    6.895261
2791.222316,    6.895261
2792.435311,    6.895261
2793.650223,    6.895261
2794.864392,    6.895261
2796.080555,    6.895261
2797.303005,    6.895261
2798.525660,    6.895261
2799.751918,    6.895261
2800.975772,    6.895261
2802.197561,    6.895261
2803.428323,    6.895261
2804.657523,    6.895261
2805.881930,    6.895261
2807.119926,    6.895261
2808.357958,    6.895261
2809.597916,    6.895261
2810.841289,    6.895261
2812.083878,    6.895261
2813.323635,    6.895261
2814.563973,    6.895261
2815.812208,    6.895261
2817.058819,    6.895261
2818.305455,    6.895261
2819.550460,    6.895261
2820.803049,    6.895261
2822.062224,    6.895261
2823.318804,    6.895261
2824.577749,    6.895261
2825.841078,    6.895261
2827.104362,    6.895261
2828.370866,    6.895261
2829.633142,    6.895261
2830.899487,    6.895261
2832.165598,    6.895261
2833.426000,    6.895261
2834.696312,    6.895261
2835.974286,    6.895261
2837.249915,    6.895261
2838.530658,    6.895261
2839.817860,    6.895261
2841.103217,    6.895261
2842.388886,    6.895261
2843.676265,    6.895261
2844.970690,    6.895261
2846.262257,    6.895261
2847.231627,    6.895261
2847.553446,    6.895261
2848.842486,    6.895261
2850.142594,    6.895261
2851.453215,    6.895261
2852.754582,    6.895261
2854.064772,    6.895261
2855.375816,    6.895261
2856.686175,    6.895261
2858.005098,    6.895261
2859.315997,    6.895261
2860.626965,    6.895261
2861.943005,    6.895261
2863.263295,    6.895261
2864.588138,    6.895261
2865.910061,    6.895261
2867.238534,    6.895261
2868.569581,    6.895261
2869.900393,    6.895261
2871.234813,    6.895261
2872.570866,    6.895261
2873.913097,    6.895261
2875.257956,    6.895261
2876.604669,    6.895261
2877.957920,    6.895261
2879.315587,    6.895261
2880.664259,    6.895261
2882.026879,    6.895261
2883.383090,    6.895261
2884.750256,    6.895261
2886.108936,    6.895261
2887.476757,    6.895261
2888.848690,    6.895261
2890.215681,    6.895261
2891.580152,    6.895261
2892.958870,    6.895261
2894.339774,    6.895261
2895.721695,    6.895261
2897.102506,    6.895261
2898.492992,    6.895261
2899.874278,    6.895261
2901.259240,    6.895261
2902.653115,    6.895261
2904.056404,    6.895261
2905.450334,    6.895261
2906.856619,    6.895261
2908.259475,    6.895261
2909.666180,    6.895261
2911.075008,    6.895261
2912.483127,    6.895261
2913.895181,    6.895261
2915.311963,    6.895261
2916.736003,    6.895261
2918.161325,    6.895261
2919.581026,    6.895261
2921.019352,    6.895261
2922.444084,    6.895261
2923.881624,    6.895261
2925.318067,    6.895261
2926.755026,    6.895261
2928.197225,    6.895261
2929.649058,    6.895261
2931.094848,    6.895261
2932.546872,    6.895261
2933.997638,    6.895261
2935.451518,    6.895261
2936.908934,    6.895261
2938.367818,    6.895261
2939.834653,    6.895261
2941.302397,    6.895261
2942.776679,    6.895261
2944.237713,    6.895261
2945.716476,    6.895261
2947.200160,    6.895261
2948.687406,    6.895261
2950.182289,    6.895261
2951.685521,    6.895261
2953.175679,    6.895261
2954.675770,    6.895261
2956.175660,    6.895261
2957.668924,    6.895261
2959.171585,    6.895261
2960.682518,    6.895261
2962.191769,    6.895261
2963.704819,    6.895261
2965.224321,    6.895261
2966.737512,    6.895261
2968.256330,    6.895261
2969.781741,    6.895261
2971.319013,    6.895261
2972.834438,    6.895261
2974.379876,    6.895261
2975.919057,    6.895261
2977.462512,    6.895261
2979.000123,    6.895261
2980.549087,    6.895261
2982.094839,    6.895261
2983.639880,    6.895261
2985.198983,    6.895261
2986.755771,    6.895261
2988.325511,    6.895261
2989.902303,    6.895261
2991.474609,    6.895261
2993.051745,    6.895261
2994.635620,    6.895261
2996.215196,    6.895261
2997.800901,    6.895261
2999.386508,    6.895261
3000.971632,    6.895261
3002.562335,    6.895261
3004.167381,    6.895261
3005.769393,    6.895261
3007.372546,    6.895261
3008.970787,    6.895261
3010.580461,    6.895261
3012.182194,    6.895261
3013.803887,    6.895261
3015.415652,    6.895261
3017.049978,    6.895261
3018.692725,    6.895261
3020.322161,    6.895261
3021.955478,    6.895261
3023.586182,    6.895261
3025.221806,    6.895261
3026.866603,    6.895261
3028.514615,    6.895261
3030.156773,    6.895261
3031.809681,    6.895261
3033.471216,    6.895261
3035.132641,    6.895261
3036.805073,    6.895261
3038.478639,    6.895261
3040.150052,    6.895261
3041.818134,    6.895261
3043.492516,    6.895261
3045.170180,    6.895261
3046.857809,    6.895261
3048.556171,    6.895261
3050.249288,    6.895261
3051.944972,    6.895261
3053.635025,    6.895261
3055.345355,    6.895261
3057.042004,    6.895261
3058.741408,    6.895261
3060.449061,    6.895261
3062.159277,    6.895261
3063.876044,    6.895261
3065.606666,    6.895261
3067.329448,    6.895261
3069.066616,    6.895261
3070.790927,    6.895261
3072.533796,    6.895261
3074.273017,    6.895261
3076.015594,    6.895261
3077.760679,    6.895261
3079.514374,    6.895261
3081.271464,    6.895261
3083.023560,    6.895261
3084.788166,    6.895261
3086.550935,    6.895261
3088.324161,    6.895261
3090.096966,    6.895261
3091.860111,    6.895261
3093.631660,    6.895261
3095.415665,    6.895261
3097.193084,    6.895261
3098.979015,    6.895261
3100.752782,    6.895261
3102.543949,    6.895261
3104.355979,    6.895261
3106.142010,    6.895261
3107.951129,    6.895261
3109.756608,    6.895261
3111.569696,    6.895261
3113.377659,    6.895261
3115.182775,    6.895261
3117.019757,    6.895261
3118.833712,    6.895261
3120.662176,    6.895261
3122.501715,    6.895261
3124.327298,    6.895261
3126.175379,    6.895261
3128.021311,    6.895261
3129.882920,    6.895261
3131.724079,    6.895261
3133.553831,    6.895261
3135.407292,    6.895261
3137.268387,    6.895261
3139.127386,    6.895261
3140.998098,    6.895261
3142.860075,    6.895261
3144.717901,    6.895261
3146.587074,    6.895261
3148.441775,    6.895261
3150.320413,    6.895261
3152.192998,    6.895261
3154.080906,    6.895261
3155.970893,    6.895261
3157.870123,    6.895261
3159.761973,    6.895261
3161.659222,    6.895261
3163.555960,    6.895261
3165.460113,    6.895261
3167.366637,    6.895261
3169.286583,    6.895261
3171.198640,    6.895261
3173.097154,    6.895261
3175.008308,    6.895261
3176.919891,    6.895261
3178.869375,    6.895261
3180.796248,    6.895261
3182.729092,    6.895261
3184.658218,    6.895261
3186.595453,    6.895261
3188.526776,    6.895261
3190.482769,    6.895261
3192.437390,    6.895261
3194.386303,    6.895261
3196.337328,    6.895261
3198.292503,    6.895261
3200.239756,    6.895261
3202.222774,    6.895261
3204.183824,    6.895261
3206.161011,    6.895261
3208.148598,    6.895261
3210.135097,    6.895261
3212.118688,    6.895261
3214.099888,    6.895261
3216.094830,    6.895261
3218.085593,    6.895261
3220.078960,    6.895261
3222.062037,    6.895261
3224.054307,    6.895261
3226.044591,    6.895261
3228.053202,    6.895261
3230.043534,    6.895261
3232.050937,    6.895261
3234.063482,    6.895261
3236.063695,    6.895261
3238.083816,    6.895261
3240.111696,    6.895261
3242.125450,    6.895261
3244.148552,    6.895261
3246.165394,    6.895261
3248.208576,    6.895261
3250.242085,    6.895261
3252.273106,    6.895261
3254.338089,    6.895261
3256.418253,    6.895261
3258.488419,    6.895261
3260.522225,    6.895261
3262.556528,    6.895261
3264.613602,    6.895261
3266.641182,    6.895261
3268.717105,    6.895261
3270.794392,    6.895261
3272.841369,    6.895261
3274.920577,    6.895261
3276.997964,    6.895261
3279.071660,    6.895261
3281.155042,    6.895261
3283.218845,    6.895261
3285.304971,    6.895261
3287.375413,    6.895261
3289.453498,    6.895261
3291.549733,    6.895261
3293.663505,    6.895261
3295.732215,    6.895261
3297.824191,    6.895261
3299.912516,    6.895261
3302.021474,    6.895261
3304.113067,    6.895261
3306.215490,    6.895261
3308.307867,    6.895261
3310.397534,    6.895261
3312.522095,    6.895261
3314.627897,    6.895261
3316.740773,    6.895261
3318.870359,    6.895261
3320.970392,    6.895261
3323.086659,    6.895261
3325.231049,    6.895261
3327.359042,    6.895261
3329.491150,    6.895261
3331.615945,    6.895261
3333.744846,    6.895261
3335.884264,    6.895261
3338.033054,    6.895261
3340.173188,    6.895261
3342.322739,    6.895261
3344.458590,    6.895261
3346.594182,    6.895261
3348.745440,    6.895261
3350.889080,    6.895261
3353.061130,    6.895261
3355.216379,    6.895261
3357.365596,    6.895261
3359.534672,    6.895261
3361.702954,    6.895261
3363.859412,    6.895261
3365.994991,    6.895261
3368.170251,    6.895261
3370.355647,    6.895261
3372.526018,    6.895261
3374.684475,    6.895261
3376.840391,    6.895261
3378.995788,    6.895261
3381.178869,    6.895261
3383.369798,    6.895261
3385.568333,    6.895261
3387.747773,    6.895261
3389.939428,    6.895261
3392.112737,    6.895261
3393.207826,    6.895261
