Ground Distance, Angles
   0.000000,    0.000000
   0.000002,    0.000000
   0.000033,    0.000000
   0.000541,    0.000000
   0.002971,    0.000000
   0.012724,    0.000000
   0.030175,    0.000000
   0.055121,    0.000000
   0.087431,    0.000000
   0.127351,    0.000000
   0.175087,    0.000000
   0.230545,    0.000000
   0.293397,    0.000000
   0.364623,    0.000000
   0.443513,    0.000000
   0.530359,    0.000000
   0.626309,    0.000000
   0.729777,    0.000000
   0.842292,    0.000000
   0.963616,    0.000000
   1.092107,    0.000000
   1.229745,    0.000000
   1.378547,    0.000000
   1.536402,    0.000000
   1.702785,    0.000000
   1.880020,    0.000000
   2.066176,    0.000000
   2.263475,    0.000000
   2.469520,    0.000000
   2.687974,    0.000000
   2.915646,    0.000000
   3.153525,    0.000000
   3.404560,    0.000000
   3.665621,    0.000000
   3.939644,    0.000000
   4.226323,    0.000000
   4.526462,    0.000000
   4.834008,    0.000000
   5.151473,    0.000000
   5.483183,    0.000000
   5.829160,    0.000000
   6.193214,    0.000000
   6.569655,    0.000000
   6.958681,    0.000000
   7.362451,    0.000000
   7.781528,    0.000000
   8.217215,    0.000000
   8.664408,    0.000000
   9.129936,    0.000000
   9.607516,    0.000000
  10.098993,    0.000000
  10.614274,    0.000000
  11.146344,    0.000000
  11.686715,    0.000000
  12.245868,    0.000000
  12.820009,    0.000000
  13.423800,    0.000000
  14.037027,    0.000000
  14.668337,    0.000000
  15.312479,    0.000000
  15.979087,    0.000000
  16.665407,    0.000000
  17.369399,    0.000000
  18.093800,    0.000000
  18.833876,    0.000000
  19.591959,    0.000000
  20.369445,    0.000000
  21.183145,    0.000000
  22.002937,    0.000000
  22.847356,    0.000000
  23.710068,    0.000000
  24.594700,    0.000000
  25.508131,    0.000000
  26.440806,    0.000000
  27.392696,    0.000000
  28.376439,    0.000000
  29.370720,    0.000000
  30.386306,    0.000000
  31.437731,    0.000000
  32.505956,    0.000000
  33.595058,    0.000000
  34.722148,    0.000000
  35.854885,    0.000000
  37.013675,    0.000000
  38.196420,    0.000000
  39.405089,    0.000000
  40.647508,    0.000000
  41.900882,    0.000000
  43.179474,    0.000000
  44.514203,    0.000000
  45.859442,    0.000000
  47.224391,    0.000000
  48.628488,    0.000000
  50.052956,    0.000000
  51.505792,    0.000000
  52.986236,    0.000000
  54.503722,    0.000000
  56.045472,    0.000000
  57.603177,    0.000000
  59.199081,    0.000000
  60.807362,    0.000000
  62.453934,    0.000000
  64.126404,    0.000000
  65.835876,    0.000000
  67.565067,    0.000000
  69.327693,    0.000000
  71.134304,    0.000000
  72.979054,    0.000000
  74.841589,    0.000000
  76.727429,    0.000000
  78.653341,    0.000000
  80.636011,    0.000000
  81.033263,    0.000000
  81.360354,    0.000000
  82.361676,    0.000000
  82.376999,    0.000000
  82.390335,    0.000000
  82.393274,    0.000000
  82.394717,    0.000000
  82.397331,    0.000000
  82.397670,    0.000000
  82.397868,    0.000000
  82.398050,    0.000000
  82.399865,    0.000000
  82.416165,    0.000000
  82.520608,    0.000000
  82.937459,    0.000000
  84.229911,    0.000000
  86.170510,    0.000000
  88.073124,    0.000000
  89.990574,    0.000000
  91.955791,    0.000000
  93.930154,    0.000000
  95.949316,    0.000000
  98.000751,    0.000000
 100.078216,    0.000000
 102.188103,    0.000000
 104.330924,    0.000000
 106.490812,    0.000000
 108.673515,    0.000000
 110.897496,    0.000000
 113.151885,    0.000000
 115.441649,    0.000000
 117.761229,    0.000000
 120.124748,    0.000000
 122.493405,    0.000000
 124.904985,    0.000000
 127.345454,    0.000000
 129.808483,    0.000000
 132.308287,    0.000000
 134.852048,    0.000000
 137.425981,    0.000000
 140.011838,    0.000000
 142.645210,    0.000000
 145.317166,    0.000000
 148.010533,    0.000000
 150.726563,    0.000000
 153.495654,    0.000000
 156.293415,    0.000000
 159.125946,    0.000000
 161.982567,    0.000000
 164.876803,    0.000000
 167.790890,    0.000000
 170.756876,    0.000000
 173.759997,    0.000000
 176.773001,    0.000000
 179.820526,    0.000000
 182.913100,    0.000000
 186.042785,    0.000000
 189.210084,    0.000000
 192.421816,    0.000000
 195.648537,    0.000000
 198.925358,    0.000000
 202.244762,    0.000000
 205.607610,    0.000000
 208.999113,    0.000000
 212.433012,    0.000000
 215.894672,    0.000000
 219.378388,    0.000000
 222.916665,    0.000000
 226.462884,    0.000000
 230.066454,    0.000000
 233.703388,    0.000000
 237.375397,    0.000000
 241.101449,    0.000000
 244.865177,    0.000000
 248.657396,    0.000000
 252.491743,    0.000000
 256.379315,    0.000000
 260.305283,    0.000000
 264.249513,    0.000000
 268.230578,    0.000000
 272.255463,    0.000000
 276.311583,    0.000000
 280.408372,    0.000000
 284.551412,    0.000000
 288.751049,    0.000000
 292.996648,    0.000000
 297.265420,    0.000000
 301.555738,    0.000000
 305.882377,    0.000000
 310.280125,    0.000000
 314.691178,    0.000000
 319.154941,    0.000000
 323.664212,    0.000000
 328.194408,    0.000000
 332.785079,    0.000000
 337.425734,    0.000000
 342.107596,    0.000000
 342.295944,    0.000000
 342.456995,    0.000000
 342.613492,    0.000000
 342.804838,    0.000000
 342.847613,    0.000000
 342.899136,    0.000000
 342.910053,    0.000000
 342.915375,    0.000000
 342.926020,    0.000000
 342.927221,    0.000000
 342.927916,    0.000000
 342.934873,    0.000000
 342.943567,    0.000000
 343.030507,    0.000000
 343.519807,    0.000000
 345.252905,    0.000000
 349.286153,    0.000000
 353.638804,    0.000000
 358.031236,    0.000000
 362.451031,    0.000000
 366.909391,    0.000000
 371.380845,    0.000000
 375.913739,    0.000000
 380.479314,    0.000000
 385.083162,    0.000000
 389.713857,    0.000000
 394.386580,    0.000000
 399.078557,    0.000000
 403.820161,    0.000000
 408.590329,    0.000000
 413.414164,    0.000000
 418.262768,    0.000000
 423.136142,    0.000000
 428.061165,    0.000000
 433.013843,    0.000000
 437.995621,    0.000000
 443.029943,    0.000000
 448.087900,    0.000000
 453.184382,    0.000000
 458.340719,    0.000000
 463.523880,    0.000000
 468.759042,    0.000000
 474.006508,    0.000000
 479.285980,    0.000000
 484.631216,    0.000000
 490.019159,    0.000000
 495.421630,    0.000000
 500.896666,    0.000000
 506.388847,    0.000000
 511.928703,    0.000000
 517.499252,    0.000000
 523.093641,    0.000000
 528.715542,    0.000000
 534.408289,    0.000000
 540.130011,    0.000000
 545.897727,    0.000000
 551.699894,    0.000000
 557.535523,    0.000000
 563.438774,    0.000000
 569.369611,    0.000000
 575.341771,    0.000000
 581.326946,    0.000000
 587.356886,    0.000000
 593.450651,    0.000000
 599.580624,    0.000000
 605.745117,    0.000000
 611.953454,    0.000000
 618.188182,    0.000000
 624.479956,    0.000000
 630.801805,    0.000000
 637.171694,    0.000000
 643.568650,    0.000000
 649.998833,    0.000000
 656.482579,    0.000000
 663.011445,    0.000000
 669.584811,    0.000000
 676.203186,    0.000000
 682.841179,    0.000000
 689.507878,    0.000000
 696.259094,    0.000000
 703.027434,    0.000000
 709.843413,    0.000000
 716.701039,    0.000000
 723.612703,    0.000000
 730.571550,    0.000000
 737.550386,    0.000000
 744.557066,    0.000000
 751.633198,    0.000000
 758.743051,    0.000000
 765.909084,    0.000000
 773.105396,    0.000000
 780.331632,    0.000000
 787.613103,    0.000000
 794.927071,    0.000000
 802.302978,    0.000000
 809.702380,    0.000000
 811.195227,    0.000000
 812.212508,    0.000000
 813.021068,    0.000000
 813.586284,    0.000000
 814.010511,    0.000000
 814.439771,    0.000000
 814.801066,    0.000000
 814.905256,    0.000000
 815.060774,    0.000000
 815.093695,    0.000000
 815.106590,    0.000000
 815.132382,    0.000000
 815.134182,    0.000000
 815.135835,    0.000000
 815.152364,    0.000000
 815.289804,    0.000000
 816.137865,    0.000000
 820.714060,    0.000000
 827.442902,    0.000000
 834.219769,    0.000000
 841.014425,    0.000000
 847.832678,    0.000000
 854.691049,    0.000000
 861.592676,    0.000000
 868.516311,    0.000000
 875.496579,    0.000000
 882.503664,    0.000000
 889.523813,    0.000000
 896.584121,    0.000000
 903.687531,    0.000000
 910.842193,    0.000000
 918.009308,    0.000000
 925.231963,    0.000000
 932.495561,    0.000000
 939.791140,    0.000000
 947.102270,    0.000000
 954.472673,    0.000000
 961.856390,    0.000000
 969.287009,    0.000000
 976.747667,    0.000000
 984.250283,    0.000000
 991.772304,    0.000000
 999.365987,    0.000000
1006.967399,    0.000000
1014.618518,    0.000000
1022.316280,    0.000000
1030.028218,    0.000000
1037.783868,    0.000000
1045.591107,    0.000000
1053.424549,    0.000000
1061.293812,    0.000000
1069.188759,    0.000000
1077.131625,    0.000000
1085.120361,    0.000000
1093.142777,    0.000000
1101.199347,    0.000000
1109.291289,    0.000000
1117.424555,    0.000000
1125.581215,    0.000000
1133.762223,    0.000000
1142.036306,    0.000000
1150.329974,    0.000000
1158.618848,    0.000000
1166.975708,    0.000000
1175.366360,    0.000000
1183.800292,    0.000000
1192.252629,    0.000000
1200.772019,    0.000000
1209.310189,    0.000000
1217.874947,    0.000000
1226.486966,    0.000000
1235.173510,    0.000000
1243.882567,    0.000000
1252.624459,    0.000000
1261.388500,    0.000000
1270.193329,    0.000000
1279.047869,    0.000000
1287.933862,    0.000000
1296.867623,    0.000000
1305.839347,    0.000000
1314.864823,    0.000000
1323.885292,    0.000000
1332.942299,    0.000000
1342.077471,    0.000000
1351.257473,    0.000000
1360.460868,    0.000000
1369.664848,    0.000000
1378.949558,    0.000000
1388.282895,    0.000000
1397.640617,    0.000000
1407.027159,    0.000000
1416.447142,    0.000000
1425.926777,    0.000000
1435.421877,    0.000000
1444.976498,    0.000000
1454.552941,    0.000000
1464.171465,    0.000000
1473.844020,    0.000000
1483.562570,    0.000000
1493.292099,    0.000000
1503.068605,    0.000000
1512.888040,    0.000000
1522.752542,    0.000000
1532.662149,    0.000000
1542.621556,    0.000000
1552.597602,    0.000000
1562.603654,    0.000000
1564.618172,    0.000000
1564.945221,    0.000000
1565.303961,    0.000000
1565.384549,    0.000000
1565.439584,    0.000000
1565.467122,    0.000000
1565.486782,    0.000000
1565.498378,    0.000000
1565.505571,    0.000000
1565.512170,    0.000000
1565.578160,    0.000000
1566.111782,    0.000000
1569.384434,    0.000000
1578.246930,    0.000000
1588.354980,    0.000000
1598.453427,    0.000000
1608.612393,    0.000000
1618.800859,    0.000000
1629.039420,    0.000000
1639.320516,    0.000000
1649.634078,    0.000000
1659.983444,    0.000000
1670.364787,    0.000000
1680.794562,    0.000000
1691.268614,    0.000000
1701.766539,    0.000000
1712.297011,    0.000000
1722.860961,    0.000000
1733.474520,    0.000000
1744.144144,    0.000000
1754.831961,    0.000000
1765.581514,    0.000000
1776.356349,    0.000000
1787.186241,    0.000000
1798.046252,    0.000000
1808.964794,    0.000000
1819.903022,    0.000000
1830.889952,    0.000000
1841.906137,    0.000000
1852.967362,    0.000000
1864.073746,    0.000000
1875.232590,    0.000000
1886.402627,    0.000000
1897.645968,    0.000000
1908.910532,    0.000000
1920.208509,    0.000000
1931.542650,    0.000000
1942.909477,    0.000000
1954.356129,    0.000000
1965.806655,    0.000000
1977.317481,    0.000000
1988.856478,    0.000000
2000.440831,    0.000000
2012.071970,    0.000000
2023.743570,    0.000000
2035.462546,    0.000000
2047.203289,    0.000000
2059.002469,    0.000000
2070.829172,    0.000000
2082.699463,    0.000000
2094.602004,    0.000000
2106.578692,    0.000000
2118.577714,    0.000000
2130.618936,    0.000000
2142.693726,    0.000000
2154.814748,    0.000000
2167.000338,    0.000000
2179.194598,    0.000000
2191.411742,    0.000000
2203.690323,    0.000000
2216.019982,    0.000000
2228.358940,    0.000000
2240.768575,    0.000000
2253.200649,    0.000000
2265.699866,    0.000000
2278.213463,    0.000000
2290.809217,    0.000000
2303.404994,    0.000000
2316.042044,    0.000000
2328.724345,    0.000000
2341.465740,    0.000000
2354.245922,    0.000000
2367.069967,    0.000000
2372.492426,    0.000000
2379.923498,    0.000000
2392.843407,    0.000000
2405.785180,    0.000000
2418.773343,    0.000000
2431.813246,    0.000000
2444.881203,    0.000000
2457.972605,    0.000000
2471.119483,    0.000000
2484.314733,    0.000000
2497.560462,    0.000000
2510.830238,    0.000000
2524.116064,    0.000000
2537.468300,    0.000000
2550.840693,    0.000000
2564.259797,    0.000000
2577.699343,    0.000000
2591.169219,    0.000000
2604.704848,    0.000000
2618.263303,    0.000000
2631.872560,    0.000000
2645.511616,    0.000000
2659.177631,    0.000000
2672.898627,    0.000000
2686.651355,    0.000000
2700.411829,    0.000000
2703.172549,    0.000000
2712.901845,    0.000000
2713.453808,    0.000000
2713.626186,    0.000000
2713.848511,    0.000000
2713.901305,    0.000000
2714.002273,    0.000000
2714.026210,    0.000000
2714.033393,    0.000000
2714.040924,    0.000000
2714.048142,    0.000000
2714.120319,    0.000000
2714.618896,    0.000000
2717.388675,    0.000000
2729.523761,    0.000000
2743.872548,    0.000000
2758.233892,    0.000000
2772.636870,    0.000000
2787.057544,    0.000000
2801.510969,    0.000000
2815.998244,    0.000000
2830.547433,    0.000000
2845.120729,    0.000000
2859.717751,    0.000000
2874.314583,    0.000000
2888.973936,    0.000000
2903.645704,    0.000000
2904.799787,    0.002797
2905.954488,    0.005653
2907.111274,    0.008571
2908.268407,    0.011546
2909.425802,    0.014580
2910.584049,    0.017672
2911.738835,    0.020812
2912.898419,    0.024022
2914.059975,    0.027295
2915.219228,    0.030618
2916.381252,    0.034006
2917.541542,    0.037446
2918.703437,    0.040947
2919.866672,    0.044510
2921.034130,    0.048143
2922.198962,    0.051825
2923.364982,    0.055567
2924.535058,    0.059380
2925.702534,    0.063242
2926.875026,    0.067178
2928.049386,    0.071178
2929.223172,    0.075233
2930.398027,    0.079350
2931.571747,    0.083520
2932.748896,    0.087760
2933.919596,    0.092034
2935.099266,    0.096398
2936.272396,    0.100796
2937.453024,    0.105279
2938.631889,    0.109813
2939.814198,    0.114418
2940.998855,    0.119090
2942.184894,    0.123826
2943.372744,    0.128627
2944.561633,    0.133491
2945.749083,    0.138407
2946.942087,    0.143404
2948.137479,    0.148469
2949.330903,    0.153585
2950.525270,    0.158764
2951.719866,    0.164001
2952.914411,    0.169297
2954.114081,    0.174675
2955.314112,    0.180112
2956.510281,    0.185591
2957.714624,    0.191166
2958.909617,    0.196756
2960.113640,    0.202446
2961.315613,    0.208186
2962.520777,    0.214000
2963.726672,    0.219876
2964.935209,    0.225824
2966.144792,    0.231836
2967.358969,    0.237930
2968.578336,    0.244110
2969.795577,    0.250339
2971.012674,    0.256627
2972.227890,    0.262965
2973.444019,    0.269366
2974.667238,    0.275865
2975.890535,    0.282424
2977.116349,    0.289056
2978.342223,    0.295749
2979.569657,    0.302510
2980.802599,    0.309362
2982.036842,    0.316282
2983.270674,    0.323259
2984.510197,    0.330330
2985.751304,    0.337471
2986.989811,    0.344658
2988.226169,    0.351893
2989.474160,    0.359257
2990.720502,    0.366673
2991.965168,    0.374139
2993.203422,    0.381628
2994.446425,    0.389207
2995.700461,    0.396914
2996.950975,    0.404660
2998.206848,    0.412502
2999.461309,    0.420396
3000.719597,    0.428376
3001.985282,    0.436465
3003.245619,    0.444582
3004.514759,    0.452819
3005.786255,    0.461133
3007.048708,    0.469450
3008.319441,    0.477885
3009.590846,    0.486386
3010.866683,    0.494980
3012.146471,    0.503663
3013.427508,    0.512419
3014.708961,    0.521240
3015.992698,    0.530141
3017.274046,    0.539088
3018.567136,    0.548181
3019.856483,    0.557312
3021.146736,    0.566512
3022.438833,    0.575790
3023.728038,    0.585111
3025.022928,    0.594536
3026.323974,    0.604071
3027.637425,    0.613761
3028.940123,    0.623389
3030.256558,    0.633134
3031.571704,    0.642887
3032.882531,    0.652624
3034.188556,    0.662342
3035.505677,    0.672158
3036.824995,    0.682008
3038.143636,    0.691869
3039.457266,    0.701709
3040.773847,    0.711587
3042.106501,    0.721603
3043.441491,    0.731653
3044.775351,    0.741711
3046.106406,    0.751764
3047.437932,    0.761838
3048.780410,    0.772011
3050.123401,    0.782205
3051.466367,    0.792415
3052.814317,    0.802681
3054.165818,    0.812990
3055.511313,    0.823270
3056.858784,    0.833582
3058.214830,    0.843976
3059.568162,    0.854366
3060.926469,    0.864812
3062.282469,    0.875256
3063.648926,    0.885798
3065.009411,    0.896311
3066.375909,    0.906887
3067.748408,    0.917527
3069.124603,    0.928212
3070.499620,    0.938905
3071.872585,    0.949600
3073.248527,    0.960334
3074.633115,    0.971153
3076.023260,    0.982033
3077.403241,    0.992850
3078.787201,    1.003716
3080.183473,    1.014695
3081.577657,    1.025675
3082.969906,    1.036657
3084.369728,    1.047716
3085.776421,    1.058847
3087.169606,    1.069888
3088.579342,    1.081078
3089.990477,    1.092296
3091.397251,    1.103497
3092.807630,    1.114743
3094.228306,    1.126090
3095.644300,    1.137416
3097.070247,    1.148840
3098.499167,    1.160305
3099.923126,    1.171747
3101.340220,    1.183152
3102.778769,    1.194747
3104.214354,    1.206336
3105.649985,    1.217943
3107.090706,    1.229608
3108.524242,    1.241233
3109.965099,    1.252935
3111.407182,    1.264664
3112.856765,    1.276472
3114.313000,    1.288352
3115.769846,    1.300255
3117.235670,    1.312249
3118.695848,    1.324215
3120.164011,    1.336264
3121.630678,    1.348319
3123.096353,    1.360384
3124.567963,    1.372515
3126.049675,    1.384748
3127.531844,    1.397002
3128.361018,    1.403866
3129.027277,    1.409385
3130.518850,    1.421753
3132.013063,    1.434162
3133.504276,    1.446565
3135.002093,    1.459040
3136.498429,    1.471521
3137.999796,    1.484062
3139.504488,    1.496650
3141.011275,    1.509273
3142.529699,    1.522012
3144.039567,    1.534698
3145.559693,    1.547488
3147.074264,    1.560250
3148.591937,    1.573057
3150.116066,    1.585936
3151.635892,    1.598798
3153.176261,    1.611851
3154.716460,    1.624922
3156.253594,    1.637986
3157.808544,    1.651220
3159.354347,    1.664394
3160.910114,    1.677673
3162.466604,    1.690976
3164.023341,    1.704301
3165.589924,    1.717728
3167.149864,    1.731118
3168.713249,    1.744556
3170.284278,    1.758078
3171.857758,    1.771641
3173.436109,    1.785264
3175.015103,    1.798912
3176.600182,    1.812632
3178.185449,    1.826372
3179.770731,    1.840132
3181.359222,    1.853938
3182.943728,    1.867729
3184.542560,    1.881663
3186.137513,    1.895582
3187.754723,    1.909715
3189.356988,    1.923737
3190.973415,    1.937902
3192.593554,    1.952119
3194.208809,    1.966312
3195.833172,    1.980604
3197.448467,    1.994836
3199.066283,    2.009110
3200.694306,    2.023492
3202.335753,    2.038013
3203.983064,    2.052605
3205.641674,    2.067317
3207.280989,    2.081877
3208.935643,    2.096593
3210.581419,    2.111250
3212.235919,    2.126004
3213.894933,    2.140818
3215.557438,    2.155682
3217.230472,    2.170660
3218.892935,    2.185563
3220.562790,    2.200552
3222.249932,    2.215717
3223.933857,    2.230872
3225.624941,    2.246111
3227.308030,    2.261298
3229.004340,    2.276624
3230.704535,    2.292005
3232.414320,    2.307493
3234.113373,    2.322904
3235.821159,    2.338414
3237.532997,    2.353980
3239.245409,    2.369572
3240.975826,    2.385348
3242.698938,    2.401077
3244.423983,    2.416845
3246.154190,    2.432679
3247.880095,    2.448494
3249.613659,    2.464399
3251.362330,    2.480463
3253.099862,    2.496445
3254.841425,    2.512483
3256.600014,    2.528699
3258.362478,    2.544971
3260.136084,    2.561367
3261.901322,    2.577705
3263.672672,    2.594120
3265.431316,    2.610438
3267.208604,    2.626949
3268.984295,    2.643465
3270.767219,    2.660069
3272.544773,    2.676644
3274.345841,    2.693458
3276.132361,    2.710156
3277.929463,    2.726974
3279.730499,    2.743849
3281.524651,    2.760680
3283.332549,    2.777660
3285.149411,    2.794745
3286.970691,    2.811892
3288.793420,    2.829073
3290.618291,    2.846295
3292.431301,    2.863426
3294.254611,    2.880674
3296.095281,    2.898107
3297.925454,    2.915460
3299.766295,    2.932936
3301.597446,    2.950340
3303.438861,    2.967861
3305.289616,    2.985492
3307.146645,    3.003204
3309.019026,    3.021083
3310.887434,    3.038944
3312.731949,    3.056597
3314.600649,    3.074502
3316.466430,    3.092400
3318.346211,    3.110452
3320.237034,    3.128632
3322.109861,    3.146658
3323.994295,    3.164817
3325.889043,    3.183096
3327.781595,    3.201374
3329.700331,    3.219926
3331.600635,    3.238320
3333.500876,    3.256735
3335.420113,    3.275353
3337.327173,    3.293875
3339.240048,    3.312473
3341.139730,    3.330963
3343.051078,    3.349587
3344.963995,    3.368247
3346.885643,    3.387012
3348.820767,    3.405929
3350.745775,    3.424767
3352.686959,    3.443784
3354.603012,    3.462575
3356.528096,    3.481474
3358.492832,    3.500784
3360.442831,    3.519969
3362.387970,    3.539126
3364.360263,    3.558571
3366.315655,    3.577870
3368.285608,    3.597333
3370.266521,    3.616925
3372.239699,    3.636460
3374.198643,    3.655875
3376.197916,    3.675709
3378.174825,    3.695343
3380.142206,    3.714901
3382.119297,    3.734576
3384.112691,    3.754433
3386.096415,    3.774214
3388.082682,    3.794040
3390.069027,    3.813886
3392.069418,    3.833893
3394.052031,    3.853742
3396.059065,    3.873855
3398.064824,    3.893975
3400.076317,    3.914172
3402.080159,    3.934312
3404.104856,    3.954681
3406.106249,    3.974836
3408.121300,    3.995147
3410.138968,    4.015505
3412.155264,    4.035868
3414.192841,    4.056465
3416.242318,    4.077202
3418.284041,    4.097881
3420.337146,    4.118694
3422.370310,    4.139325
3424.428263,    4.160227
3426.474693,    4.181031
3428.522177,    4.201865
3430.583555,    4.222859
3432.636737,    4.243790
3434.691409,    4.264754
3436.752335,    4.285802
3438.798176,    4.306714
3440.863595,    4.327845
3442.926301,    4.348967
3444.985002,    4.370067
3447.072013,    4.391476
3449.156307,    4.412876
3451.234774,    4.434235
3453.333852,    4.455824
3455.406112,    4.477157
3457.496279,    4.498692
3459.587240,    4.520254
3461.692500,    4.541982
3463.783547,    4.563582
3465.878107,    4.585236
3467.976884,    4.606952
3470.083798,    4.628771
3472.213426,    4.650843
3474.342112,    4.672924
3476.447421,    4.694781
3478.548375,    4.716610
3480.639137,    4.738351
3482.749495,    4.760313
3484.861714,    4.782313
3486.982420,    4.804418
3489.087778,    4.826381
3491.198645,    4.848419
3493.365272,    4.871057
3495.492002,    4.893296
3497.620671,    4.915572
3499.742684,    4.937796
3501.843323,    4.959813
3503.985048,    4.982277
3506.132395,    5.004818
3508.261823,    5.027188
3510.390436,    5.049565
3512.513455,    5.071901
3514.651458,    5.094410
3516.795001,    5.116995
3518.934556,    5.139554
3521.083114,    5.162225
3523.238875,    5.184988
3525.392920,    5.207749
3527.551713,    5.230577
3529.707244,    5.253386
3531.905682,    5.276667
3534.074983,    5.299654
3536.235993,    5.322571
3538.408309,    5.345623
3540.576812,    5.368650
3542.752240,    5.391767
3544.928152,    5.414904
3547.091890,    5.437928
3549.267380,    5.461092
3551.450147,    5.484350
3553.639640,    5.507694
3555.836959,    5.531138
3558.041858,    5.554677
3560.239168,    5.578151
3562.433565,    5.601609
3564.627198,    5.625074
3566.814273,    5.648484
3568.998617,    5.671879
3571.213178,    5.695613
3573.411288,    5.719185
3575.622068,    5.742907
3577.834719,    5.766664
3580.041345,    5.790371
3582.260869,    5.814231
3584.467607,    5.837968
3586.668004,    5.861651
3588.860160,    5.885259
3591.081375,    5.909193
3593.295965,    5.933070
3595.523121,    5.957097
3597.751594,    5.981151
3599.968563,    6.005095
3602.198440,    6.029192
3604.425159,    6.053269
3606.645292,    6.077287
3608.872265,    6.101392
3611.086817,    6.125376
3613.324075,    6.149619
3615.566272,    6.173929
3617.814691,    6.198319
3620.066078,    6.222754
3622.304082,    6.247057
3624.553286,    6.271494
3626.801628,    6.295934
3628.265805,    6.311857
