Ground Distance, Angles
   0.000000,    0.000000
   0.000001,    0.000000
   0.000022,    0.000000
   0.000269,    0.000000
   0.001546,    0.000000
   0.008568,    0.000000
   0.025861,    0.000000
   0.052564,    0.000000
   0.088636,    0.000000
   0.134260,    0.000000
   0.189567,    0.000000
   0.254546,    0.000000
   0.329154,    0.000000
   0.413194,    0.000000
   0.507589,    0.000000
   0.612937,    0.000000
   0.728495,    0.000000
   0.855500,    0.000000
   0.992684,    0.000000
   1.141479,    0.000000
   1.301537,    0.000000
   1.473335,    0.000000
   1.657281,    0.000000
   1.856357,    0.000000
   2.064703,    0.000000
   2.284095,    0.000000
   2.519148,    0.000000
   2.764670,    0.000000
   3.025114,    0.000000
   3.302165,    0.000000
   3.594172,    0.000000
   3.901938,    0.000000
   4.223707,    0.000000
   4.559049,    0.000000
   4.906882,    0.000000
   5.272356,    0.000000
   5.658541,    0.000000
   6.056934,    0.000000
   6.471883,    0.000000
   6.914256,    0.000000
   7.365086,    0.000000
   7.844327,    0.000000
   8.339092,    0.000000
   8.847488,    0.000000
   9.384387,    0.000000
   9.940316,    0.000000
  10.520586,    0.000000
  11.118386,    0.000000
  11.730878,    0.000000
  12.372581,    0.000000
  13.033546,    0.000000
  13.713755,    0.000000
  14.415991,    0.000000
  15.134796,    0.000000
  15.881504,    0.000000
  16.651854,    0.000000
  17.454734,    0.000000
  18.270663,    0.000000
  19.120896,    0.000000
  20.005401,    0.000000
  20.896828,    0.000000
  21.831988,    0.000000
  22.782725,    0.000000
  23.761666,    0.000000
  24.782155,    0.000000
  25.821214,    0.000000
  26.888161,    0.000000
  27.977529,    0.000000
  29.101494,    0.000000
  30.257344,    0.000000
  31.455474,    0.000000
  32.675265,    0.000000
  33.922279,    0.000000
  35.206782,    0.000000
  36.525429,    0.000000
  37.871281,    0.000000
  39.245326,    0.000000
  40.668389,    0.000000
  42.108591,    0.000000
  43.587833,    0.000000
  45.102566,    0.000000
  46.646903,    0.000000
  48.222500,    0.000000
  49.859166,    0.000000
  51.506035,    0.000000
  53.200157,    0.000000
  54.948154,    0.000000
  56.724014,    0.000000
  58.542927,    0.000000
  60.382809,    0.000000
  62.296748,    0.000000
  64.221366,    0.000000
  66.185778,    0.000000
  68.186983,    0.000000
  70.214108,    0.000000
  72.307794,    0.000000
  74.437013,    0.000000
  76.609570,    0.000000
  78.816847,    0.000000
  81.065995,    0.000000
  81.523823,    0.000000
  81.752331,    0.000000
  81.890141,    0.000000
  81.979757,    0.000000
  82.288379,    0.000000
  82.290218,    0.000000
  82.293266,    0.000000
  82.294563,    0.000000
  82.294931,    0.000000
  82.295104,    0.000000
  82.295280,    0.000000
  82.297037,    0.000000
  82.311917,    0.000000
  82.403383,    0.000000
  82.742660,    0.000000
  83.750408,    0.000000
  85.765766,    0.000000
  87.880349,    0.000000
  90.049472,    0.000000
  92.241110,    0.000000
  94.472934,    0.000000
  96.738497,    0.000000
  99.038907,    0.000000
 101.372310,    0.000000
 103.759468,    0.000000
 106.184136,    0.000000
 108.669010,    0.000000
 111.180834,    0.000000
 113.727822,    0.000000
 116.315732,    0.000000
 118.941353,    0.000000
 121.594479,    0.000000
 124.303954,    0.000000
 127.055404,    0.000000
 129.818370,    0.000000
 132.652319,    0.000000
 135.502317,    0.000000
 138.399958,    0.000000
 141.328085,    0.000000
 144.323802,    0.000000
 147.354415,    0.000000
 150.420513,    0.000000
 153.533701,    0.000000
 156.688149,    0.000000
 159.869704,    0.000000
 163.108979,    0.000000
 166.387815,    0.000000
 169.716474,    0.000000
 173.096650,    0.000000
 176.510832,    0.000000
 179.991805,    0.000000
 183.532600,    0.000000
 187.090616,    0.000000
 190.684141,    0.000000
 194.356124,    0.000000
 198.062317,    0.000000
 201.829259,    0.000000
 205.639115,    0.000000
 209.462352,    0.000000
 213.366553,    0.000000
 217.297304,    0.000000
 221.309155,    0.000000
 225.342035,    0.000000
 229.449810,    0.000000
 233.586588,    0.000000
 237.773418,    0.000000
 242.015797,    0.000000
 246.313696,    0.000000
 250.667623,    0.000000
 255.034014,    0.000000
 259.483373,    0.000000
 263.953234,    0.000000
 268.483789,    0.000000
 273.079864,    0.000000
 277.722250,    0.000000
 282.401820,    0.000000
 287.170539,    0.000000
 292.003009,    0.000000
 296.873854,    0.000000
 301.781817,    0.000000
 306.728806,    0.000000
 311.775603,    0.000000
 316.881327,    0.000000
 322.010292,    0.000000
 327.195141,    0.000000
 332.428907,    0.000000
 337.733883,    0.000000
 338.798812,    0.000000
 339.429380,    0.000000
 339.793002,    0.000000
 340.127613,    0.000000
 340.389217,    0.000000
 340.602746,    0.000000
 340.757250,    0.000000
 340.907402,    0.000000
 341.078768,    0.000000
 341.109825,    0.000000
 341.117717,    0.000000
 341.119563,    0.000000
 341.120548,    0.000000
 341.120982,    0.000000
 341.121506,    0.000000
 341.126748,    0.000000
 341.179168,    0.000000
 341.551583,    0.000000
 342.888562,    0.000000
 347.509362,    0.000000
 352.360722,    0.000000
 357.245043,    0.000000
 362.195167,    0.000000
 367.169723,    0.000000
 372.191739,    0.000000
 377.233110,    0.000000
 382.370418,    0.000000
 387.540271,    0.000000
 392.746985,    0.000000
 397.983687,    0.000000
 403.294958,    0.000000
 408.632681,    0.000000
 414.019632,    0.000000
 419.476226,    0.000000
 424.964014,    0.000000
 430.501911,    0.000000
 436.084350,    0.000000
 441.700069,    0.000000
 447.374846,    0.000000
 453.121995,    0.000000
 458.929855,    0.000000
 464.751711,    0.000000
 470.640873,    0.000000
 476.577751,    0.000000
 482.560927,    0.000000
 488.584817,    0.000000
 494.658612,    0.000000
 500.801416,    0.000000
 506.989869,    0.000000
 513.245823,    0.000000
 519.532068,    0.000000
 525.854295,    0.000000
 532.247322,    0.000000
 538.711834,    0.000000
 545.202425,    0.000000
 551.769230,    0.000000
 558.361466,    0.000000
 565.019589,    0.000000
 571.736462,    0.000000
 578.489367,    0.000000
 585.288218,    0.000000
 592.121504,    0.000000
 599.048383,    0.000000
 606.001993,    0.000000
 613.016788,    0.000000
 620.075486,    0.000000
 627.200938,    0.000000
 634.366026,    0.000000
 641.594396,    0.000000
 648.902659,    0.000000
 656.261662,    0.000000
 663.678577,    0.000000
 671.134632,    0.000000
 678.667845,    0.000000
 686.221305,    0.000000
 693.850830,    0.000000
 701.525176,    0.000000
 709.266697,    0.000000
 717.076192,    0.000000
 724.915951,    0.000000
 732.855346,    0.000000
 740.822625,    0.000000
 748.841274,    0.000000
 756.937612,    0.000000
 765.081381,    0.000000
 773.288737,    0.000000
 781.572988,    0.000000
 789.887260,    0.000000
 798.252951,    0.000000
 799.931507,    0.000000
 801.052919,    0.000000
 804.574996,    0.000000
 804.644271,    0.000000
 804.661729,    0.000000
 804.689703,    0.000000
 804.693503,    0.000000
 804.695667,    0.000000
 804.697021,    0.000000
 804.698265,    0.000000
 804.710704,    0.000000
 804.819537,    0.000000
 805.412610,    0.000000
 808.390296,    0.000000
 815.755773,    0.000000
 823.198659,    0.000000
 830.690559,    0.000000
 838.221195,    0.000000
 845.788810,    0.000000
 853.386272,    0.000000
 861.039621,    0.000000
 868.741994,    0.000000
 876.485137,    0.000000
 884.276542,    0.000000
 892.126942,    0.000000
 900.025367,    0.000000
 907.986891,    0.000000
 915.999041,    0.000000
 924.015597,    0.000000
 932.116424,    0.000000
 940.248941,    0.000000
 948.422568,    0.000000
 956.669505,    0.000000
 964.956937,    0.000000
 973.252676,    0.000000
 981.602575,    0.000000
 990.018928,    0.000000
 998.500415,    0.000000
1007.030168,    0.000000
1015.607553,    0.000000
1024.200615,    0.000000
1032.859135,    0.000000
1041.555800,    0.000000
1050.303704,    0.000000
1059.113780,    0.000000
1067.979729,    0.000000
1076.872243,    0.000000
1085.837976,    0.000000
1094.830943,    0.000000
1103.900330,    0.000000
1113.019149,    0.000000
1122.156321,    0.000000
1131.379614,    0.000000
1140.629076,    0.000000
1149.909471,    0.000000
1159.235442,    0.000000
1168.622571,    0.000000
1178.062574,    0.000000
1187.549256,    0.000000
1197.101518,    0.000000
1206.689224,    0.000000
1216.342495,    0.000000
1226.034989,    0.000000
1235.800986,    0.000000
1245.563482,    0.000000
1255.398759,    0.000000
1265.302418,    0.000000
1275.247001,    0.000000
1285.250477,    0.000000
1295.298804,    0.000000
1305.429965,    0.000000
1315.565197,    0.000000
1325.745889,    0.000000
1336.010797,    0.000000
1346.319357,    0.000000
1356.680569,    0.000000
1367.100663,    0.000000
1377.565770,    0.000000
1388.081973,    0.000000
1398.661123,    0.000000
1409.268380,    0.000000
1419.956398,    0.000000
1430.677998,    0.000000
1441.465645,    0.000000
1452.319402,    0.000000
1463.210653,    0.000000
1474.135114,    0.000000
1485.133499,    0.000000
1496.167017,    0.000000
1507.281527,    0.000000
1518.428108,    0.000000
1520.670171,    0.000000
1522.282798,    0.000000
1523.391538,    0.000000
1524.418028,    0.000000
1525.276645,    0.000000
1525.435737,    0.000000
1525.617616,    0.000000
1525.656517,    0.000000
1525.695023,    0.000000
1525.708337,    0.000000
1525.713428,    0.000000
1525.719070,    0.000000
1525.775488,    0.000000
1526.239614,    0.000000
1528.752816,    0.000000
1538.092773,    0.000000
1549.302998,    0.000000
1560.609325,    0.000000
1571.977531,    0.000000
1583.346792,    0.000000
1594.792449,    0.000000
1606.298556,    0.000000
1617.875562,    0.000000
1629.508299,    0.000000
1641.158126,    0.000000
1652.892457,    0.000000
1664.688258,    0.000000
1676.493441,    0.000000
1688.351807,    0.000000
1700.283377,    0.000000
1712.260987,    0.000000
1724.299242,    0.000000
1736.396226,    0.000000
1748.551544,    0.000000
1760.739235,    0.000000
1773.005785,    0.000000
1785.326812,    0.000000
1797.677590,    0.000000
1810.099839,    0.000000
1822.578976,    0.000000
1835.106161,    0.000000
1847.698104,    0.000000
1860.357504,    0.000000
1873.056215,    0.000000
1885.823307,    0.000000
1898.648553,    0.000000
1911.507467,    0.000000
1924.433722,    0.000000
1937.443794,    0.000000
1950.485492,    0.000000
1963.583883,    0.000000
1976.724447,    0.000000
1989.945433,    0.000000
2003.200414,    0.000000
2016.507350,    0.000000
2029.878092,    0.000000
2043.299367,    0.000000
2056.767164,    0.000000
2070.299823,    0.000000
2083.936703,    0.000000
2097.592688,    0.000000
2111.289369,    0.000000
2125.048530,    0.000000
2138.859633,    0.000000
2152.775822,    0.000000
2166.696588,    0.000000
2180.704840,    0.000000
2181.652943,    0.000000
2194.761700,    0.000000
2208.865517,    0.000000
2223.040296,    0.000000
2237.262696,    0.000000
2251.604799,    0.000000
2265.994426,    0.000000
2280.425097,    0.000000
2294.937791,    0.000000
2309.518545,    0.000000
2324.130937,    0.000000
2338.840799,    0.000000
2353.592632,    0.000000
2368.384404,    0.000000
2383.265842,    0.000000
2398.145886,    0.000000
2413.085865,    0.000000
2428.076690,    0.000000
2443.169160,    0.000000
2458.275233,    0.000000
2473.412573,    0.000000
2488.603231,    0.000000
2503.828277,    0.000000
2519.088245,    0.000000
2534.397591,    0.000000
2549.724255,    0.000000
2565.115232,    0.000000
2580.521564,    0.000000
2583.613685,    0.000000
2586.478870,    0.000000
2587.542756,    0.001676
2588.607182,    0.003411
2588.820167,    0.003768
2589.433236,    0.004806
2589.442911,    0.004823
2589.456728,    0.004847
2589.459692,    0.004852
2589.460758,    0.004854
2589.461977,    0.004856
2589.470087,    0.004870
2589.512005,    0.004942
2589.677446,    0.005227
2590.122070,    0.005999
2590.847414,    0.007277
2591.910109,    0.009191
2592.974237,    0.011166
2594.039253,    0.013202
2595.106842,    0.015301
2596.175187,    0.017460
2597.244065,    0.019679
2598.313370,    0.021958
2599.383945,    0.024298
2600.450152,    0.026688
2601.516786,    0.029136
2602.587634,    0.031653
2603.660124,    0.034232
2604.734454,    0.036875
2605.809519,    0.039579
2606.884317,    0.042341
2607.961310,    0.045167
2609.038710,    0.048054
2610.114954,    0.050996
2611.194181,    0.054006
2612.274423,    0.057078
2613.355698,    0.060212
2614.438000,    0.063408
2615.517900,    0.066656
2616.600904,    0.069973
2617.680917,    0.073339
2618.766463,    0.076782
2619.853706,    0.080290
2620.941833,    0.083861
2622.024215,    0.087471
2623.114186,    0.091166
2624.203856,    0.094920
2625.291412,    0.098726
2626.384041,    0.102609
2627.477033,    0.106553
2628.570084,    0.110558
2629.664992,    0.114628
2630.761945,    0.118766
2631.859679,    0.122968
2632.955820,    0.127222
2634.053842,    0.131544
2635.151939,    0.135927
2636.248656,    0.140363
2637.345006,    0.144857
2638.449512,    0.149445
2639.553199,    0.154090
2640.659571,    0.158806
2641.767258,    0.163589
2642.871290,    0.168416
2643.981534,    0.173330
2645.091495,    0.178304
2646.200989,    0.183336
2647.314373,    0.188447
2648.422246,    0.193592
2649.533292,    0.198813
2650.649617,    0.204119
2651.767072,    0.209491
2652.885922,    0.214931
2653.999400,    0.220406
2655.119898,    0.225976
2656.243093,    0.231620
2657.368085,    0.237335
2658.495206,    0.243123
2659.612706,    0.248922
2660.740709,    0.254836
2661.864577,    0.260790
2662.994159,    0.266836
2664.119904,    0.272922
2665.253433,    0.279113
2666.380316,    0.285328
2667.513151,    0.291638
2668.648842,    0.298025
2669.785771,    0.304481
2670.924692,    0.311011
2672.066780,    0.317621
2673.208991,    0.324294
2674.348750,    0.331015
2675.488910,    0.337800
2676.637451,    0.344698
2677.779239,    0.351617
2678.928200,    0.358643
2680.081511,    0.365758
2681.234555,    0.372934
2682.384002,    0.380151
2683.536843,    0.387451
2684.687016,    0.394798
2685.844104,    0.402251
2687.006218,    0.409801
2688.162450,    0.417375
2689.322401,    0.425037
2690.471231,    0.432688
2691.639227,    0.440529
2692.798909,    0.448378
2693.969532,    0.456319
2695.139155,    0.464271
2696.307599,    0.472232
2697.479913,    0.480237
2698.653108,    0.488265
2699.827129,    0.496316
2701.006249,    0.504421
2702.189669,    0.512572
2703.370685,    0.520725
2704.551306,    0.528892
2705.730915,    0.537070
2706.913598,    0.545287
2708.097652,    0.553531
2709.288848,    0.561842
2710.475426,    0.570139
2711.670766,    0.578515
2712.867044,    0.586916
2714.061737,    0.595323
2715.257172,    0.603753
2716.451233,    0.612191
2717.650720,    0.620685
2718.851873,    0.629209
2720.048302,    0.637718
2721.251453,    0.646291
2722.456478,    0.654896
2723.658920,    0.663501
2724.865112,    0.672150
2726.071634,    0.680819
2727.282434,    0.689537
2728.494954,    0.698285
2729.711175,    0.707078
2730.925004,    0.715872
2732.143378,    0.724716
2733.360951,    0.733573
2734.579475,    0.742454
2735.805297,    0.751407
2737.031301,    0.760380
2738.256284,    0.769363
2739.481992,    0.778369
2740.706340,    0.787383
2741.936910,    0.796462
2743.161281,    0.805512
2744.392181,    0.814629
2745.627118,    0.823794
2746.862925,    0.832983
2748.109376,    0.842270
2749.354077,    0.851562
2750.596973,    0.860860
2751.840957,    0.870183
2753.086744,    0.879538
2754.334182,    0.888924
2755.590859,    0.898398
2756.847463,    0.907890
2758.101029,    0.917378
2759.357313,    0.926904
2760.612030,    0.936437
2761.872848,    0.946035
2763.133600,    0.955651
2764.404849,    0.965365
2765.676639,    0.975103
2766.948180,    0.984857
2768.216423,    0.994604
2769.493283,    1.004436
2770.772485,    1.014306
2772.047382,    1.024160
2773.321949,    1.034031
2774.603829,    1.043977
2775.895984,    1.054021
2777.185172,    1.064062
2778.473613,    1.074116
2779.764449,    1.084207
2781.061890,    1.094368
2782.359748,    1.104553
2783.658583,    1.114763
2784.957500,    1.124994
2786.252323,    1.135211
2787.559237,    1.145542
2788.870258,    1.155925
2790.186092,    1.166366
2791.143519,    1.173975
2791.494592,    1.176767
2792.810204,    1.187245
2794.130426,    1.197778
2795.449490,    1.208321
2796.772223,    1.218913
2798.095569,    1.229529
2799.419086,    1.240166
2800.737067,    1.250777
2802.068260,    1.261515
2803.392321,    1.272214
2804.727567,    1.283022
2806.065548,    1.293873
2807.405699,    1.304760
2808.743394,    1.315647
2810.079748,    1.326542
2811.414392,    1.337443
2812.762850,    1.348476
2814.111401,    1.359529
2815.463332,    1.370630
2816.818093,    1.381774
2818.178646,    1.392985
2819.536894,    1.404197
2820.896876,    1.415443
2822.257389,    1.426712
2823.618998,    1.438011
2824.983303,    1.449352
2826.351809,    1.460747
2827.725050,    1.472202
2829.102759,    1.483714
2830.485108,    1.495285
2831.871528,    1.506910
2833.255418,    1.518533
2834.639984,    1.530183
2836.035624,    1.541946
2837.426560,    1.553689
2838.826488,    1.565528
2840.224911,    1.577376
2841.621685,    1.589229
2843.032407,    1.601221
2844.441820,    1.613222
2845.850995,    1.625242
2847.263469,    1.637310
2848.674883,    1.649389
2850.094243,    1.661557
2851.510666,    1.673721
2852.941394,    1.686027
2854.372855,    1.698361
2855.796694,    1.710650
2857.232431,    1.723062
2858.658336,    1.735409
2860.094813,    1.747869
2861.528821,    1.760328
2862.966558,    1.772840
2864.405216,    1.785381
2865.857392,    1.798060
2867.312447,    1.810785
2868.768018,    1.823536
2870.225920,    1.836328
2871.685103,    1.849153
2873.145828,    1.862012
2874.621673,    1.875025
2876.095150,    1.888039
2877.566735,    1.901057
2879.042280,    1.914131
2880.520228,    1.927248
2881.998751,    1.940391
2883.490673,    1.953675
2884.973431,    1.966898
2886.463783,    1.980211
2887.943635,    1.993451
2889.440312,    2.006862
2890.942123,    2.020341
2892.435548,    2.033766
2893.940132,    2.047313
2895.454220,    2.060967
2896.963377,    2.074599
2898.481809,    2.088335
2899.996883,    2.102063
2901.507585,    2.115773
2903.032670,    2.129635
2904.562189,    2.143559
2906.094992,    2.157535
2907.629513,    2.171549
2909.168656,    2.185627
2910.709328,    2.199740
2912.246957,    2.213848
2913.792231,    2.228047
2915.342168,    2.242312
2916.893362,    2.256610
2918.448972,    2.270971
2920.004993,    2.285358
2921.567838,    2.299830
2923.137692,    2.314389
2924.712722,    2.329018
2926.284838,    2.343643
2927.853044,    2.358254
2929.436779,    2.373031
2931.019184,    2.387819
2932.611837,    2.402725
2934.198097,    2.417593
2935.797892,    2.432611
2937.391567,    2.447595
2938.988911,    2.462635
2940.596970,    2.477798
2942.200449,    2.492941
2943.809290,    2.508158
2945.421994,    2.523433
2947.030175,    2.538689
2948.652147,    2.554098
2950.274256,    2.569531
2951.905092,    2.585069
2953.527873,    2.600554
2955.153837,    2.616092
2956.788712,    2.631738
2958.429637,    2.647465
2960.066242,    2.663173
2961.706581,    2.678940
2963.358207,    2.694839
2965.005636,    2.710719
2966.659930,    2.726690
2968.323228,    2.742770
2969.978922,    2.758800
2971.652559,    2.775026
2973.312738,    2.791145
2974.987135,    2.807426
2976.669300,    2.823805
2978.347555,    2.840170
2980.031994,    2.856618
2981.704931,    2.872977
2983.395417,    2.889531
2985.080067,    2.906050
2986.782734,    2.922770
2988.485065,    2.939510
2990.193999,    2.956339
2991.895081,    2.973113
2993.599851,    2.989948
2995.306158,    3.006820
2997.021561,    3.023807
2998.735351,    3.040800
3000.457889,    3.057904
3002.177261,    3.075000
3003.896279,    3.092115
3005.620423,    3.109305
3007.358866,    3.126661
3009.089486,    3.143963
3010.835324,    3.161440
3012.568932,    3.178818
3014.306933,    3.196263
3016.073101,    3.214016
3017.817554,    3.231573
3019.579994,    3.249335
3021.327968,    3.266975
3023.095916,    3.284840
3024.866110,    3.302752
3026.640251,    3.320727
3028.416958,    3.338752
3030.190127,    3.356765
3031.980688,    3.374978
3033.773339,    3.393237
3035.555597,    3.411413
3037.351414,    3.429752
3039.154630,    3.448190
3040.942893,    3.466499
3042.750896,    3.485034
3044.564845,    3.503654
3046.370037,    3.522207
3048.180139,    3.540835
3049.993491,    3.559521
3051.818776,    3.578353
3053.636494,    3.597131
3055.462948,    3.616023
3057.304653,    3.635097
3059.146818,    3.654200
3060.978678,    3.673220
3062.809854,    3.692256
3064.664235,    3.711558
3066.508166,    3.730775
3068.350206,    3.749996
3070.204900,    3.769373
3072.079462,    3.788982
3073.924538,    3.808306
3075.793240,    3.827901
3077.657876,    3.847478
3079.527387,    3.867130
3081.402972,    3.886869
3083.279518,    3.906643
3085.171008,    3.926598
3087.053299,    3.946480
3088.942166,    3.966456
3090.841384,    3.986564
3092.749463,    4.006791
3094.643842,    4.026897
3096.540923,    4.047055
3098.436741,    4.067224
3100.350570,    4.087608
3102.242679,    4.107784
3104.174394,    4.128406
3106.097723,    4.148964
3108.003643,    4.169358
3109.927578,    4.189969
3111.859264,    4.210687
3113.784492,    4.231360
3115.718072,    4.252146
3117.624970,    4.272668
3119.545644,    4.293362
3121.476673,    4.314190
3123.424130,    4.335220
3125.369363,    4.356249
3127.325253,    4.377417
3129.289886,    4.398703
3131.243962,    4.419899
3133.188647,    4.441016
3135.135673,    4.462181
3137.093398,    4.483487
3139.052313,    4.504828
3141.035746,    4.526460
3143.007322,    4.547986
3144.978074,    4.569526
3146.956213,    4.591171
3148.944047,    4.612945
3150.937835,    4.634807
3152.919678,    4.656562
3154.909000,    4.678421
3156.899890,    4.700322
3158.884191,    4.722172
3160.854001,    4.743886
3162.848868,    4.765898
3164.861571,    4.788131
3166.847377,    4.810088
3168.857455,    4.832338
3170.873353,    4.854674
3172.889773,    4.877039
3174.907344,    4.899440
3176.922742,    4.921839
3178.928468,    4.944153
3180.958708,    4.966762
3182.957914,    4.989048
3185.000805,    5.011844
3187.010514,    5.034291
3189.046679,    5.057056
3191.068654,    5.079685
3193.095128,    5.102386
3195.122767,    5.125122
3197.158221,    5.147968
3199.203907,    5.170951
3201.249705,    5.193956
3203.276108,    5.216766
3205.331303,    5.239921
3207.397563,    5.263224
3209.451028,    5.286403
3211.521286,    5.309795
3213.581361,    5.333093
3215.652868,    5.356542
3217.724891,    5.380018
3219.779139,    5.403315
3221.840530,    5.426714
3223.906086,    5.450181
3225.948383,    5.473405
3228.037941,    5.497188
3230.120264,    5.520909
3232.185664,    5.544459
3234.255008,    5.568075
3236.352222,    5.592030
3238.446061,    5.615967
3240.547311,    5.640010
3242.629359,    5.663854
3244.710865,    5.687713
3246.805954,    5.711747
3248.911609,    5.735924
3251.007498,    5.760009
3253.126930,    5.784385
3255.249589,    5.808819
3257.360061,    5.833133
3259.488280,    5.857672
3261.610961,    5.882168
3263.699501,    5.906290
3265.807205,    5.930653
3267.923065,    5.955129
3270.051381,    5.979770
3272.166240,    6.004275
3274.291456,    6.028920
3276.403218,    6.053428
3278.533670,    6.078173
3280.655466,    6.102836
3282.817733,    6.127990
3284.946099,    6.152768
3287.077689,    6.177604
3289.234850,    6.202756
3291.384276,    6.227838
3293.516310,    6.252736
3295.662601,    6.277819
3297.798672,    6.302801
3299.934847,    6.327804
3302.088706,    6.353032
3304.213334,    6.377935
3306.381087,    6.403363
3308.524558,    6.428524
3310.696084,    6.454034
3312.710029,    6.477708
