Ground Distance, Angles
   0.000000,    0.000000
   0.000002,    0.000000
   0.000021,    0.000000
   0.000167,    0.000000
   0.000832,    0.000000
   0.003075,    0.000000
   0.011791,    0.000000
   0.028774,    0.000000
   0.053198,    0.000000
   0.085255,    0.000000
   0.124845,    0.000000
   0.171903,    0.000000
   0.226755,    0.000000
   0.289028,    0.000000
   0.359398,    0.000000
   0.437811,    0.000000
   0.524423,    0.000000
   0.619232,    0.000000
   0.722371,    0.000000
   0.833839,    0.000000
   0.953942,    0.000000
   1.082132,    0.000000
   1.220252,    0.000000
   1.367225,    0.000000
   1.522745,    0.000000
   1.688425,    0.000000
   1.863558,    0.000000
   2.046480,    0.000000
   2.242105,    0.000000
   2.447805,    0.000000
   2.662385,    0.000000
   2.886956,    0.000000
   3.126552,    0.000000
   3.374872,    0.000000
   3.635810,    0.000000
   3.905851,    0.000000
   4.187431,    0.000000
   4.482618,    0.000000
   4.791284,    0.000000
   5.111252,    0.000000
   5.442467,    0.000000
   5.792550,    0.000000
   6.155108,    0.000000
   6.532414,    0.000000
   6.918299,    0.000000
   7.323207,    0.000000
   7.737846,    0.000000
   8.174068,    0.000000
   8.619445,    0.000000
   9.076176,    0.000000
   9.550516,    0.000000
  10.044155,    0.000000
  10.545257,    0.000000
  11.068211,    0.000000
  11.604710,    0.000000
  12.164877,    0.000000
  12.735861,    0.000000
  13.323140,    0.000000
  13.933027,    0.000000
  14.556896,    0.000000
  15.209222,    0.000000
  15.876297,    0.000000
  16.558216,    0.000000
  17.264632,    0.000000
  17.977769,    0.000000
  18.714386,    0.000000
  19.464158,    0.000000
  20.250018,    0.000000
  21.055340,    0.000000
  21.865678,    0.000000
  22.700712,    0.000000
  23.563932,    0.000000
  24.446642,    0.000000
  25.356909,    0.000000
  26.285652,    0.000000
  27.231636,    0.000000
  28.199714,    0.000000
  29.193561,    0.000000
  30.211441,    0.000000
  31.249147,    0.000000
  32.306815,    0.000000
  33.393242,    0.000000
  34.505529,    0.000000
  35.642326,    0.000000
  36.795892,    0.000000
  37.984578,    0.000000
  39.196388,    0.000000
  40.430063,    0.000000
  41.688099,    0.000000
  42.984696,    0.000000
  44.286224,    0.000000
  45.621528,    0.000000
  46.989619,    0.000000
  48.382469,    0.000000
  49.802347,    0.000000
  51.233368,    0.000000
  52.708092,    0.000000
  54.204984,    0.000000
  55.740400,    0.000000
  57.306714,    0.000000
  58.884920,    0.000000
  60.506015,    0.000000
  62.151091,    0.000000
  63.830063,    0.000000
  65.522607,    0.000000
  67.267707,    0.000000
  69.028671,    0.000000
  70.839811,    0.000000
  72.685896,    0.000000
  74.547492,    0.000000
  76.425792,    0.000000
  78.344367,    0.000000
  80.282496,    0.000000
  82.283674,    0.000000
  82.364220,    0.000000
  82.382520,    0.000000
  82.386573,    0.000000
  82.392305,    0.000000
  82.394305,    0.000000
  82.398170,    0.000000
  82.399725,    0.000000
  82.399897,    0.000000
  82.400052,    0.000000
  82.401598,    0.000000
  82.417063,    0.000000
  82.500111,    0.000000
  82.811597,    0.000000
  83.808850,    0.000000
  85.704999,    0.000000
  87.601794,    0.000000
  89.518394,    0.000000
  91.465491,    0.000000
  93.436872,    0.000000
  95.431393,    0.000000
  97.472361,    0.000000
  99.538049,    0.000000
 101.632266,    0.000000
 103.755118,    0.000000
 105.908914,    0.000000
 108.093096,    0.000000
 110.316443,    0.000000
 112.575904,    0.000000
 114.859101,    0.000000
 117.152850,    0.000000
 119.481677,    0.000000
 121.839955,    0.000000
 124.238118,    0.000000
 126.674755,    0.000000
 129.156656,    0.000000
 131.640597,    0.000000
 134.164906,    0.000000
 136.725987,    0.000000
 139.317875,    0.000000
 141.940015,    0.000000
 144.588257,    0.000000
 147.265928,    0.000000
 149.984507,    0.000000
 152.739690,    0.000000
 155.526149,    0.000000
 158.351258,    0.000000
 161.173061,    0.000000
 164.049516,    0.000000
 166.966740,    0.000000
 169.914189,    0.000000
 172.901538,    0.000000
 175.919509,    0.000000
 178.963302,    0.000000
 182.048209,    0.000000
 185.166042,    0.000000
 188.347880,    0.000000
 191.554350,    0.000000
 194.784680,    0.000000
 198.050896,    0.000000
 201.375619,    0.000000
 204.689018,    0.000000
 208.082367,    0.000000
 211.492896,    0.000000
 214.940927,    0.000000
 218.428859,    0.000000
 221.952588,    0.000000
 225.506942,    0.000000
 229.089745,    0.000000
 232.699811,    0.000000
 236.355511,    0.000000
 240.052167,    0.000000
 243.788624,    0.000000
 247.596378,    0.000000
 251.423370,    0.000000
 255.279336,    0.000000
 259.177338,    0.000000
 263.115219,    0.000000
 267.096126,    0.000000
 271.105754,    0.000000
 275.166246,    0.000000
 279.252598,    0.000000
 283.377522,    0.000000
 287.541266,    0.000000
 291.736530,    0.000000
 295.970670,    0.000000
 300.272023,    0.000000
 304.606341,    0.000000
 308.982325,    0.000000
 313.401013,    0.000000
 317.883118,    0.000000
 322.370443,    0.000000
 326.895019,    0.000000
 331.475769,    0.000000
 336.087186,    0.000000
 340.752261,    0.000000
 341.690350,    0.000000
 342.326424,    0.000000
 342.834251,    0.000000
 342.909881,    0.000000
 342.927908,    0.000000
 342.933475,    0.000000
 342.936056,    0.000000
 342.936625,    0.000000
 342.937218,    0.000000
 342.943146,    0.000000
 342.996504,    0.000000
 343.306073,    0.000000
 344.412412,    0.000000
 348.194436,    0.000000
 352.522518,    0.000000
 356.896392,    0.000000
 361.308313,    0.000000
 365.766363,    0.000000
 370.267647,    0.000000
 374.778538,    0.000000
 379.353960,    0.000000
 383.941271,    0.000000
 388.548353,    0.000000
 393.207588,    0.000000
 397.903065,    0.000000
 402.639881,    0.000000
 407.399068,    0.000000
 412.221579,    0.000000
 417.072898,    0.000000
 421.937454,    0.000000
 426.841381,    0.000000
 431.800108,    0.000000
 436.794276,    0.000000
 441.806899,    0.000000
 446.862677,    0.000000
 451.974992,    0.000000
 457.110376,    0.000000
 462.278897,    0.000000
 467.502392,    0.000000
 472.768856,    0.000000
 478.053447,    0.000000
 483.376024,    0.000000
 488.720802,    0.000000
 494.131934,    0.000000
 499.569809,    0.000000
 505.031027,    0.000000
 510.548198,    0.000000
 516.110796,    0.000000
 521.732936,    0.000000
 527.371032,    0.000000
 533.042382,    0.000000
 538.751213,    0.000000
 544.505050,    0.000000
 550.297615,    0.000000
 556.115933,    0.000000
 561.973343,    0.000000
 567.888696,    0.000000
 573.837780,    0.000000
 579.844532,    0.000000
 585.883966,    0.000000
 591.949428,    0.000000
 598.072678,    0.000000
 604.225883,    0.000000
 610.408575,    0.000000
 616.644321,    0.000000
 622.915371,    0.000000
 629.226858,    0.000000
 635.574948,    0.000000
 641.964139,    0.000000
 648.397600,    0.000000
 654.857257,    0.000000
 661.347064,    0.000000
 667.899211,    0.000000
 674.514125,    0.000000
 681.182892,    0.000000
 687.900080,    0.000000
 694.627289,    0.000000
 701.380297,    0.000000
 708.178473,    0.000000
 714.996028,    0.000000
 721.873057,    0.000000
 728.809736,    0.000000
 735.793922,    0.000000
 742.807962,    0.000000
 749.857801,    0.000000
 756.949169,    0.000000
 764.097458,    0.000000
 771.308444,    0.000000
 778.553708,    0.000000
 785.803439,    0.000000
 793.129434,    0.000000
 800.488954,    0.000000
 807.883684,    0.000000
 809.370929,    0.000000
 815.018655,    0.000000
 815.078148,    0.000000
 815.095169,    0.000000
 815.122700,    0.000000
 815.131617,    0.000000
 815.149449,    0.000000
 815.151760,    0.000000
 815.152979,    0.000000
 815.154148,    0.000000
 815.155211,    0.000000
 815.165847,    0.000000
 815.271338,    0.000000
 816.008823,    0.000000
 819.307960,    0.000000
 825.852033,    0.000000
 832.610186,    0.000000
 839.389160,    0.000000
 846.215523,    0.000000
 853.078094,    0.000000
 859.966829,    0.000000
 866.881207,    0.000000
 873.843434,    0.000000
 880.837696,    0.000000
 887.858937,    0.000000
 894.943703,    0.000000
 902.038714,    0.000000
 909.160625,    0.000000
 916.327426,    0.000000
 923.525699,    0.000000
 930.779614,    0.000000
 938.066272,    0.000000
 945.376390,    0.000000
 952.735269,    0.000000
 960.117392,    0.000000
 967.542523,    0.000000
 975.011305,    0.000000
 982.498153,    0.000000
 990.042408,    0.000000
 997.598190,    0.000000
1005.215235,    0.000000
1012.861879,    0.000000
1020.555672,    0.000000
1028.281929,    0.000000
1036.038449,    0.000000
1043.828776,    0.000000
1051.659981,    0.000000
1059.525807,    0.000000
1067.429215,    0.000000
1075.347878,    0.000000
1083.326570,    0.000000
1091.318343,    0.000000
1099.373244,    0.000000
1107.464963,    0.000000
1115.590092,    0.000000
1123.751443,    0.000000
1131.967263,    0.000000
1140.219043,    0.000000
1148.487455,    0.000000
1156.803997,    0.000000
1165.166043,    0.000000
1173.554258,    0.000000
1181.988333,    0.000000
1190.454226,    0.000000
1198.971656,    0.000000
1207.510171,    0.000000
1216.085987,    0.000000
1224.715728,    0.000000
1233.363034,    0.000000
1242.043076,    0.000000
1250.771925,    0.000000
1259.527479,    0.000000
1268.342607,    0.000000
1277.190888,    0.000000
1286.071741,    0.000000
1294.967402,    0.000000
1303.939513,    0.000000
1312.930728,    0.000000
1321.969565,    0.000000
1331.052530,    0.000000
1340.186788,    0.000000
1349.357041,    0.000000
1358.544029,    0.000000
1367.746378,    0.000000
1376.996500,    0.000000
1386.303725,    0.000000
1395.663641,    0.000000
1405.045137,    0.000000
1414.476222,    0.000000
1423.949596,    0.000000
1433.463460,    0.000000
1442.984234,    0.000000
1452.570266,    0.000000
1462.192651,    0.000000
1471.853557,    0.000000
1481.542862,    0.000000
1491.258219,    0.000000
1501.022059,    0.000000
1510.849849,    0.000000
1520.706102,    0.000000
1530.597748,    0.000000
1540.512260,    0.000000
1550.491088,    0.000000
1560.495236,    0.000000
1562.504417,    0.000000
1564.043094,    0.000000
1565.175679,    0.000000
1565.355282,    0.000000
1565.410007,    0.000000
1565.503798,    0.000000
1565.535280,    0.000000
1565.540718,    0.000000
1565.546350,    0.000000
1565.602674,    0.000000
1566.098973,    0.000000
1568.930175,    0.000000
1577.596519,    0.000000
1587.694788,    0.000000
1597.806009,    0.000000
1607.928398,    0.000000
1618.109930,    0.000000
1628.342851,    0.000000
1638.599880,    0.000000
1648.915589,    0.000000
1659.257306,    0.000000
1669.649991,    0.000000
1680.082010,    0.000000
1690.545587,    0.000000
1701.045476,    0.000000
1711.578944,    0.000000
1722.170694,    0.000000
1732.795902,    0.000000
1743.453085,    0.000000
1754.153178,    0.000000
1764.901754,    0.000000
1775.684089,    0.000000
1786.494166,    0.000000
1797.367155,    0.000000
1808.291926,    0.000000
1819.233216,    0.000000
1830.216962,    0.000000
1841.242369,    0.000000
1852.320146,    0.000000
1863.428537,    0.000000
1874.579106,    0.000000
1885.749459,    0.000000
1896.968434,    0.000000
1908.228076,    0.000000
1919.546691,    0.000000
1930.904397,    0.000000
1942.292135,    0.000000
1953.713791,    0.000000
1965.175680,    0.000000
1976.677338,    0.000000
1988.210307,    0.000000
1999.785142,    0.000000
2011.412691,    0.000000
2023.087369,    0.000000
2034.810418,    0.000000
2046.562159,    0.000000
2058.359652,    0.000000
2070.167709,    0.000000
2082.046240,    0.000000
2093.960627,    0.000000
2105.923960,    0.000000
2117.919156,    0.000000
2129.941762,    0.000000
2142.032714,    0.000000
2154.156989,    0.000000
2166.314450,    0.000000
2178.530503,    0.000000
2190.756974,    0.000000
2203.022393,    0.000000
2215.363777,    0.000000
2227.701506,    0.000000
2240.114398,    0.000000
2252.577468,    0.000000
2265.066299,    0.000000
2277.603191,    0.000000
2290.155525,    0.000000
2302.757473,    0.000000
2315.421835,    0.000000
2328.090197,    0.000000
2340.843127,    0.000000
2353.608184,    0.000000
2366.419929,    0.000000
2372.621155,    0.000000
2379.305410,    0.000000
2392.222960,    0.109731
2405.142786,    0.320515
2418.117522,    0.529105
2431.128888,    0.736370
2444.201772,    0.942022
2457.295897,    1.146461
2470.442943,    1.349065
2483.631167,    1.550337
2496.857699,    1.750101
2510.116802,    1.948325
2523.431822,    2.144932
2536.786590,    2.340280
2550.172698,    2.534134
2563.587043,    2.726384
2577.043371,    2.917000
2590.524621,    3.106189
2604.028595,    3.293723
2617.596617,    3.479586
2631.203945,    3.664359
2644.820311,    3.847707
2658.477183,    4.029236
2672.176656,    4.209383
2685.915065,    4.388185
2699.689361,    4.565601
2713.484454,    4.741602
2714.037645,    4.916008
2714.063978,    4.922935
2714.081420,    4.923264
2714.094314,    4.923482
2714.101904,    4.923644
2714.105124,    4.923739
2714.108322,    4.923779
2714.140297,    4.923819
2714.460061,    4.924219
2716.392408,    4.928221
2724.983738,    4.952396
2739.164868,    5.059669
2753.527378,    5.235508
2767.911562,    5.411674
2782.349781,    5.586186
2796.824939,    5.759448
2811.314618,    5.931264
2825.856947,    6.101381
2840.412219,    6.270262
2854.983880,    6.437457
2869.603538,    6.603025
2884.232979,    6.767340
2898.917163,    6.929984
2913.628173,    7.091471
2914.789066,    7.254808
2915.951905,    7.270678
2917.115888,    7.286618
2918.278234,    7.302613
2919.443401,    7.318645
2920.609898,    7.334759
2921.767956,    7.350906
2922.933494,    7.367033
2924.099772,    7.383289
2925.261888,    7.399585
2926.434095,    7.415917
2927.590039,    7.432348
2928.762597,    7.448709
2929.936294,    7.465297
2931.112514,    7.481953
2932.289121,    7.498685
2933.455329,    7.515430
2934.625407,    7.532124
2935.805701,    7.548945
2936.983307,    7.565910
2938.163499,    7.582904
2939.345783,    7.599980
2940.527715,    7.617125
2941.712770,    7.634325
2942.893383,    7.651587
2944.081742,    7.668881
2945.265809,    7.686286
2946.451557,    7.703700
2947.634021,    7.721165
2948.826003,    7.738683
2950.013203,    7.756327
2951.202490,    7.773978
2952.400183,    7.791735
2953.593395,    7.809608
2954.786333,    7.827480
2955.980723,    7.845403
2957.177624,    7.863400
2958.377004,    7.881482
2959.572956,    7.899622
2960.774981,    7.917802
2961.979724,    7.936107
2963.171181,    7.954423
2964.382910,    7.972747
2965.595614,    7.991335
2966.807645,    8.009979
2968.022782,    8.028679
2969.239239,    8.047467
2970.454475,    8.066311
2971.670807,    8.085196
2972.885051,    8.104130
2974.103573,    8.123113
2975.326382,    8.142212
2976.546719,    8.161390
2977.772673,    8.180622
2978.992477,    8.199927
2980.221639,    8.219269
2981.452211,    8.238764
2982.682551,    8.258321
2983.914769,    8.277936
2985.143722,    8.297600
2986.373500,    8.317285
2987.613614,    8.337087
2988.842756,    8.356979
2990.083021,    8.376875
2991.326527,    8.396952
2992.572913,    8.417130
2993.820087,    8.437392
2995.058739,    8.457659
2996.309155,    8.477961
2997.553165,    8.498394
2998.796496,    8.518806
3000.053222,    8.539345
3001.307655,    8.560056
3002.572516,    8.580861
3003.831816,    8.601786
3005.096910,    8.622742
3006.353204,    8.643751
3007.624352,    8.664819
3008.892254,    8.686066
3010.153876,    8.707289
3011.422354,    8.728545
3012.700126,    8.749984
3013.975145,    8.771550
3015.260217,    8.793208
3016.536628,    8.814958
3017.826545,    8.836768
3019.114091,    8.858748
3020.401361,    8.880754
3021.695380,    8.902858
3022.986010,    8.925057
3024.279524,    8.947295
3025.569306,    8.969586
3026.863638,    8.991925
3028.157547,    9.014359
3029.466780,    9.024063
3030.769869,    9.033738
3032.078104,    9.043467
3033.383931,    9.053195
3034.697490,    9.062997
3036.005911,    9.072777
3037.318021,    9.082601
3038.636361,    9.092488
3039.957820,    9.102415
3041.283872,    9.112393
3042.606476,    9.122362
3043.925798,    9.132322
3045.248974,    9.142328
3046.572998,    9.152356
3047.896986,    9.162401
3049.235022,    9.172569
3050.574592,    9.182765
3051.914738,    9.192983
3053.255055,    9.203218
3054.595374,    9.213471
3055.939125,    9.223766
3057.285399,    9.234097
3058.633473,    9.244458
3059.989414,    9.254897
3061.342543,    9.265332
3062.703548,    9.275843
3064.057298,    9.286316
3065.415249,    9.296838
3066.775950,    9.307398
3068.141792,    9.318014
3069.500283,    9.328591
3070.864097,    9.339225
3072.231443,    9.349904
3073.603291,    9.360635
3074.971642,    9.371356
3076.349388,    9.382167
3077.728410,    9.393005
3079.103647,    9.403830
3080.486749,    9.414734
3081.876266,    9.425706
3083.258304,    9.436636
3084.642184,    9.447597
3086.044225,    9.458720
3087.445176,    9.469851
3088.853940,    9.481061
3090.262435,    9.492287
3091.673490,    9.503551
3093.085030,    9.514835
3094.489911,    9.526084
3095.910213,    9.537474
3097.332952,    9.548901
3098.753355,    9.560326
3100.183564,    9.571848
3101.616592,    9.583411
3103.038475,    9.594901
3104.468759,    9.606476
3105.906198,    9.618127
3107.338045,    9.629750
3108.775863,    9.641439
3110.216229,    9.653166
3111.663552,    9.664968
3113.112019,    9.676797
3114.558220,    9.688625
3116.014418,    9.700552
3117.461539,    9.712423
3118.917658,    9.724385
3120.374827,    9.736374
3121.834281,    9.748399
3123.304248,    9.760529
3124.778858,    9.772715
3126.250308,    9.784893
3127.721853,    9.797090
3128.893559,    9.806814
3129.197642,    9.809339
3130.672797,    9.821602
3132.155720,    9.833947
3133.642354,    9.846341
3135.125536,    9.858724
3136.615220,    9.871179
3138.111573,    9.883708
3139.612951,    9.896298
3141.114773,    9.908909
3142.613597,    9.921514
3144.118431,    9.934187
3145.635001,    9.946977
3147.143956,    9.959722
3148.665929,    9.972595
3150.192898,    9.985528
3151.709698,    9.998394
3153.238027,   10.011376
3154.769278,   10.024401
3156.309629,   10.037523
3157.847254,   10.050639
3159.393273,   10.063846
3160.944156,   10.077114
3162.504245,   10.090479
3164.062111,   10.103844
3165.614343,   10.117179
3167.178826,   10.130638
3168.741195,   10.144098
3170.302980,   10.157572
3171.872111,   10.171128
3173.450113,   10.184780
3175.019506,   10.198376
3176.616157,   10.212227
3178.194105,   10.225936
3179.786350,   10.239787
3181.378013,   10.253653
3182.980148,   10.267629
3184.573956,   10.281551
3186.174614,   10.295553
3187.778710,   10.309604
3189.380130,   10.323650
3190.985816,   10.337753
3192.595696,   10.351912
3194.211663,   10.366144
3195.825406,   10.380376
3197.448977,   10.394713
3199.071617,   10.409062
3200.704249,   10.423518
3202.332075,   10.437951
3203.962560,   10.452427
3205.597610,   10.466963
3207.250819,   10.481679
3208.895873,   10.496343
3210.552234,   10.511127
3212.216602,   10.526003
3213.879398,   10.540884
3215.542328,   10.555786
3217.217083,   10.570814
3218.886551,   10.585814
3220.559789,   10.600867
3222.239598,   10.616000
3223.926929,   10.631220
3225.610143,   10.646423
3227.311767,   10.661813
3229.002292,   10.677121
3230.706921,   10.692578
3232.405721,   10.708002
3234.112757,   10.723520
3235.816751,   10.739031
3237.536072,   10.754701
3239.248490,   10.770329
3240.960421,   10.785972
3242.688775,   10.801785
3244.403048,   10.817489
3246.135428,   10.833380
3247.867064,   10.849283
3249.597412,   10.865195
3251.325460,   10.881106
3253.063331,   10.897127
3254.796641,   10.913126
3256.553014,   10.929358
3258.296300,   10.945489
3260.044487,   10.961685
3261.796847,   10.977940
3263.560246,   10.994318
3265.333909,   11.010812
3267.100565,   11.027260
3268.868073,   11.043737
3270.630404,   11.060186
3272.418062,   11.076891
3274.196382,   11.093529
3275.975189,   11.110192
3277.782274,   11.127140
3279.568536,   11.143913
3281.357723,   11.160734
3283.166292,   11.177758
3284.972932,   11.194784
3286.793601,   11.211962
3288.607131,   11.229094
3290.415262,   11.246195
3292.232651,   11.263404
3294.035713,   11.280497
3295.856396,   11.297778
3297.689849,   11.315200
3299.545030,   11.332850
3301.387609,   11.350400
3303.241116,   11.368075
3305.087239,   11.385700
3306.933904,   11.403351
3308.792625,   11.421137
3310.645060,   11.438884
3312.514835,   11.456818
3314.357774,   11.474514
3316.214083,   11.492359
3318.064396,   11.510166
3319.951337,   11.528347
3321.835631,   11.546522
3323.714537,   11.564667
3325.591770,   11.582815
3327.482543,   11.601115
3329.383852,   11.619537
3331.285104,   11.637979
3333.185082,   11.656430
3335.084669,   11.674897
3336.993240,   11.693472
3338.920906,   11.712254
3340.828399,   11.730860
3342.749554,   11.749619
3344.647727,   11.768174
3346.597201,   11.787251
3348.511902,   11.806008
3350.444250,   11.824959
3352.390511,   11.844067
3354.311261,   11.862944
3356.246776,   11.881986
3358.195576,   11.901180
3360.141633,   11.920367
3362.100081,   11.939697
3364.034019,   11.958805
3365.983883,   11.978090
3367.930106,   11.997359
3369.874679,   12.016632
3371.843458,   12.036165
3373.816261,   12.055758
3375.801764,   12.075497
3377.784804,   12.095233
3379.765582,   12.114966
3381.757390,   12.134829
3383.715316,   12.154374
3385.722307,   12.174429
3387.713058,   12.194342
3389.719824,   12.214435
3391.713217,   12.234415
3393.712374,   12.254472
3395.713463,   12.274568
3397.715383,   12.294692
3399.725498,   12.314919
3401.767453,   12.335486
3403.766003,   12.355635
3405.758937,   12.375748
3407.792860,   12.396294
3409.824148,   12.416833
3411.866433,   12.437503
3413.905999,   12.458165
3415.933376,   12.478723
3417.977630,   12.499472
3420.012703,   12.520148
3422.059309,   12.540960
3424.109045,   12.561823
3426.151928,   12.582636
3428.208092,   12.603604
3430.268072,   12.624630
3432.309855,   12.645489
3434.381039,   12.666668
3436.422437,   12.687561
3438.510746,   12.708954
3440.601353,   12.730389
3442.673813,   12.751658
3444.752898,   12.773014
3446.813459,   12.794198
3448.885973,   12.815524
3450.963075,   12.836916
3453.048523,   12.858413
3455.112418,   12.879705
3457.206660,   12.901330
3459.294969,   12.922912
3461.365805,   12.944331
3463.464551,   12.966058
3465.568253,   12.987854
3467.678901,   13.009741
3469.761936,   13.031360
3471.869679,   13.053253
3473.971654,   13.075105
3476.066391,   13.096899
3478.182220,   13.118930
3480.290002,   13.140896
3482.379078,   13.162684
3484.497714,   13.184799
3486.608263,   13.206847
3488.747860,   13.229216
3490.887727,   13.251605
3493.022436,   13.273959
3495.160588,   13.296366
3497.273690,   13.318528
3499.414962,   13.341003
3501.558268,   13.363516
3503.681141,   13.385833
3505.813930,   13.408270
3507.941859,   13.430673
3510.096293,   13.453372
3512.258755,   13.476173
3514.406074,   13.498832
3516.541832,   13.521385
3518.713312,   13.544332
3520.868924,   13.567128
3523.047947,   13.590188
3525.220432,   13.613197
3527.382590,   13.636112
3529.536158,   13.658952
3531.716045,   13.682089
3533.893961,   13.705220
3536.062525,   13.728268
3538.218997,   13.751204
3540.410699,   13.774531
3542.577349,   13.797607
3544.759189,   13.820860
3546.933179,   13.844046
3549.118910,   13.867372
3551.305788,   13.890726
3553.487253,   13.914038
3555.659158,   13.937264
3557.831736,   13.960511
3560.009539,   13.983829
3562.199997,   14.007298
3564.382414,   14.030696
3566.577840,   14.054248
3568.776373,   14.077849
3570.979636,   14.101515
3573.180154,   14.125166
3575.380559,   14.148831
3577.604910,   14.172768
3579.822509,   14.196647
3582.027082,   14.220400
3584.222808,   14.244072
3586.427222,   14.267852
3588.658966,   14.291941
3590.874585,   14.315870
3593.111977,   14.340048
3595.337291,   14.364109
3597.561969,   14.388178
3599.785910,   14.412252
3601.994611,   14.436175
3604.212565,   14.460211
3606.439624,   14.484360
3608.658076,   14.508428
3610.885446,   14.532606
3613.120598,   14.556882
3615.346217,   14.581067
3617.581734,   14.605372
3619.807020,   14.629580
3622.045312,   14.653941
3624.278295,   14.678257
3626.511318,   14.702586
3628.756531,   14.727060
3630.662168,   14.747842
