Ground Distance, Angles
   0.000000,    0.000000
   0.000001,    0.000000
   0.000022,    0.000000
   0.000269,    0.000000
   0.001546,    0.000000
   0.008568,    0.000000
   0.025861,    0.000000
   0.052564,    0.000000
   0.088636,    0.000000
   0.134260,    0.000000
   0.189567,    0.000000
   0.254546,    0.000000
   0.329154,    0.000000
   0.413194,    0.000000
   0.507589,    0.000000
   0.612937,    0.000000
   0.728495,    0.000000
   0.855500,    0.000000
   0.992684,    0.000000
   1.141479,    0.000000
   1.301537,    0.000000
   1.473335,    0.000000
   1.657281,    0.000000
   1.856357,    0.000000
   2.064703,    0.000000
   2.284095,    0.000000
   2.519148,    0.000000
   2.764670,    0.000000
   3.025114,    0.000000
   3.302165,    0.000000
   3.594172,    0.000000
   3.901938,    0.000000
   4.223707,    0.000000
   4.559049,    0.000000
   4.906882,    0.000000
   5.272356,    0.000000
   5.658541,    0.000000
   6.056934,    0.000000
   6.471883,    0.000000
   6.914256,    0.000000
   7.365086,    0.000000
   7.844327,    0.000000
   8.339092,    0.000000
   8.847488,    0.000000
   9.384387,    0.000000
   9.940316,    0.000000
  10.520586,    0.000000
  11.118386,    0.000000
  11.730878,    0.000000
  12.372581,    0.000000
  13.033546,    0.000000
  13.713755,    0.000000
  14.415991,    0.000000
  15.134796,    0.000000
  15.881504,    0.000000
  16.651854,    0.000000
  17.454734,    0.000000
  18.270663,    0.000000
  19.120896,    0.000000
  20.005401,    0.000000
  20.896828,    0.000000
  21.831988,    0.000000
  22.782725,    0.000000
  23.761666,    0.000000
  24.782155,    0.000000
  25.821214,    0.000000
  26.888161,    0.000000
  27.977529,    0.000000
  29.101494,    0.000000
  30.257344,    0.000000
  31.455474,    0.000000
  32.675265,    0.000000
  33.922279,    0.000000
  35.206782,    0.000000
  36.525429,    0.000000
  37.871281,    0.000000
  39.245326,    0.000000
  40.668389,    0.000000
  42.108591,    0.000000
  43.587833,    0.000000
  45.102566,    0.000000
  46.646903,    0.000000
  48.222500,    0.000000
  49.859166,    0.000000
  51.506035,    0.000000
  53.200157,    0.000000
  54.948154,    0.000000
  56.724014,    0.000000
  58.542927,    0.000000
  60.382809,    0.000000
  62.296748,    0.000000
  64.221366,    0.000000
  66.185778,    0.000000
  68.186983,    0.000000
  70.214108,    0.000000
  72.307794,    0.000000
  74.437013,    0.000000
  76.609570,    0.000000
  78.816847,    0.000000
  81.065995,    0.000000
  81.523823,    0.000000
  81.752331,    0.000000
  81.890141,    0.000000
  81.979757,    0.000000
  82.288379,    0.000000
  82.290218,    0.000000
  82.293266,    0.000000
  82.294563,    0.000000
  82.294931,    0.000000
  82.295104,    0.000000
  82.295280,    0.000000
  82.297037,    0.000000
  82.311917,    0.000000
  82.403383,    0.000000
  82.742660,    0.000000
  83.750408,    0.000000
  85.765766,    0.000000
  87.880349,    0.000000
  90.049472,    0.000000
  92.241110,    0.000000
  94.472934,    0.000000
  96.738497,    0.000000
  99.038907,    0.000000
 101.372310,    0.000000
 103.759468,    0.000000
 106.184136,    0.000000
 108.669010,    0.000000
 111.180834,    0.000000
 113.727822,    0.000000
 116.315732,    0.000000
 118.941353,    0.000000
 121.594479,    0.000000
 124.303954,    0.000000
 127.055404,    0.000000
 129.818370,    0.000000
 132.652319,    0.000000
 135.502317,    0.000000
 138.399958,    0.000000
 141.328085,    0.000000
 144.323802,    0.000000
 147.354415,    0.000000
 150.420513,    0.000000
 153.533701,    0.000000
 156.688149,    0.000000
 159.869704,    0.000000
 163.108979,    0.000000
 166.387815,    0.000000
 169.716474,    0.000000
 173.096650,    0.000000
 176.510832,    0.000000
 179.991805,    0.000000
 183.532600,    0.000000
 187.090616,    0.000000
 190.684141,    0.000000
 194.356124,    0.000000
 198.062317,    0.000000
 201.829259,    0.000000
 205.639115,    0.000000
 209.462352,    0.000000
 213.366553,    0.000000
 217.297304,    0.000000
 221.309155,    0.000000
 225.342035,    0.000000
 229.449810,    0.000000
 233.586588,    0.000000
 237.773418,    0.000000
 242.015797,    0.000000
 246.313696,    0.000000
 250.667623,    0.000000
 255.034014,    0.000000
 259.483373,    0.000000
 263.953234,    0.000000
 268.483789,    0.000000
 273.079864,    0.000000
 277.722250,    0.000000
 282.401820,    0.000000
 287.170539,    0.000000
 292.003009,    0.000000
 296.873854,    0.000000
 301.781817,    0.000000
 306.728806,    0.000000
 311.775603,    0.000000
 316.881327,    0.000000
 322.010292,    0.000000
 327.195141,    0.000000
 332.428907,    0.000000
 337.733883,    0.000000
 338.798812,    0.000000
 339.429380,    0.000000
 339.793002,    0.000000
 340.127613,    0.000000
 340.389217,    0.000000
 340.602746,    0.000000
 340.757250,    0.000000
 340.907402,    0.000000
 341.078768,    0.000000
 341.109825,    0.000000
 341.117717,    0.000000
 341.119563,    0.000000
 341.120548,    0.000000
 341.120982,    0.000000
 341.121506,    0.000000
 341.126748,    0.000000
 341.179168,    0.000000
 341.551583,    0.000000
 342.888562,    0.000000
 347.509362,    0.000000
 352.360722,    0.000000
 357.245043,    0.000000
 362.195167,    0.000000
 367.169723,    0.000000
 372.191739,    0.000000
 377.233110,    0.000000
 382.370418,    0.000000
 387.540271,    0.000000
 392.746985,    0.000000
 397.983687,    0.000000
 403.294958,    0.000000
 408.632681,    0.000000
 414.019632,    0.000000
 419.476226,    0.000000
 424.964014,    0.000000
 430.501911,    0.000000
 436.084350,    0.000000
 441.700069,    0.000000
 447.374846,    0.000000
 453.121995,    0.000000
 458.929855,    0.000000
 464.751711,    0.000000
 470.640873,    0.000000
 476.577751,    0.000000
 482.560927,    0.000000
 488.584817,    0.000000
 494.658612,    0.000000
 500.801416,    0.000000
 506.989869,    0.000000
 513.245823,    0.000000
 519.532068,    0.000000
 525.854295,    0.000000
 532.247322,    0.000000
 538.711834,    0.000000
 545.202425,    0.000000
 551.769230,    0.000000
 558.361466,    0.000000
 565.019589,    0.000000
 571.736462,    0.000000
 578.489367,    0.000000
 585.288218,    0.000000
 592.121504,    0.000000
 599.048383,    0.000000
 606.001993,    0.000000
 613.016788,    0.000000
 620.075486,    0.000000
 627.200938,    0.000000
 634.366026,    0.000000
 641.594396,    0.000000
 648.902659,    0.000000
 656.261662,    0.000000
 663.678577,    0.000000
 671.134632,    0.000000
 678.667845,    0.000000
 686.221305,    0.000000
 693.850830,    0.000000
 701.525176,    0.000000
 709.266697,    0.000000
 717.076192,    0.000000
 724.915951,    0.000000
 732.855346,    0.000000
 740.822625,    0.000000
 748.841274,    0.000000
 756.937612,    0.000000
 765.081381,    0.000000
 773.288737,    0.000000
 781.572988,    0.000000
 789.887260,    0.000000
 798.252951,    0.000000
 799.931507,    0.000000
 801.052919,    0.000000
 804.574996,    0.000000
 804.644271,    0.000000
 804.661729,    0.000000
 804.689703,    0.000000
 804.693503,    0.000000
 804.695667,    0.000000
 804.697021,    0.000000
 804.698265,    0.000000
 804.710704,    0.000000
 804.819537,    0.000000
 805.412610,    0.000000
 808.390296,    0.000000
 815.755773,    0.000000
 823.198659,    0.000000
 830.690559,    0.000000
 838.221195,    0.000000
 845.788810,    0.000000
 853.386272,    0.000000
 861.039621,    0.000000
 868.741994,    0.000000
 876.485137,    0.000000
 884.276542,    0.000000
 892.126942,    0.000000
 900.025367,    0.000000
 907.986891,    0.000000
 915.999041,    0.000000
 924.015597,    0.000000
 932.116424,    0.000000
 940.248941,    0.000000
 948.422568,    0.000000
 956.669505,    0.000000
 964.956937,    0.000000
 973.252676,    0.000000
 981.602575,    0.000000
 990.018928,    0.000000
 998.500415,    0.000000
1007.030168,    0.000000
1015.607553,    0.000000
1024.200615,    0.000000
1032.859135,    0.000000
1041.555800,    0.000000
1050.303704,    0.000000
1059.113780,    0.000000
1067.979729,    0.000000
1076.872243,    0.000000
1085.837976,    0.000000
1094.830943,    0.000000
1103.900330,    0.000000
1113.019149,    0.000000
1122.156321,    0.000000
1131.379614,    0.000000
1140.629076,    0.000000
1149.909471,    0.000000
1159.235442,    0.000000
1168.622571,    0.000000
1178.062574,    0.000000
1187.549256,    0.000000
1197.101518,    0.000000
1206.689224,    0.000000
1216.342495,    0.000000
1226.034989,    0.000000
1235.800986,    0.000000
1245.563482,    0.000000
1255.398759,    0.000000
1265.302418,    0.000000
1275.247001,    0.000000
1285.250477,    0.000000
1295.298804,    0.000000
1305.429965,    0.000000
1315.565197,    0.000000
1325.745889,    0.000000
1336.010797,    0.000000
1346.319357,    0.000000
1356.680569,    0.000000
1367.100663,    0.000000
1377.565770,    0.000000
1388.081973,    0.000000
1398.661123,    0.000000
1409.268380,    0.000000
1419.956398,    0.000000
1430.677998,    0.000000
1441.465645,    0.000000
1452.319402,    0.000000
1463.210653,    0.000000
1474.135114,    0.000000
1485.133499,    0.000000
1496.167017,    0.000000
1507.281527,    0.000000
1518.428108,    0.000000
1520.670171,    0.000000
1522.282798,    0.000000
1523.391538,    0.000000
1524.418028,    0.000000
1525.276645,    0.000000
1525.435737,    0.000000
1525.617616,    0.000000
1525.656517,    0.000000
1525.695023,    0.000000
1525.708337,    0.000000
1525.713428,    0.000000
1525.719070,    0.000000
1525.775488,    0.000000
1526.239614,    0.000000
1528.752816,    0.000000
1538.092773,    0.000000
1549.302998,    0.000000
1560.609325,    0.000000
1571.977531,    0.000000
1583.346792,    0.000000
1594.792449,    0.000000
1606.298556,    0.000000
1617.875562,    0.000000
1629.508299,    0.000000
1641.158126,    0.000000
1652.892457,    0.000000
1664.688258,    0.000000
1676.493441,    0.000000
1688.351807,    0.000000
1700.283377,    0.000000
1712.260987,    0.000000
1724.299242,    0.000000
1736.396226,    0.000000
1748.551544,    0.000000
1760.739235,    0.000000
1773.005785,    0.000000
1785.326812,    0.000000
1797.677590,    0.000000
1810.099839,    0.000000
1822.578976,    0.000000
1835.106161,    0.000000
1847.698104,    0.000000
1860.357504,    0.000000
1873.056215,    0.000000
1885.823307,    0.000000
1898.648553,    0.000000
1911.507467,    0.000000
1924.433722,    0.000000
1937.443794,    0.000000
1950.485492,    0.000000
1963.583883,    0.000000
1976.724447,    0.000000
1989.945433,    0.000000
2003.200414,    0.000000
2016.507350,    0.000000
2029.878092,    0.000000
2043.299367,    0.000000
2056.767164,    0.000000
2070.299823,    0.000000
2083.936703,    0.000000
2097.592688,    0.000000
2111.289369,    0.000000
2125.048530,    0.000000
2138.859633,    0.000000
2152.775822,    0.000000
2166.696588,    0.000000
2180.704840,    0.000000
2181.652943,    0.000000
2194.761700,    0.000000
2208.865517,    0.218969
2223.040296,    0.451894
2237.262696,    0.683172
2251.604799,    0.912431
2265.994426,    1.140831
2280.425097,    1.367214
2294.937791,    1.591495
2309.518545,    1.814321
2324.130937,    2.035479
2338.840799,    2.254429
2353.592632,    2.472167
2368.384404,    2.687873
2383.265842,    2.901537
2398.145886,    3.113887
2413.085865,    3.323637
2428.076690,    3.531679
2443.169160,    3.737899
2458.275233,    3.943000
2473.412573,    4.145791
2488.603231,    4.346538
2503.828277,    4.545553
2519.088245,    4.742604
2534.397591,    4.937720
2549.724255,    5.131103
2565.115232,    5.322369
2580.521564,    5.512124
2583.613685,    5.699780
2586.478870,    5.737027
2587.542756,    5.773133
2588.607182,    5.787626
2588.820167,    5.800737
2589.433236,    5.804325
2589.442911,    5.811680
2589.456728,    5.811820
2589.459692,    5.811990
2589.460758,    5.812028
2589.461977,    5.812042
2589.470087,    5.812071
2589.512005,    5.812240
2589.677446,    5.813027
2590.122070,    5.815779
2590.847414,    5.822375
2591.910109,    5.832963
2592.974237,    5.847638
2594.039253,    5.862381
2595.106842,    5.877187
2596.175187,    5.892073
2597.244065,    5.907018
2598.313370,    5.922018
2599.383945,    5.937074
2600.450152,    5.952184
2601.516786,    5.967291
2602.587634,    5.982460
2603.660124,    5.997732
2604.734454,    6.013076
2605.809519,    6.028492
2606.884317,    6.043964
2607.961310,    6.059487
2609.038710,    6.075086
2610.114954,    6.090735
2611.194181,    6.106426
2612.274423,    6.122205
2613.355698,    6.138047
2614.438000,    6.153952
2615.517900,    6.169911
2616.600904,    6.185900
2617.680917,    6.201965
2618.766463,    6.218060
2619.853706,    6.234275
2620.941833,    6.250561
2622.024215,    6.266887
2623.114186,    6.283220
2624.203856,    6.299689
2625.291412,    6.316197
2626.384041,    6.332746
2627.477033,    6.349405
2628.570084,    6.366117
2629.664992,    6.382886
2630.761945,    6.399734
2631.859679,    6.416657
2632.955820,    6.433632
2634.053842,    6.450646
2635.151939,    6.467730
2636.248656,    6.484859
2637.345006,    6.502020
2638.449512,    6.519259
2639.553199,    6.536638
2640.659571,    6.554069
2641.767258,    6.571586
2642.871290,    6.589152
2643.981534,    6.606752
2645.091495,    6.624473
2646.200989,    6.642237
2647.314373,    6.660064
2648.422246,    6.677960
2649.533292,    6.695857
2650.649617,    6.713865
2651.767072,    6.731989
2652.885922,    6.750182
2653.999400,    6.768415
2655.119898,    6.786672
2656.243093,    6.805072
2657.368085,    6.823562
2658.495206,    6.842134
2659.612706,    6.860731
2660.740709,    6.879324
2661.864577,    6.898064
2662.994159,    6.916839
2664.119904,    6.935707
2665.253433,    6.954625
2666.380316,    6.973646
2667.513151,    6.992674
2668.648842,    7.011837
2669.785771,    7.031090
2670.924692,    7.050419
2672.066780,    7.069839
2673.208991,    7.089348
2674.348750,    7.108894
2675.488910,    7.128467
2676.637451,    7.148145
2677.779239,    7.167927
2678.928200,    7.187729
2680.081511,    7.207690
2681.234555,    7.227750
2682.384002,    7.247835
2683.536843,    7.267954
2684.687016,    7.288145
2685.844104,    7.308402
2687.006218,    7.328820
2688.162450,    7.349309
2689.322401,    7.369808
2690.471231,    7.390326
2691.639227,    7.410901
2692.798909,    7.431684
2693.969532,    7.439625
2695.139155,    7.447577
2696.307599,    7.455538
2697.479913,    7.463542
2698.653108,    7.471571
2699.827129,    7.479622
2701.006249,    7.487727
2702.189669,    7.495878
2703.370685,    7.504031
2704.551306,    7.512198
2705.730915,    7.520376
2706.913598,    7.528593
2708.097652,    7.536837
2709.288848,    7.545148
2710.475426,    7.553445
2711.670766,    7.561821
2712.867044,    7.570222
2714.061737,    7.578629
2715.257172,    7.587059
2716.451233,    7.595497
2717.650720,    7.603991
2718.851873,    7.612515
2720.048302,    7.621024
2721.251453,    7.629597
2722.456478,    7.638202
2723.658920,    7.646807
2724.865112,    7.655456
2726.071634,    7.664125
2727.282434,    7.672843
2728.494954,    7.681591
2729.711175,    7.690384
2730.925004,    7.699178
2732.143378,    7.708022
2733.360951,    7.716879
2734.579475,    7.725760
2735.805297,    7.734713
2737.031301,    7.743686
2738.256284,    7.752669
2739.481992,    7.761675
2740.706340,    7.770689
2741.936910,    7.779767
2743.161281,    7.788818
2744.392181,    7.797935
2745.627118,    7.807100
2746.862925,    7.816289
2748.109376,    7.825576
2749.354077,    7.834868
2750.596973,    7.844165
2751.840957,    7.853489
2753.086744,    7.862844
2754.334182,    7.872230
2755.590859,    7.881704
2756.847463,    7.891196
2758.101029,    7.900684
2759.357313,    7.910210
2760.612030,    7.919743
2761.872848,    7.929341
2763.133600,    7.938957
2764.404849,    7.948671
2765.676639,    7.958409
2766.948180,    7.968163
2768.216423,    7.977910
2769.493283,    7.987742
2770.772485,    7.997611
2772.047382,    8.007466
2773.321949,    8.017337
2774.603829,    8.027283
2775.895984,    8.037327
2777.185172,    8.047368
2778.473613,    8.057421
2779.764449,    8.067513
2781.061890,    8.077674
2782.359748,    8.087859
2783.658583,    8.098069
2784.957500,    8.108300
2786.252323,    8.118517
2787.559237,    8.128848
2788.870258,    8.139231
2790.186092,    8.149672
2791.143519,    8.157281
2791.494592,    8.160073
2792.810204,    8.170551
2794.130426,    8.181084
2795.449490,    8.191627
2796.772223,    8.202219
2798.095569,    8.212835
2799.419086,    8.223472
2800.737067,    8.234083
2802.068260,    8.244821
2803.392321,    8.255520
2804.727567,    8.266328
2806.065548,    8.277178
2807.405699,    8.288066
2808.743394,    8.298953
2810.079748,    8.309848
2811.414392,    8.320749
2812.762850,    8.331782
2814.111401,    8.342835
2815.463332,    8.353936
2816.818093,    8.365080
2818.178646,    8.376291
2819.536894,    8.387503
2820.896876,    8.398749
2822.257389,    8.410018
2823.618998,    8.421317
2824.983303,    8.432658
2826.351809,    8.444053
2827.725050,    8.455508
2829.102759,    8.467020
2830.485108,    8.478591
2831.871528,    8.490216
2833.255418,    8.501839
2834.639984,    8.513489
2836.035624,    8.525252
2837.426560,    8.536995
2838.826488,    8.548834
2840.224911,    8.560682
2841.621685,    8.572535
2843.032407,    8.584527
2844.441820,    8.596528
2845.850995,    8.608548
2847.263469,    8.620616
2848.674883,    8.632695
2850.094243,    8.644863
2851.510666,    8.657027
2852.941394,    8.669333
2854.372855,    8.681667
2855.796694,    8.693956
2857.232431,    8.706368
2858.658336,    8.718715
2860.094813,    8.731175
2861.528821,    8.743634
2862.966558,    8.756146
2864.405216,    8.768687
2865.857392,    8.781366
2867.312447,    8.794091
2868.768018,    8.806842
2870.225920,    8.819634
2871.685103,    8.832459
2873.145828,    8.845318
2874.621673,    8.858331
2876.095150,    8.871345
2877.566735,    8.884363
2879.042280,    8.897437
2880.520228,    8.910554
2881.998751,    8.923697
2883.490673,    8.936981
2884.973431,    8.950204
2886.463783,    8.963517
2887.943635,    8.976757
2889.440312,    8.990168
2890.942123,    9.003647
2892.435548,    9.017072
2893.940132,    9.030619
2895.454220,    9.044273
2896.963377,    9.057905
2898.481809,    9.071641
2899.996883,    9.085369
2901.507585,    9.099079
2903.032670,    9.112941
2904.562189,    9.126865
2906.094992,    9.140841
2907.629513,    9.154855
2909.168656,    9.168933
2910.709328,    9.183046
2912.246957,    9.197154
2913.792231,    9.211353
2915.342168,    9.225618
2916.893362,    9.239916
2918.448972,    9.254277
2920.004993,    9.268664
2921.567838,    9.283135
2923.137692,    9.297695
2924.712722,    9.312324
2926.284838,    9.326949
2927.853044,    9.341560
2929.436779,    9.356337
2931.019184,    9.371125
2932.611837,    9.386031
2934.198097,    9.400899
2935.797892,    9.415917
2937.391567,    9.430901
2938.988911,    9.445941
2940.596970,    9.461104
2942.200449,    9.476247
2943.809290,    9.491464
2945.421994,    9.506739
2947.030175,    9.521995
2948.652147,    9.537404
2950.274256,    9.552837
2951.905092,    9.568375
2953.527873,    9.583860
2955.153837,    9.599398
2956.788712,    9.615044
2958.429637,    9.630771
2960.066242,    9.646479
2961.706581,    9.662246
2963.358207,    9.678144
2965.005636,    9.694025
2966.659930,    9.709996
2968.323228,    9.726076
2969.978922,    9.742105
2971.652559,    9.758332
2973.312738,    9.774451
2974.987135,    9.790732
2976.669300,    9.807111
2978.347555,    9.823476
2980.031994,    9.839924
2981.704931,    9.856283
2983.395417,    9.872836
2985.080067,    9.889356
2986.782734,    9.906076
2988.485065,    9.922816
2990.193999,    9.939645
2991.895081,    9.956419
2993.599851,    9.973254
2995.306158,    9.990126
2997.021561,   10.007112
2998.735351,   10.024106
3000.457889,   10.041210
3002.177261,   10.058306
3003.896279,   10.075421
3005.620423,   10.092611
3007.358866,   10.109967
3009.089486,   10.127269
3010.835324,   10.144746
3012.568932,   10.162124
3014.306933,   10.179569
3016.073101,   10.197322
3017.817554,   10.214879
3019.579994,   10.232641
3021.327968,   10.250281
3023.095916,   10.268146
3024.866110,   10.286058
3026.640251,   10.304033
3028.416958,   10.322058
3030.190127,   10.340071
3031.980688,   10.358284
3033.773339,   10.376543
3035.555597,   10.394719
3037.351414,   10.413058
3039.154630,   10.431496
3040.942893,   10.449805
3042.750896,   10.468340
3044.564845,   10.486960
3046.370037,   10.505513
3048.180139,   10.524141
3049.993491,   10.542827
3051.818776,   10.561659
3053.636494,   10.580437
3055.462948,   10.599329
3057.304653,   10.618403
3059.146818,   10.637506
3060.978678,   10.656526
3062.809854,   10.675562
3064.664235,   10.694864
3066.508166,   10.714081
3068.350206,   10.733302
3070.204900,   10.752679
3072.079462,   10.772288
3073.924538,   10.791612
3075.793240,   10.811207
3077.657876,   10.830784
3079.527387,   10.850436
3081.402972,   10.870175
3083.279518,   10.889949
3085.171008,   10.909904
3087.053299,   10.929786
3088.942166,   10.949761
3090.841384,   10.969870
3092.749463,   10.990097
3094.643842,   11.010203
3096.540923,   11.030361
3098.436741,   11.050530
3100.350570,   11.070914
3102.242679,   11.091090
3104.174394,   11.111712
3106.097723,   11.132270
3108.003643,   11.152664
3109.927578,   11.173275
3111.859264,   11.193993
3113.784492,   11.214666
3115.718072,   11.235452
3117.624970,   11.255974
3119.545644,   11.276668
3121.476673,   11.297496
3123.424130,   11.318526
3125.369363,   11.339555
3127.325253,   11.360723
3129.289886,   11.382009
3131.243962,   11.403205
3133.188647,   11.424322
3135.135673,   11.445487
3137.093398,   11.466793
3139.052313,   11.488134
3141.035746,   11.509766
3143.007322,   11.531292
3144.978074,   11.552832
3146.956213,   11.574477
3148.944047,   11.596250
3150.937835,   11.618113
3152.919678,   11.639868
3154.909000,   11.661727
3156.899890,   11.683628
3158.884191,   11.705478
3160.854001,   11.727192
3162.848868,   11.749204
3164.861571,   11.771437
3166.847377,   11.793394
3168.857455,   11.815644
3170.873353,   11.837980
3172.889773,   11.860345
3174.907344,   11.882746
3176.922742,   11.905145
3178.928468,   11.927459
3180.958708,   11.950068
3182.957914,   11.972354
3185.000805,   11.995150
3187.010514,   12.017597
3189.046679,   12.040362
3191.068654,   12.062991
3193.095128,   12.085692
3195.122767,   12.108428
3197.158221,   12.131274
3199.203907,   12.154256
3201.249705,   12.177262
3203.276108,   12.200072
3205.331303,   12.223227
3207.397563,   12.246530
3209.451028,   12.269709
3211.521286,   12.293101
3213.581361,   12.316399
3215.652868,   12.339848
3217.724891,   12.363324
3219.779139,   12.386621
3221.840530,   12.410020
3223.906086,   12.433487
3225.948383,   12.456711
3228.037941,   12.480494
3230.120264,   12.504215
3232.185664,   12.527765
3234.255008,   12.551381
3236.352222,   12.575336
3238.446061,   12.599273
3240.547311,   12.623316
3242.629359,   12.647160
3244.710865,   12.671018
3246.805954,   12.695053
3248.911609,   12.719230
3251.007498,   12.743315
3253.126930,   12.767691
3255.249589,   12.792125
3257.360061,   12.816439
3259.488280,   12.840978
3261.610961,   12.865474
3263.699501,   12.889596
3265.807205,   12.913959
3267.923065,   12.938435
3270.051381,   12.963076
3272.166240,   12.987581
3274.291456,   13.012226
3276.403218,   13.036734
3278.533670,   13.061479
3280.655466,   13.086142
3282.817733,   13.111296
3284.946099,   13.136074
3287.077689,   13.160910
3289.234850,   13.186062
3291.384276,   13.211144
3293.516310,   13.236042
3295.662601,   13.261125
3297.798672,   13.286107
3299.934847,   13.311110
3302.088706,   13.336337
3304.213334,   13.361241
3306.381087,   13.386669
3308.524558,   13.411830
3310.696084,   13.437340
3312.710029,   13.461014
