Ground Distance, Angles
   0.000000,    0.000000
   0.000002,    0.000000
   0.000033,    0.000000
   0.000541,    0.000000
   0.002971,    0.000000
   0.012724,    0.000000
   0.030175,    0.000000
   0.055121,    0.000000
   0.087431,    0.000000
   0.127351,    0.000000
   0.175087,    0.000000
   0.230545,    0.000000
   0.293397,    0.000000
   0.364623,    0.000000
   0.443513,    0.000000
   0.530359,    0.000000
   0.626309,    0.000000
   0.729777,    0.000000
   0.842292,    0.000000
   0.963616,    0.000000
   1.092107,    0.000000
   1.229745,    0.000000
   1.378547,    0.000000
   1.536402,    0.000000
   1.702785,    0.000000
   1.880020,    0.000000
   2.066176,    0.000000
   2.263475,    0.000000
   2.469520,    0.000000
   2.687974,    0.000000
   2.915646,    0.000000
   3.153525,    0.000000
   3.404560,    0.000000
   3.665621,    0.000000
   3.939644,    0.000000
   4.226323,    0.000000
   4.526462,    0.000000
   4.834008,    0.000000
   5.151473,    0.000000
   5.483183,    0.000000
   5.829160,    0.000000
   6.193214,    0.000000
   6.569655,    0.000000
   6.958681,    0.000000
   7.362451,    0.000000
   7.781528,    0.000000
   8.217215,    0.000000
   8.664408,    0.000000
   9.129936,    0.000000
   9.607516,    0.000000
  10.098993,    0.000000
  10.614274,    0.000000
  11.146344,    0.000000
  11.686715,    0.000000
  12.245868,    0.000000
  12.820009,    0.000000
  13.423800,    0.000000
  14.037027,    0.000000
  14.668337,    0.000000
  15.312479,    0.000000
  15.979087,    0.000000
  16.665407,    0.000000
  17.369399,    0.000000
  18.093800,    0.000000
  18.833876,    0.000000
  19.591959,    0.000000
  20.369445,    0.000000
  21.183145,    0.000000
  22.002937,    0.000000
  22.847356,    0.000000
  23.710068,    0.000000
  24.594700,    0.000000
  25.508131,    0.000000
  26.440806,    0.000000
  27.392696,    0.000000
  28.376439,    0.000000
  29.370720,    0.000000
  30.386306,    0.000000
  31.437731,    0.000000
  32.505956,    0.000000
  33.595058,    0.000000
  34.722148,    0.000000
  35.854885,    0.000000
  37.013675,    0.000000
  38.196420,    0.000000
  39.405089,    0.000000
  40.647508,    0.000000
  41.900882,    0.000000
  43.179474,    0.000000
  44.514203,    0.000000
  45.859442,    0.000000
  47.224391,    0.000000
  48.628488,    0.000000
  50.052956,    0.000000
  51.505792,    0.000000
  52.986236,    0.000000
  54.503722,    0.000000
  56.045472,    0.000000
  57.603177,    0.000000
  59.199081,    0.000000
  60.807362,    0.000000
  62.453934,    0.000000
  64.126404,    0.000000
  65.835876,    0.000000
  67.565067,    0.000000
  69.327693,    0.000000
  71.134304,    0.000000
  72.979054,    0.000000
  74.841589,    0.000000
  76.727429,    0.000000
  78.653341,    0.000000
  80.636011,    0.000000
  81.033263,    0.000000
  81.360354,    0.000000
  82.361676,    0.000000
  82.376999,    0.000000
  82.390335,    0.000000
  82.393274,    0.000000
  82.394717,    0.000000
  82.397331,    0.000000
  82.397670,    0.000000
  82.397868,    0.000000
  82.398050,    0.000000
  82.399865,    0.000000
  82.416165,    0.000000
  82.520608,    0.000000
  82.937459,    0.000000
  84.229911,    0.000000
  86.170510,    0.000000
  88.073124,    0.000000
  89.990574,    0.000000
  91.955791,    0.000000
  93.930154,    0.000000
  95.949316,    0.000000
  98.000751,    0.000000
 100.078216,    0.000000
 102.188103,    0.000000
 104.330924,    0.000000
 106.490812,    0.000000
 108.673515,    0.000000
 110.897496,    0.000000
 113.151885,    0.000000
 115.441649,    0.000000
 117.761229,    0.000000
 120.124748,    0.000000
 122.493405,    0.000000
 124.904985,    0.000000
 127.345454,    0.000000
 129.808483,    0.000000
 132.308287,    0.000000
 134.852048,    0.000000
 137.425981,    0.000000
 140.011838,    0.000000
 142.645210,    0.000000
 145.317166,    0.000000
 148.010533,    0.000000
 150.726563,    0.000000
 153.495654,    0.000000
 156.293415,    0.000000
 159.125946,    0.000000
 161.982567,    0.000000
 164.876803,    0.000000
 167.790890,    0.000000
 170.756876,    0.000000
 173.759997,    0.000000
 176.773001,    0.000000
 179.820526,    0.000000
 182.913100,    0.000000
 186.042785,    0.000000
 189.210084,    0.000000
 192.421816,    0.000000
 195.648537,    0.000000
 198.925358,    0.000000
 202.244762,    0.000000
 205.607610,    0.000000
 208.999113,    0.000000
 212.433012,    0.000000
 215.894672,    0.000000
 219.378388,    0.000000
 222.916665,    0.000000
 226.462884,    0.000000
 230.066454,    0.000000
 233.703388,    0.000000
 237.375397,    0.000000
 241.101449,    0.000000
 244.865177,    0.000000
 248.657396,    0.000000
 252.491743,    0.000000
 256.379315,    0.000000
 260.305283,    0.000000
 264.249513,    0.000000
 268.230578,    0.000000
 272.255463,    0.000000
 276.311583,    0.000000
 280.408372,    0.000000
 284.551412,    0.000000
 288.751049,    0.000000
 292.996648,    0.000000
 297.265420,    0.000000
 301.555738,    0.000000
 305.882377,    0.000000
 310.280125,    0.000000
 314.691178,    0.000000
 319.154941,    0.000000
 323.664212,    0.000000
 328.194408,    0.000000
 332.785079,    0.000000
 337.425734,    0.000000
 342.107596,    0.000000
 342.295944,    0.000000
 342.456995,    0.000000
 342.613492,    0.000000
 342.804838,    0.000000
 342.847613,    0.000000
 342.899136,    0.000000
 342.910053,    0.000000
 342.915375,    0.000000
 342.926020,    0.000000
 342.927221,    0.000000
 342.927916,    0.000000
 342.934873,    0.000000
 342.943567,    0.000000
 343.030507,    0.000000
 343.519807,    0.000000
 345.252905,    0.000000
 349.286153,    0.000000
 353.638804,    0.000000
 358.031236,    0.000000
 362.451031,    0.000000
 366.909391,    0.000000
 371.380845,    0.000000
 375.913739,    0.000000
 380.479314,    0.000000
 385.083162,    0.000000
 389.713857,    0.000000
 394.386580,    0.000000
 399.078557,    0.000000
 403.820161,    0.000000
 408.590329,    0.000000
 413.414164,    0.000000
 418.262768,    0.000000
 423.136142,    0.000000
 428.061165,    0.000000
 433.013843,    0.000000
 437.995621,    0.000000
 443.029943,    0.000000
 448.087900,    0.000000
 453.184382,    0.000000
 458.340719,    0.000000
 463.523880,    0.000000
 468.759042,    0.000000
 474.006508,    0.000000
 479.285980,    0.000000
 484.631216,    0.000000
 490.019159,    0.000000
 495.421630,    0.000000
 500.896666,    0.000000
 506.388847,    0.000000
 511.928703,    0.000000
 517.499252,    0.000000
 523.093641,    0.000000
 528.715542,    0.000000
 534.408289,    0.000000
 540.130011,    0.000000
 545.897727,    0.000000
 551.699894,    0.000000
 557.535523,    0.000000
 563.438774,    0.000000
 569.369611,    0.000000
 575.341771,    0.000000
 581.326946,    0.000000
 587.356886,    0.000000
 593.450651,    0.000000
 599.580624,    0.000000
 605.745117,    0.000000
 611.953454,    0.000000
 618.188182,    0.000000
 624.479956,    0.000000
 630.801805,    0.000000
 637.171694,    0.000000
 643.568650,    0.000000
 649.998833,    0.000000
 656.482579,    0.000000
 663.011445,    0.000000
 669.584811,    0.000000
 676.203186,    0.000000
 682.841179,    0.000000
 689.507878,    0.000000
 696.259094,    0.000000
 703.027434,    0.000000
 709.843413,    0.000000
 716.701039,    0.000000
 723.612703,    0.000000
 730.571550,    0.000000
 737.550386,    0.000000
 744.557066,    0.000000
 751.633198,    0.000000
 758.743051,    0.000000
 765.909084,    0.000000
 773.105396,    0.000000
 780.331632,    0.000000
 787.613103,    0.000000
 794.927071,    0.000000
 802.302978,    0.000000
 809.702380,    0.000000
 811.195227,    0.000000
 812.212508,    0.000000
 813.021068,    0.000000
 813.586284,    0.000000
 814.010511,    0.000000
 814.439771,    0.000000
 814.801066,    0.000000
 814.905256,    0.000000
 815.060774,    0.000000
 815.093695,    0.000000
 815.106590,    0.000000
 815.132382,    0.000000
 815.134182,    0.000000
 815.135835,    0.000000
 815.152364,    0.000000
 815.289804,    0.000000
 816.137865,    0.000000
 820.714060,    0.000000
 827.442902,    0.000000
 834.219769,    0.000000
 841.014425,    0.000000
 847.832678,    0.000000
 854.691049,    0.000000
 861.592676,    0.000000
 868.516311,    0.000000
 875.496579,    0.000000
 882.503664,    0.000000
 889.523813,    0.000000
 896.584121,    0.000000
 903.687531,    0.000000
 910.842193,    0.000000
 918.009308,    0.000000
 925.231963,    0.000000
 932.495561,    0.000000
 939.791140,    0.000000
 947.102270,    0.000000
 954.472673,    0.000000
 961.856390,    0.000000
 969.287009,    0.000000
 976.747667,    0.000000
 984.250283,    0.000000
 991.772304,    0.000000
 999.365987,    0.000000
1006.967399,    0.000000
1014.618518,    0.000000
1022.316280,    0.000000
1030.028218,    0.000000
1037.783868,    0.000000
1045.591107,    0.000000
1053.424549,    0.000000
1061.293812,    0.000000
1069.188759,    0.000000
1077.131625,    0.000000
1085.120361,    0.000000
1093.142777,    0.000000
1101.199347,    0.000000
1109.291289,    0.000000
1117.424555,    0.000000
1125.581215,    0.000000
1133.762223,    0.000000
1142.036306,    0.000000
1150.329974,    0.000000
1158.618848,    0.000000
1166.975708,    0.000000
1175.366360,    0.000000
1183.800292,    0.000000
1192.252629,    0.000000
1200.772019,    0.000000
1209.310189,    0.000000
1217.874947,    0.000000
1226.486966,    0.000000
1235.173510,    0.000000
1243.882567,    0.000000
1252.624459,    0.000000
1261.388500,    0.000000
1270.193329,    0.000000
1279.047869,    0.000000
1287.933862,    0.000000
1296.867623,    0.000000
1305.839347,    0.000000
1314.864823,    0.000000
1323.885292,    0.000000
1332.942299,    0.000000
1342.077471,    0.000000
1351.257473,    0.000000
1360.460868,    0.000000
1369.664848,    0.000000
1378.949558,    0.000000
1388.282895,    0.000000
1397.640617,    0.000000
1407.027159,    0.000000
1416.447142,    0.000000
1425.926777,    0.000000
1435.421877,    0.000000
1444.976498,    0.000000
1454.552941,    0.000000
1464.171465,    0.000000
1473.844020,    0.000000
1483.562570,    0.000000
1493.292099,    0.000000
1503.068605,    0.000000
1512.888040,    0.000000
1522.752542,    0.000000
1532.662149,    0.000000
1542.621556,    0.000000
1552.597602,    0.000000
1562.603654,    0.000000
1564.618172,    0.000000
1564.945221,    0.000000
1565.303961,    0.000000
1565.384549,    0.000000
1565.439584,    0.000000
1565.467122,    0.000000
1565.486782,    0.000000
1565.498378,    0.000000
1565.505571,    0.000000
1565.512170,    0.000000
1565.578160,    0.000000
1566.111782,    0.000000
1569.384434,    0.000000
1578.246930,    0.000000
1588.354980,    0.000000
1598.453427,    0.000000
1608.612393,    0.000000
1618.800859,    0.000000
1629.039420,    0.000000
1639.320516,    0.000000
1649.634078,    0.000000
1659.983444,    0.000000
1670.364787,    0.000000
1680.794562,    0.000000
1691.268614,    0.000000
1701.766539,    0.000000
1712.297011,    0.000000
1722.860961,    0.000000
1733.474520,    0.000000
1744.144144,    0.000000
1754.831961,    0.000000
1765.581514,    0.000000
1776.356349,    0.000000
1787.186241,    0.000000
1798.046252,    0.000000
1808.964794,    0.000000
1819.903022,    0.000000
1830.889952,    0.000000
1841.906137,    0.000000
1852.967362,    0.000000
1864.073746,    0.000000
1875.232590,    0.000000
1886.402627,    0.000000
1897.645968,    0.000000
1908.910532,    0.000000
1920.208509,    0.000000
1931.542650,    0.000000
1942.909477,    0.000000
1954.356129,    0.000000
1965.806655,    0.000000
1977.317481,    0.000000
1988.856478,    0.000000
2000.440831,    0.000000
2012.071970,    0.000000
2023.743570,    0.000000
2035.462546,    0.000000
2047.203289,    0.000000
2059.002469,    0.000000
2070.829172,    0.000000
2082.699463,    0.000000
2094.602004,    0.000000
2106.578692,    0.000000
2118.577714,    0.000000
2130.618936,    0.000000
2142.693726,    0.000000
2154.814748,    0.000000
2167.000338,    0.000000
2179.194598,    0.000000
2191.411742,    0.000000
2203.690323,    0.000000
2216.019982,    0.000000
2228.358940,    0.000000
2240.768575,    0.000000
2253.200649,    0.000000
2265.699866,    0.000000
2278.213463,    0.000000
2290.809217,    0.000000
2303.404994,    0.000000
2316.042044,    0.000000
2328.724345,    0.000000
2341.465740,    0.000000
2354.245922,    0.000000
2367.069967,    0.000000
2372.492426,    0.000000
2379.923498,    0.000000
2392.843407,    0.121985
2405.785180,    0.332680
2418.773343,    0.541497
2431.813246,    0.748847
2444.881203,    0.954819
2457.972605,    1.159049
2471.119483,    1.361480
2484.314733,    1.562619
2497.560462,    1.762362
2510.830238,    1.960744
2524.116064,    2.157381
2537.468300,    2.352170
2550.840693,    2.545864
2564.259797,    2.737795
2577.699343,    2.928359
2591.169219,    3.117194
2604.704848,    3.304455
2618.263303,    3.490642
2631.872560,    3.675170
2645.511616,    3.858431
2659.177631,    4.040150
2672.898627,    4.220304
2686.651355,    4.399272
2700.411829,    4.576757
2703.172549,    4.752465
2712.901845,    4.787373
2713.453808,    4.910072
2713.626186,    4.916986
2713.848511,    4.919144
2713.901305,    4.921928
2714.002273,    4.922589
2714.026210,    4.923852
2714.033393,    4.924152
2714.040924,    4.924242
2714.048142,    4.924336
2714.120319,    4.924426
2714.618896,    4.925330
2717.388675,    4.931569
2729.523761,    4.966211
2743.872548,    5.117567
2758.233892,    5.294852
2772.636870,    5.470359
2787.057544,    5.644460
2801.510969,    5.816879
2815.998244,    5.987814
2830.547433,    6.157290
2845.120729,    6.325643
2859.717751,    6.492444
2874.314583,    6.657704
2888.973936,    6.821171
2903.645704,    6.983565
2904.799787,    7.147134
2905.954488,    7.162511
2907.111274,    7.177945
2908.268407,    7.193450
2909.425802,    7.209005
2910.584049,    7.224611
2911.738835,    7.240264
2912.898419,    7.255939
2914.059975,    7.271717
2915.219228,    7.287557
2916.381252,    7.303426
2917.541542,    7.319366
2918.703437,    7.335339
2919.866672,    7.351379
2921.034130,    7.367493
2922.198962,    7.383691
2923.364982,    7.399911
2924.535058,    7.416204
2925.702534,    7.432577
2926.875026,    7.448987
2928.049386,    7.465503
2929.223172,    7.482084
2930.398027,    7.498710
2931.571747,    7.515390
2932.748896,    7.532116
2933.919596,    7.548903
2935.099266,    7.565701
2936.272396,    7.582616
2937.453024,    7.599537
2938.631889,    7.616578
2939.814198,    7.633660
2940.998855,    7.650835
2942.184894,    7.668088
2943.372744,    7.685410
2944.561633,    7.702803
2945.749083,    7.720248
2946.942087,    7.737748
2948.137479,    7.755365
2949.330903,    7.773046
2950.525270,    7.790758
2951.719866,    7.808528
2952.914411,    7.826348
2954.114081,    7.844238
2955.314112,    7.862231
2956.510281,    7.880258
2957.714624,    7.898330
2958.909617,    7.916492
2960.113640,    7.934646
2961.315613,    7.952933
2962.520777,    7.971261
2963.726672,    7.989673
2964.935209,    8.008155
2966.144792,    8.026717
2967.358969,    8.045361
2968.578336,    8.064127
2969.795577,    8.082986
2971.012674,    8.101869
2972.227890,    8.120791
2973.444019,    8.139745
2974.667238,    8.158795
2975.890535,    8.177968
2977.116349,    8.197204
2978.342223,    8.216514
2979.569657,    8.235883
2980.802599,    8.255348
2982.036842,    8.274925
2983.270674,    8.294564
2984.510197,    8.314279
2985.751304,    8.334112
2986.989811,    8.353995
2988.226169,    8.373889
2989.474160,    8.393879
2990.720502,    8.414028
2991.965168,    8.434199
2993.203422,    8.454365
2994.446425,    8.474543
2995.700461,    8.494887
2996.950975,    8.515372
2998.206848,    8.535904
2999.461309,    8.556532
3000.719597,    8.577220
3001.985282,    8.598045
3003.245619,    8.618961
3004.514759,    8.639930
3005.786255,    8.661055
3007.048708,    8.682196
3008.319441,    8.703350
3009.590846,    8.724643
3010.866683,    8.746024
3012.146471,    8.767528
3013.427508,    8.789132
3014.708961,    8.810802
3015.992698,    8.832544
3017.274046,    8.854344
3018.567136,    8.876254
3019.856483,    8.898307
3021.146736,    8.920382
3022.438833,    8.942530
3023.728038,    8.964728
3025.022928,    8.986990
3026.323974,    9.009407
3027.637425,    9.032028
3028.940123,    9.041656
3030.256558,    9.051401
3031.571704,    9.061154
3032.882531,    9.070891
3034.188556,    9.080609
3035.505677,    9.090425
3036.824995,    9.100275
3038.143636,    9.110136
3039.457266,    9.119976
3040.773847,    9.129854
3042.106501,    9.139870
3043.441491,    9.149920
3044.775351,    9.159978
3046.106406,    9.170031
3047.437932,    9.180105
3048.780410,    9.190278
3050.123401,    9.200472
3051.466367,    9.210682
3052.814317,    9.220948
3054.165818,    9.231257
3055.511313,    9.241537
3056.858784,    9.251849
3058.214830,    9.262243
3059.568162,    9.272633
3060.926469,    9.283079
3062.282469,    9.293523
3063.648926,    9.304065
3065.009411,    9.314578
3066.375909,    9.325154
3067.748408,    9.335794
3069.124603,    9.346479
3070.499620,    9.357172
3071.872585,    9.367867
3073.248527,    9.378601
3074.633115,    9.389420
3076.023260,    9.400300
3077.403241,    9.411117
3078.787201,    9.421983
3080.183473,    9.432962
3081.577657,    9.443942
3082.969906,    9.454924
3084.369728,    9.465983
3085.776421,    9.477114
3087.169606,    9.488155
3088.579342,    9.499345
3089.990477,    9.510563
3091.397251,    9.521764
3092.807630,    9.533010
3094.228306,    9.544357
3095.644300,    9.555683
3097.070247,    9.567107
3098.499167,    9.578571
3099.923126,    9.590014
3101.340220,    9.601419
3102.778769,    9.613014
3104.214354,    9.624603
3105.649985,    9.636210
3107.090706,    9.647875
3108.524242,    9.659500
3109.965099,    9.671202
3111.407182,    9.682931
3112.856765,    9.694739
3114.313000,    9.706619
3115.769846,    9.718522
3117.235670,    9.730516
3118.695848,    9.742482
3120.164011,    9.754531
3121.630678,    9.766586
3123.096353,    9.778651
3124.567963,    9.790782
3126.049675,    9.803015
3127.531844,    9.815269
3128.361018,    9.822133
3129.027277,    9.827652
3130.518850,    9.840020
3132.013063,    9.852429
3133.504276,    9.864832
3135.002093,    9.877307
3136.498429,    9.889788
3137.999796,    9.902329
3139.504488,    9.914917
3141.011275,    9.927540
3142.529699,    9.940279
3144.039567,    9.952965
3145.559693,    9.965755
3147.074264,    9.978517
3148.591937,    9.991324
3150.116066,   10.004203
3151.635892,   10.017064
3153.176261,   10.030118
3154.716460,   10.043189
3156.253594,   10.056253
3157.808544,   10.069487
3159.354347,   10.082661
3160.910114,   10.095940
3162.466604,   10.109243
3164.023341,   10.122568
3165.589924,   10.135995
3167.149864,   10.149385
3168.713249,   10.162823
3170.284278,   10.176345
3171.857758,   10.189908
3173.436109,   10.203531
3175.015103,   10.217179
3176.600182,   10.230899
3178.185449,   10.244639
3179.770731,   10.258399
3181.359222,   10.272205
3182.943728,   10.285996
3184.542560,   10.299930
3186.137513,   10.313849
3187.754723,   10.327982
3189.356988,   10.342004
3190.973415,   10.356169
3192.593554,   10.370386
3194.208809,   10.384579
3195.833172,   10.398871
3197.448467,   10.413103
3199.066283,   10.427377
3200.694306,   10.441759
3202.335753,   10.456280
3203.983064,   10.470872
3205.641674,   10.485584
3207.280989,   10.500144
3208.935643,   10.514860
3210.581419,   10.529517
3212.235919,   10.544271
3213.894933,   10.559085
3215.557438,   10.573949
3217.230472,   10.588927
3218.892935,   10.603830
3220.562790,   10.618819
3222.249932,   10.633984
3223.933857,   10.649139
3225.624941,   10.664378
3227.308030,   10.679565
3229.004340,   10.694891
3230.704535,   10.710272
3232.414320,   10.725760
3234.113373,   10.741171
3235.821159,   10.756681
3237.532997,   10.772247
3239.245409,   10.787839
3240.975826,   10.803615
3242.698938,   10.819344
3244.423983,   10.835112
3246.154190,   10.850946
3247.880095,   10.866761
3249.613659,   10.882666
3251.362330,   10.898730
3253.099862,   10.914712
3254.841425,   10.930750
3256.600014,   10.946966
3258.362478,   10.963238
3260.136084,   10.979634
3261.901322,   10.995972
3263.672672,   11.012387
3265.431316,   11.028705
3267.208604,   11.045216
3268.984295,   11.061732
3270.767219,   11.078336
3272.544773,   11.094911
3274.345841,   11.111725
3276.132361,   11.128423
3277.929463,   11.145241
3279.730499,   11.162116
3281.524651,   11.178947
3283.332549,   11.195927
3285.149411,   11.213012
3286.970691,   11.230159
3288.793420,   11.247340
3290.618291,   11.264562
3292.431301,   11.281693
3294.254611,   11.298941
3296.095281,   11.316374
3297.925454,   11.333727
3299.766295,   11.351203
3301.597446,   11.368607
3303.438861,   11.386128
3305.289616,   11.403759
3307.146645,   11.421471
3309.019026,   11.439349
3310.887434,   11.457211
3312.731949,   11.474864
3314.600649,   11.492769
3316.466430,   11.510667
3318.346211,   11.528719
3320.237034,   11.546899
3322.109861,   11.564925
3323.994295,   11.583084
3325.889043,   11.601363
3327.781595,   11.619641
3329.700331,   11.638193
3331.600635,   11.656587
3333.500876,   11.675001
3335.420113,   11.693620
3337.327173,   11.712142
3339.240048,   11.730740
3341.139730,   11.749230
3343.051078,   11.767854
3344.963995,   11.786514
3346.885643,   11.805279
3348.820767,   11.824196
3350.745775,   11.843034
3352.686959,   11.862051
3354.603012,   11.880842
3356.528096,   11.899741
3358.492832,   11.919051
3360.442831,   11.938236
3362.387970,   11.957393
3364.360263,   11.976838
3366.315655,   11.996137
3368.285608,   12.015600
3370.266521,   12.035191
3372.239699,   12.054727
3374.198643,   12.074142
3376.197916,   12.093976
3378.174825,   12.113610
3380.142206,   12.133168
3382.119297,   12.152843
3384.112691,   12.172700
3386.096415,   12.192481
3388.082682,   12.212307
3390.069027,   12.232153
3392.069418,   12.252160
3394.052031,   12.272009
3396.059065,   12.292122
3398.064824,   12.312242
3400.076317,   12.332439
3402.080159,   12.352579
3404.104856,   12.372948
3406.106249,   12.393103
3408.121300,   12.413414
3410.138968,   12.433772
3412.155264,   12.454134
3414.192841,   12.474732
3416.242318,   12.495469
3418.284041,   12.516148
3420.337146,   12.536961
3422.370310,   12.557592
3424.428263,   12.578494
3426.474693,   12.599298
3428.522177,   12.620132
3430.583555,   12.641126
3432.636737,   12.662057
3434.691409,   12.683021
3436.752335,   12.704069
3438.798176,   12.724981
3440.863595,   12.746112
3442.926301,   12.767234
3444.985002,   12.788334
3447.072013,   12.809743
3449.156307,   12.831143
3451.234774,   12.852502
3453.333852,   12.874091
3455.406112,   12.895424
3457.496279,   12.916959
3459.587240,   12.938521
3461.692500,   12.960249
3463.783547,   12.981848
3465.878107,   13.003503
3467.976884,   13.025219
3470.083798,   13.047038
3472.213426,   13.069110
3474.342112,   13.091191
3476.447421,   13.113048
3478.548375,   13.134877
3480.639137,   13.156618
3482.749495,   13.178580
3484.861714,   13.200580
3486.982420,   13.222685
3489.087778,   13.244648
3491.198645,   13.266686
3493.365272,   13.289324
3495.492002,   13.311563
3497.620671,   13.333839
3499.742684,   13.356063
3501.843323,   13.378080
3503.985048,   13.400544
3506.132395,   13.423085
3508.261823,   13.445454
3510.390436,   13.467832
3512.513455,   13.490168
3514.651458,   13.512677
3516.795001,   13.535262
3518.934556,   13.557821
3521.083114,   13.580492
3523.238875,   13.603255
3525.392920,   13.626016
3527.551713,   13.648844
3529.707244,   13.671653
3531.905682,   13.694934
3534.074983,   13.717921
3536.235993,   13.740838
3538.408309,   13.763890
3540.576812,   13.786917
3542.752240,   13.810034
3544.928152,   13.833171
3547.091890,   13.856195
3549.267380,   13.879359
3551.450147,   13.902617
3553.639640,   13.925961
3555.836959,   13.949405
3558.041858,   13.972944
3560.239168,   13.996418
3562.433565,   14.019876
3564.627198,   14.043341
3566.814273,   14.066751
3568.998617,   14.090146
3571.213178,   14.113880
3573.411288,   14.137452
3575.622068,   14.161174
3577.834719,   14.184931
3580.041345,   14.208638
3582.260869,   14.232498
3584.467607,   14.256235
3586.668004,   14.279918
3588.860160,   14.303526
3591.081375,   14.327460
3593.295965,   14.351337
3595.523121,   14.375364
3597.751594,   14.399418
3599.968563,   14.423362
3602.198440,   14.447459
3604.425159,   14.471535
3606.645292,   14.495554
3608.872265,   14.519659
3611.086817,   14.543643
3613.324075,   14.567886
3615.566272,   14.592196
3617.814691,   14.616586
3620.066078,   14.641021
3622.304082,   14.665324
3624.553286,   14.689761
3626.801628,   14.714201
3628.265805,   14.730124
