Time, Speed
   0.000000,    0.000712
   0.001667,    0.711686
   0.003333,    1.419240
   0.005000,    2.126284
   0.006667,    2.833329
   0.008333,    3.540373
   0.010000,    4.247418
   0.011667,    4.954462
   0.013333,    5.661507
   0.015000,    6.368551
   0.016667,    7.075596
   0.018333,    7.782640
   0.020000,    8.482094
   0.021667,    9.180601
   0.023333,    9.879107
   0.025000,   10.577614
   0.026667,   11.276121
   0.028333,   11.974627
   0.030000,   12.673134
   0.031667,   13.371640
   0.033333,   14.070147
   0.035000,   14.768653
   0.036667,   15.459339
   0.038333,   16.149048
   0.040000,   16.838757
   0.041667,   17.528465
   0.043333,   18.218174
   0.045000,   18.907883
   0.046667,   19.597592
   0.048333,   20.287301
   0.050000,   20.977010
   0.051667,   21.666719
   0.053333,   22.348391
   0.055000,   23.029059
   0.056667,   23.709727
   0.058333,   24.390396
   0.060000,   25.071064
   0.061667,   25.751732
   0.063333,   26.432401
   0.065000,   27.113069
   0.066667,   27.793737
   0.068333,   28.474406
   0.070000,   29.146836
   0.071667,   29.818238
   0.073333,   30.489640
   0.075000,   31.161042
   0.076667,   31.832444
   0.078333,   32.503846
   0.080000,   33.175248
   0.081667,   33.846650
   0.083333,   34.518052
   0.085000,   35.189454
   0.086667,   35.851445
   0.088333,   36.512260
   0.090000,   37.173075
   0.091667,   37.833890
   0.093333,   38.494706
   0.095000,   39.155521
   0.096667,   39.816336
   0.098333,   40.477151
   0.100000,   41.137966
   0.101667,   41.798782
   0.103333,   42.447981
   0.105000,   43.095730
   0.106667,   43.743480
   0.108333,   44.391229
   0.110000,   45.038978
   0.111667,   45.686727
   0.113333,   46.334477
   0.115000,   46.982226
   0.116667,   47.629975
   0.118333,   48.277724
   0.120000,   48.913761
   0.121667,   49.548335
   0.123333,   50.182910
   0.125000,   50.817484
   0.126667,   51.452058
   0.128333,   52.086633
   0.130000,   52.721207
   0.131667,   53.355781
   0.133333,   53.990356
   0.135000,   54.624930
   0.136667,   55.247766
   0.138333,   55.869137
   0.140000,   56.490507
   0.141667,   57.111877
   0.143333,   57.733248
   0.145000,   58.354618
   0.146667,   58.975988
   0.148333,   59.597359
   0.150000,   60.218729
   0.151667,   60.840099
   0.153333,   61.449722
   0.155000,   62.057878
   0.156667,   62.666035
   0.158333,   63.274191
   0.160000,   63.882347
   0.161667,   64.490503
   0.163333,   65.098660
   0.165000,   65.706816
   0.166667,   66.314972
   0.168333,   66.923128
   0.170000,   67.519545
   0.171667,   68.114495
   0.173333,   68.709446
   0.175000,   69.304396
   0.176667,   69.899347
   0.178333,   70.494297
   0.180000,   71.089247
   0.181667,   71.684198
   0.183333,   72.279148
   0.185000,   72.874099
   0.186667,   73.455657
   0.188333,   74.035542
   0.190000,   74.615428
   0.191667,   75.195314
   0.193333,   75.775200
   0.195000,   76.355086
   0.196667,   76.934971
   0.198333,   77.514857
   0.200000,   78.094743
   0.201667,   78.674629
   0.203333,   79.239313
   0.205000,   79.802100
   0.206667,   80.364887
   0.208333,   80.927674
   0.210000,   81.490461
   0.211667,   82.053248
   0.213333,   82.616035
   0.215000,   83.178822
   0.216667,   83.741609
   0.218333,   84.304396
   0.220000,   84.852211
   0.221667,   85.398156
   0.223333,   85.944102
   0.225000,   86.490047
   0.226667,   87.035993
   0.228333,   87.581938
   0.230000,   88.127884
   0.231667,   88.673829
   0.233333,   89.219775
   0.235000,   89.765720
   0.236667,   90.296948
   0.238333,   90.826338
   0.240000,   91.355729
   0.241667,   91.885119
   0.243333,   92.414509
   0.245000,   92.943899
   0.246667,   93.473289
   0.248333,   94.002680
   0.250000,   94.532070
   0.251667,   95.061460
   0.253333,   95.576397
   0.255000,   96.089529
   0.256667,   96.602661
   0.258333,   97.115793
   0.260000,   97.628925
   0.261667,   98.142057
   0.263333,   98.655189
   0.265000,   99.168321
   0.266667,   99.681453
   0.268333,  100.194585
   0.270000,  100.693536
   0.271667,  101.190717
   0.273333,  101.687898
   0.275000,  102.185079
   0.276667,  102.682259
   0.278333,  103.179440
   0.280000,  103.676621
   0.281667,  104.173802
   0.283333,  104.670983
   0.285000,  105.168163
   0.286667,  105.651445
   0.288333,  106.132990
   0.290000,  106.614536
   0.291667,  107.096082
   0.293333,  107.577628
   0.295000,  108.059173
   0.296667,  108.540719
   0.298333,  109.022265
   0.300000,  109.503811
   0.301667,  109.985357
   0.303333,  110.455725
   0.305000,  110.924698
   0.306667,  111.393672
   0.308333,  111.862645
   0.310000,  112.331618
   0.311667,  112.800591
   0.312642,  113.075024
   0.314309,  113.536527
   0.315975,  113.998031
   0.317642,  114.459534
   0.319309,  114.913469
   0.320975,  115.359011
   0.322642,  115.804553
   0.324309,  116.250095
   0.325975,  116.695637
   0.327642,  117.141179
   0.329309,  117.586721
   0.330975,  118.032263
   0.332642,  118.477805
   0.334309,  118.923347
   0.335975,  119.356185
   0.337642,  119.774936
   0.339309,  120.193687
   0.340975,  120.612438
   0.342642,  121.031188
   0.344309,  121.449939
   0.345975,  121.868690
   0.347642,  122.287441
   0.349309,  122.706192
   0.350975,  123.124943
   0.352642,  123.529412
   0.354309,  123.918044
   0.355975,  124.306676
   0.357642,  124.695308
   0.359309,  125.083940
   0.360975,  125.472572
   0.362642,  125.861204
   0.364309,  126.249836
   0.365975,  126.638468
   0.367642,  127.027100
   0.368518,  127.231451
   0.370185,  127.472290
   0.371852,  127.713130
   0.373518,  127.953969
   0.375185,  128.194809
   0.376852,  128.435648
   0.378518,  128.676488
   0.380185,  128.917327
   0.381852,  129.158166
   0.383518,  129.399006
   0.385185,  129.639845
   0.386852,  129.762296
   0.388518,  129.884746
   0.390185,  130.007197
   0.391852,  130.129648
   0.393518,  130.252098
   0.395185,  130.310748
   0.396852,  130.369398
   0.398518,  130.428048
   0.400185,  130.486697
   0.401852,  130.545347
   0.403518,  130.536939
   0.405185,  130.528532
   0.406852,  130.520124
   0.408518,  130.511716
   0.410185,  130.503308
   0.410185,  170.000000
   1.605400,  170.000000
   2.825139,  170.000000
   4.084250,  170.000000
   5.433948,  170.000000
   6.920962,  170.000000
   8.567151,  170.000000
  10.405942,  170.000000
  12.496124,  170.000000
  14.982109,  170.000000
  14.982109,  200.450475
  15.801212,  200.450475
  16.620315,  200.450475
  17.439418,  200.450475
  18.258522,  200.450475
  19.077625,  200.450475
  19.896728,  200.450475
  20.715832,  200.450475
  21.534935,  200.450475
  22.354038,  200.450475
  23.173141,  200.450475
  23.992245,  200.450475
  24.811348,  200.450475
  25.630451,  200.450475
  26.449554,  200.450475
  27.268658,  200.450475
  28.087761,  200.450475
  28.906864,  200.450475
  29.725967,  200.450475
  30.545071,  200.450475
  31.364174,  200.450475
  32.183277,  200.450475
  33.002380,  200.450475
  33.821484,  200.450475
  34.640587,  200.450475
  35.459690,  200.450475
  36.278793,  200.450475
  37.097897,  200.450475
  37.917000,  200.450475
  38.736103,  200.450475
  38.736103,  220.000000
  39.896032,  220.000000
  41.058764,  220.000000
  42.220084,  220.000000
  43.376236,  220.000000
  44.524976,  220.000000
  45.661995,  220.000000
  46.783206,  220.000000
  47.900611,  220.000000
  49.010509,  220.000000
  49.010509,  170.000000
  49.589924,  170.000000
  50.174964,  170.000000
  50.765469,  170.000000
  51.364214,  170.000000
  51.981985,  170.000000
  52.628108,  170.000000
  53.305596,  170.000000
  54.016769,  170.000000
  54.763442,  170.000000
  54.763442,  142.243373
  56.615618,  142.181278
  58.468603,  142.119181
  60.322397,  142.057080
  62.177002,  141.994976
  64.032418,  141.932869
  65.888646,  141.870760
  67.745686,  141.808647
  69.603540,  141.746531
  71.462208,  141.684412
  71.462208,  220.000000
  72.108615,  220.000000
  72.744854,  220.000000
  73.383630,  220.000000
  74.025084,  220.000000
  74.669359,  220.000000
  75.316244,  220.000000
  75.965602,  220.000000
  76.616971,  220.000000
  77.269434,  220.000000
  77.269434,  142.243373
  82.269434,  142.181278
  87.269434,  142.119181
  92.269434,  142.057080
  97.269434,  141.994976
 102.269434,  141.932869
 107.269434,  141.870760
 112.269434,  141.808647
 117.269434,  141.746531
 122.269434,  141.684412
 122.269434,   94.889919
 122.271101,  116.242461
 122.272767,  116.244766
 122.274434,  116.247071
 122.276101,  116.249292
 122.277767,  116.251496
 122.279434,  116.253701
 122.281101,  116.255906
 122.282767,  116.258110
 122.284434,  116.260315
 122.286101,  116.262520
 122.287767,  116.264724
 122.289434,  116.266929
 122.291101,  116.269134
 122.292767,  116.271305
 122.294434,  116.273469
 122.296101,  116.275633
 122.297767,  116.277798
 122.299434,  116.279962
 122.301101,  116.282127
 122.302767,  116.284291
 122.304434,  116.286455
 122.306101,  116.288620
 122.307767,  116.290784
 122.309434,  116.292945
 122.311101,  116.295105
 122.312767,  116.297265
 122.314434,  116.299425
 122.316101,  116.301585
 122.317767,  116.303745
 122.319434,  116.305905
 122.321101,  116.308065
 122.322767,  116.310225
 122.324434,  116.312386
 122.326101,  116.314381
 122.327767,  116.316345
 122.329434,  116.318308
 122.331101,  116.320272
 122.332767,  116.322236
 122.334434,  116.324199
 122.336101,  116.326163
 122.337767,  116.328126
 122.339434,  116.330090
 122.341101,  116.332054
 122.342767,  116.334159
 122.344434,  116.336293
 122.346101,  116.338426
 122.347767,  116.340559
 122.349434,  116.342693
 122.351101,  116.344826
 122.352767,  116.346959
 122.354434,  116.349093
 122.356101,  116.351226
 122.357767,  116.353359
 122.359434,  116.355436
 122.361101,  116.357502
 122.362767,  116.359568
 122.364434,  116.361634
 122.366101,  116.363700
 122.367767,  116.365766
 122.369434,  116.367832
 122.371101,  116.369898
 122.372767,  116.371964
 122.374434,  116.374030
 122.376101,  116.376104
 122.377767,  116.378180
 122.379434,  116.380255
 122.381101,  116.382331
 122.382767,  116.384406
 122.384434,  116.386482
 122.386101,  116.388558
 122.387767,  116.390633
 122.389434,  116.392709
 122.391101,  116.394784
 122.392767,  116.396936
 122.394434,  116.399102
 122.396101,  116.401269
 122.397767,  116.403435
 122.399434,  116.405601
 122.401101,  116.407768
 122.402767,  116.409934
 122.404434,  116.412100
 122.406101,  116.414267
 122.407767,  116.416433
 122.409434,  116.418529
 122.411101,  116.420610
 122.412767,  116.422692
 122.414434,  116.424773
 122.416101,  116.426855
 122.417767,  116.428937
 122.419434,  116.431018
 122.421101,  116.433100
 122.422767,  116.435181
 122.424434,  116.437263
 122.426101,  116.439342
 122.427767,  116.441420
 122.429434,  116.443499
 122.431101,  116.445578
 122.432767,  116.447656
 122.434434,  116.449735
 122.436101,  116.451813
 122.437767,  116.453892
 122.439434,  116.455970
 122.441101,  116.458049
 122.442767,  116.459968
 122.444434,  116.461856
 122.446101,  116.463744
 122.447767,  116.465632
 122.449434,  116.467520
 122.451101,  116.469408
 122.452767,  116.471296
 122.454434,  116.473184
 122.456101,  116.475073
 122.457767,  116.476961
 122.459434,  116.478819
 122.461101,  116.480673
 122.462767,  116.482526
 122.464434,  116.484379
 122.466101,  116.486232
 122.467767,  116.488085
 122.469434,  116.489938
 122.471101,  116.491791
 122.472767,  116.493644
 122.474434,  116.495497
 122.476101,  116.497343
 122.477767,  116.499187
 122.479434,  116.501031
 122.481101,  116.502875
 122.482767,  116.504719
 122.484434,  116.506563
 122.486101,  116.508407
 122.487767,  116.510251
 122.489434,  116.512095
 122.491101,  116.513939
 122.492767,  116.515857
 122.494434,  116.517788
 122.496101,  116.519720
 122.497767,  116.521652
 122.499434,  116.523584
 122.501101,  116.525516
 122.502767,  116.527448
 122.504434,  116.529380
 122.506101,  116.531311
 122.507767,  116.533243
 122.509434,  116.535103
 122.511101,  116.536948
 122.512767,  116.538794
 122.514434,  116.540639
 122.516101,  116.542484
 122.517767,  116.544330
 122.519434,  116.546175
 122.521101,  116.548021
 122.522767,  116.549866
 122.524434,  116.551712
 122.526101,  116.553562
 122.527767,  116.555413
 122.529434,  116.557265
 122.531101,  116.559116
 122.532767,  116.560967
 122.534434,  116.562819
 122.536101,  116.564670
 122.537767,  116.566522
 122.539434,  116.568373
 122.541101,  116.570224
 122.542767,  116.572161
 122.544434,  116.574115
 122.546101,  116.576068
 122.547767,  116.578022
 122.549434,  116.579975
 122.551101,  116.581928
 122.552767,  116.583882
 122.554434,  116.585835
 122.556101,  116.587789
 122.557767,  116.589742
 122.559434,  116.591634
 122.561101,  116.593513
 122.562767,  116.595392
 122.564434,  116.597271
 122.566101,  116.599151
 122.567767,  116.601030
 122.569434,  116.602909
 122.571101,  116.604788
 122.572767,  116.606668
 122.574434,  116.608547
 122.576101,  116.610439
 122.577767,  116.612335
 122.579434,  116.614230
 122.581101,  116.616125
 122.582767,  116.618021
 122.584434,  116.619916
 122.586101,  116.621811
 122.587767,  116.623706
 122.589434,  116.625602
 122.591101,  116.627497
 122.592767,  116.629483
 122.594434,  116.631488
 122.596101,  116.633492
 122.597767,  116.635496
 122.599434,  116.637500
 122.601101,  116.639504
 122.602767,  116.641508
 122.604434,  116.643513
 122.606101,  116.645517
 122.607767,  116.647521
 122.609434,  116.649466
 122.611101,  116.651399
 122.612767,  116.653333
 122.614434,  116.655266
 122.616101,  116.657200
 122.617767,  116.659133
 122.619434,  116.661067
 122.621101,  116.663000
 122.622767,  116.664934
 122.624434,  116.666867
 122.626101,  116.668815
 122.627767,  116.670764
 122.629434,  116.672714
 122.631101,  116.674664
 122.632767,  116.676614
 122.634434,  116.678564
 122.636101,  116.680514
 122.637767,  116.682463
 122.639434,  116.684413
 122.641101,  116.686363
 122.642767,  116.688402
 122.644434,  116.690458
 122.646101,  116.692514
 122.647767,  116.694570
 122.649434,  116.696626
 122.651101,  116.698681
 122.652767,  116.700737
 122.654434,  116.702793
 122.656101,  116.704849
 122.657767,  116.706905
 122.659434,  116.708897
 122.661101,  116.710876
 122.662767,  116.712856
 122.664434,  116.714835
 122.666101,  116.716814
 122.667767,  116.718794
 122.669434,  116.720773
 122.671101,  116.722752
 122.672767,  116.724732
 122.674434,  116.726711
 122.676101,  116.728697
 122.677767,  116.730684
 122.679434,  116.732672
 122.681101,  116.734659
 122.682767,  116.736646
 122.684434,  116.738634
 122.686101,  116.740621
 122.687767,  116.742608
 122.689434,  116.744595
 122.691101,  116.746583
 122.692767,  116.748651
 122.694434,  116.750735
 122.696101,  116.752818
 122.697767,  116.754902
 122.699434,  116.756986
 122.701101,  116.759070
 122.702767,  116.761153
 122.704434,  116.763237
 122.706101,  116.765321
 122.707767,  116.767405
 122.709434,  116.769415
 122.711101,  116.771411
 122.712767,  116.773407
 122.714434,  116.775403
 122.716101,  116.777399
 122.717767,  116.779395
 122.719434,  116.781391
 122.721101,  116.783387
 122.722767,  116.785383
 122.724434,  116.787379
 122.726101,  116.789372
 122.727767,  116.791364
 122.729434,  116.793356
 122.731101,  116.795349
 122.732767,  116.797341
 122.734434,  116.799334
 122.736101,  116.801326
 122.737767,  116.803319
 122.739434,  116.805311
 122.741101,  116.807304
 122.742767,  116.809368
 122.744434,  116.811446
 122.746101,  116.813524
 122.747767,  116.815602
 122.749434,  116.817680
 122.751101,  116.819758
 122.752767,  116.821836
 122.754434,  116.823914
 122.756101,  116.825992
 122.757767,  116.828070
 122.759434,  116.830066
 122.761101,  116.832046
 122.762767,  116.834026
 122.764434,  116.836006
 122.766101,  116.837986
 122.767767,  116.839966
 122.769434,  116.841946
 122.771101,  116.843926
 122.772767,  116.845906
 122.774434,  116.847886
 122.776101,  116.850077
 122.777767,  116.852310
 122.779434,  116.854543
 122.781101,  116.856776
 122.782767,  116.859009
 122.784434,  116.861241
 122.786101,  116.863474
 122.787767,  116.865707
 122.789434,  116.867940
 122.791101,  116.870173
 122.792767,  116.872433
 122.794434,  116.874698
 122.796101,  116.876963
 122.797767,  116.879229
 122.799434,  116.881494
 122.801101,  116.883759
 122.802767,  116.886025
 122.804434,  116.888290
 122.806101,  116.890555
 122.807767,  116.892820
 122.809434,  116.894979
 122.811101,  116.897116
 122.812767,  116.899253
 122.814434,  116.901390
 122.816101,  116.903527
 122.817767,  116.905664
 122.819434,  116.907802
 122.821101,  116.909939
 122.822767,  116.912076
 122.824434,  116.914213
 122.826101,  116.916312
 122.827767,  116.918404
 122.829434,  116.920496
 122.831101,  116.922587
 122.832767,  116.924679
 122.834434,  116.926771
 122.836101,  116.928862
 122.837767,  116.930954
 122.839434,  116.933046
 122.841101,  116.935137
 122.842767,  116.937224
 122.844434,  116.939309
 122.846101,  116.941394
 122.847767,  116.943479
 122.849434,  116.945564
 122.851101,  116.947649
 122.852767,  116.949734
 122.854434,  116.951819
 122.856101,  116.953904
 122.857767,  116.955989
 122.859434,  116.958139
 122.861101,  116.960302
 122.862767,  116.962464
 122.864434,  116.964627
 122.866101,  116.966790
 122.867767,  116.968952
 122.869434,  116.971115
 122.871101,  116.973277
 122.872767,  116.975440
 122.874434,  116.977603
 122.876101,  116.979684
 122.877767,  116.981749
 122.879434,  116.983814
 122.881101,  116.985879
 122.882767,  116.987944
 122.884434,  116.990009
 122.886101,  116.992074
 122.887767,  116.994139
 122.889434,  116.996204
 122.891101,  116.998270
 122.892767,  117.000325
 122.894434,  117.002379
 122.896101,  117.004433
 122.897767,  117.006487
 122.899434,  117.008540
 122.901101,  117.010594
 122.902767,  117.012648
 122.904434,  117.014702
 122.906101,  117.016756
 122.907767,  117.018809
 122.909434,  117.020698
 122.911101,  117.022555
 122.912767,  117.024411
 122.914434,  117.026267
 122.916101,  117.028124
 122.917767,  117.029980
 122.919434,  117.031837
 122.921101,  117.033693
 122.922767,  117.035550
 122.924434,  117.037406
 122.926101,  117.039232
 122.927767,  117.041053
 122.929434,  117.042873
 122.931101,  117.044693
 122.932767,  117.046514
 122.934434,  117.048334
 122.936101,  117.050154
 122.937767,  117.051975
 122.939434,  117.053795
 122.941101,  117.055615
 122.942767,  117.057431
 122.944434,  117.059245
 122.946101,  117.061059
 122.947767,  117.062873
 122.949434,  117.064688
 122.951101,  117.066502
 122.952767,  117.068316
 122.954434,  117.070130
 122.956101,  117.071945
 122.957767,  117.073759
 122.959434,  117.075653
 122.961101,  117.077563
 122.962767,  117.079472
 122.964434,  117.081382
 122.966101,  117.083291
 122.967767,  117.085201
 122.969434,  117.087111
 122.971101,  117.089020
 122.972767,  117.090930
 122.974434,  117.092840
 122.976101,  117.094684
 122.977767,  117.096515
 122.979434,  117.098346
 122.981101,  117.100178
 122.982767,  117.102009
 122.984434,  117.103840
 122.986101,  117.105672
 122.987767,  117.107503
 122.989434,  117.109334
 122.991101,  117.111166
 122.992767,  117.113012
 122.994434,  117.114861
 122.996101,  117.116710
 122.997767,  117.118558
 122.999434,  117.120407
 123.001101,  117.122256
 123.002767,  117.124105
 123.004434,  117.125954
 123.006101,  117.127803
 123.007767,  117.129652
 123.009434,  117.131598
 123.011101,  117.133563
 123.012767,  117.135528
 123.014434,  117.137492
 123.016101,  117.139457
 123.017767,  117.141422
 123.019434,  117.143387
 123.021101,  117.145352
 123.022767,  117.147316
 123.024434,  117.149281
 123.026101,  117.151194
 123.027767,  117.153097
 123.029434,  117.155000
 123.031101,  117.156902
 123.032767,  117.158805
 123.034434,  117.160708
 123.036101,  117.162611
 123.037767,  117.164514
 123.039434,  117.166416
 123.041101,  117.168319
 123.042767,  117.170056
 123.044434,  117.171761
 123.046101,  117.173466
 123.047767,  117.175170
 123.049434,  117.176875
 123.051101,  117.178580
 123.052767,  117.180285
 123.054434,  117.181989
 123.056101,  117.183694
 123.057767,  117.185399
 123.059434,  117.187081
 123.061101,  117.188760
 123.062767,  117.190438
 123.064434,  117.192117
 123.066101,  117.193795
 123.067767,  117.195473
 123.069434,  117.197152
 123.071101,  117.198830
 123.072767,  117.200509
 123.074434,  117.202187
 123.076101,  117.203876
 123.077767,  117.205567
 123.079434,  117.207257
 123.081101,  117.208948
 123.082767,  117.210639
 123.084434,  117.212330
 123.086101,  117.214021
 123.087767,  117.215712
 123.089434,  117.217403
 123.091101,  117.219093
 123.092767,  117.220886
 123.094434,  117.222699
 123.096101,  117.224511
 123.097767,  117.226323
 123.099434,  117.228136
 123.101101,  117.229948
 123.102767,  117.231761
 123.104434,  117.233573
 123.106101,  117.235386
 123.107767,  117.237198
 123.109434,  117.238971
 123.111101,  117.240736
 123.112767,  117.242501
 123.114434,  117.244266
 123.116101,  117.246031
 123.117767,  117.247797
 123.119434,  117.249562
 123.121101,  117.251327
 123.122767,  117.253092
 123.124434,  117.254857
 123.126101,  117.256737
 123.127767,  117.258639
 123.129434,  117.260542
 123.131101,  117.262444
 123.132767,  117.264346
 123.134434,  117.266249
 123.136101,  117.268151
 123.137767,  117.270053
 123.139434,  117.271956
 123.141101,  117.273858
 123.142767,  117.275703
 123.144434,  117.277537
 123.146101,  117.279370
 123.147767,  117.281204
 123.149434,  117.283037
 123.151101,  117.284871
 123.152767,  117.286705
 123.154434,  117.288538
 123.156101,  117.290372
 123.157767,  117.292205
 123.159434,  117.294040
 123.161101,  117.295875
 123.162767,  117.297710
 123.164434,  117.299545
 123.166101,  117.301379
 123.167767,  117.303214
 123.169434,  117.305049
 123.171101,  117.306884
 123.172767,  117.308719
 123.174434,  117.310554
 123.176101,  117.312474
 123.177767,  117.314411
 123.179434,  117.316349
 123.181101,  117.318286
 123.182767,  117.320223
 123.184434,  117.322160
 123.186101,  117.324098
 123.187767,  117.326035
 123.189434,  117.327972
 123.191101,  117.329910
 123.192767,  117.331785
 123.194434,  117.333649
 123.196101,  117.335513
 123.197767,  117.337376
 123.199434,  117.339240
 123.201101,  117.341104
 123.202767,  117.342967
 123.204434,  117.344831
 123.206101,  117.346695
 123.207767,  117.348559
 123.209434,  117.350440
 123.211101,  117.352325
 123.212767,  117.354210
 123.214434,  117.356095
 123.216101,  117.357981
 123.217767,  117.359866
 123.219434,  117.361751
 123.221101,  117.363636
 123.222767,  117.365521
 123.224434,  117.367406
 123.226101,  117.369390
 123.227767,  117.371394
 123.229434,  117.373398
 123.231101,  117.375401
 123.232767,  117.377405
 123.234434,  117.379408
 123.236101,  117.381412
 123.237767,  117.383415
 123.239434,  117.385419
 123.241101,  117.387423
 123.242767,  117.389374
 123.244434,  117.391316
 123.246101,  117.393257
 123.247767,  117.395199
 123.249434,  117.397140
 123.251101,  117.399082
 123.252767,  117.401023
 123.254434,  117.402964
 123.256101,  117.404906
 123.257767,  117.406847
 123.259434,  117.408621
 123.261101,  117.410362
 123.262767,  117.412103
 123.264434,  117.413843
 123.266101,  117.415584
 123.267767,  117.417325
 123.269434,  117.419066
 123.271101,  117.420807
 123.272767,  117.422548
 123.274434,  117.424288
 123.276101,  117.426004
 123.277767,  117.427716
 123.279434,  117.429427
 123.281101,  117.431139
 123.282767,  117.432850
 123.284434,  117.434561
 123.286101,  117.436273
 123.287767,  117.437984
 123.289434,  117.439695
 123.291101,  117.441407
 123.292767,  117.443125
 123.294434,  117.444844
 123.296101,  117.446564
 123.297767,  117.448284
 123.299434,  117.450003
 123.301101,  117.451723
 123.302767,  117.453443
 123.304434,  117.455162
 123.306101,  117.456882
 123.307767,  117.458602
 123.309434,  117.460419
 123.311101,  117.462256
 123.312767,  117.464093
 123.314434,  117.465929
 123.316101,  117.467766
 123.317767,  117.469603
 123.319434,  117.471440
 123.321101,  117.473276
 123.322767,  117.475113
 123.324434,  117.476950
 123.326101,  117.478742
 123.327767,  117.480525
 123.329434,  117.482308
 123.331101,  117.484092
 123.332767,  117.485875
 123.334434,  117.487658
 123.336101,  117.489441
 123.337767,  117.491225
 123.339434,  117.493008
 123.341101,  117.494791
 123.342767,  117.496685
 123.344434,  117.498600
 123.346101,  117.500515
 123.347767,  117.502430
 123.349434,  117.504345
 123.351101,  117.506260
 123.352767,  117.508175
 123.354434,  117.510091
 123.356101,  117.512006
 123.357767,  117.513921
 123.359434,  117.515773
 123.361101,  117.517614
 123.362767,  117.519454
 123.364434,  117.521295
 123.366101,  117.523135
 123.367767,  117.524975
 123.369434,  117.526816
 123.371101,  117.528656
 123.372767,  117.530497
 123.374434,  117.532337
 123.376101,  117.534172
 123.377767,  117.536006
 123.379434,  117.537840
 123.381101,  117.539674
 123.382767,  117.541508
 123.384434,  117.543342
 123.386101,  117.545176
 123.387767,  117.547010
 123.389434,  117.548844
 123.391101,  117.550678
 123.392767,  117.552591
 123.394434,  117.554520
 123.396101,  117.556449
 123.397767,  117.558378
 123.399434,  117.560307
 123.401101,  117.562236
 123.402767,  117.564165
 123.404434,  117.566094
 123.406101,  117.568023
 123.407767,  117.569952
 123.409434,  117.571817
 123.411101,  117.573669
 123.412767,  117.575521
 123.414434,  117.577374
 123.416101,  117.579226
 123.417767,  117.581078
 123.419434,  117.582931
 123.421101,  117.584783
 123.422767,  117.586635
 123.424434,  117.588488
 123.426101,  117.590354
 123.427767,  117.592222
 123.429434,  117.594091
 123.431101,  117.595960
 123.432767,  117.597828
 123.434434,  117.599697
 123.436101,  117.601565
 123.437767,  117.603434
 123.439434,  117.605302
 123.441101,  117.607171
 123.442767,  117.609137
 123.444434,  117.611121
 123.446101,  117.613106
 123.447767,  117.615091
 123.449434,  117.617075
 123.451101,  117.619060
 123.452767,  117.621044
 123.454434,  117.623029
 123.456101,  117.625014
 123.457767,  117.626998
 123.459434,  117.628933
 123.461101,  117.630858
 123.462767,  117.632783
 123.464434,  117.634708
 123.466101,  117.636633
 123.467767,  117.638558
 123.469434,  117.640483
 123.471101,  117.642408
 123.472767,  117.644333
 123.474434,  117.646258
 123.476101,  117.648017
 123.477767,  117.649745
 123.479434,  117.651472
 123.481101,  117.653199
 123.482767,  117.654927
 123.484434,  117.656654
 123.486101,  117.658381
 123.487767,  117.660109
 123.489434,  117.661836
 123.491101,  117.663563
 123.492767,  117.665267
 123.494434,  117.666967
 123.496101,  117.668667
 123.497767,  117.670367
 123.499434,  117.672066
 123.501101,  117.673766
 123.502767,  117.675466
 123.504434,  117.677165
 123.506101,  117.678865
 123.507767,  117.680565
 123.509434,  117.682274
 123.511101,  117.683985
 123.512767,  117.685696
 123.514434,  117.687406
 123.516101,  117.689117
 123.517767,  117.690828
 123.519434,  117.692539
 123.521101,  117.694250
 123.522767,  117.695961
 123.524434,  117.697672
 123.526101,  117.699485
 123.527767,  117.701317
 123.529434,  117.703150
 123.531101,  117.704983
 123.532767,  117.706816
 123.534434,  117.708648
 123.536101,  117.710481
 123.537767,  117.712314
 123.539434,  117.714147
 123.541101,  117.715979
 123.542767,  117.717774
 123.544434,  117.719562
 123.546101,  117.721350
 123.547767,  117.723138
 123.549434,  117.724926
 123.551101,  117.726713
 123.552767,  117.728501
 123.554434,  117.730289
 123.556101,  117.732077
 123.557767,  117.733864
 123.559434,  117.735765
 123.561101,  117.737689
 123.562767,  117.739612
 123.564434,  117.741535
 123.566101,  117.743458
 123.567767,  117.745381
 123.569434,  117.747305
 123.571101,  117.749228
 123.572767,  117.751151
 123.574434,  117.753074
 123.576101,  117.754943
 123.577767,  117.756802
 123.579434,  117.758661
 123.581101,  117.760520
 123.582767,  117.762378
 123.584434,  117.764237
 123.586101,  117.766096
 123.587767,  117.767955
 123.589434,  117.769813
 123.591101,  117.771672
 123.592767,  117.773531
 123.594434,  117.775389
 123.596101,  117.777248
 123.597767,  117.779106
 123.599434,  117.780965
 123.601101,  117.782823
 123.602767,  117.784682
 123.604434,  117.786540
 123.606101,  117.788399
 123.607767,  117.790257
 123.609434,  117.792201
 123.611101,  117.794162
 123.612767,  117.796123
 123.614434,  117.798084
 123.616101,  117.800044
 123.617767,  117.802005
 123.619434,  117.803966
 123.621101,  117.805927
 123.622767,  117.807888
 123.624434,  117.809848
 123.626101,  117.811749
 123.627767,  117.813638
 123.629434,  117.815527
 123.631101,  117.817416
 123.632767,  117.819305
 123.634434,  117.821194
 123.636101,  117.823083
 123.637767,  117.824972
 123.639434,  117.826861
 123.641101,  117.828750
 123.642767,  117.830656
 123.644434,  117.832565
 123.646101,  117.834474
 123.647767,  117.836383
 123.649434,  117.838292
 123.651101,  117.840201
 123.652767,  117.842110
 123.654434,  117.844018
 123.656101,  117.845927
 123.657767,  117.847836
 123.659434,  117.849844
 123.661101,  117.851871
 123.662767,  117.853899
 123.664434,  117.855926
 123.666101,  117.857953
 123.667767,  117.859980
 123.669434,  117.862007
 123.671101,  117.864035
 123.672767,  117.866062
 123.674434,  117.868089
 123.676101,  117.870066
 123.677767,  117.872033
 123.679434,  117.874000
 123.681101,  117.875966
 123.682767,  117.877933
 123.684434,  117.879900
 123.686101,  117.881867
 123.687767,  117.883834
 123.689434,  117.885801
 123.691101,  117.887768
 123.692767,  117.889566
 123.694434,  117.891332
 123.696101,  117.893098
 123.697767,  117.894864
 123.699434,  117.896630
 123.701101,  117.898396
 123.702767,  117.900162
 123.704434,  117.901928
 123.706101,  117.903694
 123.707767,  117.905460
 123.709434,  117.907200
 123.711101,  117.908934
 123.712767,  117.910668
 123.714434,  117.912403
 123.716101,  117.914137
 123.717767,  117.915871
 123.719434,  117.917605
 123.721101,  117.919340
 123.722767,  117.921074
 123.724434,  117.922808
 123.726101,  117.924548
 123.727767,  117.926288
 123.729434,  117.928029
 123.731101,  117.929769
 123.732767,  117.931510
 123.734434,  117.933250
 123.736101,  117.934991
 123.737767,  117.936731
 123.739434,  117.938471
 123.741101,  117.940212
 123.742767,  117.942050
 123.744434,  117.943907
 123.746101,  117.945764
 123.747767,  117.947621
 123.749434,  117.949477
 123.751101,  117.951334
 123.752767,  117.953191
 123.754434,  117.955048
 123.756101,  117.956905
 123.757767,  117.958762
 123.759434,  117.960575
 123.761101,  117.962381
 123.762767,  117.964186
 123.764434,  117.965991
 123.766101,  117.967796
 123.767767,  117.969601
 123.769434,  117.971406
 123.771101,  117.973211
 123.772767,  117.975016
 123.774434,  117.976821
 123.776101,  117.978734
 123.777767,  117.980669
 123.779434,  117.982603
 123.781101,  117.984538
 123.782767,  117.986472
 123.784434,  117.988407
 123.786101,  117.990341
 123.787767,  117.992276
 123.789434,  117.994210
 123.791101,  117.996145
 123.792767,  117.998020
 123.794434,  117.999883
 123.796101,  118.001746
 123.797767,  118.003610
 123.799434,  118.005473
 123.801101,  118.007336
 123.802767,  118.009200
 123.804434,  118.011063
 123.806101,  118.012926
 123.807767,  118.014790
 123.809434,  118.016648
 123.811101,  118.018505
 123.812767,  118.020363
 123.814434,  118.022220
 123.816101,  118.024078
 123.817767,  118.025935
 123.819434,  118.027792
 123.821101,  118.029650
 123.822767,  118.031507
 123.824434,  118.033365
 123.826101,  118.035304
 123.827767,  118.037260
 123.829434,  118.039215
 123.831101,  118.041171
 123.832767,  118.043127
 123.834434,  118.045082
 123.836101,  118.047038
 123.837767,  118.048993
 123.839434,  118.050949
 123.841101,  118.052905
 123.842767,  118.054797
 123.844434,  118.056677
 123.846101,  118.058557
 123.847767,  118.060437
 123.849434,  118.062317
 123.851101,  118.064197
 123.852767,  118.066077
 123.854434,  118.067957
 123.856101,  118.069837
 123.857767,  118.071717
 123.859434,  118.073613
 123.861101,  118.075511
 123.862767,  118.077409
 123.864434,  118.079307
 123.866101,  118.081205
 123.867767,  118.083103
 123.869434,  118.085001
 123.871101,  118.086899
 123.872767,  118.088797
 123.874434,  118.090695
 123.876101,  118.092693
 123.877767,  118.094709
 123.879434,  118.096726
 123.881101,  118.098743
 123.882767,  118.100759
 123.884434,  118.102776
 123.886101,  118.104792
 123.887767,  118.106809
 123.889434,  118.108826
 123.891101,  118.110842
 123.892767,  118.112809
 123.894434,  118.114766
 123.896101,  118.116723
 123.897767,  118.118679
 123.899434,  118.120636
 123.901101,  118.122593
 123.902767,  118.124550
 123.904434,  118.126507
 123.906101,  118.128464
 123.907767,  118.130421
 123.909434,  118.132211
 123.911101,  118.133968
 123.912767,  118.135725
 123.914434,  118.137482
 123.916101,  118.139239
 123.917767,  118.140996
 123.919434,  118.142753
 123.921101,  118.144510
 123.922767,  118.146268
 123.924434,  118.148025
 123.926101,  118.149758
 123.927767,  118.151487
 123.929434,  118.153216
 123.931101,  118.154944
 123.932767,  118.156673
 123.934434,  118.158402
 123.936101,  118.160131
 123.937767,  118.161859
 123.939434,  118.163588
 123.941101,  118.165317
 123.942767,  118.167054
 123.944434,  118.168793
 123.946101,  118.170533
 123.947767,  118.172272
 123.949434,  118.174011
 123.951101,  118.175750
 123.952767,  118.177489
 123.954434,  118.179228
 123.956101,  118.180968
 123.957767,  118.182707
 123.959434,  118.184548
 123.961101,  118.186409
 123.962767,  118.188270
 123.964434,  118.190132
 123.966101,  118.191993
 123.967767,  118.193854
 123.969434,  118.195715
 123.971101,  118.197576
 123.972767,  118.199437
 123.974434,  118.201298
 123.976101,  118.203120
 123.977767,  118.204934
 123.979434,  118.206748
 123.981101,  118.208562
 123.982767,  118.210376
 123.984434,  118.212190
 123.986101,  118.214004
 123.987767,  118.215819
 123.989434,  118.217633
 123.991101,  118.219447
 123.992767,  118.221374
 123.994434,  118.223323
 123.996101,  118.225272
 123.997767,  118.227222
 123.999434,  118.229171
 124.001101,  118.231120
 124.002767,  118.233069
 124.004434,  118.235019
 124.006101,  118.236968
 124.007767,  118.238917
 124.009434,  118.240810
 124.011101,  118.242693
 124.012767,  118.244575
 124.014434,  118.246457
 124.016101,  118.248340
 124.017767,  118.250222
 124.019434,  118.252104
 124.021101,  118.253986
 124.022767,  118.255869
 124.024434,  118.257751
 124.026101,  118.259632
 124.027767,  118.261512
 124.029434,  118.263392
 124.031101,  118.265272
 124.032767,  118.267153
 124.034434,  118.269033
 124.036101,  118.270913
 124.037767,  118.272793
 124.039434,  118.274674
 124.041101,  118.276554
 124.042767,  118.278519
 124.044434,  118.280502
 124.046101,  118.282484
 124.047767,  118.284466
 124.049434,  118.286448
 124.051101,  118.288430
 124.052767,  118.290412
 124.054434,  118.292394
 124.056101,  118.294376
 124.057767,  118.296358
 124.059434,  118.298279
 124.061101,  118.300187
 124.062767,  118.302095
 124.064434,  118.304003
 124.066101,  118.305911
 124.067767,  118.307820
 124.069434,  118.309728
 124.071101,  118.311636
 124.072767,  118.313544
 124.074434,  118.315452
 124.076101,  118.317377
 124.077767,  118.319304
 124.079434,  118.321231
 124.081101,  118.323159
 124.082767,  118.325086
 124.084434,  118.327013
 124.086101,  118.328940
 124.087767,  118.330868
 124.089434,  118.332795
 124.091101,  118.334722
 124.092767,  118.336749
 124.094434,  118.338796
 124.096101,  118.340842
 124.097767,  118.342888
 124.099434,  118.344934
 124.101101,  118.346981
 124.102767,  118.349027
 124.104434,  118.351073
 124.106101,  118.353120
 124.107767,  118.355166
 124.109434,  118.357161
 124.111101,  118.359146
 124.112767,  118.361131
 124.114434,  118.363116
 124.116101,  118.365101
 124.117767,  118.367086
 124.119434,  118.369071
 124.121101,  118.371056
 124.122767,  118.373042
 124.124434,  118.375027
 124.126101,  118.376842
 124.127767,  118.378624
 124.129434,  118.380406
 124.131101,  118.382188
 124.132767,  118.383970
 124.134434,  118.385752
 124.136101,  118.387534
 124.137767,  118.389316
 124.139434,  118.391098
 124.141101,  118.392880
 124.142767,  118.394635
 124.144434,  118.396386
 124.146101,  118.398136
 124.147767,  118.399887
 124.149434,  118.401637
 124.151101,  118.403388
 124.152767,  118.405138
 124.154434,  118.406889
 124.156101,  118.408639
 124.157767,  118.410390
 124.159434,  118.412146
 124.161101,  118.413904
 124.162767,  118.415661
 124.164434,  118.417419
 124.166101,  118.419177
 124.167767,  118.420934
 124.169434,  118.422692
 124.171101,  118.424449
 124.172767,  118.426207
 124.174434,  118.427964
 124.176101,  118.429821
 124.177767,  118.431698
 124.179434,  118.433574
 124.181101,  118.435451
 124.182767,  118.437327
 124.184434,  118.439203
 124.186101,  118.441080
 124.187767,  118.442956
 124.189434,  118.444833
 124.191101,  118.446709
 124.192767,  118.448543
 124.194434,  118.450368
 124.196101,  118.452193
 124.197767,  118.454018
 124.199434,  118.455844
 124.201101,  118.457669
 124.202767,  118.459494
 124.204434,  118.461319
 124.206101,  118.463144
 124.207767,  118.464970
 124.209434,  118.466905
 124.211101,  118.468863
 124.212767,  118.470821
 124.214434,  118.472778
 124.216101,  118.474736
 124.217767,  118.476693
 124.219434,  118.478651
 124.221101,  118.480608
 124.222767,  118.482566
 124.224434,  118.484523
 124.226101,  118.486422
 124.227767,  118.488308
 124.229434,  118.490195
 124.231101,  118.492082
 124.232767,  118.493969
 124.234434,  118.495856
 124.236101,  118.497743
 124.237767,  118.499630
 124.239434,  118.501517
 124.241101,  118.503403
 124.242767,  118.505286
 124.244434,  118.507169
 124.246101,  118.509051
 124.247767,  118.510933
 124.249434,  118.512815
 124.251101,  118.514697
 124.252767,  118.516579
 124.254434,  118.518461
 124.256101,  118.520344
 124.257767,  118.522226
 124.259434,  118.524192
 124.261101,  118.526175
 124.262767,  118.528157
 124.264434,  118.530140
 124.266101,  118.532123
 124.267767,  118.534105
 124.269434,  118.536088
 124.271101,  118.538070
 124.272767,  118.540053
 124.274434,  118.542036
 124.276101,  118.543955
 124.277767,  118.545862
 124.279434,  118.547769
 124.281101,  118.549677
 124.282767,  118.551584
 124.284434,  118.553491
 124.286101,  118.555398
 124.287767,  118.557305
 124.289434,  118.559212
 124.291101,  118.561119
 124.292767,  118.563042
 124.294434,  118.564968
 124.296101,  118.566895
 124.297767,  118.568821
 124.299434,  118.570747
 124.301101,  118.572673
 124.302767,  118.574599
 124.304434,  118.576525
 124.306101,  118.578451
 124.307767,  118.580377
 124.309434,  118.582404
 124.311101,  118.584450
 124.312767,  118.586496
 124.314434,  118.588543
 124.316101,  118.590589
 124.317767,  118.592635
 124.319434,  118.594681
 124.321101,  118.596728
 124.322767,  118.598774
 124.324434,  118.600820
 124.326101,  118.602816
 124.327767,  118.604802
 124.329434,  118.606788
 124.331101,  118.608774
 124.332767,  118.610760
 124.334434,  118.612746
 124.336101,  118.614732
 124.337767,  118.616718
 124.339434,  118.618704
 124.341101,  118.620690
 124.342767,  118.622507
 124.344434,  118.624290
 124.346101,  118.626074
 124.347767,  118.627858
 124.349434,  118.629642
 124.351101,  118.631425
 124.352767,  118.633209
 124.354434,  118.634993
 124.356101,  118.636776
 124.357767,  118.638560
 124.359434,  118.640319
 124.361101,  118.642074
 124.362767,  118.643828
 124.364434,  118.645583
 124.366101,  118.647338
 124.367767,  118.649092
 124.369434,  118.650847
 124.371101,  118.652601
 124.372767,  118.654356
 124.374434,  118.656110
 124.376101,  118.657873
 124.377767,  118.659637
 124.379434,  118.661402
 124.381101,  118.663166
 124.382767,  118.664930
 124.384434,  118.666695
 124.386101,  118.668459
 124.387767,  118.670223
 124.389434,  118.671988
 124.391101,  118.673752
 124.392767,  118.675619
 124.394434,  118.677506
 124.396101,  118.679392
 124.397767,  118.681279
 124.399434,  118.683166
 124.401101,  118.685053
 124.402767,  118.686940
 124.404434,  118.688827
 124.406101,  118.690713
 124.407767,  118.692600
 124.409434,  118.694446
 124.411101,  118.696284
 124.412767,  118.698123
 124.414434,  118.699961
 124.416101,  118.701799
 124.417767,  118.703637
 124.419434,  118.705475
 124.421101,  118.707313
 124.422767,  118.709152
 124.424434,  118.710990
 124.426101,  118.712942
 124.427767,  118.714915
 124.429434,  118.716889
 124.431101,  118.718863
 124.432767,  118.720837
 124.434434,  118.722811
 124.436101,  118.724785
 124.437767,  118.726759
 124.439434,  118.728733
 124.441101,  118.730707
 124.442767,  118.732623
 124.444434,  118.734528
 124.446101,  118.736433
 124.447767,  118.738338
 124.449434,  118.740243
 124.451101,  118.742148
 124.452767,  118.744053
 124.454434,  118.745959
 124.456101,  118.747864
 124.457767,  118.749769
 124.459434,  118.751671
 124.461101,  118.753574
 124.462767,  118.755476
 124.464434,  118.757378
 124.466101,  118.759280
 124.467767,  118.761182
 124.469434,  118.763084
 124.471101,  118.764986
 124.472767,  118.766889
 124.474434,  118.768791
 124.476101,  118.770778
 124.477767,  118.772783
 124.479434,  118.774787
 124.481101,  118.776792
 124.482767,  118.778796
 124.484434,  118.780800
 124.486101,  118.782805
 124.487767,  118.784809
 124.489434,  118.786814
 124.491101,  118.788818
 124.492767,  118.790759
 124.494434,  118.792688
 124.496101,  118.794618
 124.497767,  118.796547
 124.499434,  118.798476
 124.501101,  118.800405
 124.502767,  118.802334
 124.504434,  118.804263
 124.506101,  118.806192
 124.507767,  118.808121
 124.509434,  118.810066
 124.511101,  118.812014
 124.512767,  118.813962
 124.514434,  118.815910
 124.516101,  118.817858
 124.517767,  118.819806
 124.519434,  118.821754
 124.521101,  118.823702
 124.522767,  118.825650
 124.524434,  118.827598
 124.526101,  118.829647
 124.527767,  118.831715
 124.529434,  118.833783
 124.531101,  118.835851
 124.532767,  118.837920
 124.534434,  118.839988
 124.536101,  118.842056
 124.537767,  118.844125
 124.539434,  118.846193
 124.541101,  118.848261
 124.542767,  118.850278
 124.544434,  118.852284
 124.546101,  118.854290
 124.547767,  118.856297
 124.549434,  118.858303
 124.551101,  118.860310
 124.552767,  118.862316
 124.554434,  118.864322
 124.556101,  118.866329
 124.557767,  118.868335
 124.559434,  118.870170
 124.561101,  118.871971
 124.562767,  118.873773
 124.564434,  118.875574
 124.566101,  118.877375
 124.567767,  118.879177
 124.569434,  118.880978
 124.571101,  118.882779
 124.572767,  118.884581
 124.574434,  118.886382
 124.576101,  118.888157
 124.577767,  118.889927
 124.579434,  118.891697
 124.581101,  118.893467
 124.582767,  118.895237
 124.584434,  118.897007
 124.586101,  118.898777
 124.587767,  118.900547
 124.589434,  118.902317
 124.591101,  118.904087
 124.592767,  118.905863
 124.594434,  118.907641
 124.596101,  118.909419
 124.597767,  118.911197
 124.599434,  118.912974
 124.601101,  118.914752
 124.602767,  118.916530
 124.604434,  118.918307
 124.606101,  118.920085
 124.607767,  118.921863
 124.609434,  118.923742
 124.611101,  118.925640
 124.612767,  118.927539
 124.614434,  118.929438
 124.616101,  118.931337
 124.617767,  118.933235
 124.619434,  118.935134
 124.621101,  118.937033
 124.622767,  118.938931
 124.624434,  118.940830
 124.626101,  118.942686
 124.627767,  118.944533
 124.629434,  118.946381
 124.631101,  118.948229
 124.632767,  118.950076
 124.634434,  118.951924
 124.636101,  118.953772
 124.637767,  118.955619
 124.639434,  118.957467
 124.641101,  118.959314
 124.642767,  118.961275
 124.644434,  118.963257
 124.646101,  118.965239
 124.647767,  118.967221
 124.649434,  118.969204
 124.651101,  118.971186
 124.652767,  118.973168
 124.654434,  118.975150
 124.656101,  118.977133
 124.657767,  118.979115
 124.659434,  118.981038
 124.661101,  118.982949
 124.662767,  118.984861
 124.664434,  118.986772
 124.666101,  118.988684
 124.667767,  118.990595
 124.669434,  118.992507
 124.671101,  118.994418
 124.672767,  118.996330
 124.674434,  118.998241
 124.676101,  119.000149
 124.677767,  119.002057
 124.679434,  119.003964
 124.681101,  119.005872
 124.682767,  119.007779
 124.684434,  119.009686
 124.686101,  119.011594
 124.687767,  119.013501
 124.689434,  119.015409
 124.691101,  119.017316
 124.692767,  119.019309
 124.694434,  119.021318
 124.696101,  119.023328
 124.697767,  119.025337
 124.699434,  119.027347
 124.701101,  119.029356
 124.702767,  119.031366
 124.704434,  119.033376
 124.706101,  119.035385
 124.707767,  119.037395
 124.709434,  119.039341
 124.711101,  119.041274
 124.712767,  119.043208
 124.714434,  119.045141
 124.716101,  119.047075
 124.717767,  119.049008
 124.719434,  119.050942
 124.721101,  119.052876
 124.722767,  119.054809
 124.724434,  119.056743
 124.726101,  119.058693
 124.727767,  119.060645
 124.729434,  119.062598
 124.731101,  119.064551
 124.732767,  119.066504
 124.734434,  119.068457
 124.736101,  119.070410
 124.737767,  119.072363
 124.739434,  119.074316
 124.741101,  119.076269
 124.742767,  119.078324
 124.744434,  119.080398
 124.746101,  119.082473
 124.747767,  119.084548
 124.749434,  119.086622
 124.751101,  119.088697
 124.752767,  119.090771
 124.754434,  119.092846
 124.756101,  119.094921
 124.757767,  119.096995
 124.759434,  119.099019
 124.761101,  119.101032
 124.762767,  119.103046
 124.764434,  119.105059
 124.766101,  119.107073
 124.767767,  119.109086
 124.769434,  119.111100
 124.771101,  119.113113
 124.772767,  119.115127
 124.774434,  119.117140
 124.776101,  119.118982
 124.777767,  119.120791
 124.779434,  119.122600
 124.781101,  119.124408
 124.782767,  119.126217
 124.784434,  119.128025
 124.786101,  119.129834
 124.787767,  119.131643
 124.789434,  119.133451
 124.791101,  119.135260
 124.792767,  119.137044
 124.794434,  119.138822
 124.796101,  119.140601
 124.797767,  119.142380
 124.799434,  119.144159
 124.801101,  119.145937
 124.802767,  119.147716
 124.804434,  119.149495
 124.806101,  119.151274
 124.807767,  119.153052
 124.809434,  119.154839
 124.811101,  119.156627
 124.812767,  119.158415
 124.814434,  119.160203
 124.816101,  119.161992
 124.817767,  119.163780
 124.819434,  119.165568
 124.821101,  119.167356
 124.822767,  119.169144
 124.824434,  119.170932
 124.826101,  119.172824
 124.827767,  119.174735
 124.829434,  119.176647
 124.831101,  119.178558
 124.832767,  119.180470
 124.834434,  119.182381
 124.836101,  119.184293
 124.837767,  119.186204
 124.839434,  119.188116
 124.841101,  119.190027
 124.842767,  119.191926
 124.844434,  119.193823
 124.846101,  119.195720
 124.846511,  119.196188
 124.848178,  119.198033
 124.849844,  119.199879
 124.851511,  119.201725
 124.853178,  119.203571
 124.854844,  119.205417
 124.856511,  119.207263
 124.858178,  119.192897
 124.859844,  118.999782
 124.861511,  118.806666
 124.863178,  118.613551
 124.864844,  118.420435
 124.866511,  118.227319
 124.868178,  118.034204
 124.869844,  117.841088
 124.871511,  117.647973
 124.873178,  117.454857
 124.874844,  117.261494
 124.876511,  117.065408
 124.878178,  116.869321
 124.879844,  116.673235
 124.881511,  116.477148
 124.883178,  116.281062
 124.884844,  116.084976
 124.886511,  115.888889
 124.888178,  115.692803
 124.889844,  115.496716
 124.891511,  115.300426
 124.893178,  115.101892
 124.894844,  114.903358
 124.896511,  114.704824
 124.898178,  114.506290
 124.899844,  114.307755
 124.901134,  114.154164
 124.902801,  113.953771
 124.904467,  113.753377
 124.906134,  113.552984
 124.907801,  113.352591
 124.909467,  113.025443
 124.911134,  112.680150
 124.912801,  112.334857
 124.914467,  111.989564
 124.916134,  111.644271
 124.917801,  111.298979
 124.919467,  110.953686
 124.921134,  110.608393
 124.922801,  110.263100
 124.924467,  109.917807
 124.926134,  109.429968
 124.927801,  108.921724
 124.929467,  108.413480
 124.931134,  107.905236
 124.932801,  107.396993
 124.934467,  106.888749
 124.936134,  106.380505
 124.937801,  105.872261
 124.939467,  105.364017
 124.941134,  104.855773
 124.942801,  104.228919
 124.944467,  103.585087
 124.946134,  102.941255
 124.947801,  102.297423
 124.949467,  101.653591
 124.951134,  101.009758
 124.952801,  100.365926
 124.954467,   99.722094
 124.956134,   99.078262
 124.957801,   98.434430
 124.959467,   97.790545
 124.961134,   97.146652
 124.962081,   96.780716
 124.963748,   96.155364
 124.965414,   95.530012
 124.967081,   94.904660
 124.968748,   94.279308
 124.970414,   93.653956
 124.972081,   93.028604
 124.973748,   92.403252
 124.975414,   91.863392
 124.977081,   91.430980
 124.978748,   90.998568
 124.980414,   90.566156
 124.982081,   90.133744
 124.983748,   89.701332
 124.985414,   89.268920
 124.987081,   88.836508
 124.988748,   88.404096
 124.990414,   87.971684
 124.992081,   87.348730
 124.993748,   86.486297
 124.995414,   85.623863
 124.997081,   84.761429
 124.998748,   83.898996
 125.000414,   83.036562
 125.002081,   82.174128
 125.003748,   81.311695
 125.005414,   80.422459
 125.007081,   79.521988
 125.008748,   78.621517
 125.010414,   77.721045
 125.012081,   76.820574
 125.013748,   75.920103
 125.015414,   75.019631
 125.017081,   74.123362
 125.018748,   73.229433
 125.020414,   72.335504
 125.022081,   71.441576
 125.023748,   70.547647
 125.025414,   69.653719
 125.027081,   68.759790
 125.028748,   67.865862
 125.030414,   66.971933
 125.032081,   66.078005
 125.033748,   65.191878
 125.035414,   64.310098
 125.037081,   63.428319
 125.038748,   62.546539
 125.040414,   61.664760
 125.042081,   60.782980
 125.043748,   59.901201
 125.045414,   59.019421
 125.047081,   58.137642
 125.048748,   57.255862
 125.050414,   56.379882
 125.052081,   55.507133
 125.053748,   54.634384
 125.055414,   53.761635
 125.057081,   52.888886
 125.058748,   52.016137
 125.060414,   51.143388
 125.062081,   50.270639
 125.063748,   49.397890
 125.065414,   48.525141
 125.067081,   47.651307
 125.068748,   46.776868
 125.070414,   45.902429
 125.072081,   45.027991
 125.073748,   44.153552
 125.075414,   43.279113
 125.077081,   42.404675
 125.078748,   41.530236
 125.080414,   40.655797
 125.082081,   39.781359
 125.083748,   38.908726
 125.085414,   38.037098
 125.087081,   37.165471
 125.088748,   36.293844
 125.090414,   35.422217
 125.092081,   34.550590
 125.093748,   33.678963
 125.095414,   32.807336
 125.097081,   31.935709
 125.098748,   31.064082
 125.100414,   30.197344
 125.102081,   29.333332
 125.103748,   28.469320
 125.105414,   27.605308
 125.107081,   26.741296
 125.108748,   25.877284
 125.110414,   25.013272
 125.112081,   24.149260
 125.113748,   23.285248
 125.115414,   22.421235
 125.117081,   21.565090
 125.118748,   20.713330
 125.120414,   19.861569
 125.122081,   19.009808
 125.123748,   18.158047
 125.125414,   17.306286
 125.127081,   16.454525
 125.128748,   15.602764
 125.130414,   14.751003
 125.132081,   13.899243
 125.133748,   13.058156
 125.135414,   12.223018
 125.137081,   11.387881
 125.138748,   10.552743
 125.140414,    9.717605
 125.142081,    8.882468
 125.143748,    8.047330
 125.145414,    7.212192
 125.147081,    6.377054
 125.148748,    5.541917
 125.150414,    4.718182
 125.152081,    3.900803
 125.153748,    3.083423
 125.155414,    2.266043
 125.157081,    1.448664
 125.158748,    0.631284
 125.160050,   -0.007251
