Time, Speed
   0.000000,    0.000643
   0.001667,    0.643039
   0.003333,    1.282344
   0.005000,    1.921189
   0.006667,    2.560035
   0.008333,    3.198880
   0.010000,    3.837725
   0.011667,    4.476570
   0.013333,    5.115415
   0.015000,    5.754260
   0.016667,    6.393105
   0.018333,    7.031950
   0.020000,    7.663937
   0.021667,    8.295068
   0.023333,    8.926198
   0.025000,    9.557329
   0.026667,   10.188460
   0.028333,   10.819591
   0.030000,   11.450721
   0.031667,   12.081852
   0.033333,   12.712983
   0.035000,   13.344114
   0.036667,   13.968178
   0.038333,   14.591359
   0.040000,   15.214541
   0.041667,   15.837722
   0.043333,   16.460904
   0.045000,   17.084086
   0.046667,   17.707267
   0.048333,   18.330449
   0.050000,   18.953631
   0.051667,   19.576812
   0.053333,   20.192732
   0.055000,   20.807745
   0.056667,   21.422758
   0.058333,   22.037772
   0.060000,   22.652785
   0.061667,   23.267798
   0.063333,   23.882811
   0.065000,   24.497824
   0.066667,   25.112837
   0.068333,   25.727850
   0.070000,   26.335420
   0.071667,   26.942061
   0.073333,   27.548702
   0.075000,   28.155342
   0.076667,   28.761983
   0.078333,   29.368623
   0.080000,   29.975264
   0.081667,   30.581905
   0.083333,   31.188545
   0.085000,   31.795186
   0.086667,   32.393323
   0.088333,   32.990397
   0.090000,   33.587472
   0.091667,   34.184547
   0.093333,   34.781622
   0.095000,   35.378697
   0.096667,   35.975772
   0.098333,   36.572847
   0.100000,   37.169922
   0.101667,   37.766997
   0.103333,   38.353577
   0.105000,   38.938846
   0.106667,   39.524115
   0.108333,   40.109385
   0.110000,   40.694654
   0.111667,   41.279923
   0.113333,   41.865193
   0.115000,   42.450462
   0.116667,   43.035731
   0.118333,   43.621000
   0.120000,   44.195687
   0.121667,   44.769052
   0.123333,   45.342417
   0.125000,   45.915783
   0.126667,   46.489148
   0.128333,   47.062513
   0.130000,   47.635878
   0.131667,   48.209244
   0.133333,   48.782609
   0.135000,   49.355974
   0.136667,   49.918733
   0.138333,   50.480168
   0.140000,   51.041603
   0.141667,   51.603038
   0.143333,   52.164472
   0.145000,   52.725907
   0.146667,   53.287342
   0.148333,   53.848777
   0.150000,   54.410212
   0.151667,   54.971647
   0.153333,   55.522467
   0.155000,   56.071963
   0.156667,   56.621458
   0.158333,   57.170953
   0.160000,   57.720448
   0.161667,   58.269944
   0.163333,   58.819439
   0.165000,   59.368934
   0.166667,   59.918430
   0.168333,   60.467925
   0.170000,   61.006813
   0.171667,   61.544376
   0.173333,   62.081940
   0.175000,   62.619503
   0.176667,   63.157066
   0.178333,   63.694630
   0.180000,   64.232193
   0.181667,   64.769756
   0.183333,   65.307320
   0.185000,   65.844883
   0.186667,   66.370345
   0.188333,   66.894297
   0.190000,   67.418249
   0.191667,   67.942201
   0.193333,   68.466152
   0.195000,   68.990104
   0.196667,   69.514056
   0.198333,   70.038008
   0.200000,   70.561959
   0.201667,   71.085911
   0.203333,   71.596128
   0.205000,   72.104630
   0.206667,   72.613132
   0.208333,   73.121635
   0.210000,   73.630137
   0.211667,   74.138639
   0.213333,   74.647141
   0.215000,   75.155643
   0.216667,   75.664145
   0.218333,   76.172648
   0.220000,   76.667622
   0.221667,   77.160907
   0.223333,   77.654193
   0.225000,   78.147478
   0.226667,   78.640763
   0.228333,   79.134048
   0.230000,   79.627334
   0.231667,   80.120619
   0.233333,   80.613904
   0.235000,   81.107189
   0.236667,   81.587177
   0.238333,   82.065503
   0.240000,   82.543830
   0.241667,   83.022157
   0.243333,   83.500484
   0.245000,   83.978811
   0.246667,   84.457138
   0.248333,   84.935464
   0.250000,   85.413791
   0.251667,   85.892118
   0.253333,   86.357386
   0.255000,   86.821022
   0.256667,   87.284659
   0.258333,   87.748296
   0.260000,   88.211933
   0.261667,   88.675570
   0.263333,   89.139207
   0.265000,   89.602844
   0.266667,   90.066480
   0.268333,   90.530117
   0.270000,   90.980941
   0.271667,   91.430166
   0.273333,   91.879390
   0.275000,   92.328614
   0.276667,   92.777838
   0.278333,   93.227062
   0.280000,   93.676287
   0.281667,   94.125511
   0.283333,   94.574735
   0.285000,   95.023959
   0.286667,   95.460625
   0.288333,   95.895722
   0.290000,   96.330819
   0.291667,   96.765917
   0.293333,   97.201014
   0.295000,   97.636111
   0.296667,   98.071209
   0.298333,   98.506306
   0.300000,   98.941403
   0.301667,   99.376501
   0.303333,   99.801499
   0.305000,  100.225236
   0.306667,  100.648974
   0.308333,  101.072711
   0.310000,  101.496449
   0.311667,  101.920186
   0.312642,  102.168148
   0.314309,  102.585136
   0.315975,  103.002124
   0.317642,  103.419112
   0.319309,  103.829262
   0.320975,  104.231828
   0.322642,  104.634395
   0.324309,  105.036961
   0.325975,  105.439527
   0.327642,  105.842094
   0.329309,  106.244660
   0.330975,  106.647226
   0.332642,  107.049793
   0.334309,  107.452359
   0.335975,  107.843447
   0.337642,  108.221806
   0.339309,  108.600166
   0.340975,  108.978525
   0.342642,  109.356885
   0.344309,  109.735244
   0.345975,  110.113604
   0.347642,  110.491963
   0.349309,  110.870323
   0.350975,  111.248682
   0.352642,  111.614137
   0.354309,  111.965283
   0.355975,  112.316429
   0.357642,  112.667575
   0.359309,  113.018720
   0.360975,  113.369866
   0.362642,  113.721012
   0.364309,  114.072157
   0.365975,  114.423303
   0.367642,  114.774449
   0.368518,  114.959089
   0.370185,  115.177555
   0.371852,  115.396021
   0.373518,  115.614487
   0.375185,  115.832953
   0.376852,  116.051419
   0.378518,  116.269885
   0.380185,  116.488351
   0.381852,  116.706817
   0.383518,  116.925283
   0.385185,  117.143749
   0.386852,  117.256647
   0.388518,  117.369545
   0.390185,  117.482442
   0.391852,  117.595340
   0.393518,  117.708238
   0.395185,  117.764477
   0.396852,  117.820717
   0.398518,  117.876957
   0.400185,  117.933196
   0.401852,  117.989436
   0.403518,  117.986138
   0.405185,  117.982839
   0.406852,  117.979541
   0.408518,  117.976243
   0.410185,  117.972944
   0.410185,  170.093708
   1.605400,  174.882273
   2.825139,  179.870735
   4.084250,  185.070238
   5.433948,  190.492713
   6.920962,  196.150937
   8.567151,  202.058610
  10.405942,  208.230435
  12.496124,  214.682206
  14.982109,  221.430906
  14.982109,  261.093707
  15.801212,  261.093707
  16.620315,  261.093707
  17.439418,  261.093707
  18.258522,  261.093707
  19.077625,  261.093707
  19.896728,  261.093707
  20.715832,  261.093707
  21.534935,  261.093707
  22.354038,  261.093707
  23.173141,  261.093707
  23.992245,  261.093707
  24.811348,  261.093707
  25.630451,  261.093707
  26.449554,  261.093707
  27.268658,  261.093707
  28.087761,  261.093707
  28.906864,  261.093707
  29.725967,  261.093707
  30.545071,  261.093707
  31.364174,  261.093707
  32.183277,  261.093707
  33.002380,  261.093707
  33.821484,  261.093707
  34.640587,  261.093707
  35.459690,  261.093707
  36.278793,  261.093707
  37.097897,  261.093707
  37.917000,  261.093707
  38.736103,  261.093707
  38.736103,  286.557643
  39.896032,  278.562731
  41.058764,  270.890209
  42.220084,  263.523159
  43.376236,  256.445748
  44.524976,  249.643151
  45.661995,  243.101474
  46.783206,  236.807685
  47.900611,  230.749548
  49.010509,  224.915572
  49.010509,  173.798396
  49.589924,  176.249628
  50.174964,  178.751789
  50.765469,  181.306282
  51.364214,  183.914560
  51.981985,  186.578125
  52.628108,  189.298533
  53.305596,  192.077394
  54.016769,  194.916374
  54.763442,  197.817201
  54.763442,  165.518740
  56.615618,  165.446485
  58.468603,  165.374227
  60.322397,  165.301965
  62.177002,  165.229699
  64.032418,  165.157429
  65.888646,  165.085156
  67.745686,  165.012880
  69.603540,  164.940600
  71.462208,  164.868316
  71.462208,  255.998731
  72.108615,  252.244720
  72.744854,  248.570745
  73.383630,  244.974572
  74.025084,  241.454044
  74.669359,  238.007077
  75.316244,  234.631659
  75.965602,  231.325845
  76.616971,  228.087755
  77.269434,  224.915572
  77.269434,  165.518740
  82.269434,  165.446485
  87.269434,  165.374227
  92.269434,  165.301965
  97.269434,  165.229699
 102.269434,  165.157429
 107.269434,  165.085156
 112.269434,  165.012880
 117.269434,  164.940600
 122.269434,  164.868316
 122.269434,  107.370490
 122.271101,  107.371118
 122.272767,  107.371742
 122.274434,  107.372366
 122.276101,  107.372912
 122.277767,  107.373444
 122.279434,  107.373976
 122.281101,  107.374508
 122.282767,  107.375040
 122.284434,  107.375572
 122.286101,  107.376104
 122.287767,  107.376635
 122.289434,  107.377167
 122.291101,  107.377699
 122.292767,  107.378201
 122.294434,  107.378696
 122.296101,  107.379192
 122.297767,  107.379687
 122.299434,  107.380183
 122.301101,  107.380678
 122.302767,  107.381174
 122.304434,  107.381669
 122.306101,  107.382165
 122.307767,  107.382660
 122.309434,  107.383152
 122.311101,  107.383644
 122.312767,  107.384136
 122.314434,  107.384628
 122.316101,  107.385120
 122.317767,  107.385611
 122.319434,  107.386103
 122.321101,  107.386595
 122.322767,  107.387087
 122.324434,  107.387578
 122.326101,  107.387920
 122.327767,  107.388232
 122.329434,  107.388543
 122.331101,  107.388855
 122.332767,  107.389167
 122.334434,  107.389479
 122.336101,  107.389791
 122.337767,  107.390103
 122.339434,  107.390415
 122.341101,  107.390727
 122.342767,  107.391169
 122.344434,  107.391638
 122.346101,  107.392106
 122.347767,  107.392574
 122.349434,  107.393043
 122.351101,  107.393511
 122.352767,  107.393979
 122.354434,  107.394448
 122.356101,  107.394916
 122.357767,  107.395384
 122.359434,  107.395800
 122.361101,  107.396206
 122.362767,  107.396612
 122.364434,  107.397017
 122.366101,  107.397423
 122.367767,  107.397829
 122.369434,  107.398235
 122.371101,  107.398640
 122.372767,  107.399046
 122.374434,  107.399452
 122.376101,  107.399865
 122.377767,  107.400280
 122.379434,  107.400695
 122.381101,  107.401110
 122.382767,  107.401525
 122.384434,  107.401940
 122.386101,  107.402355
 122.387767,  107.402770
 122.389434,  107.403185
 122.391101,  107.403600
 122.392767,  107.404084
 122.394434,  107.404582
 122.396101,  107.405080
 122.397767,  107.405577
 122.399434,  107.406075
 122.401101,  107.406573
 122.402767,  107.407071
 122.404434,  107.407569
 122.406101,  107.408067
 122.407767,  107.408564
 122.409434,  107.408997
 122.411101,  107.409416
 122.412767,  107.409836
 122.414434,  107.410256
 122.416101,  107.410675
 122.417767,  107.411095
 122.419434,  107.411514
 122.421101,  107.411934
 122.422767,  107.412353
 122.424434,  107.412773
 122.426101,  107.413190
 122.427767,  107.413607
 122.429434,  107.414025
 122.431101,  107.414442
 122.432767,  107.414859
 122.434434,  107.415276
 122.436101,  107.415693
 122.437767,  107.416110
 122.439434,  107.416527
 122.441101,  107.416944
 122.442767,  107.417215
 122.444434,  107.417458
 122.446101,  107.417701
 122.447767,  107.417944
 122.449434,  107.418187
 122.451101,  107.418430
 122.452767,  107.418672
 122.454434,  107.418915
 122.456101,  107.419158
 122.457767,  107.419401
 122.459434,  107.419618
 122.461101,  107.419829
 122.462767,  107.420041
 122.464434,  107.420253
 122.466101,  107.420464
 122.467767,  107.420676
 122.469434,  107.420887
 122.471101,  107.421099
 122.472767,  107.421311
 122.474434,  107.421522
 122.476101,  107.421727
 122.477767,  107.421931
 122.479434,  107.422135
 122.481101,  107.422339
 122.482767,  107.422544
 122.484434,  107.422748
 122.486101,  107.422952
 122.487767,  107.423156
 122.489434,  107.423360
 122.491101,  107.423564
 122.492767,  107.423835
 122.494434,  107.424119
 122.496101,  107.424404
 122.497767,  107.424688
 122.499434,  107.424972
 122.501101,  107.425257
 122.502767,  107.425541
 122.504434,  107.425825
 122.506101,  107.426110
 122.507767,  107.426394
 122.509434,  107.426612
 122.511101,  107.426817
 122.512767,  107.427021
 122.514434,  107.427226
 122.516101,  107.427431
 122.517767,  107.427635
 122.519434,  107.427840
 122.521101,  107.428045
 122.522767,  107.428249
 122.524434,  107.428454
 122.526101,  107.428664
 122.527767,  107.428875
 122.529434,  107.429086
 122.531101,  107.429296
 122.532767,  107.429507
 122.534434,  107.429718
 122.536101,  107.429929
 122.537767,  107.430140
 122.539434,  107.430350
 122.541101,  107.430561
 122.542767,  107.430850
 122.544434,  107.431154
 122.546101,  107.431458
 122.547767,  107.431762
 122.549434,  107.432066
 122.551101,  107.432370
 122.552767,  107.432674
 122.554434,  107.432978
 122.556101,  107.433282
 122.557767,  107.433586
 122.559434,  107.433833
 122.561101,  107.434068
 122.562767,  107.434304
 122.564434,  107.434539
 122.566101,  107.434775
 122.567767,  107.435010
 122.569434,  107.435246
 122.571101,  107.435481
 122.572767,  107.435717
 122.574434,  107.435952
 122.576101,  107.436200
 122.577767,  107.436451
 122.579434,  107.436702
 122.581101,  107.436952
 122.582767,  107.437203
 122.584434,  107.437454
 122.586101,  107.437705
 122.587767,  107.437955
 122.589434,  107.438206
 122.591101,  107.438457
 122.592767,  107.438790
 122.594434,  107.439140
 122.596101,  107.439490
 122.597767,  107.439840
 122.599434,  107.440190
 122.601101,  107.440540
 122.602767,  107.440891
 122.604434,  107.441241
 122.606101,  107.441591
 122.607767,  107.441941
 122.609434,  107.442236
 122.611101,  107.442521
 122.612767,  107.442805
 122.614434,  107.443090
 122.616101,  107.443374
 122.617767,  107.443659
 122.619434,  107.443944
 122.621101,  107.444228
 122.622767,  107.444513
 122.624434,  107.444798
 122.626101,  107.445095
 122.627767,  107.445395
 122.629434,  107.445695
 122.631101,  107.445996
 122.632767,  107.446296
 122.634434,  107.446596
 122.636101,  107.446896
 122.637767,  107.447196
 122.639434,  107.447496
 122.641101,  107.447796
 122.642767,  107.448177
 122.644434,  107.448574
 122.646101,  107.448971
 122.647767,  107.449368
 122.649434,  107.449764
 122.651101,  107.450161
 122.652767,  107.450558
 122.654434,  107.450955
 122.656101,  107.451352
 122.657767,  107.451748
 122.659434,  107.452086
 122.661101,  107.452412
 122.662767,  107.452738
 122.664434,  107.453064
 122.666101,  107.453390
 122.667767,  107.453716
 122.669434,  107.454042
 122.671101,  107.454368
 122.672767,  107.454695
 122.674434,  107.455021
 122.676101,  107.455353
 122.677767,  107.455687
 122.679434,  107.456021
 122.681101,  107.456355
 122.682767,  107.456689
 122.684434,  107.457022
 122.686101,  107.457356
 122.687767,  107.457690
 122.689434,  107.458024
 122.691101,  107.458358
 122.692767,  107.458765
 122.694434,  107.459187
 122.696101,  107.459609
 122.697767,  107.460031
 122.699434,  107.460452
 122.701101,  107.460874
 122.702767,  107.461296
 122.704434,  107.461718
 122.706101,  107.462139
 122.707767,  107.462561
 122.709434,  107.462915
 122.711101,  107.463256
 122.712767,  107.463597
 122.714434,  107.463938
 122.716101,  107.464279
 122.717767,  107.464620
 122.719434,  107.464960
 122.721101,  107.465301
 122.722767,  107.465642
 122.724434,  107.465983
 122.726101,  107.466322
 122.727767,  107.466660
 122.729434,  107.466998
 122.731101,  107.467336
 122.732767,  107.467675
 122.734434,  107.468013
 122.736101,  107.468351
 122.737767,  107.468689
 122.739434,  107.469028
 122.741101,  107.469366
 122.742767,  107.469770
 122.744434,  107.470186
 122.746101,  107.470602
 122.747767,  107.471018
 122.749434,  107.471434
 122.751101,  107.471851
 122.752767,  107.472267
 122.754434,  107.472683
 122.756101,  107.473099
 122.757767,  107.473516
 122.759434,  107.473856
 122.761101,  107.474183
 122.762767,  107.474509
 122.764434,  107.474835
 122.766101,  107.475161
 122.767767,  107.475487
 122.769434,  107.475813
 122.771101,  107.476139
 122.772767,  107.476466
 122.774434,  107.476792
 122.776101,  107.477312
 122.777767,  107.477870
 122.779434,  107.478428
 122.781101,  107.478986
 122.782767,  107.479544
 122.784434,  107.480102
 122.786101,  107.480660
 122.787767,  107.481218
 122.789434,  107.481777
 122.791101,  107.482335
 122.792767,  107.482916
 122.794434,  107.483501
 122.796101,  107.484086
 122.797767,  107.484672
 122.799434,  107.485257
 122.801101,  107.485843
 122.802767,  107.486428
 122.804434,  107.487013
 122.806101,  107.487599
 122.807767,  107.488184
 122.809434,  107.488671
 122.811101,  107.489139
 122.812767,  107.489608
 122.814434,  107.490076
 122.816101,  107.490544
 122.817767,  107.491012
 122.819434,  107.491480
 122.821101,  107.491948
 122.822767,  107.492416
 122.824434,  107.492884
 122.826101,  107.493318
 122.827767,  107.493745
 122.829434,  107.494172
 122.831101,  107.494599
 122.832767,  107.495027
 122.834434,  107.495454
 122.836101,  107.495881
 122.837767,  107.496308
 122.839434,  107.496735
 122.841101,  107.497162
 122.842767,  107.497585
 122.844434,  107.498006
 122.846101,  107.498428
 122.847767,  107.498850
 122.849434,  107.499271
 122.851101,  107.499693
 122.852767,  107.500114
 122.854434,  107.500536
 122.856101,  107.500958
 122.857767,  107.501379
 122.859434,  107.501860
 122.861101,  107.502352
 122.862767,  107.502844
 122.864434,  107.503337
 122.866101,  107.503829
 122.867767,  107.504321
 122.869434,  107.504813
 122.871101,  107.505306
 122.872767,  107.505798
 122.874434,  107.506290
 122.876101,  107.506707
 122.877767,  107.507110
 122.879434,  107.507513
 122.881101,  107.507916
 122.882767,  107.508318
 122.884434,  107.508721
 122.886101,  107.509124
 122.887767,  107.509527
 122.889434,  107.509930
 122.891101,  107.510332
 122.892767,  107.510727
 122.894434,  107.511120
 122.896101,  107.511512
 122.897767,  107.511905
 122.899434,  107.512298
 122.901101,  107.512691
 122.902767,  107.513084
 122.904434,  107.513477
 122.906101,  107.513869
 122.907767,  107.514262
 122.909434,  107.514505
 122.911101,  107.514718
 122.912767,  107.514931
 122.914434,  107.515144
 122.916101,  107.515357
 122.917767,  107.515570
 122.919434,  107.515783
 122.921101,  107.515996
 122.922767,  107.516210
 122.924434,  107.516423
 122.926101,  107.516609
 122.927767,  107.516790
 122.929434,  107.516971
 122.931101,  107.517152
 122.932767,  107.517333
 122.934434,  107.517514
 122.936101,  107.517695
 122.937767,  107.517876
 122.939434,  107.518057
 122.941101,  107.518238
 122.942767,  107.518415
 122.944434,  107.518591
 122.946101,  107.518767
 122.947767,  107.518943
 122.949434,  107.519120
 122.951101,  107.519296
 122.952767,  107.519472
 122.954434,  107.519648
 122.956101,  107.519824
 122.957767,  107.520001
 122.959434,  107.520250
 122.961101,  107.520513
 122.962767,  107.520776
 122.964434,  107.521039
 122.966101,  107.521302
 122.967767,  107.521565
 122.969434,  107.521828
 122.971101,  107.522091
 122.972767,  107.522355
 122.974434,  107.522618
 122.976101,  107.522821
 122.977767,  107.523012
 122.979434,  107.523203
 122.981101,  107.523394
 122.982767,  107.523585
 122.984434,  107.523776
 122.986101,  107.523967
 122.987767,  107.524158
 122.989434,  107.524350
 122.991101,  107.524541
 122.992767,  107.524746
 122.994434,  107.524954
 122.996101,  107.525161
 122.997767,  107.525369
 122.999434,  107.525577
 123.001101,  107.525785
 123.002767,  107.525992
 123.004434,  107.526200
 123.006101,  107.526408
 123.007767,  107.526616
 123.009434,  107.526912
 123.011101,  107.527225
 123.012767,  107.527538
 123.014434,  107.527851
 123.016101,  107.528164
 123.017767,  107.528477
 123.019434,  107.528791
 123.021101,  107.529104
 123.022767,  107.529417
 123.024434,  107.529730
 123.026101,  107.529995
 123.027767,  107.530251
 123.029434,  107.530507
 123.031101,  107.530763
 123.032767,  107.531019
 123.034434,  107.531274
 123.036101,  107.531530
 123.037767,  107.531786
 123.039434,  107.532042
 123.041101,  107.532298
 123.042767,  107.532403
 123.044434,  107.532479
 123.046101,  107.532555
 123.047767,  107.532631
 123.049434,  107.532707
 123.051101,  107.532782
 123.052767,  107.532858
 123.054434,  107.532934
 123.056101,  107.533010
 123.057767,  107.533086
 123.059434,  107.533142
 123.061101,  107.533195
 123.062767,  107.533248
 123.064434,  107.533300
 123.066101,  107.533353
 123.067767,  107.533406
 123.069434,  107.533459
 123.071101,  107.533511
 123.072767,  107.533564
 123.074434,  107.533617
 123.076101,  107.533680
 123.077767,  107.533744
 123.079434,  107.533809
 123.081101,  107.533874
 123.082767,  107.533939
 123.084434,  107.534004
 123.086101,  107.534069
 123.087767,  107.534133
 123.089434,  107.534198
 123.091101,  107.534263
 123.092767,  107.534421
 123.094434,  107.534596
 123.096101,  107.534772
 123.097767,  107.534947
 123.099434,  107.535122
 123.101101,  107.535298
 123.102767,  107.535473
 123.104434,  107.535649
 123.106101,  107.535824
 123.107767,  107.536000
 123.109434,  107.536138
 123.111101,  107.536270
 123.112767,  107.536402
 123.114434,  107.536533
 123.116101,  107.536665
 123.117767,  107.536796
 123.119434,  107.536928
 123.121101,  107.537059
 123.122767,  107.537191
 123.124434,  107.537323
 123.126101,  107.537559
 123.127767,  107.537816
 123.129434,  107.538074
 123.131101,  107.538331
 123.132767,  107.538588
 123.134434,  107.538845
 123.136101,  107.539103
 123.137767,  107.539360
 123.139434,  107.539617
 123.141101,  107.539874
 123.142767,  107.540078
 123.144434,  107.540271
 123.146101,  107.540464
 123.147767,  107.540657
 123.149434,  107.540850
 123.151101,  107.541043
 123.152767,  107.541236
 123.154434,  107.541429
 123.156101,  107.541622
 123.157767,  107.541815
 123.159434,  107.542010
 123.161101,  107.542205
 123.162767,  107.542400
 123.164434,  107.542594
 123.166101,  107.542789
 123.167767,  107.542984
 123.169434,  107.543179
 123.171101,  107.543374
 123.172767,  107.543569
 123.174434,  107.543764
 123.176101,  107.544037
 123.177767,  107.544325
 123.179434,  107.544613
 123.181101,  107.544900
 123.182767,  107.545188
 123.184434,  107.545476
 123.186101,  107.545764
 123.187767,  107.546052
 123.189434,  107.546340
 123.191101,  107.546628
 123.192767,  107.546860
 123.194434,  107.547080
 123.196101,  107.547301
 123.197767,  107.547521
 123.199434,  107.547741
 123.201101,  107.547962
 123.202767,  107.548182
 123.204434,  107.548403
 123.206101,  107.548623
 123.207767,  107.548843
 123.209434,  107.549081
 123.211101,  107.549321
 123.212767,  107.549561
 123.214434,  107.549802
 123.216101,  107.550042
 123.217767,  107.550283
 123.219434,  107.550523
 123.221101,  107.550763
 123.222767,  107.551004
 123.224434,  107.551244
 123.226101,  107.551575
 123.227767,  107.551923
 123.229434,  107.552270
 123.231101,  107.552618
 123.232767,  107.552966
 123.234434,  107.553314
 123.236101,  107.553662
 123.237767,  107.554010
 123.239434,  107.554358
 123.241101,  107.554706
 123.242767,  107.555006
 123.244434,  107.555297
 123.246101,  107.555587
 123.247767,  107.555878
 123.249434,  107.556168
 123.251101,  107.556459
 123.252767,  107.556750
 123.254434,  107.557040
 123.256101,  107.557331
 123.257767,  107.557622
 123.259434,  107.557760
 123.261101,  107.557868
 123.262767,  107.557977
 123.264434,  107.558086
 123.266101,  107.558194
 123.267767,  107.558303
 123.269434,  107.558411
 123.271101,  107.558520
 123.272767,  107.558628
 123.274434,  107.558737
 123.276101,  107.558824
 123.277767,  107.558906
 123.279434,  107.558989
 123.281101,  107.559072
 123.282767,  107.559154
 123.284434,  107.559237
 123.286101,  107.559320
 123.287767,  107.559402
 123.289434,  107.559485
 123.291101,  107.559567
 123.292767,  107.559657
 123.294434,  107.559748
 123.296101,  107.559839
 123.297767,  107.559930
 123.299434,  107.560021
 123.301101,  107.560112
 123.302767,  107.560203
 123.304434,  107.560294
 123.306101,  107.560385
 123.307767,  107.560476
 123.309434,  107.560655
 123.311101,  107.560853
 123.312767,  107.561050
 123.314434,  107.561247
 123.316101,  107.561445
 123.317767,  107.561642
 123.319434,  107.561839
 123.321101,  107.562036
 123.322767,  107.562234
 123.324434,  107.562431
 123.326101,  107.562587
 123.327767,  107.562735
 123.329434,  107.562883
 123.331101,  107.563031
 123.332767,  107.563179
 123.334434,  107.563327
 123.336101,  107.563475
 123.337767,  107.563623
 123.339434,  107.563771
 123.341101,  107.563919
 123.342767,  107.564168
 123.344434,  107.564436
 123.346101,  107.564705
 123.347767,  107.564973
 123.349434,  107.565242
 123.351101,  107.565510
 123.352767,  107.565779
 123.354434,  107.566047
 123.356101,  107.566316
 123.357767,  107.566584
 123.359434,  107.566794
 123.361101,  107.566994
 123.362767,  107.567193
 123.364434,  107.567392
 123.366101,  107.567591
 123.367767,  107.567790
 123.369434,  107.567989
 123.371101,  107.568188
 123.372767,  107.568387
 123.374434,  107.568586
 123.376101,  107.568781
 123.377767,  107.568975
 123.379434,  107.569168
 123.381101,  107.569362
 123.382767,  107.569556
 123.384434,  107.569750
 123.386101,  107.569944
 123.387767,  107.570138
 123.389434,  107.570332
 123.391101,  107.570526
 123.392767,  107.570792
 123.394434,  107.571072
 123.396101,  107.571353
 123.397767,  107.571633
 123.399434,  107.571913
 123.401101,  107.572193
 123.402767,  107.572473
 123.404434,  107.572753
 123.406101,  107.573034
 123.407767,  107.573314
 123.409434,  107.573535
 123.411101,  107.573745
 123.412767,  107.573955
 123.414434,  107.574165
 123.416101,  107.574375
 123.417767,  107.574585
 123.419434,  107.574795
 123.421101,  107.575005
 123.422767,  107.575215
 123.424434,  107.575425
 123.426101,  107.575647
 123.427767,  107.575873
 123.429434,  107.576098
 123.431101,  107.576323
 123.432767,  107.576548
 123.434434,  107.576773
 123.436101,  107.576999
 123.437767,  107.577224
 123.439434,  107.577449
 123.441101,  107.577674
 123.442767,  107.577988
 123.444434,  107.578318
 123.446101,  107.578648
 123.447767,  107.578979
 123.449434,  107.579309
 123.451101,  107.579639
 123.452767,  107.579969
 123.454434,  107.580300
 123.456101,  107.580630
 123.457767,  107.580960
 123.459434,  107.581245
 123.461101,  107.581520
 123.462767,  107.581795
 123.464434,  107.582071
 123.466101,  107.582346
 123.467767,  107.582622
 123.469434,  107.582897
 123.471101,  107.583172
 123.472767,  107.583448
 123.474434,  107.583723
 123.476101,  107.583849
 123.477767,  107.583945
 123.479434,  107.584041
 123.481101,  107.584138
 123.482767,  107.584234
 123.484434,  107.584330
 123.486101,  107.584427
 123.487767,  107.584523
 123.489434,  107.584619
 123.491101,  107.584716
 123.492767,  107.584792
 123.494434,  107.584864
 123.496101,  107.584936
 123.497767,  107.585008
 123.499434,  107.585080
 123.501101,  107.585152
 123.502767,  107.585224
 123.504434,  107.585296
 123.506101,  107.585369
 123.507767,  107.585441
 123.509434,  107.585522
 123.511101,  107.585605
 123.512767,  107.585688
 123.514434,  107.585771
 123.516101,  107.585854
 123.517767,  107.585937
 123.519434,  107.586020
 123.521101,  107.586103
 123.522767,  107.586186
 123.524434,  107.586268
 123.526101,  107.586444
 123.527767,  107.586637
 123.529434,  107.586831
 123.531101,  107.587024
 123.532767,  107.587217
 123.534434,  107.587411
 123.536101,  107.587604
 123.537767,  107.587797
 123.539434,  107.587991
 123.541101,  107.588184
 123.542767,  107.588343
 123.544434,  107.588494
 123.546101,  107.588646
 123.547767,  107.588798
 123.549434,  107.588950
 123.551101,  107.589101
 123.552767,  107.589253
 123.554434,  107.589405
 123.556101,  107.589557
 123.557767,  107.589709
 123.559434,  107.589964
 123.561101,  107.590239
 123.562767,  107.590514
 123.564434,  107.590789
 123.566101,  107.591065
 123.567767,  107.591340
 123.569434,  107.591615
 123.571101,  107.591890
 123.572767,  107.592166
 123.574434,  107.592441
 123.576101,  107.592666
 123.577767,  107.592881
 123.579434,  107.593096
 123.581101,  107.593311
 123.582767,  107.593526
 123.584434,  107.593742
 123.586101,  107.593957
 123.587767,  107.594172
 123.589434,  107.594387
 123.591101,  107.594602
 123.592767,  107.594818
 123.594434,  107.595034
 123.596101,  107.595249
 123.597767,  107.595465
 123.599434,  107.595680
 123.601101,  107.595896
 123.602767,  107.596112
 123.604434,  107.596327
 123.606101,  107.596543
 123.607767,  107.596758
 123.609434,  107.597052
 123.611101,  107.597360
 123.612767,  107.597668
 123.614434,  107.597976
 123.616101,  107.598284
 123.617767,  107.598593
 123.619434,  107.598901
 123.621101,  107.599209
 123.622767,  107.599517
 123.624434,  107.599825
 123.626101,  107.600078
 123.627767,  107.600321
 123.629434,  107.600563
 123.631101,  107.600806
 123.632767,  107.601048
 123.634434,  107.601291
 123.636101,  107.601533
 123.637767,  107.601776
 123.639434,  107.602018
 123.641101,  107.602261
 123.642767,  107.602519
 123.644434,  107.602780
 123.646101,  107.603041
 123.647767,  107.603302
 123.649434,  107.603563
 123.651101,  107.603824
 123.652767,  107.604085
 123.654434,  107.604346
 123.656101,  107.604607
 123.657767,  107.604868
 123.659434,  107.605218
 123.661101,  107.605586
 123.662767,  107.605954
 123.664434,  107.606322
 123.666101,  107.606690
 123.667767,  107.607058
 123.669434,  107.607425
 123.671101,  107.607793
 123.672767,  107.608161
 123.674434,  107.608529
 123.676101,  107.608851
 123.677767,  107.609163
 123.679434,  107.609475
 123.681101,  107.609788
 123.682767,  107.610100
 123.684434,  107.610413
 123.686101,  107.610725
 123.687767,  107.611037
 123.689434,  107.611350
 123.691101,  107.611662
 123.692767,  107.611823
 123.694434,  107.611953
 123.696101,  107.612084
 123.697767,  107.612215
 123.699434,  107.612345
 123.701101,  107.612476
 123.702767,  107.612607
 123.704434,  107.612738
 123.706101,  107.612868
 123.707767,  107.612999
 123.709434,  107.613106
 123.711101,  107.613209
 123.712767,  107.613312
 123.714434,  107.613415
 123.716101,  107.613518
 123.717767,  107.613621
 123.719434,  107.613724
 123.721101,  107.613827
 123.722767,  107.613929
 123.724434,  107.614032
 123.726101,  107.614140
 123.727767,  107.614250
 123.729434,  107.614359
 123.731101,  107.614468
 123.732767,  107.614577
 123.734434,  107.614686
 123.736101,  107.614795
 123.737767,  107.614905
 123.739434,  107.615014
 123.741101,  107.615123
 123.742767,  107.615320
 123.744434,  107.615535
 123.746101,  107.615749
 123.747767,  107.615964
 123.749434,  107.616178
 123.751101,  107.616393
 123.752767,  107.616607
 123.754434,  107.616822
 123.756101,  107.617036
 123.757767,  107.617251
 123.759434,  107.617425
 123.761101,  107.617592
 123.762767,  107.617759
 123.764434,  107.617925
 123.766101,  107.618092
 123.767767,  107.618259
 123.769434,  107.618426
 123.771101,  107.618593
 123.772767,  107.618759
 123.774434,  107.618926
 123.776101,  107.619192
 123.777767,  107.619476
 123.779434,  107.619761
 123.781101,  107.620046
 123.782767,  107.620330
 123.784434,  107.620615
 123.786101,  107.620900
 123.787767,  107.621184
 123.789434,  107.621469
 123.791101,  107.621754
 123.792767,  107.621983
 123.794434,  107.622202
 123.796101,  107.622420
 123.797767,  107.622639
 123.799434,  107.622858
 123.801101,  107.623076
 123.802767,  107.623295
 123.804434,  107.623514
 123.806101,  107.623732
 123.807767,  107.623951
 123.809434,  107.624166
 123.811101,  107.624380
 123.812767,  107.624594
 123.814434,  107.624808
 123.816101,  107.625022
 123.817767,  107.625236
 123.819434,  107.625450
 123.821101,  107.625664
 123.822767,  107.625878
 123.824434,  107.626092
 123.826101,  107.626380
 123.827767,  107.626683
 123.829434,  107.626985
 123.831101,  107.627288
 123.832767,  107.627591
 123.834434,  107.627894
 123.836101,  107.628196
 123.837767,  107.628499
 123.839434,  107.628802
 123.841101,  107.629105
 123.842767,  107.629350
 123.844434,  107.629583
 123.846101,  107.629817
 123.847767,  107.630051
 123.849434,  107.630285
 123.851101,  107.630518
 123.852767,  107.630752
 123.854434,  107.630986
 123.856101,  107.631220
 123.857767,  107.631453
 123.859434,  107.631701
 123.861101,  107.631952
 123.862767,  107.632203
 123.864434,  107.632453
 123.866101,  107.632704
 123.867767,  107.632954
 123.869434,  107.633205
 123.871101,  107.633456
 123.872767,  107.633706
 123.874434,  107.633957
 123.876101,  107.634297
 123.877767,  107.634654
 123.879434,  107.635012
 123.881101,  107.635369
 123.882767,  107.635727
 123.884434,  107.636084
 123.886101,  107.636442
 123.887767,  107.636799
 123.889434,  107.637157
 123.891101,  107.637515
 123.892767,  107.637826
 123.894434,  107.638129
 123.896101,  107.638432
 123.897767,  107.638734
 123.899434,  107.639037
 123.901101,  107.639340
 123.902767,  107.639642
 123.904434,  107.639945
 123.906101,  107.640248
 123.907767,  107.640550
 123.909434,  107.640702
 123.911101,  107.640825
 123.912767,  107.640947
 123.914434,  107.641069
 123.916101,  107.641192
 123.917767,  107.641314
 123.919434,  107.641437
 123.921101,  107.641559
 123.922767,  107.641681
 123.924434,  107.641804
 123.926101,  107.641905
 123.927767,  107.642003
 123.929434,  107.642100
 123.931101,  107.642198
 123.932767,  107.642296
 123.934434,  107.642393
 123.936101,  107.642491
 123.937767,  107.642588
 123.939434,  107.642686
 123.941101,  107.642783
 123.942767,  107.642889
 123.944434,  107.642997
 123.946101,  107.643105
 123.947767,  107.643212
 123.949434,  107.643320
 123.951101,  107.643428
 123.952767,  107.643535
 123.954434,  107.643643
 123.956101,  107.643751
 123.957767,  107.643858
 123.959434,  107.644058
 123.961101,  107.644276
 123.962767,  107.644494
 123.964434,  107.644712
 123.966101,  107.644929
 123.967767,  107.645147
 123.969434,  107.645365
 123.971101,  107.645583
 123.972767,  107.645800
 123.974434,  107.646018
 123.976101,  107.646200
 123.977767,  107.646374
 123.979434,  107.646549
 123.981101,  107.646723
 123.982767,  107.646897
 123.984434,  107.647072
 123.986101,  107.647246
 123.987767,  107.647421
 123.989434,  107.647595
 123.991101,  107.647770
 123.992767,  107.648047
 123.994434,  107.648344
 123.996101,  107.648641
 123.997767,  107.648939
 123.999434,  107.649236
 124.001101,  107.649533
 124.002767,  107.649831
 124.004434,  107.650128
 124.006101,  107.650425
 124.007767,  107.650722
 124.009434,  107.650968
 124.011101,  107.651203
 124.012767,  107.651438
 124.014434,  107.651673
 124.016101,  107.651908
 124.017767,  107.652143
 124.019434,  107.652378
 124.021101,  107.652613
 124.022767,  107.652849
 124.024434,  107.653084
 124.026101,  107.653318
 124.027767,  107.653552
 124.029434,  107.653786
 124.031101,  107.654020
 124.032767,  107.654254
 124.034434,  107.654488
 124.036101,  107.654722
 124.037767,  107.654956
 124.039434,  107.655190
 124.041101,  107.655424
 124.042767,  107.655734
 124.044434,  107.656060
 124.046101,  107.656386
 124.047767,  107.656712
 124.049434,  107.657038
 124.051101,  107.657364
 124.052767,  107.657689
 124.054434,  107.658015
 124.056101,  107.658341
 124.057767,  107.658667
 124.059434,  107.658936
 124.061101,  107.659195
 124.062767,  107.659453
 124.064434,  107.659711
 124.066101,  107.659970
 124.067767,  107.660228
 124.069434,  107.660487
 124.071101,  107.660745
 124.072767,  107.661003
 124.074434,  107.661262
 124.076101,  107.661535
 124.077767,  107.661811
 124.079434,  107.662087
 124.081101,  107.662364
 124.082767,  107.662640
 124.084434,  107.662916
 124.086101,  107.663192
 124.087767,  107.663468
 124.089434,  107.663744
 124.091101,  107.664020
 124.092767,  107.664386
 124.094434,  107.664770
 124.096101,  107.665153
 124.097767,  107.665536
 124.099434,  107.665920
 124.101101,  107.666303
 124.102767,  107.666686
 124.104434,  107.667070
 124.106101,  107.667453
 124.107767,  107.667836
 124.109434,  107.668173
 124.111101,  107.668500
 124.112767,  107.668827
 124.114434,  107.669154
 124.116101,  107.669481
 124.117767,  107.669808
 124.119434,  107.670136
 124.121101,  107.670463
 124.122767,  107.670790
 124.124434,  107.671117
 124.126101,  107.671291
 124.127767,  107.671435
 124.129434,  107.671580
 124.131101,  107.671724
 124.132767,  107.671868
 124.134434,  107.672012
 124.136101,  107.672157
 124.137767,  107.672301
 124.139434,  107.672445
 124.141101,  107.672589
 124.142767,  107.672710
 124.144434,  107.672827
 124.146101,  107.672944
 124.147767,  107.673060
 124.149434,  107.673177
 124.151101,  107.673293
 124.152767,  107.673410
 124.154434,  107.673527
 124.156101,  107.673643
 124.157767,  107.673760
 124.159434,  107.673883
 124.161101,  107.674006
 124.162767,  107.674130
 124.164434,  107.674254
 124.166101,  107.674377
 124.167767,  107.674501
 124.169434,  107.674625
 124.171101,  107.674749
 124.172767,  107.674872
 124.174434,  107.674996
 124.176101,  107.675209
 124.177767,  107.675440
 124.179434,  107.675671
 124.181101,  107.675902
 124.182767,  107.676133
 124.184434,  107.676363
 124.186101,  107.676594
 124.187767,  107.676825
 124.189434,  107.677056
 124.191101,  107.677287
 124.192767,  107.677478
 124.194434,  107.677662
 124.196101,  107.677846
 124.197767,  107.678030
 124.199434,  107.678214
 124.201101,  107.678398
 124.202767,  107.678581
 124.204434,  107.678765
 124.206101,  107.678949
 124.207767,  107.679133
 124.209434,  107.679417
 124.211101,  107.679721
 124.212767,  107.680025
 124.214434,  107.680329
 124.216101,  107.680633
 124.217767,  107.680937
 124.219434,  107.681241
 124.221101,  107.681545
 124.222767,  107.681849
 124.224434,  107.682152
 124.226101,  107.682402
 124.227767,  107.682640
 124.229434,  107.682879
 124.231101,  107.683117
 124.232767,  107.683356
 124.234434,  107.683594
 124.236101,  107.683833
 124.237767,  107.684072
 124.239434,  107.684310
 124.241101,  107.684549
 124.242767,  107.684784
 124.244434,  107.685019
 124.246101,  107.685254
 124.247767,  107.685489
 124.249434,  107.685724
 124.251101,  107.685959
 124.252767,  107.686194
 124.254434,  107.686429
 124.256101,  107.686664
 124.257767,  107.686899
 124.259434,  107.687210
 124.261101,  107.687536
 124.262767,  107.687861
 124.264434,  107.688187
 124.266101,  107.688512
 124.267767,  107.688838
 124.269434,  107.689163
 124.271101,  107.689489
 124.272767,  107.689814
 124.274434,  107.690139
 124.276101,  107.690407
 124.277767,  107.690664
 124.279434,  107.690921
 124.281101,  107.691178
 124.282767,  107.691434
 124.284434,  107.691691
 124.286101,  107.691948
 124.287767,  107.692205
 124.289434,  107.692462
 124.291101,  107.692718
 124.292767,  107.692990
 124.294434,  107.693264
 124.296101,  107.693538
 124.297767,  107.693813
 124.299434,  107.694087
 124.301101,  107.694361
 124.302767,  107.694636
 124.304434,  107.694910
 124.306101,  107.695184
 124.307767,  107.695459
 124.309434,  107.695824
 124.311101,  107.696206
 124.312767,  107.696588
 124.314434,  107.696971
 124.316101,  107.697353
 124.317767,  107.697736
 124.319434,  107.698118
 124.321101,  107.698501
 124.322767,  107.698883
 124.324434,  107.699265
 124.326101,  107.699602
 124.327767,  107.699929
 124.329434,  107.700256
 124.331101,  107.700583
 124.332767,  107.700911
 124.334434,  107.701238
 124.336101,  107.701565
 124.337767,  107.701892
 124.339434,  107.702219
 124.341101,  107.702547
 124.342767,  107.702722
 124.344434,  107.702867
 124.346101,  107.703012
 124.347767,  107.703158
 124.349434,  107.703303
 124.351101,  107.703448
 124.352767,  107.703593
 124.354434,  107.703739
 124.356101,  107.703884
 124.357767,  107.704029
 124.359434,  107.704153
 124.361101,  107.704273
 124.362767,  107.704393
 124.364434,  107.704513
 124.366101,  107.704633
 124.367767,  107.704752
 124.369434,  107.704872
 124.371101,  107.704992
 124.372767,  107.705112
 124.374434,  107.705232
 124.376101,  107.705359
 124.377767,  107.705489
 124.379434,  107.705618
 124.381101,  107.705748
 124.382767,  107.705877
 124.384434,  107.706006
 124.386101,  107.706136
 124.387767,  107.706265
 124.389434,  107.706394
 124.391101,  107.706524
 124.392767,  107.706745
 124.394434,  107.706985
 124.396101,  107.707224
 124.397767,  107.707464
 124.399434,  107.707704
 124.401101,  107.707943
 124.402767,  107.708183
 124.404434,  107.708422
 124.406101,  107.708662
 124.407767,  107.708901
 124.409434,  107.709103
 124.411101,  107.709298
 124.412767,  107.709493
 124.414434,  107.709688
 124.416101,  107.709883
 124.417767,  107.710078
 124.419434,  107.710273
 124.421101,  107.710468
 124.422767,  107.710663
 124.424434,  107.710858
 124.426101,  107.711155
 124.427767,  107.711473
 124.429434,  107.711791
 124.431101,  107.712109
 124.432767,  107.712427
 124.434434,  107.712744
 124.436101,  107.713062
 124.437767,  107.713380
 124.439434,  107.713698
 124.441101,  107.714016
 124.442767,  107.714280
 124.444434,  107.714535
 124.446101,  107.714789
 124.447767,  107.715043
 124.449434,  107.715297
 124.451101,  107.715551
 124.452767,  107.715806
 124.454434,  107.716060
 124.456101,  107.716314
 124.457767,  107.716568
 124.459434,  107.716821
 124.461101,  107.717073
 124.462767,  107.717325
 124.464434,  107.717578
 124.466101,  107.717830
 124.467767,  107.718082
 124.469434,  107.718334
 124.471101,  107.718587
 124.472767,  107.718839
 124.474434,  107.719091
 124.476101,  107.719420
 124.477767,  107.719765
 124.479434,  107.720109
 124.481101,  107.720453
 124.482767,  107.720797
 124.484434,  107.721141
 124.486101,  107.721485
 124.487767,  107.721830
 124.489434,  107.722174
 124.491101,  107.722518
 124.492767,  107.722805
 124.494434,  107.723080
 124.496101,  107.723356
 124.497767,  107.723632
 124.499434,  107.723907
 124.501101,  107.724183
 124.502767,  107.724459
 124.504434,  107.724734
 124.506101,  107.725010
 124.507767,  107.725286
 124.509434,  107.725576
 124.511101,  107.725869
 124.512767,  107.726162
 124.514434,  107.726456
 124.516101,  107.726749
 124.517767,  107.727042
 124.519434,  107.727335
 124.521101,  107.727629
 124.522767,  107.727922
 124.524434,  107.728215
 124.526101,  107.728599
 124.527767,  107.729000
 124.529434,  107.729401
 124.531101,  107.729802
 124.532767,  107.730203
 124.534434,  107.730604
 124.536101,  107.731005
 124.537767,  107.731406
 124.539434,  107.731808
 124.541101,  107.732209
 124.542767,  107.732563
 124.544434,  107.732907
 124.546101,  107.733252
 124.547767,  107.733597
 124.549434,  107.733941
 124.551101,  107.734286
 124.552767,  107.734630
 124.554434,  107.734975
 124.556101,  107.735320
 124.557767,  107.735664
 124.559434,  107.735855
 124.561101,  107.736015
 124.562767,  107.736176
 124.564434,  107.736336
 124.566101,  107.736497
 124.567767,  107.736657
 124.569434,  107.736818
 124.571101,  107.736979
 124.572767,  107.737139
 124.574434,  107.737300
 124.576101,  107.737437
 124.577767,  107.737570
 124.579434,  107.737703
 124.581101,  107.737837
 124.582767,  107.737970
 124.584434,  107.738103
 124.586101,  107.738236
 124.587767,  107.738369
 124.589434,  107.738502
 124.591101,  107.738635
 124.592767,  107.738775
 124.594434,  107.738916
 124.596101,  107.739057
 124.597767,  107.739198
 124.599434,  107.739338
 124.601101,  107.739479
 124.602767,  107.739620
 124.604434,  107.739761
 124.606101,  107.739902
 124.607767,  107.740043
 124.609434,  107.740274
 124.611101,  107.740524
 124.612767,  107.740773
 124.614434,  107.741023
 124.616101,  107.741272
 124.617767,  107.741521
 124.619434,  107.741771
 124.621101,  107.742020
 124.622767,  107.742270
 124.624434,  107.742519
 124.626101,  107.742729
 124.627767,  107.742932
 124.629434,  107.743135
 124.631101,  107.743338
 124.632767,  107.743541
 124.634434,  107.743743
 124.636101,  107.743946
 124.637767,  107.744149
 124.639434,  107.744352
 124.641101,  107.744554
 124.642767,  107.744859
 124.644434,  107.745183
 124.646101,  107.745508
 124.647767,  107.745832
 124.649434,  107.746157
 124.651101,  107.746481
 124.652767,  107.746806
 124.654434,  107.747130
 124.656101,  107.747455
 124.657767,  107.747779
 124.659434,  107.748049
 124.661101,  107.748308
 124.662767,  107.748567
 124.664434,  107.748826
 124.666101,  107.749086
 124.667767,  107.749345
 124.669434,  107.749604
 124.671101,  107.749863
 124.672767,  107.750122
 124.674434,  107.750382
 124.676101,  107.750638
 124.677767,  107.750895
 124.679434,  107.751151
 124.681101,  107.751407
 124.682767,  107.751663
 124.684434,  107.751920
 124.686101,  107.752176
 124.687767,  107.752432
 124.689434,  107.752688
 124.691101,  107.752944
 124.692767,  107.753277
 124.694434,  107.753625
 124.696101,  107.753973
 124.697767,  107.754321
 124.699434,  107.754669
 124.701101,  107.755017
 124.702767,  107.755365
 124.704434,  107.755713
 124.706101,  107.756060
 124.707767,  107.756408
 124.709434,  107.756699
 124.711101,  107.756978
 124.712767,  107.757256
 124.714434,  107.757535
 124.716101,  107.757814
 124.717767,  107.758093
 124.719434,  107.758372
 124.721101,  107.758651
 124.722767,  107.758930
 124.724434,  107.759209
 124.726101,  107.759503
 124.727767,  107.759800
 124.729434,  107.760097
 124.731101,  107.760394
 124.732767,  107.760690
 124.734434,  107.760987
 124.736101,  107.761284
 124.737767,  107.761581
 124.739434,  107.761878
 124.741101,  107.762175
 124.742767,  107.762563
 124.744434,  107.762969
 124.746101,  107.763375
 124.747767,  107.763780
 124.749434,  107.764186
 124.751101,  107.764592
 124.752767,  107.764998
 124.754434,  107.765404
 124.756101,  107.765810
 124.757767,  107.766215
 124.759434,  107.766575
 124.761101,  107.766925
 124.762767,  107.767275
 124.764434,  107.767625
 124.766101,  107.767975
 124.767767,  107.768325
 124.769434,  107.768675
 124.771101,  107.769025
 124.772767,  107.769376
 124.774434,  107.769726
 124.776101,  107.769922
 124.777767,  107.770089
 124.779434,  107.770255
 124.781101,  107.770422
 124.782767,  107.770588
 124.784434,  107.770755
 124.786101,  107.770921
 124.787767,  107.771088
 124.789434,  107.771254
 124.791101,  107.771421
 124.792767,  107.771566
 124.794434,  107.771706
 124.796101,  107.771847
 124.797767,  107.771987
 124.799434,  107.772127
 124.801101,  107.772268
 124.802767,  107.772408
 124.804434,  107.772549
 124.806101,  107.772689
 124.807767,  107.772830
 124.809434,  107.772978
 124.811101,  107.773128
 124.812767,  107.773277
 124.814434,  107.773427
 124.816101,  107.773577
 124.817767,  107.773726
 124.819434,  107.773876
 124.821101,  107.774026
 124.822767,  107.774175
 124.824434,  107.774325
 124.826101,  107.774567
 124.827767,  107.774827
 124.829434,  107.775087
 124.831101,  107.775348
 124.832767,  107.775608
 124.834434,  107.775868
 124.836101,  107.776128
 124.837767,  107.776388
 124.839434,  107.776648
 124.841101,  107.776908
 124.842767,  107.777157
 124.844434,  107.777404
 124.846101,  107.777650
 124.846511,  107.777711
 124.848178,  107.777911
 124.849844,  107.778112
 124.851511,  107.778312
 124.853178,  107.778513
 124.854844,  107.778713
 124.856511,  107.778914
 124.858178,  107.764460
 124.859844,  107.588427
 124.861511,  107.412394
 124.863178,  107.236361
 124.864844,  107.060329
 124.866511,  106.884296
 124.868178,  106.708263
 124.869844,  106.532230
 124.871511,  106.356197
 124.873178,  106.180164
 124.874844,  106.003914
 124.876511,  105.825267
 124.878178,  105.646620
 124.879844,  105.467973
 124.881511,  105.289326
 124.883178,  105.110679
 124.884844,  104.932032
 124.886511,  104.753385
 124.888178,  104.574738
 124.889844,  104.396091
 124.891511,  104.217265
 124.893178,  104.036463
 124.894844,  103.855662
 124.896511,  103.674861
 124.898178,  103.494059
 124.899844,  103.313258
 124.901134,  103.173385
 124.902801,  102.990942
 124.904467,  102.808499
 124.906134,  102.626056
 124.907801,  102.443613
 124.909467,  102.146846
 124.911134,  101.833714
 124.912801,  101.520582
 124.914467,  101.207450
 124.916134,  100.894318
 124.917801,  100.581186
 124.919467,  100.268054
 124.921134,   99.954922
 124.922801,   99.641790
 124.924467,   99.328658
 124.926134,   98.887134
 124.927801,   98.427230
 124.929467,   97.967327
 124.931134,   97.507423
 124.932801,   97.047520
 124.934467,   96.587616
 124.936134,   96.127713
 124.937801,   95.667810
 124.939467,   95.207906
 124.941134,   94.748003
 124.942801,   94.181266
 124.944467,   93.599237
 124.946134,   93.017208
 124.947801,   92.435179
 124.949467,   91.853150
 124.951134,   91.271121
 124.952801,   90.689092
 124.954467,   90.107063
 124.956134,   89.525034
 124.957801,   88.943005
 124.959467,   88.361027
 124.961134,   87.779056
 124.962081,   87.448310
 124.963748,   86.883120
 124.965414,   86.317929
 124.967081,   85.752738
 124.968748,   85.187548
 124.970414,   84.622357
 124.972081,   84.057166
 124.973748,   83.491976
 124.975414,   83.004097
 124.977081,   82.613387
 124.978748,   82.222677
 124.980414,   81.831967
 124.982081,   81.441256
 124.983748,   81.050546
 124.985414,   80.659836
 124.987081,   80.269126
 124.988748,   79.878416
 124.990414,   79.487706
 124.992081,   78.924829
 124.993748,   78.145569
 124.995414,   77.366308
 124.997081,   76.587047
 124.998748,   75.807787
 125.000414,   75.028526
 125.002081,   74.249265
 125.003748,   73.470005
 125.005414,   72.666527
 125.007081,   71.852897
 125.008748,   71.039267
 125.010414,   70.225637
 125.012081,   69.412007
 125.013748,   68.598377
 125.015414,   67.784747
 125.017081,   66.974914
 125.018748,   66.167195
 125.020414,   65.359477
 125.022081,   64.551759
 125.023748,   63.744041
 125.025414,   62.936323
 125.027081,   62.128604
 125.028748,   61.320886
 125.030414,   60.513168
 125.032081,   59.705450
 125.033748,   58.904781
 125.035414,   58.108040
 125.037081,   57.311299
 125.038748,   56.514558
 125.040414,   55.717818
 125.042081,   54.921077
 125.043748,   54.124336
 125.045414,   53.327595
 125.047081,   52.530855
 125.048748,   51.734114
 125.050414,   50.942613
 125.052081,   50.154031
 125.053748,   49.365450
 125.055414,   48.576869
 125.057081,   47.788288
 125.058748,   46.999707
 125.060414,   46.211126
 125.062081,   45.422544
 125.063748,   44.633963
 125.065414,   43.845382
 125.067081,   43.055820
 125.068748,   42.265713
 125.070414,   41.475605
 125.072081,   40.685497
 125.073748,   39.895389
 125.075414,   39.105281
 125.077081,   38.315173
 125.078748,   37.525065
 125.080414,   36.734957
 125.082081,   35.944849
 125.083748,   35.156373
 125.085414,   34.368805
 125.087081,   33.581238
 125.088748,   32.793670
 125.090414,   32.006103
 125.092081,   31.218535
 125.093748,   30.430968
 125.095414,   29.643400
 125.097081,   28.855833
 125.098748,   28.068265
 125.100414,   27.285116
 125.102081,   26.504429
 125.103748,   25.723742
 125.105414,   24.943056
 125.107081,   24.162369
 125.108748,   23.381682
 125.110414,   22.600995
 125.112081,   21.820308
 125.113748,   21.039621
 125.115414,   20.258934
 125.117081,   19.485356
 125.118748,   18.715739
 125.120414,   17.946121
 125.122081,   17.176504
 125.123748,   16.406887
 125.125414,   15.637270
 125.127081,   14.867653
 125.128748,   14.098036
 125.130414,   13.328418
 125.132081,   12.558801
 125.133748,   11.798829
 125.135414,   11.044232
 125.137081,   10.289635
 125.138748,    9.535038
 125.140414,    8.780441
 125.142081,    8.025843
 125.143748,    7.271246
 125.145414,    6.516649
 125.147081,    5.762052
 125.148748,    5.007455
 125.150414,    4.263161
 125.152081,    3.524610
 125.153748,    2.786058
 125.155414,    2.047507
 125.157081,    1.308955
 125.158748,    0.570403
 125.160050,   -0.006552
