Time, Angular Velocity
   0.000100,    0.000000
   0.000597,    0.000000
   0.002392,    0.000000
   0.006974,    0.000000
   0.016377,    0.000000
   0.034078,    0.000000
   0.063604,    0.000000
   0.096023,    0.000000
   0.128452,    0.000000
   0.161053,    0.000000
   0.193653,    0.000000
   0.226468,    0.000000
   0.259202,    0.000000
   0.292503,    0.000000
   0.325629,    0.000000
   0.358802,    0.000000
   0.392241,    0.000000
   0.425732,    0.000000
   0.459758,    0.000000
   0.493740,    0.000000
   0.528330,    0.000000
   0.562764,    0.000000
   0.597767,    0.000000
   0.632774,    0.000000
   0.667956,    0.000000
   0.703758,    0.000000
   0.739898,    0.000000
   0.776337,    0.000000
   0.812986,    0.000000
   0.849915,    0.000000
   0.886491,    0.000000
   0.924440,    0.000000
   0.962032,    0.000000
   0.999614,    0.000000
   1.038244,    0.000000
   1.076645,    0.000000
   1.115591,    0.000000
   1.154782,    0.000000
   1.194042,    0.000000
   1.233750,    0.000000
   1.273723,    0.000000
   1.315168,    0.000000
   1.356920,    0.000000
   1.398228,    0.000000
   1.439980,    0.000000
   1.481903,    0.000000
   1.525108,    0.000000
   1.568276,    0.000000
   1.611860,    0.000000
   1.655209,    0.000000
   1.699566,    0.000000
   1.743785,    0.000000
   1.788902,    0.000000
   1.833559,    0.000000
   1.879015,    0.000000
   1.924644,    0.000000
   1.970775,    0.000000
   2.017824,    0.000000
   2.064621,    0.000000
   2.112018,    0.000000
   2.160241,    0.000000
   2.208480,    0.000000
   2.256813,    0.000000
   2.306638,    0.000000
   2.355748,    0.000000
   2.405071,    0.000000
   2.455014,    0.000000
   2.505146,    0.000000
   2.555962,    0.000000
   2.607133,    0.000000
   2.658752,    0.000000
   2.710109,    0.000000
   2.762266,    0.000000
   2.814727,    0.000000
   2.868121,    0.000000
   2.921458,    0.000000
   2.974693,    0.000000
   3.028536,    0.000000
   3.082243,    0.000000
   3.136836,    0.000000
   3.191380,    0.000000
   3.246506,    0.000000
   3.302702,    0.000000
   3.359124,    0.000000
   3.415440,    0.000000
   3.471838,    0.000000
   3.528943,    0.000000
   3.585889,    0.000000
   3.643185,    0.000000
   3.701148,    0.000000
   3.759460,    0.000000
   3.817885,    0.000000
   3.876241,    0.000000
   3.935576,    0.000000
   3.995724,    0.000000
   4.055255,    0.000000
   4.115501,    0.000000
   4.175729,    0.000000
   4.236852,    0.000000
   4.249161,    0.000000
   4.255122,    0.000000
   4.258582,    0.000000
   4.261158,    0.000000
   4.263377,    0.000000
   4.265215,    0.000000
   4.266629,    0.000000
   4.267721,    0.000000
   4.268699,    0.000000
   4.268753,    0.000000
   4.268835,    0.000000
   4.268850,    0.000000
   4.268858,    0.000000
   4.268862,    0.000000
   4.268867,    0.000000
   4.268917,    0.000000
   4.269391,    0.000000
   4.271699,    0.000000
   4.281614,    0.000000
   4.308113,    0.000000
   4.362934,    0.000000
   4.417353,    0.000000
   4.472610,    0.000000
   4.528144,    0.000000
   4.583630,    0.000000
   4.639876,    0.000000
   4.695728,    0.000000
   4.752144,    0.000000
   4.808457,    0.000000
   4.865440,    0.000000
   4.923039,    0.000000
   4.980557,    0.000000
   5.038308,    0.000000
   5.096308,    0.000000
   5.154278,    0.000000
   5.212626,    0.000000
   5.270886,    0.000000
   5.329702,    0.000000
   5.388881,    0.000000
   5.448366,    0.000000
   5.507676,    0.000000
   5.567463,    0.000000
   5.627660,    0.000000
   5.688024,    0.000000
   5.748526,    0.000000
   5.809440,    0.000000
   5.870466,    0.000000
   5.931680,    0.000000
   5.993469,    0.000000
   6.055182,    0.000000
   6.117082,    0.000000
   6.179101,    0.000000
   6.241612,    0.000000
   6.304196,    0.000000
   6.367605,    0.000000
   6.430783,    0.000000
   6.494015,    0.000000
   6.557606,    0.000000
   6.621439,    0.000000
   6.685501,    0.000000
   6.749745,    0.000000
   6.814197,    0.000000
   6.878524,    0.000000
   6.943786,    0.000000
   7.008955,    0.000000
   7.074565,    0.000000
   7.139962,    0.000000
   7.205823,    0.000000
   7.271955,    0.000000
   7.338511,    0.000000
   7.405580,    0.000000
   7.472471,    0.000000
   7.539507,    0.000000
   7.606710,    0.000000
   7.674112,    0.000000
   7.742236,    0.000000
   7.810576,    0.000000
   7.878760,    0.000000
   7.947050,    0.000000
   8.015902,    0.000000
   8.084694,    0.000000
   8.153590,    0.000000
   8.222851,    0.000000
   8.292531,    0.000000
   8.362432,    0.000000
   8.432688,    0.000000
   8.502842,    0.000000
   8.573314,    0.000000
   8.643966,    0.000000
   8.714840,    0.000000
   8.729016,    0.000000
   8.739147,    0.000000
   8.745994,    0.000000
   8.751709,    0.000000
   8.756329,    0.000000
   8.757006,    0.000000
   8.757675,    0.000000
   8.758403,    0.000000
   8.758425,    0.000000
   8.758437,    0.000000
   8.758446,    0.000000
   8.758455,    0.000000
   8.758536,    0.000000
   8.759348,    0.000000
   8.763824,    0.000000
   8.781215,    0.000000
   8.841057,    0.000000
   8.904071,    0.000000
   8.967163,    0.000000
   9.030928,    0.000000
   9.094586,    0.000000
   9.158103,    0.000000
   9.222161,    0.000000
   9.286171,    0.000000
   9.350420,    0.000000
   9.415017,    0.000000
   9.479469,    0.000000
   9.544394,    0.000000
   9.609457,    0.000000
   9.674551,    0.000000
   9.740241,    0.000000
   9.805762,    0.000000
   9.871547,    0.000000
   9.937692,    0.000000
  10.003918,    0.000000
  10.070337,    0.000000
  10.136694,    0.000000
  10.203499,    0.000000
  10.270098,    0.000000
  10.337036,    0.000000
  10.404331,    0.000000
  10.471558,    0.000000
  10.538669,    0.000000
  10.606195,    0.000000
  10.673693,    0.000000
  10.741617,    0.000000
  10.809652,    0.000000
  10.877810,    0.000000
  10.946437,    0.000000
  11.015054,    0.000000
  11.084118,    0.000000
  11.153004,    0.000000
  11.222129,    0.000000
  11.291215,    0.000000
  11.360446,    0.000000
  11.430326,    0.000000
  11.500312,    0.000000
  11.570201,    0.000000
  11.640344,    0.000000
  11.710587,    0.000000
  11.780809,    0.000000
  11.851302,    0.000000
  11.922132,    0.000000
  11.992775,    0.000000
  12.063836,    0.000000
  12.134990,    0.000000
  12.206206,    0.000000
  12.277864,    0.000000
  12.349638,    0.000000
  12.421416,    0.000000
  12.493390,    0.000000
  12.565563,    0.000000
  12.637819,    0.000000
  12.710241,    0.000000
  12.782939,    0.000000
  12.855818,    0.000000
  12.928682,    0.000000
  13.001733,    0.000000
  13.074772,    0.000000
  13.148205,    0.000000
  13.221590,    0.000000
  13.295700,    0.000000
  13.369620,    0.000000
  13.443608,    0.000000
  13.517698,    0.000000
  13.532585,    0.000000
  13.542569,    0.000000
  13.551344,    0.000000
  13.578981,    0.000000
  13.579531,    0.000000
  13.580220,    0.000000
  13.580385,    0.000000
  13.580671,    0.000000
  13.580757,    0.000000
  13.580774,    0.000000
  13.580781,    0.000000
  13.580789,    0.000000
  13.580876,    0.000000
  13.581647,    0.000000
  13.586421,    0.000000
  13.613916,    0.000000
  13.680197,    0.000000
  13.744943,    0.000000
  13.809859,    0.000000
  13.875169,    0.000000
  13.940590,    0.000000
  14.005909,    0.000000
  14.071491,    0.000000
  14.136989,    0.000000
  14.202827,    0.000000
  14.268711,    0.000000
  14.334806,    0.000000
  14.401015,    0.000000
  14.467307,    0.000000
  14.533700,    0.000000
  14.600144,    0.000000
  14.666843,    0.000000
  14.733780,    0.000000
  14.800773,    0.000000
  14.867648,    0.000000
  14.934620,    0.000000
  15.001870,    0.000000
  15.069226,    0.000000
  15.136938,    0.000000
  15.204594,    0.000000
  15.272417,    0.000000
  15.340409,    0.000000
  15.408556,    0.000000
  15.476504,    0.000000
  15.544824,    0.000000
  15.613351,    0.000000
  15.681825,    0.000000
  15.750328,    0.000000
  15.819152,    0.000000
  15.888010,    0.000000
  15.956870,    0.000000
  16.026057,    0.000000
  16.095130,    0.000000
  16.164526,    0.000000
  16.234203,    0.000000
  16.303739,    0.000000
  16.373492,    0.000000
  16.443361,    0.000000
  16.513458,    0.000000
  16.583381,    0.000000
  16.653454,    0.000000
  16.723765,    0.000000
  16.794119,    0.000000
  16.864607,    0.000000
  16.935351,    0.000000
  17.006122,    0.000000
  17.077114,    0.000000
  17.148116,    0.000000
  17.219572,    0.000000
  17.290926,    0.000000
  17.362372,    0.000000
  17.433996,    0.000000
  17.505589,    0.000000
  17.577313,    0.000000
  17.649196,    0.000000
  17.721313,    0.000000
  17.793465,    0.000000
  17.865501,    0.000000
  17.938070,    0.000000
  18.010562,    0.000000
  18.083112,    0.000000
  18.155847,    0.000000
  18.228872,    0.000000
  18.301769,    0.000000
  18.374780,    0.000000
  18.447924,    0.000000
  18.521205,    0.000000
  18.594655,    0.000000
  18.668244,    0.000000
  18.742025,    0.000000
  18.815746,    0.000000
  18.889717,    0.000000
  18.904510,    0.000000
  18.916914,    0.000000
  18.926588,    0.000000
  18.926970,    0.000000
  18.927718,    0.000000
  18.927945,    0.000000
  18.928007,    0.000000
  18.928060,    0.000000
  18.928107,    0.000000
  18.928583,    0.000000
  18.932224,    0.000000
  18.952685,    0.000000
  19.016695,    0.000000
  19.090689,    0.000000
  19.164534,    0.000000
  19.238717,    0.000000
  19.312711,    0.000000
  19.387062,    0.000000
  19.461287,    0.000000
  19.535766,    0.000000
  19.610345,    0.000000
  19.685058,    0.000000
  19.760074,    0.000000
  19.835267,    0.000000
  19.910426,    0.000000
  19.985505,    0.000000
  20.061009,    0.000000
  20.136376,    0.000000
  20.212143,    0.000000
  20.287917,    0.000000
  20.363775,    0.000000
  20.439810,    0.000000
  20.515965,    0.000000
  20.592064,    0.000000
  20.668352,    0.000000
  20.744733,    0.000000
  20.821231,    0.000000
  20.897923,    0.000000
  20.974721,    0.000000
  21.051632,    0.000000
  21.128601,    0.000000
  21.205575,    0.000000
  21.282808,    0.000000
  21.360104,    0.000000
  21.437649,    0.000000
  21.515250,    0.000000
  21.592848,    0.000000
  21.670580,    0.000000
  21.748642,    0.000000
  21.826568,    0.000000
  21.904790,    0.000000
  21.983048,    0.000000
  22.061493,    0.000000
  22.081734,    0.000000
  22.140016,    3.000000
  22.218560,    2.979018
  22.297360,    2.950940
  22.376454,    2.923036
  22.455767,    2.895293
  22.535080,    2.867737
  22.614552,    2.840443
  22.694254,    2.813355
  22.774279,    2.786447
  22.854183,    2.759689
  22.934432,    2.733227
  23.014658,    2.706907
  23.095132,    2.680847
  23.175666,    2.654959
  23.256355,    2.629301
  23.337140,    2.603842
  23.417991,    2.578600
  23.498695,    2.553582
  23.579589,    2.528852
  23.660336,    2.504304
  23.741318,    2.480038
  23.822305,    2.455937
  23.903334,    2.432069
  23.984409,    2.408421
  24.065579,    2.384990
  24.146649,    2.361759
  24.227669,    2.338783
  24.308708,    2.316044
  24.314170,    2.293521
  24.319636,    2.292018
  24.325077,    2.290515
  24.330531,    2.289019
  24.336004,    2.287521
  24.341467,    2.286019
  24.346945,    2.284520
  24.352432,    2.283019
  24.357918,    2.281515
  24.363409,    2.280013
  24.368903,    2.278511
  24.374397,    2.277009
  24.379897,    2.275507
  24.385397,    2.274006
  24.390880,    2.272505
  24.396397,    2.271010
  24.401893,    2.269506
  24.407414,    2.268009
  24.412902,    2.266507
  24.418429,    2.265014
  24.423947,    2.263512
  24.429447,    2.262013
  24.434961,    2.260520
  24.440472,    2.259024
  24.445985,    2.257530
  24.451529,    2.256037
  24.457074,    2.254536
  24.462638,    2.253036
  24.468203,    2.251532
  24.473764,    2.250028
  24.479335,    2.248527
  24.484915,    2.247023
  24.490501,    2.245519
  24.496084,    2.244013
  24.501680,    2.242510
  24.507269,    2.241004
  24.512874,    2.239501
  24.518474,    2.237995
  24.524071,    2.236491
  24.529660,    2.234989
  24.535284,    2.233490
  24.540898,    2.231982
  24.546521,    2.230479
  24.552159,    2.228974
  24.557797,    2.227466
  24.563417,    2.225959
  24.569043,    2.224458
  24.574642,    2.222956
  24.580293,    2.221462
  24.585964,    2.219956
  24.591625,    2.218445
  24.597306,    2.216938
  24.602996,    2.215427
  24.608672,    2.213914
  24.614347,    2.212406
  24.620034,    2.210900
  24.625729,    2.209391
  24.631436,    2.207881
  24.637158,    2.206369
  24.642853,    2.204854
  24.648556,    2.203347
  24.654280,    2.201839
  24.659988,    2.200327
  24.665722,    2.198820
  24.671488,    2.197307
  24.677247,    2.195786
  24.682972,    2.194269
  24.688746,    2.192761
  24.694504,    2.191242
  24.700261,    2.189728
  24.706038,    2.188215
  24.711829,    2.186698
  24.717638,    2.185179
  24.723459,    2.183655
  24.729255,    2.182130
  24.735074,    2.180612
  24.740919,    2.179090
  24.746752,    0.000000
  24.752587,    0.000000
  24.758450,    0.000000
  24.764285,    0.000000
  24.770135,    0.000000
  24.775999,    0.000000
  24.781870,    0.000000
  24.787724,    0.000000
  24.793609,    0.000000
  24.799498,    0.000000
  24.805413,    0.000000
  24.811295,    0.000000
  24.817189,    0.000000
  24.823107,    0.000000
  24.829049,    0.000000
  24.834981,    0.000000
  24.840913,    0.000000
  24.846861,    0.000000
  24.852808,    0.000000
  24.858766,    0.000000
  24.864723,    0.000000
  24.870658,    0.000000
  24.876624,    0.000000
  24.882620,    0.000000
  24.888589,    0.000000
  24.894582,    0.000000
  24.900599,    0.000000
  24.906592,    0.000000
  24.912595,    0.000000
  24.918609,    0.000000
  24.924634,    0.000000
  24.930653,    0.000000
  24.936696,    0.000000
  24.942756,    0.000000
  24.948821,    0.000000
  24.954908,    0.000000
  24.960965,    0.000000
  24.967042,    0.000000
  24.973104,    0.000000
  24.979193,    0.000000
  24.985294,    0.000000
  24.991423,    0.000000
  24.997527,    0.000000
  25.003621,    0.000000
  25.009751,    0.000000
  25.015886,    0.000000
  25.022027,    0.000000
  25.028183,    0.000000
  25.034335,    0.000000
  25.040519,    0.000000
  25.046685,    0.000000
  25.052859,    0.000000
  25.059059,    0.000000
  25.065268,    0.000000
  25.071457,    0.000000
  25.077689,    0.000000
  25.083911,    0.000000
  25.090136,    0.000000
  25.096361,    0.000000
  25.097606,    0.000000
  25.100395,    0.000000
  25.100630,    0.000000
  25.100818,    0.000000
  25.100975,    0.000000
  25.101081,    0.000000
  25.101174,    0.000000
  25.101262,    0.000000
  25.101339,    0.000000
  25.101367,    0.000000
  25.101383,    0.000000
  25.101393,    0.000000
  25.101403,    0.000000
  25.101471,    0.000000
  25.101742,    0.000000
  25.102595,    0.000000
  25.105896,    0.000000
  25.111327,    0.000000
  25.117615,    0.000000
  25.123885,    0.000000
  25.130177,    0.000000
  25.136478,    0.000000
  25.142770,    0.000000
  25.149059,    0.000000
  25.155351,    0.000000
  25.161650,    0.000000
  25.167969,    0.000000
  25.174287,    0.000000
  25.180660,    0.000000
  25.186993,    0.000000
  25.193338,    0.000000
  25.199703,    0.000000
  25.206093,    0.000000
  25.212478,    0.000000
  25.218909,    0.000000
  25.225308,    0.000000
  25.231708,    0.000000
  25.238135,    0.000000
  25.244586,    0.000000
  25.246752,    0.000000
  25.251053,    0.000000
  25.257515,    0.000000
  25.264003,    0.000000
  25.270466,    0.000000
  25.276947,    0.000000
  25.283458,    0.000000
  25.289950,    0.000000
  25.296474,    0.000000
  25.303023,    0.000000
  25.309591,    0.000000
  25.316133,    0.000000
  25.322684,    0.000000
  25.329248,    0.000000
  25.335831,    0.000000
  25.342422,    0.000000
  25.349054,    0.000000
  25.355683,    0.000000
  25.362285,    0.000000
  25.368933,    0.000000
  25.375565,    0.000000
  25.382201,    0.000000
  25.388860,    0.000000
  25.395549,    0.000000
  25.402237,    0.000000
  25.408971,    0.000000
  25.415721,    0.000000
  25.422446,    0.000000
  25.429185,    0.000000
  25.435926,    0.000000
  25.442727,    0.000000
  25.449537,    0.000000
  25.456342,    0.000000
  25.463141,    0.000000
  25.469975,    0.000000
  25.476841,    0.000000
  25.483701,    0.000000
  25.490585,    0.000000
  25.497442,    0.000000
  25.504310,    0.000000
  25.511208,    0.000000
  25.518132,    0.000000
  25.525076,    0.000000
  25.532016,    0.000000
  25.538993,    0.000000
  25.545945,    0.000000
  25.552910,    0.000000
  25.559877,    0.000000
  25.566859,    0.000000
  25.573871,    0.000000
  25.580897,    0.000000
  25.587909,    0.000000
  25.594954,    0.000000
  25.601976,    0.000000
  25.609023,    0.000000
  25.616150,    0.000000
  25.623265,    0.000000
  25.630357,    0.000000
  25.637480,    0.000000
  25.644650,    0.000000
  25.651805,    0.000000
  25.658975,    0.000000
  25.666137,    0.000000
  25.673267,    0.000000
  25.680450,    0.000000
  25.687686,    0.000000
  25.694927,    0.000000
  25.702176,    0.000000
  25.709418,    0.000000
  25.716689,    0.000000
  25.723950,    0.000000
  25.731170,    0.000000
  25.738517,    0.000000
  25.745775,    0.000000
  25.753146,    0.000000
  25.760519,    0.000000
  25.767857,    0.000000
  25.775228,    0.000000
  25.782590,    0.000000
  25.789989,    0.000000
  25.797394,    0.000000
  25.804879,    0.000000
  25.812339,    0.000000
  25.819848,    0.000000
  25.827356,    0.000000
  25.834828,    0.000000
  25.842310,    0.000000
  25.849857,    0.000000
  25.857401,    0.000000
  25.864957,    0.000000
  25.872471,    0.000000
  25.880035,    0.000000
  25.887614,    0.000000
  25.895238,    0.000000
  25.902830,    0.000000
  25.910497,    0.000000
  25.918124,    0.000000
  25.925794,    0.000000
  25.933416,    0.000000
  25.941087,    0.000000
  25.948792,    0.000000
  25.956495,    0.000000
  25.964259,    0.000000
  25.972011,    0.000000
  25.979773,    0.000000
  25.987567,    0.000000
  25.995250,    0.000000
  26.003097,    0.000000
  26.010925,    0.000000
  26.018790,    0.000000
  26.026647,    0.000000
  26.034476,    0.000000
  26.042369,    0.000000
  26.050314,    0.000000
  26.058236,    0.000000
  26.066131,    0.000000
  26.074075,    0.000000
  26.082002,    0.000000
  26.089911,    0.000000
  26.097862,    0.000000
  26.105869,    0.000000
  26.113869,    0.000000
  26.121869,    0.000000
  26.129952,    0.000000
  26.138002,    0.000000
  26.146091,    0.000000
  26.154234,    0.000000
  26.162379,    0.000000
  26.170435,    0.000000
  26.178519,    0.000000
  26.186720,    0.000000
  26.194871,    0.000000
  26.203039,    0.000000
  26.211261,    0.000000
  26.219408,    0.000000
  26.227611,    0.000000
  26.235845,    0.000000
  26.244111,    0.000000
  26.252375,    0.000000
  26.260638,    0.000000
  26.268911,    0.000000
  26.277227,    0.000000
  26.285524,    0.000000
  26.293813,    0.000000
  26.302215,    0.000000
  26.310605,    0.000000
  26.318968,    0.000000
  26.327366,    0.000000
  26.335839,    0.000000
  26.344306,    0.000000
  26.352779,    0.000000
  26.361239,    0.000000
  26.369730,    0.000000
  26.378195,    0.000000
  26.386672,    0.000000
  26.395261,    0.000000
  26.403810,    0.000000
  26.412390,    0.000000
  26.420902,    0.000000
  26.429492,    0.000000
  26.438112,    0.000000
  26.446673,    0.000000
  26.455382,    0.000000
  26.464041,    0.000000
  26.472703,    0.000000
  26.481402,    0.000000
  26.490061,    0.000000
  26.498704,    0.000000
  26.507407,    0.000000
  26.516065,    0.000000
  26.524804,    0.000000
  26.533557,    0.000000
  26.542327,    0.000000
  26.551099,    0.000000
  26.559832,    0.000000
  26.568657,    0.000000
  26.577476,    0.000000
  26.586319,    0.000000
  26.595148,    0.000000
  26.604030,    0.000000
  26.612930,    0.000000
  26.621823,    0.000000
  26.630712,    0.000000
  26.639651,    0.000000
  26.648572,    0.000000
  26.657530,    0.000000
  26.666442,    0.000000
  26.675447,    0.000000
  26.684506,    0.000000
  26.693553,    0.000000
  26.702543,    0.000000
  26.711644,    0.000000
  26.720663,    0.000000
  26.729699,    0.000000
  26.738758,    0.000000
  26.747881,    0.000000
  26.756994,    0.000000
  26.766115,    0.000000
  26.775271,    0.000000
  26.784381,    0.000000
  26.793559,    0.000000
  26.802714,    0.000000
  26.811950,    0.000000
  26.821109,    0.000000
  26.830355,    0.000000
  26.839573,    0.000000
  26.848872,    0.000000
  26.858090,    0.000000
  26.867321,    0.000000
  26.876614,    0.000000
  26.885856,    0.000000
  26.895116,    0.000000
  26.904429,    0.000000
  26.913686,    0.000000
  26.923090,    0.000000
  26.932344,    0.000000
  26.941588,    0.000000
  26.950941,    0.000000
  26.960279,    0.000000
  26.969678,    0.000000
  26.979086,    0.000000
  26.988508,    0.000000
  26.997908,    0.000000
  27.007340,    0.000000
  27.016859,    0.000000
  27.026381,    0.000000
  27.035917,    0.000000
  27.045413,    0.000000
  27.054946,    0.000000
  27.064437,    0.000000
  27.073998,    0.000000
  27.083460,    0.000000
  27.093051,    0.000000
  27.102593,    0.000000
  27.112261,    0.000000
  27.121874,    0.000000
  27.131411,    0.000000
  27.141079,    0.000000
  27.150652,    0.000000
  27.160293,    0.000000
  27.170021,    0.000000
  27.179657,    0.000000
  27.189382,    0.000000
  27.199036,    0.000000
  27.208696,    0.000000
  27.218479,    0.000000
  27.228177,    0.000000
  27.237856,    0.000000
  27.247478,    0.000000
  27.257241,    0.000000
  27.267015,    0.000000
  27.276861,    0.000000
  27.286592,    0.000000
  27.296416,    0.000000
  27.306170,    0.000000
  27.316031,    0.000000
  27.325876,    0.000000
  27.335694,    0.000000
  27.345452,    0.000000
  27.355314,    0.000000
  27.365200,    0.000000
  27.375142,    0.000000
  27.384948,    0.000000
  27.394830,    0.000000
  27.404714,    0.000000
  27.414621,    0.000000
  27.424577,    0.000000
  27.434524,    0.000000
  27.444520,    0.000000
  27.454538,    0.000000
  27.464522,    0.000000
  27.474532,    0.000000
  27.484548,    0.000000
  27.494495,    0.000000
  27.504517,    0.000000
  27.514510,    0.000000
  27.524424,    0.000000
  27.534412,    0.000000
  27.544431,    0.000000
  27.554473,    0.000000
  27.564535,    0.000000
  27.574666,    0.000000
  27.584751,    0.000000
  27.594778,    0.000000
  27.604844,    0.000000
  27.614911,    0.000000
  27.624930,    0.000000
  27.634900,    0.000000
  27.645169,    0.000000
  27.655251,    0.000000
  27.665469,    0.000000
  27.675574,    0.000000
  27.685715,    0.000000
  27.695838,    0.000000
  27.706032,    0.000000
  27.716226,    0.000000
  27.726450,    0.000000
  27.736659,    0.000000
  27.746806,    0.000000
  27.757027,    0.000000
  27.767221,    0.000000
  27.777496,    0.000000
  27.780883,    0.000000
