Speed, Forces
 125.785260, 3645.444620
 127.572344, 3609.447660
 129.359429, 3575.110955
 131.146513, 3544.026571
 132.933597, 3516.089105
 134.720682, 3491.186325
 136.507766, 3469.199162
 138.294851, 3450.001717
 140.081935, 3433.461256
 141.869019, 3419.438213
 143.656104, 3407.786187
 145.443188, 3398.351946
 147.230272, 3391.319249
 149.017357, 3386.739328
 150.804441, 3384.027888
 152.591526, 3383.007779
 154.378610, 3384.309944
 156.165694, 3387.548679
 157.952779, 3392.070220
 159.739863, 3398.920307
 161.526948, 3407.234091
 163.314032, 3416.903219
 165.101116, 3428.746691
 166.888201, 3441.250641
 168.675285, 3456.340744
 170.462369, 3471.719380
 172.249454, 3489.721640
 174.036538, 3507.915240
 175.823623, 3528.567438
 177.610707, 3549.602203
 179.397791, 3572.528865
 181.184876, 3596.393241
 182.971960, 3621.229314
 184.759045, 3647.904915
 186.546129, 3674.844409
 188.333213, 3703.726452
 190.120298, 3733.473859
 191.907382, 3763.507066
 193.694466, 3795.941877
 195.481551, 3828.770573
 197.268635, 3861.905837
 199.055720, 3897.359213
 200.842804, 3933.268432
 202.629888, 3969.503847
 204.416973, 4007.400587
 206.204057, 4046.379313
 207.991142, 4085.702724
 209.778226, 4125.426628
 211.565310, 4167.453594
 213.352395, 4209.842596
 215.139479, 4252.593634
 216.926563, 4295.780154
 218.713648, 4341.202092
 220.500732, 4387.002279
 222.287817, 4433.180714
 224.074901, 4479.737398
 225.861985, 4527.803636
 227.649070, 4577.002249
 229.436154, 4626.594184
 231.223239, 4676.579441
 233.010323, 4726.958019
 234.797407, 4778.877061
 236.584492, 4831.854932
 238.371576, 4885.240060
 240.158660, 4939.032443
 241.945745, 4993.232082
 243.732829, 5047.874517
 245.519914, 5104.617146
 247.306998, 5161.779827
 249.094082, 5219.362559
 250.881167, 5277.365343
 252.668251, 5335.788178
 254.455336, 5394.631065
 256.242420, 5454.882577
 258.029504, 5516.221797
 259.816589, 5577.992726
 261.603673, 5640.195362
 263.390757, 5702.829707
 265.177842, 5765.895760
 266.964926, 5829.393521
 268.752011, 5893.578326
 270.539095, 5959.507543
 272.326179, 6025.878985
 274.113264, 6092.692654
 275.900348, 6159.948548
 277.687432, 6227.646668
 279.474517, 6295.787014
 281.261601, 6364.369586
 283.048686, 6433.394384
 284.835770, 6503.467008
 286.622854, 6574.858919
 288.409939, 6646.702435
 290.197023, 6718.997556
 291.984108, 6791.744282
 293.771192, 6864.942612
 295.558276, 6938.592548
 297.345361, 7012.694088
 299.132445, 7087.247233
 300.919529, 7162.251983
 302.706614, 7237.708337
