Speed, Forces
 149.149370, 3449.379966
 150.319548, 3432.801764
 151.489725, 3415.428038
 152.659902, 3398.772978
 153.830079, 3383.638635
 155.000257, 3369.172603
 156.170434, 3355.484669
 157.340611, 3343.104664
 158.510789, 3331.156454
 159.680966, 3320.470168
 160.851143, 3310.390566
 162.021321, 3301.162307
 163.191498, 3292.832356
 164.361675, 3285.066456
 165.531852, 3278.361338
 166.702030, 3272.060176
 167.872207, 3266.849213
 169.042384, 3262.013213
 170.212562, 3258.159862
 171.382739, 3254.787497
 172.552916, 3252.149356
 173.723093, 3250.237142
 174.893271, 3248.665947
 176.063448, 3248.208448
 177.233625, 3247.747808
 178.403803, 3248.539898
 179.573980, 3249.536428
 180.744157, 3251.062160
 181.914334, 3253.506190
 183.084512, 3255.966445
 184.254689, 3259.477994
 185.424866, 3263.383320
 186.595044, 3267.314065
 187.765221, 3272.601418
 188.935398, 3277.972199
 190.105575, 3283.424051
 191.275753, 3290.218687
 192.445930, 3297.056155
 193.616107, 3303.936454
 194.786285, 3312.098477
 195.956462, 3320.400928
 197.126639, 3328.754429
 198.296817, 3337.991873
 199.466994, 3347.754677
 200.637171, 3357.576422
 201.807348, 3367.632382
 202.977526, 3378.847975
 204.147703, 3390.130075
 205.317880, 3401.478683
 206.488058, 3413.393809
 207.658235, 3426.125446
 208.828412, 3438.930831
 209.998589, 3451.809965
 211.168767, 3465.255007
 212.338944, 3479.503094
 213.509121, 3493.831843
 214.679299, 3508.241257
 215.849476, 3522.867428
 217.019653, 3538.628462
 218.189830, 3554.476750
 219.360008, 3570.412290
 220.530185, 3586.435083
 221.700362, 3603.117836
 222.870540, 3620.477925
 224.040717, 3637.931531
 225.210894, 3655.478654
 226.381072, 3673.119293
 227.551249, 3691.416484
 228.721426, 3710.376187
 229.891603, 3729.435345
 231.061781, 3748.593958
 232.231958, 3767.852026
 233.402135, 3787.292202
 234.572313, 3807.847194
 235.742490, 3828.507253
 236.912667, 3849.272379
 238.082844, 3870.142573
 239.253022, 3891.117834
 240.423199, 3912.366045
 241.593376, 3934.617469
 242.763554, 3956.979247
 243.933731, 3979.451380
 245.103908, 4002.033867
 246.274085, 4024.726708
 247.444263, 4047.529903
 248.614440, 4071.131046
 249.784617, 4095.190046
 250.954795, 4119.364361
 252.124972, 4143.653992
 253.295149, 4168.058938
 254.465326, 4192.579200
 255.635504, 4217.214777
 256.805681, 4242.467186
 257.975858, 4268.332998
 259.146036, 4294.318762
 260.316213, 4320.424477
 261.486390, 4346.650143
 262.656568, 4372.995760
 263.826745, 4399.461328
 264.996922, 4426.046847
