Speed, Forces
 132.149924, 3449.379966
 133.569015, 3426.206103
 134.988106, 3403.359959
 136.407198, 3382.346209
 137.826289, 3363.071212
 139.245380, 3345.437710
 140.664471, 3329.344816
 142.083563, 3314.754751
 143.502654, 3302.149138
 144.921745, 3290.856730
 146.340836, 3280.763964
 147.759928, 3272.196429
 149.179019, 3265.208227
 150.598110, 3259.160865
 152.017201, 3254.572596
 153.436293, 3251.337980
 154.855384, 3248.763061
 156.274475, 3248.140233
 157.693566, 3248.054240
 159.112658, 3249.408371
 160.531749, 3251.631514
 161.950840, 3254.968650
 163.369931, 3259.310271
 164.789023, 3264.632833
 166.208114, 3270.891406
 167.627205, 3278.198194
 169.046297, 3286.161324
 170.465388, 3295.447514
 171.884479, 3304.891939
 173.303570, 3316.149085
 174.722662, 3327.500885
 176.141753, 3340.056706
 177.560844, 3353.382026
 178.979935, 3366.909688
 180.399027, 3382.192232
 181.818118, 3397.598092
 183.237209, 3413.652697
 184.656300, 3431.009289
 186.075392, 3448.502623
 187.494483, 3466.753304
 188.913574, 3486.186047
 190.332665, 3505.768352
 191.751757, 3525.862508
 193.170848, 3547.368068
 194.589939, 3569.035410
 196.009030, 3590.864533
 197.428122, 3614.168314
 198.847213, 3637.911322
 200.266304, 3661.827726
 201.685395, 3686.167136
 203.104487, 3711.971008
 204.523578, 3737.959285
 205.942669, 3764.131968
 207.361760, 3790.756783
 208.780852, 3818.796091
 210.199943, 3847.030212
 211.619034, 3875.459146
 213.038125, 3904.082892
 214.457217, 3934.111101
 215.876308, 3964.584395
 217.295399, 3995.262305
 218.714491, 4026.144830
 220.133582, 4057.325608
 221.552673, 4090.024160
 222.971764, 4122.936526
 224.390856, 4156.062707
 225.809947, 4189.402701
 227.229038, 4222.956509
 228.648129, 4257.818928
 230.067221, 4293.166394
 231.486312, 4328.736270
 232.905403, 4364.528556
 234.324494, 4400.543250
 235.743586, 4436.780354
 237.162677, 4474.497340
 238.581768, 4512.497280
 240.000859, 4550.727620
 241.419951, 4589.188361
 242.839042, 4627.879503
 244.258133, 4666.801046
 245.677224, 4706.469449
 247.096316, 4747.114552
 248.515407, 4787.997444
 249.934498, 4829.118124
 251.353589, 4870.476593
 252.772681, 4912.072849
 254.191772, 4953.906894
 255.610863, 4995.985530
 257.029954, 5039.502191
 258.449046, 5083.263424
 259.868137, 5127.269230
 261.287228, 5171.519607
 262.706319, 5216.014557
 264.125411, 5260.754078
 265.544502, 5305.738172
 266.963593, 5350.966838
 268.382685, 5397.061707
 269.801776, 5443.934744
 271.220867, 5491.058533
 272.639958, 5538.433074
