Speed, Forces
 140.273463, 4598.183009
 141.572164, 4574.872672
 142.870865, 4551.562335
 144.169567, 4528.251998
 145.468268, 4504.941661
 146.766969, 4481.631324
 148.065671, 4458.320988
 149.364372, 4435.010651
 150.663073, 4411.700314
 151.961774, 4388.389977
 153.260476, 4365.079640
 154.559177, 4341.769303
 155.857878, 4318.458966
 157.156580, 4295.148629
 158.455281, 4271.838292
 159.753982, 4248.527955
 161.052684, 4225.217619
 162.351385, 4202.856817
 163.650086, 4181.751010
 164.948788, 4160.645204
 166.247489, 4139.539397
 167.546190, 4118.433590
 168.844892, 4097.327783
 170.143593, 4076.221976
 171.442294, 4055.116169
 172.740995, 4034.010363
 174.039697, 4012.904556
 175.338398, 3991.798749
 176.637099, 3970.692942
 177.935801, 3949.587135
 179.234502, 3928.481328
 180.533203, 3907.375522
 181.831905, 3886.269715
 183.130606, 3865.163908
 184.429307, 3844.058101
 185.728009, 3822.952294
 187.026710, 3801.846487
 188.325411, 3780.740680
 189.624112, 3759.634874
 190.922814, 3738.529067
 192.221515, 3717.423260
 193.520216, 3696.892511
 194.818918, 3678.871932
 196.117619, 3660.851353
 197.416320, 3642.830775
 198.715022, 3624.810196
 200.013723, 3606.789617
 201.312424, 3588.769038
 202.611126, 3570.748460
 203.909827, 3552.727881
 205.208528, 3534.707302
 206.507230, 3516.686723
 207.805931, 3498.666144
 209.104632, 3480.645566
 210.403333, 3462.624987
 211.702035, 3444.604408
 213.000736, 3426.583829
 214.299437, 3408.563250
 215.598139, 3390.542672
 216.896840, 3372.522093
 218.195541, 3354.501514
 219.494243, 3336.480935
 220.792944, 3318.460356
 222.091645, 3300.439778
 223.390347, 3282.419199
 224.689048, 3264.398620
 225.987749, 3248.846260
 227.286451, 3233.445702
 228.585152, 3218.045143
 229.883853, 3202.644584
 231.182554, 3187.244025
 232.481256, 3171.843466
 233.779957, 3156.442907
 235.078658, 3141.042348
 236.377360, 3125.641789
 237.676061, 3110.241230
 238.974762, 3094.840671
 240.273464, 3079.440112
 241.572165, 3064.039553
 242.870866, 3048.638994
 244.169568, 3033.238435
 245.468269, 3017.837876
 246.766970, 3002.437317
 248.065672, 2987.036758
 249.364373, 2971.636199
 250.663074, 2956.235640
 251.961775, 2940.835081
 253.260477, 2925.434522
 254.559178, 2910.033963
 255.857879, 2894.633404
 257.156581, 2880.327673
 258.455282, 2866.496237
 259.753983, 2852.664802
 261.052685, 2838.833367
 262.351386, 2825.001931
 263.650087, 2811.170496
 264.948789, 2797.339061
 266.247490, 2783.507625
 267.546191, 2769.676190
 268.844892, 2755.844755
