Speed, Forces
 125.785260, 5110.916044
 127.572344, 5065.175934
 129.359429, 5019.435825
 131.146513, 4973.695715
 132.933597, 4927.955605
 134.720682, 4888.222765
 136.507766, 4850.803981
 138.294851, 4813.385197
 140.081935, 4775.966413
 141.869019, 4738.547630
 143.656104, 4701.128846
 145.443188, 4663.710062
 147.230272, 4626.291278
 149.017357, 4588.872494
 150.804441, 4551.453710
 152.591526, 4514.034927
 154.378610, 4476.616143
 156.165694, 4439.197359
 157.952779, 4401.778575
 159.739863, 4364.359791
 161.526948, 4326.941007
 163.314032, 4289.522223
 165.101116, 4252.103440
 166.888201, 4218.022952
 168.675285, 4187.199504
 170.462369, 4156.376056
 172.249454, 4125.552608
 174.036538, 4094.729160
 175.823623, 4063.905712
 177.610707, 4033.082264
 179.397791, 4002.258817
 181.184876, 3971.435369
 182.971960, 3940.611921
 184.759045, 3909.788473
 186.546129, 3878.965025
 188.333213, 3848.141577
 190.120298, 3817.318129
 191.907382, 3786.494681
 193.694466, 3755.671233
 195.481551, 3724.847785
 197.268635, 3694.024337
 199.055720, 3664.454390
 200.842804, 3637.947290
 202.629888, 3611.440190
 204.416973, 3584.933091
 206.204057, 3558.425991
 207.991142, 3531.918891
 209.778226, 3505.411791
 211.565310, 3478.904691
 213.352395, 3452.397591
 215.139479, 3425.890491
 216.926563, 3399.383392
 218.713648, 3372.876292
 220.500732, 3346.369192
 222.287817, 3319.862092
 224.074901, 3293.354992
 225.861985, 3266.847892
 227.649070, 3240.340792
 229.436154, 3213.833693
 231.223239, 3187.649364
 233.010323, 3165.465751
 234.797407, 3143.282138
 236.584492, 3121.098526
 238.371576, 3098.914913
 240.158660, 3076.731300
 241.945745, 3054.547687
 243.732829, 3032.364074
 245.519914, 3010.180462
 247.306998, 2987.996849
 249.094082, 2965.813236
 250.881167, 2943.629623
 252.668251, 2921.446010
 254.455336, 2899.262398
 256.242420, 2877.078785
 258.029504, 2854.895172
 259.816589, 2832.711559
 261.603673, 2810.527947
 263.390757, 2788.344334
 265.177842, 2766.878602
 266.964926, 2745.530801
 268.752011, 2724.183000
 270.539095, 2702.835200
 272.326179, 2681.487399
 274.113264, 2660.139598
 275.900348, 2638.791797
 277.687432, 2617.443996
 279.474517, 2596.096195
 281.261601, 2574.748394
 283.048686, 2553.400594
 284.835770, 2532.052793
 286.622854, 2510.704992
 288.409939, 2489.357191
 290.197023, 2468.009390
 291.984108, 2446.661589
 293.771192, 2425.313788
 295.558276, 2403.965987
 297.345361, 2382.676110
 299.132445, 2361.418370
 300.919529, 2340.160630
 302.706614, 2318.902891
