Speed, Forces
 132.149924, 4866.539504
 133.569015, 4838.233774
 134.988106, 4809.928043
 136.407198, 4781.622313
 137.826289, 4753.316583
 139.245380, 4725.010853
 140.664471, 4696.705123
 142.083563, 4668.399393
 143.502654, 4640.093662
 144.921745, 4611.787932
 146.340836, 4583.482202
 147.759928, 4555.176472
 149.179019, 4526.870742
 150.598110, 4498.565012
 152.017201, 4470.259282
 153.436293, 4441.953551
 154.855384, 4413.647821
 156.274475, 4385.342091
 157.693566, 4357.036361
 159.112658, 4328.730631
 160.531749, 4300.424901
 161.950840, 4272.119170
 163.369931, 4243.813440
 164.789023, 4218.407161
 166.208114, 4194.403492
 167.627205, 4170.399823
 169.046297, 4146.396154
 170.465388, 4122.392485
 171.884479, 4098.388816
 173.303570, 4074.385147
 174.722662, 4050.381478
 176.141753, 4026.377809
 177.560844, 4002.374140
 178.979935, 3978.370471
 180.399027, 3954.366802
 181.818118, 3930.363133
 183.237209, 3906.359464
 184.656300, 3882.355795
 186.075392, 3858.352126
 187.494483, 3834.348457
 188.913574, 3810.344788
 190.332665, 3786.341119
 191.751757, 3762.337450
 193.170848, 3738.333781
 194.589939, 3714.330112
 196.009030, 3690.752754
 197.428122, 3670.220654
 198.847213, 3649.688553
 200.266304, 3629.156452
 201.685395, 3608.624352
 203.104487, 3588.092251
 204.523578, 3567.560150
 205.942669, 3547.028050
 207.361760, 3526.495949
 208.780852, 3505.963848
 210.199943, 3485.431748
 211.619034, 3464.899647
 213.038125, 3444.367546
 214.457217, 3423.835446
 215.876308, 3403.303345
 217.295399, 3382.771244
 218.714491, 3362.239144
 220.133582, 3341.707043
 221.552673, 3321.174942
 222.971764, 3300.642842
 224.390856, 3280.110741
 225.809947, 3259.578640
 227.229038, 3239.046540
 228.648129, 3220.478303
 230.067221, 3203.381730
 231.486312, 3186.285156
 232.905403, 3169.188583
 234.324494, 3152.092010
 235.743586, 3134.995437
 237.162677, 3117.898864
 238.581768, 3100.802290
 240.000859, 3083.705717
 241.419951, 3066.609144
 242.839042, 3049.512571
 244.258133, 3032.415998
 245.677224, 3015.319424
 247.096316, 2998.222851
 248.515407, 2981.126278
 249.934498, 2964.029705
 251.353589, 2946.933132
 252.772681, 2929.836559
 254.191772, 2912.739985
 255.610863, 2895.643412
 257.029954, 2878.546839
 258.449046, 2861.450266
 259.868137, 2844.377102
 261.287228, 2828.424300
 262.706319, 2812.471498
 264.125411, 2796.518696
 265.544502, 2780.565894
 266.963593, 2764.613092
 268.382685, 2748.660290
 269.801776, 2732.707488
 271.220867, 2716.754686
 272.639958, 2700.801884
