Speed, Forces
 150.451151, 3995.476071
 151.863106, 3971.819640
 153.275061, 3948.163208
 154.687017, 3924.506776
 156.098972, 3900.850345
 157.510927, 3877.193913
 158.922883, 3853.537482
 160.334838, 3831.547199
 161.746793, 3812.816110
 163.158748, 3794.085021
 164.570704, 3775.353932
 165.982659, 3756.622843
 167.394614, 3737.891754
 168.806570, 3719.160665
 170.218525, 3700.429576
 171.630480, 3681.698487
 173.042435, 3662.967398
 174.454391, 3644.236309
 175.866346, 3625.505220
 177.278301, 3606.774131
 178.690257, 3588.043042
 180.102212, 3569.311953
 181.514167, 3550.580864
 182.926122, 3531.849774
 184.338078, 3513.118685
 185.750033, 3494.387596
 187.161988, 3475.656507
 188.573944, 3456.925418
 189.985899, 3438.194329
 191.397854, 3420.563973
 192.809809, 3404.951319
 194.221765, 3389.338666
 195.633720, 3373.726013
 197.045675, 3358.113359
 198.457631, 3342.500706
 199.869586, 3326.888053
 201.281541, 3311.275399
 202.693496, 3295.662746
 204.105452, 3280.050093
 205.517407, 3264.437439
 206.929362, 3248.824786
 208.341318, 3233.212133
 209.753273, 3217.599479
 211.165228, 3201.986826
 212.577183, 3186.374173
 213.989139, 3170.761519
 215.401094, 3155.148866
 216.813049, 3139.536213
 218.225005, 3123.923560
 219.636960, 3108.310906
 221.048915, 3092.698253
 222.460870, 3078.078670
 223.872826, 3065.166992
 225.284781, 3052.255315
 226.696736, 3039.343638
 228.108692, 3026.431960
 229.520647, 3013.520283
 230.932602, 3000.608605
 232.344557, 2987.696928
 233.756513, 2974.785251
 235.168468, 2961.873573
 236.580423, 2948.961896
 237.992379, 2936.050218
 239.404334, 2923.138541
 240.816289, 2910.226864
 242.228244, 2897.315186
 243.640200, 2884.403509
 245.052155, 2871.491832
 246.464110, 2858.580154
 247.876066, 2845.668477
 249.288021, 2832.756799
 250.699976, 2819.845122
 252.111931, 2806.933445
 253.523887, 2794.651775
 254.935842, 2783.387756
 256.347797, 2772.123737
 257.759753, 2760.859717
 259.171708, 2749.595698
 260.583663, 2738.331678
 261.995618, 2727.067659
 263.407574, 2715.803639
 264.819529, 2704.539620
 266.231484, 2693.275600
 267.643440, 2682.011581
 269.055395, 2670.747561
 270.467350, 2659.483542
 271.879305, 2648.219522
 273.291261, 2636.955503
 274.703216, 2625.691483
 276.115171, 2614.427464
 277.527127, 2603.163444
 278.939082, 2591.899425
 280.351037, 2580.635405
 281.762992, 2569.371386
 283.174948, 2558.107366
 284.586903, 2546.883770
 285.998858, 2535.721556
 287.410814, 2524.559342
 288.822769, 2513.397128
 290.234724, 2502.234914
