Speed, Forces
 160.258924, 3392.652423
 161.528630, 3378.044904
 162.798335, 3363.437384
 164.068041, 3348.829864
 165.337747, 3334.222345
 166.607452, 3319.614825
 167.877158, 3305.007306
 169.146863, 3290.399786
 170.416569, 3275.792266
 171.686274, 3261.184747
 172.955980, 3246.577227
 174.225685, 3231.969708
 175.495391, 3217.362188
 176.765097, 3202.754668
 178.034802, 3188.147149
 179.304508, 3173.539629
 180.574213, 3158.932110
 181.843919, 3144.324590
 183.113624, 3129.717070
 184.383330, 3115.109551
 185.653036, 3100.502031
 186.922741, 3085.894512
 188.192447, 3071.286992
 189.462152, 3059.484459
 190.731858, 3048.155635
 192.001563, 3036.826810
 193.271269, 3025.497986
 194.540974, 3014.169161
 195.810680, 3002.840337
 197.080386, 2991.511512
 198.350091, 2980.182688
 199.619797, 2968.853863
 200.889502, 2957.525039
 202.159208, 2946.196214
 203.428913, 2934.867390
 204.698619, 2923.538565
 205.968324, 2912.209741
 207.238030, 2900.880916
 208.507736, 2889.552091
 209.777441, 2878.223267
 211.047147, 2866.894442
 212.316852, 2855.565618
 213.586558, 2844.236793
 214.856263, 2832.907969
 216.125969, 2821.579144
 217.395674, 2810.250320
 218.665380, 2798.921495
 219.935086, 2789.538545
 221.204791, 2780.531297
 222.474497, 2771.524048
 223.744202, 2762.516800
 225.013908, 2753.509551
 226.283613, 2744.502303
 227.553319, 2735.495054
 228.823024, 2726.487806
 230.092730, 2717.480557
 231.362436, 2708.473309
 232.632141, 2699.466060
 233.901847, 2690.458812
 235.171552, 2681.451563
 236.441258, 2672.444315
 237.710963, 2663.437066
 238.980669, 2654.429818
 240.250375, 2645.422569
 241.520080, 2636.415321
 242.789786, 2627.408072
 244.059491, 2618.400824
 245.329197, 2609.393575
 246.598902, 2600.386327
 247.868608, 2591.379078
 249.138313, 2582.371830
 250.408019, 2574.426436
 251.677725, 2566.712840
 252.947430, 2558.999243
 254.217136, 2551.285646
 255.486841, 2543.572050
 256.756547, 2535.858453
 258.026252, 2528.144856
 259.295958, 2520.431260
 260.565663, 2512.717663
 261.835369, 2505.004066
 263.105075, 2497.290469
 264.374780, 2489.576873
 265.644486, 2481.863276
 266.914191, 2474.149679
 268.183897, 2466.436083
 269.453602, 2458.722486
 270.723308, 2451.008889
 271.993013, 2443.295293
 273.262719, 2435.581696
 274.532425, 2427.868099
 275.802130, 2420.154503
 277.071836, 2412.440906
 278.341541, 2404.727309
 279.611247, 2397.013713
 280.880952, 2389.492872
 282.150658, 2382.019180
 283.420364, 2374.545488
 284.690069, 2367.071795
 285.959775, 2359.598103
