Speed, Forces
 158.872282, 3408.067113
 159.904822, 3396.138911
 160.937361, 3384.210709
 161.969901, 3372.282507
 163.002441, 3360.354305
 164.034980, 3348.426103
 165.067520, 3336.497900
 166.100059, 3324.569698
 167.132599, 3312.641496
 168.165139, 3300.713294
 169.197678, 3288.785092
 170.230218, 3276.856890
 171.262758, 3264.928688
 172.295297, 3253.000486
 173.327837, 3241.072284
 174.360377, 3229.144082
 175.392916, 3217.215880
 176.425456, 3205.287678
 177.457996, 3193.359476
 178.490535, 3181.431274
 179.523075, 3169.503072
 180.555615, 3157.574870
 181.588154, 3145.646668
 182.620694, 3133.718465
 183.653234, 3121.790263
 184.685773, 3109.862061
 185.718313, 3097.933859
 186.750852, 3086.005657
 187.783392, 3074.077455
 188.815932, 3063.726533
 189.848471, 3054.475647
 190.881011, 3045.224760
 191.913551, 3035.973874
 192.946090, 3026.722987
 193.978630, 3017.472100
 195.011170, 3008.221214
 196.043709, 2998.970327
 197.076249, 2989.719440
 198.108789, 2980.468554
 199.141328, 2971.217667
 200.173868, 2961.966780
 201.206408, 2952.715894
 202.238947, 2943.465007
 203.271487, 2934.214121
 204.304027, 2924.963234
 205.336566, 2915.712347
 206.369106, 2906.461461
 207.401645, 2897.210574
 208.434185, 2887.959687
 209.466725, 2878.708801
 210.499264, 2869.457914
 211.531804, 2860.207027
 212.564344, 2850.956141
 213.596883, 2841.705254
 214.629423, 2832.454368
 215.661963, 2823.203481
 216.694502, 2813.952594
 217.727042, 2804.701708
 218.759582, 2795.786352
 219.792121, 2788.431217
 220.824661, 2781.076082
 221.857201, 2773.720947
 222.889740, 2766.365812
 223.922280, 2759.010677
 224.954820, 2751.655542
 225.987359, 2744.300407
 227.019899, 2736.945271
 228.052438, 2729.590136
 229.084978, 2722.235001
 230.117518, 2714.879866
 231.150057, 2707.524731
 232.182597, 2700.169596
 233.215137, 2692.814461
 234.247676, 2685.459326
 235.280216, 2678.104191
 236.312756, 2670.749056
 237.345295, 2663.393921
 238.377835, 2656.038785
 239.410375, 2648.683650
 240.442914, 2641.328515
 241.475454, 2633.973380
 242.507994, 2626.618245
 243.540533, 2619.263110
 244.573073, 2611.907975
 245.605613, 2604.552840
 246.638152, 2597.197705
 247.670692, 2589.842570
 248.703231, 2582.487435
 249.735771, 2575.940269
 250.768311, 2569.641503
 251.800850, 2563.342738
 252.833390, 2557.043972
 253.865930, 2550.745207
 254.898469, 2544.446441
 255.931009, 2538.147676
 256.963549, 2531.848910
 257.996088, 2525.550145
 259.028628, 2519.251380
 260.061168, 2512.952614
 261.093707, 2506.653849
