Time, Emission CO2
   0.000000,    0.105134
   0.100000,  105.139496
   0.200000,  210.328675
   0.300000,  315.523973
   0.400000,  420.719271
   0.500000,  525.914569
   0.600000,  631.109867
   0.700000,  736.305166
   0.800000,  841.500464
   0.900000,  946.695762
   1.000000, 1051.891060
   1.100000, 1157.086358
   1.200000, 1262.356202
   1.300000, 1367.635355
   1.400000, 1472.914507
   1.500000, 1578.193659
   1.600000, 1683.472811
   1.700000, 1788.751963
   1.800000, 1894.031116
   1.900000, 1999.310268
   2.000000, 2104.589420
   2.100000, 2209.868572
   2.200000, 2315.201965
   2.300000, 2420.542129
   2.400000, 2525.882294
   2.500000, 2631.222459
   2.600000, 2736.562624
   2.700000, 2841.902789
   2.800000, 2947.242954
   2.900000, 3052.583119
   3.000000, 3157.923284
   3.100000, 3263.263448
   3.200000, 3368.638206
   3.300000, 3474.017283
   3.400000, 3579.396360
   3.500000, 3684.775437
   3.600000, 3790.154514
   3.700000, 3895.533591
   3.800000, 4000.912668
   3.900000, 4106.291745
   4.000000, 4211.670822
   4.100000, 4317.049899
   4.200000, 4422.444595
   4.300000, 4527.841242
   4.400000, 4633.237889
   4.500000, 4738.634536
   4.600000, 4844.031184
   4.700000, 4949.427831
   4.800000, 5054.824478
   4.900000, 5160.221125
   5.000000, 5265.617772
   5.100000, 5371.014419
   5.200000, 5476.413663
   5.300000, 5581.813231
   5.400000, 5687.212800
   5.500000, 5792.612368
   5.600000, 5898.011936
   5.700000, 6003.411505
   5.800000, 6108.811073
   5.900000, 6214.210642
   6.000000, 6319.610210
   6.100000, 6425.009778
   6.200000, 6530.503918
   6.300000, 6636.009865
   6.400000, 6741.515813
   6.500000, 6847.021760
   6.600000, 6952.527707
   6.700000, 7058.033655
   6.800000, 7163.539602
   6.900000, 7269.045550
   7.000000, 7374.551497
   7.100000, 7480.057444
   7.200000, 7585.648188
   7.300000, 7691.249520
   7.400000, 7796.850851
   7.500000, 7902.452183
   7.600000, 8008.053515
   7.700000, 8113.654846
   7.800000, 8219.256178
   7.900000, 8324.857509
   8.000000, 8430.458841
   8.100000, 8536.060172
   8.200000, 8641.705425
   8.300000, 8747.356162
   8.400000, 8853.006899
   8.500000, 8958.657636
   8.600000, 9064.308372
   8.700000, 9169.959109
   8.800000, 9275.609846
   8.900000, 9381.260583
   9.000000, 9486.911320
   9.100000, 9592.562057
   9.200000, 9698.218073
   9.300000, 9803.874750
   9.400000, 9909.531426
   9.500000, 10015.188102
   9.600000, 10120.844778
   9.700000, 10226.501454
   9.800000, 10332.158130
   9.900000, 10437.814806
  10.000000, 10543.471482
  10.100000, 10649.128158
  10.200000, 10754.753669
  10.300000, 10860.375289
  10.400000, 10965.996908
  10.500000, 11071.618528
  10.600000, 11177.240147
  10.700000, 11282.861767
  10.800000, 11388.483386
  10.900000, 11494.105006
  11.000000, 11599.726625
  11.100000, 11705.348245
  11.200000, 11810.904407
  11.300000, 11916.452397
  11.400000, 12022.000386
  11.500000, 12127.548376
  11.600000, 12233.096365
  11.700000, 12338.644355
  11.800000, 12444.192345
  11.900000, 12549.740334
  12.000000, 12655.288324
  12.100000, 12760.836313
  12.200000, 12866.457532
  12.300000, 12972.087893
  12.400000, 13077.718255
  12.500000, 13183.348616
  12.600000, 13288.978978
  12.700000, 13394.609339
  12.800000, 13500.239701
  12.900000, 13605.870062
  13.000000, 13711.500424
  13.100000, 13817.130785
  13.200000, 13922.958743
  13.300000, 14028.811372
  13.400000, 14134.664001
  13.500000, 14240.516631
  13.600000, 14346.369260
  13.700000, 14452.221889
  13.800000, 14558.074518
  13.900000, 14663.927148
  14.000000, 14769.779777
  14.100000, 14875.632406
  14.200000, 14981.602265
  14.300000, 15087.586760
  14.400000, 15193.571256
  14.500000, 15299.555751
  14.600000, 15405.540247
  14.700000, 15511.524743
  14.800000, 15617.509238
  14.900000, 15723.493734
  15.000000, 15829.478229
  15.100000, 15935.462725
  15.200000, 16041.489412
  15.300000, 16147.521367
  15.400000, 16253.553321
  15.500000, 16359.585276
  15.600000, 16465.617231
  15.700000, 16571.649186
  15.800000, 16677.681141
  15.900000, 16783.713096
  16.000000, 16889.745050
  16.100000, 16995.777005
  16.200000, 17101.782160
  16.300000, 17207.783969
  16.400000, 17313.785778
  16.500000, 17419.787587
  16.600000, 17525.789396
  16.700000, 17631.791205
  16.800000, 17737.793014
  16.900000, 17843.794823
  17.000000, 17949.796632
  17.100000, 18055.798440
  17.200000, 18161.710207
  17.300000, 18267.610731
  17.400000, 18373.511255
  17.500000, 18479.411778
  17.600000, 18585.312302
  17.700000, 18691.212826
  17.800000, 18797.113350
  17.900000, 18903.013874
  18.000000, 19008.914398
  18.100000, 19114.814922
  18.200000, 19220.567614
  18.300000, 19326.301849
  18.400000, 19432.036084
  18.500000, 19537.770319
  18.600000, 19643.504554
  18.700000, 19749.238789
  18.800000, 19854.973024
  18.900000, 19960.707258
  19.000000, 20066.441493
  19.100000, 20172.175728
  19.200000, 20277.753871
  19.300000, 20383.312524
  19.400000, 20488.871177
  19.500000, 20594.429831
  19.600000, 20699.988484
  19.700000, 20805.547137
  19.800000, 20911.105791
  19.900000, 21016.664444
  20.000000, 21122.223097
  20.100000, 21227.781750
  20.200000, 21333.470221
  20.300000, 21439.174901
  20.400000, 21544.879581
  20.500000, 21650.584261
  20.600000, 21756.288941
  20.700000, 21861.993621
  20.800000, 21967.698301
  20.900000, 22073.402981
  21.000000, 22179.107661
  21.100000, 22284.812340
  21.200000, 22390.650708
  21.300000, 22496.505769
  21.400000, 22602.360829
  21.500000, 22708.215889
  21.600000, 22814.070950
  21.700000, 22919.926010
  21.800000, 23025.781070
  21.900000, 23131.636130
  22.000000, 23237.491191
  22.100000, 23343.346251
  22.200000, 23449.269792
  22.300000, 23555.201883
  22.400000, 23661.133974
  22.500000, 23767.066065
  22.600000, 23872.998156
  22.700000, 23978.930247
  22.800000, 24084.862338
  22.900000, 24190.794429
  23.000000, 24296.726520
  23.056841, 24356.939159
  23.156841, 24462.886313
  23.256841, 24568.831210
  23.356841, 24674.776107
  23.456841, 24780.721004
  23.556841, 24886.665901
  23.656841, 24992.610798
  23.756841, 25098.555695
  23.856841, 25204.500592
  23.956841, 25310.445489
  24.056841, 25416.390386
  24.156841, 25522.314401
  24.256841, 25628.213645
  24.356841, 25734.112889
  24.456841, 25840.012133
  24.556841, 25945.911377
  24.656841, 26051.810621
  24.756841, 26157.709865
  24.856841, 26263.609109
  24.956841, 26369.508353
  25.056841, 26475.407598
  25.156841, 26581.264738
  25.256841, 26687.071934
  25.356841, 26792.879131
  25.456841, 26898.686327
  25.556841, 27004.493523
  25.656841, 27110.300719
  25.756841, 27216.107915
  25.856841, 27321.915112
  25.956841, 27427.722308
  26.056841, 27533.529504
  26.111100, 27590.939652
  26.211100, 27696.640634
  26.311100, 27802.341616
  26.411100, 27908.042598
  26.511100, 28013.743580
  26.611100, 28119.444562
  26.711100, 28225.145544
  26.811100, 28330.846526
  26.911100, 28436.547509
  27.011100, 28542.248491
  27.111100, 28647.949473
  27.211100, 28753.603201
  27.311100, 28859.256930
  27.411100, 28964.910659
  27.511100, 29070.564387
  27.611100, 29176.218116
  27.711100, 29281.856559
  27.811100, 29387.495002
  27.911100, 29493.133445
  28.011100, 29598.771888
  28.111100, 29704.410331
  28.211100, 29810.045263
  28.311100, 29915.680196
  28.411100, 30021.315129
  28.511100, 30126.950061
