Speed, Forces
 147.444892, 3141.885155
 148.592864, 3122.895943
 149.740836, 3104.527141
 150.888808, 3086.824288
 152.036780, 3070.420744
 153.184752, 3054.471039
 154.332724, 3039.481974
 155.480696, 3025.308171
 156.628668, 3011.619979
 157.776640, 2999.118935
 158.924612, 2986.793220
 160.072584, 2975.800473
 161.220556, 2964.934148
 162.368528, 2955.243066
 163.516500, 2945.718981
 164.664473, 2937.330136
 165.812445, 2929.025993
 166.960417, 2921.938242
 168.108389, 2914.801590
 169.256361, 2908.937084
 170.404333, 2903.108168
 171.552305, 2898.189501
 172.700277, 2893.663462
 173.848249, 2889.551470
 174.996221, 2886.321734
 176.144193, 2883.070742
 177.292165, 2880.930387
 178.440137, 2878.976051
 179.588109, 2877.329961
 180.736081, 2876.661991
 181.884053, 2875.989765
 183.032025, 2875.960527
 184.179997, 2876.570732
 185.327969, 2877.184753
 186.475941, 2878.575394
 187.623914, 2880.465625
 188.771886, 2882.367457
 189.919858, 2884.970712
 191.067830, 2888.140246
 192.215802, 2891.328881
 193.363774, 2894.927194
 194.511746, 2899.372736
 195.659718, 2903.844592
 196.807690, 2908.342763
 197.955662, 2913.925797
 199.103634, 2919.674721
 200.251606, 2925.456888
 201.399578, 2931.546698
 202.547550, 2938.563963
 203.695522, 2945.621113
 204.843494, 2952.718147
 205.991466, 2960.241575
 207.139438, 2968.562122
 208.287410, 2976.928910
 209.435383, 2985.341938
 210.583355, 2993.991164
 211.731327, 3003.613262
 212.879299, 3013.287671
 214.027271, 3023.014390
 215.175243, 3032.793422
 216.323215, 3043.382927
 217.471187, 3054.359509
 218.619159, 3065.394187
 219.767131, 3076.486961
 220.915103, 3087.637830
 222.063075, 3099.779098
 223.211047, 3112.112570
 224.359019, 3124.509636
 225.506991, 3136.970296
 226.654963, 3149.494551
 227.802935, 3162.773336
 228.950907, 3176.461815
 230.098879, 3190.219100
 231.246851, 3204.045193
 232.394824, 3217.940093
 233.542796, 3231.916423
 234.690768, 3246.953737
 235.838740, 3262.064786
 236.986712, 3277.249569
 238.134684, 3292.508085
 239.282656, 3307.840337
 240.430628, 3323.246322
 241.578600, 3339.546017
 242.726572, 3356.078459
 243.874544, 3372.689276
 245.022516, 3389.378469
 246.170488, 3406.146037
 247.318460, 3422.991980
 248.466432, 3439.984022
 249.614404, 3457.931535
 250.762376, 3475.961779
 251.910348, 3494.074754
 253.058320, 3512.270459
 254.206292, 3530.548895
 255.354265, 3548.910061
 256.502237, 3567.353957
 257.650209, 3586.428887
 258.798181, 3605.953604
 259.946153, 3625.565121
 261.094125, 3645.263437
