Speed, Forces
 126.351901, 3141.813993
 127.712934, 3115.503580
 129.073966, 3090.890448
 130.434999, 3067.889075
 131.796031, 3046.410657
 133.157064, 3026.363103
 134.518096, 3007.651044
 135.879129, 2990.583834
 137.240162, 2974.981025
 138.601194, 2960.498420
 139.962227, 2947.029718
 141.323259, 2935.421104
 142.684292, 2924.697157
 144.045324, 2914.837624
 145.406357, 2906.723408
 146.767390, 2899.238079
 148.128422, 2892.978676
 149.489455, 2887.809819
 150.850487, 2883.320593
 152.211520, 2880.305812
 153.572552, 2877.593660
 154.933585, 2876.560712
 156.294617, 2875.629249
 157.655650, 2876.396037
 159.016683, 2877.245594
 160.377715, 2879.620177
 161.738748, 2882.247804
 163.099780, 2886.028389
 164.460813, 2890.427849
 165.821845, 2895.402795
 167.182878, 2901.564573
 168.543911, 2907.776718
 169.904943, 2915.423684
 171.265976, 2923.398606
 172.627008, 2931.757759
 173.988041, 2941.478828
 175.349073, 2951.276239
 176.710106, 2961.753547
 178.071138, 2973.289357
 179.432171, 2984.913676
 180.793204, 2997.196257
 182.154236, 3010.546851
 183.515269, 3023.997572
 184.876301, 3037.752850
 186.237334, 3052.913344
 187.598366, 3068.185038
 188.959399, 3083.567933
 190.320432, 3100.021323
 191.681464, 3117.103636
 193.042497, 3134.307674
 194.403529, 3151.633436
 195.764562, 3170.351381
 197.125594, 3189.360736
 198.486627, 3208.501793
 199.847659, 3227.774554
 201.208692, 3248.290664
 202.569725, 3269.225718
 203.930757, 3290.301906
 205.291790, 3311.519228
 206.652822, 3333.334283
 208.013855, 3356.187130
 209.374887, 3379.189993
 210.735920, 3402.342873
 212.096953, 3425.645770
 213.457985, 3449.680989
 214.819018, 3474.595506
 216.180050, 3499.668376
 217.541083, 3524.899599
 218.902115, 3550.289176
 220.263148, 3575.895370
 221.624180, 3602.866096
 222.985213, 3630.002963
 224.346246, 3657.305973
 225.707278, 3684.775125
 227.068311, 3712.410419
 228.429343, 3740.267126
 229.790376, 3769.453775
 231.151408, 3798.813808
 232.512441, 3828.347224
 233.873474, 3858.054025
 235.234506, 3887.934210
 236.595539, 3917.987779
 237.956571, 3948.592841
 239.317604, 3980.167004
 240.678636, 4011.921245
 242.039669, 4043.855566
 243.400701, 4075.969965
 244.761734, 4108.264443
 246.122767, 4140.739000
 247.483799, 4173.393635
 248.844832, 4207.038964
 250.205864, 4241.180826
 251.566897, 4275.508914
 252.927929, 4310.023229
 254.288962, 4344.723770
 255.649995, 4379.610537
 257.011027, 4414.683531
 258.372060, 4449.942751
 259.733092, 4485.424099
 261.094125, 4522.127329
