Speed, Forces
 159.969618, 3141.813993
 160.991077, 3126.251606
 162.012537, 3110.792077
 163.033997, 3096.323643
 164.055456, 3082.078600
 165.076916, 3068.705626
 166.098376, 3055.584575
 167.119835, 3043.307413
 168.141295, 3031.216397
 169.162755, 3020.034246
 170.184214, 3008.875850
 171.205674, 2998.786755
 172.227134, 2988.637285
 173.248593, 2979.460952
 174.270053, 2970.408589
 175.291513, 2961.948239
 176.312972, 2953.988528
 177.334432, 2946.135400
 178.355892, 2939.262732
 179.377351, 2932.350591
 180.398811, 2926.112220
 181.420271, 2920.286943
 182.441730, 2914.428776
 183.463190, 2909.666873
 184.484650, 2904.893853
 185.506109, 2900.361015
 186.527569, 2896.663689
 187.549029, 2892.946059
 188.570488, 2889.603149
 189.591948, 2886.956612
 190.613408, 2884.295777
 191.634867, 2881.985088
 192.656327, 2880.389206
 193.677787, 2878.784840
 194.699246, 2877.341742
 195.720706, 2876.794651
 196.742166, 2876.244697
 197.763625, 2875.691880
 198.785085, 2875.995745
 199.806545, 2876.496416
 200.828004, 2876.999652
 201.849464, 2877.804904
 202.870924, 2879.350681
 203.892383, 2880.904261
 204.913843, 2882.465644
 205.935303, 2884.607796
 206.956762, 2887.204279
 207.978222, 2889.813610
 208.999682, 2892.435787
 210.021141, 2895.687895
 211.042601, 2899.335810
 212.064061, 2903.001424
 213.085520, 2906.684737
 214.106980, 2910.808320
 215.128440, 2915.506085
 216.149899, 2920.226209
 217.171359, 2924.968691
 218.192819, 2929.733532
 219.214278, 2935.457460
 220.235738, 2941.228012
 221.257198, 2947.025390
 222.278657, 2952.849594
 223.300117, 2958.913830
 224.321577, 2965.728422
 225.343036, 2972.574115
 226.364496, 2979.450909
 227.385956, 2986.358805
 228.407415, 2993.430570
 229.428875, 3001.315690
 230.450335, 3009.235995
 231.471794, 3017.191483
 232.493254, 3025.182156
 233.514714, 3033.208014
 234.536173, 3041.884909
 235.557633, 3050.876410
 236.579093, 3059.906987
 237.600552, 3068.976639
 238.622012, 3078.085366
 239.643472, 3087.233167
 240.664931, 3097.129281
 241.686391, 3107.228455
 242.707851, 3117.370403
 243.729310, 3127.555124
 244.750770, 3137.782619
 245.772230, 3148.052887
 246.793689, 3158.758081
 247.815149, 3169.962759
 248.836609, 3181.213716
 249.858068, 3192.510952
 250.879528, 3203.854468
 251.900988, 3215.244264
 252.922447, 3226.680339
 253.943907, 3238.628725
 254.965367, 3250.982868
 255.986826, 3263.386604
 257.008286, 3275.839934
 258.029746, 3288.342857
 259.051205, 3300.895373
 260.072665, 3313.497483
 261.094125, 3326.182272
