Speed, Forces
 126.353332, 3141.885155
 127.714350, 3115.574727
 129.075368, 3090.961534
 130.436386, 3067.960054
 131.797404, 3046.481479
 133.158423, 3026.433720
 134.519441, 3007.721404
 135.880459, 2990.654206
 137.241477, 2975.051090
 138.602495, 2960.568123
 139.963513, 2947.099439
 141.324531, 2935.490407
 142.685549, 2924.765986
 144.046567, 2914.906471
 145.407586, 2906.791721
 146.768604, 2899.305798
 148.129622, 2893.046410
 149.490640, 2887.876895
 150.851658, 2883.387681
 152.212676, 2880.372177
 153.573694, 2877.660034
 154.934712, 2876.626293
 156.295730, 2875.694833
 157.656749, 2876.460761
 159.017767, 2877.310315
 160.378785, 2879.683965
 161.739803, 2882.311581
 163.100821, 2886.091161
 164.461839, 2890.490603
 165.822857, 2895.464471
 167.183875, 2901.626220
 168.544893, 2907.838336
 169.905911, 2915.484140
 171.266930, 2923.459023
 172.627948, 2931.816939
 173.988966, 2941.537957
 175.349984, 2951.335316
 176.711002, 2961.811300
 178.072020, 2973.347045
 179.433038, 2984.971298
 180.794056, 2997.252469
 182.155074, 3010.602983
 183.516093, 3024.053623
 184.877111, 3037.807402
 186.238129, 3052.967800
 187.599147, 3068.239397
 188.960165, 3083.622191
 190.321183, 3100.073983
 191.682201, 3117.156181
 193.043219, 3134.360101
 194.404237, 3151.685744
 195.765256, 3170.401988
 197.126274, 3189.411208
 198.487292, 3208.552127
 199.848310, 3227.824746
 201.209328, 3248.339055
 202.570346, 3269.273952
 203.931364, 3290.349980
 205.292382, 3311.567139
 206.653400, 3333.380292
 208.014419, 3356.232959
 209.375437, 3379.235639
 210.736455, 3402.388333
 212.097473, 3425.691041
 213.458491, 3449.724244
 214.819509, 3474.638554
 216.180527, 3499.711215
 217.541545, 3524.942225
 218.902563, 3550.331584
 220.263582, 3575.935651
 221.624600, 3602.906142
 222.985618, 3630.042772
 224.346636, 3657.345541
 225.707654, 3684.814448
 227.068672, 3712.449493
 228.429690, 3740.303949
 229.790708, 3769.490331
 231.151726, 3798.850093
 232.512745, 3828.383236
 233.873763, 3858.089759
 235.234781, 3887.969662
 236.595799, 3918.022946
 237.956817, 3948.625622
 239.317835, 3980.199481
 240.678853, 4011.953415
 242.039871, 4043.887424
 243.400889, 4076.001508
 244.761907, 4108.295667
 246.122926, 4140.769901
 247.483944, 4173.424209
 248.844962, 4207.067006
 250.205980, 4241.208522
 251.566998, 4275.536261
 252.928016, 4310.050222
 254.289034, 4344.750405
 255.650052, 4379.636811
 257.011070, 4414.709439
 258.372089, 4449.968290
 259.733107, 4485.446966
 261.094125, 4522.149808
