Speed, Forces
 136.303903, 3141.885155
 137.564411, 3119.313752
 138.824918, 3097.894561
 140.085425, 3077.546036
 141.345933, 3058.184211
 142.606440, 3040.401124
 143.866947, 3023.579839
 145.127454, 3007.555476
 146.387962, 2992.911619
 147.648469, 2979.216608
 148.908976, 2966.113822
 150.169484, 2954.605276
 151.429991, 2943.599279
 152.690498, 2933.610983
 153.951005, 2924.574214
 155.211513, 2916.113552
 156.472020, 2908.911192
 157.732527, 2901.983128
 158.993035, 2896.473098
 160.253542, 2891.080175
 161.514049, 2887.113137
 162.774556, 2883.255479
 164.035064, 2880.674836
 165.295571, 2878.350147
 166.556078, 2876.992042
 167.816586, 2876.195605
 169.077093, 2875.888922
 170.337600, 2876.613603
 171.598107, 2877.343666
 172.858615, 2879.416207
 174.119122, 2881.668817
 175.379629, 2884.405808
 176.640137, 2888.168585
 177.900644, 2891.958310
 179.161151, 2896.633263
 180.421658, 2901.928534
 181.682166, 2907.260930
 182.942673, 2913.626656
 184.203180, 2920.456751
 185.463688, 2927.333745
 186.724195, 2935.128538
 187.984702, 2943.492158
 189.245209, 2951.912047
 190.505717, 2960.859682
 191.766224, 2970.751896
 193.026731, 2980.709348
 194.287239, 2990.732038
 195.547746, 3001.931330
 196.808253, 3013.417383
 198.068760, 3024.977237
 199.329268, 3036.704045
 200.589775, 3049.706106
 201.850282, 3062.790129
 203.110790, 3075.956115
 204.371297, 3089.223696
 205.631804, 3103.815263
 206.892311, 3118.496551
 208.152819, 3133.267558
 209.413326, 3148.128286
 210.673833, 3163.851340
 211.934341, 3180.124345
 213.194848, 3196.494426
 214.455355, 3212.961580
 215.715862, 3229.525810
 216.976370, 3247.222494
 218.236877, 3265.180857
 219.497384, 3283.243247
 220.757892, 3301.409662
 222.018399, 3319.680102
 223.278906, 3338.832278
 224.539414, 3358.473870
 225.799921, 3378.226035
 227.060428, 3398.088773
 228.320935, 3418.062085
 229.581443, 3438.145970
 230.841950, 3459.431958
 232.102457, 3480.865316
 233.362965, 3502.415392
 234.623472, 3524.082185
 235.883979, 3545.865696
 237.144486, 3567.765925
 238.404994, 3590.523120
 239.665501, 3613.745498
 240.926008, 3637.090334
 242.186516, 3660.557630
 243.447023, 3684.147384
 244.707530, 3707.859597
 245.968037, 3731.694268
 247.228545, 3756.375968
 248.489052, 3781.505156
 249.749559, 3806.762140
 251.010067, 3832.146921
 252.270574, 3857.659498
 253.531081, 3883.299873
 254.791588, 3909.068043
 256.052096, 3934.964011
 257.312603, 3961.855636
 258.573110, 3989.016969
 259.833618, 4016.311032
 261.094125, 4043.737827
