Speed, Forces
 159.971429, 3141.885155
 160.992871, 3126.322872
 162.014312, 3110.863380
 163.035753, 3096.395048
 164.057195, 3082.149969
 165.078636, 3068.777094
 166.100077, 3055.655931
 167.121519, 3043.378865
 168.142960, 3031.287662
 169.164402, 3020.105602
 170.185843, 3008.946943
 171.207284, 2998.857932
 172.228726, 2988.708550
 173.250167, 2979.531868
 174.271608, 2970.479586
 175.293050, 2962.018809
 176.314491, 2954.059170
 177.335933, 2946.205537
 178.357374, 2939.332935
 179.378815, 2932.420860
 180.400257, 2926.181894
 181.421698, 2920.356675
 182.443139, 2914.498567
 183.464581, 2909.735979
 184.486022, 2904.963008
 185.507463, 2900.429404
 186.528905, 2896.732117
 187.550346, 2893.014528
 188.571788, 2889.670760
 189.593229, 2887.024252
 190.614670, 2884.363447
 191.636112, 2882.051808
 192.657553, 2880.455944
 193.678994, 2878.851596
 194.700436, 2877.407457
 195.721877, 2876.860372
 196.743319, 2876.310424
 197.764760, 2875.757614
 198.786201, 2876.060332
 199.807643, 2876.560996
 200.829084, 2877.064226
 201.850525, 2877.868238
 202.871967, 2879.413996
 203.893408, 2880.967556
 204.914849, 2882.528919
 205.936291, 2884.669724
 206.957732, 2887.266174
 207.979174, 2889.875469
 209.000615, 2892.497612
 210.022056, 2895.748268
 211.043498, 2899.396134
 212.064939, 2903.061697
 213.086380, 2906.744959
 214.107822, 2910.866987
 215.129263, 2915.564686
 216.150705, 2920.284743
 217.172146, 2925.027158
 218.193587, 2929.791930
 219.215029, 2935.514184
 220.236470, 2941.284652
 221.257911, 2947.081945
 222.279353, 2952.906064
 223.300794, 2958.968524
 224.322236, 2965.783014
 225.343677, 2972.628604
 226.365118, 2979.505294
 227.386560, 2986.413085
 228.408001, 2993.482958
 229.429442, 3001.367957
 230.450884, 3009.288139
 231.472325, 3017.243503
 232.493766, 3025.234051
 233.515208, 3033.259782
 234.536649, 3041.934656
 235.558091, 3050.926015
 236.579532, 3059.956447
 237.600973, 3069.025953
 238.622415, 3078.134532
 239.643856, 3087.282185
 240.665297, 3097.176151
 241.686739, 3107.275160
 242.708180, 3117.416940
 243.729622, 3127.601493
 244.751063, 3137.828817
 245.772504, 3148.098913
 246.793946, 3158.801837
 247.815387, 3170.006325
 248.836828, 3181.257090
 249.858270, 3192.554134
 250.879711, 3203.897455
 251.901152, 3215.287055
 252.922594, 3226.722932
 253.944035, 3238.668913
 254.965477, 3251.022840
 255.986918, 3263.426359
 257.008359, 3275.879470
 258.029801, 3288.382172
 259.051242, 3300.934466
 260.072683, 3313.536351
 261.094125, 3326.218605
