Speed, Forces
 117.431041, 3141.885155
 118.882183, 3111.795850
 120.333326, 3083.873432
 121.784468, 3058.028919
 123.235610, 3034.228822
 124.686752, 3012.500585
 126.137895, 2992.653601
 127.589037, 2974.583764
 129.040179, 2958.182650
 130.491321, 2943.337512
 131.942464, 2929.969069
 133.393606, 2918.668930
 134.844748, 2908.669064
 136.295890, 2899.841602
 137.747033, 2892.661478
 139.198175, 2886.944585
 140.649317, 2882.106947
 142.100459, 2879.011307
 143.551602, 2876.950277
 145.002744, 2875.884262
 146.453886, 2876.413881
 147.905029, 2877.388666
 149.356171, 2880.310009
 150.807313, 2883.409119
 152.258455, 2888.433629
 153.709598, 2893.507688
 155.160740, 2900.562426
 156.611882, 2907.683453
 158.063024, 2916.456801
 159.514167, 2925.620121
 160.965309, 2935.859874
 162.416451, 2947.055057
 163.867593, 2958.497480
 165.318736, 2971.709776
 166.769878, 2985.038559
 168.221020, 2999.288511
 169.672162, 3014.630629
 171.123305, 3030.104526
 172.574447, 3046.809551
 174.025589, 3064.287243
 175.476731, 3081.911287
 176.927874, 3100.693006
 178.379016, 3120.305545
 179.830158, 3140.078287
 181.281300, 3160.532395
 182.732443, 3182.272571
 184.183585, 3204.186082
 185.634727, 3226.272927
 187.085870, 3249.736472
 188.537012, 3273.776341
 189.988154, 3298.001956
 191.439296, 3322.413317
 192.890439, 3348.351848
 194.341581, 3374.694620
 195.792723, 3401.234830
 197.243865, 3427.972478
 198.695008, 3455.808334
 200.146150, 3484.448579
 201.597292, 3513.297234
 203.048434, 3542.354298
 204.499577, 3571.619771
 205.950719, 3602.390258
 207.401861, 3633.532566
 208.853003, 3664.893534
 210.304146, 3696.473162
 211.755288, 3728.271450
 213.206430, 3761.215089
 214.657572, 3794.855807
 216.108715, 3828.724717
 217.559857, 3862.821818
 219.010999, 3897.147111
 220.462142, 3931.700595
 221.913284, 3967.562287
 223.364426, 4003.923965
 224.815568, 4040.522645
 226.266711, 4077.358328
 227.717853, 4114.431014
 229.168995, 4151.740702
 230.620137, 4189.516437
 232.071280, 4228.590002
 233.522422, 4267.908659
 234.973564, 4307.472411
 236.424706, 4347.281255
 237.875849, 4387.335193
 239.326991, 4427.634225
 240.778133, 4468.178349
 242.229275, 4509.709521
 243.680418, 4551.977864
 245.131560, 4594.498672
 246.582702, 4637.271944
 248.033844, 4680.297680
 249.484987, 4723.575880
 250.936129, 4767.106544
 252.387271, 4810.889672
 253.838414, 4854.925264
 255.289556, 4900.183280
 256.740698, 4945.897122
 258.191840, 4991.870078
 259.642983, 5038.102149
 261.094125, 5084.593335
