Speed, Forces
 136.302360, 3141.813993
 137.562883, 3119.242564
 138.823406, 3097.823400
 140.083928, 3077.474956
 141.344451, 3058.113266
 142.604974, 3040.330144
 143.865497, 3023.509051
 145.126020, 3007.484938
 146.386543, 2992.841043
 147.647066, 2979.146342
 148.907589, 2966.043926
 150.168111, 2954.535344
 151.428634, 2943.529779
 152.689157, 2933.541449
 153.949680, 2924.505178
 155.210203, 2916.044484
 156.470726, 2908.842691
 157.731249, 2901.914598
 158.991772, 2896.405203
 160.252295, 2891.012256
 161.512817, 2887.045925
 162.773340, 2883.188248
 164.033863, 2880.608383
 165.294386, 2878.283682
 166.554909, 2876.926428
 167.815432, 2876.129987
 169.075955, 2875.824229
 170.336478, 2876.548914
 171.597000, 2877.278982
 172.857523, 2879.352532
 174.118046, 2881.605155
 175.378569, 2884.343232
 176.639092, 2888.106033
 177.899615, 2891.895782
 179.160138, 2896.571906
 180.420661, 2901.867213
 181.681183, 2907.199646
 182.941706, 2913.566631
 184.202229, 2920.396775
 185.462752, 2927.273819
 186.723275, 2935.069959
 187.983798, 2943.433641
 189.244321, 2951.853595
 190.504844, 2960.802665
 191.765366, 2970.694957
 193.025889, 2980.652488
 194.286412, 2990.675259
 195.546935, 3001.876088
 196.807458, 3013.362235
 198.067981, 3024.922186
 199.328504, 3036.650620
 200.589027, 3049.652793
 201.849550, 3062.736930
 203.110072, 3075.903031
 204.370595, 3089.172339
 205.631118, 3103.764037
 206.891641, 3118.445458
 208.152164, 3133.216601
 209.412687, 3148.077467
 210.673210, 3163.802361
 211.933733, 3180.075521
 213.194255, 3196.445757
 214.454778, 3212.913071
 215.715301, 3229.477461
 216.975824, 3247.176099
 218.236347, 3265.134641
 219.496870, 3283.197211
 220.757393, 3301.363808
 222.017916, 3319.634434
 223.278438, 3338.788677
 224.538961, 3358.430471
 225.799484, 3378.182842
 227.060007, 3398.045788
 228.320530, 3418.019311
 229.581053, 3438.103409
 230.841576, 3459.391589
 232.102099, 3480.825178
 233.362621, 3502.375488
 234.623144, 3524.042518
 235.883667, 3545.826269
 237.144190, 3567.726741
 238.404713, 3590.486249
 239.665236, 3613.708887
 240.925759, 3637.053987
 242.186282, 3660.521549
 243.446805, 3684.111573
 244.707327, 3707.824059
 245.967850, 3731.659006
 247.228373, 3756.343152
 248.488896, 3781.472633
 249.749419, 3806.729915
 251.009942, 3832.114997
 252.270465, 3857.627878
 253.530988, 3883.268559
 254.791510, 3909.037040
 256.052033, 3934.933321
 257.312556, 3961.827534
 258.573079, 3988.989198
 259.833602, 4016.283597
 261.094125, 4043.710730
