Speed, Forces
 159.971429, 4778.104738
 160.992871, 4758.914499
 162.014312, 4739.724260
 163.035753, 4720.534021
 164.057195, 4701.343782
 165.078636, 4682.153543
 166.100077, 4662.963305
 167.121519, 4643.773066
 168.142960, 4624.582827
 169.164402, 4605.392588
 170.185843, 4587.784542
 171.207284, 4571.865705
 172.228726, 4555.946868
 173.250167, 4540.028031
 174.271608, 4524.109194
 175.293050, 4508.190358
 176.314491, 4492.271521
 177.335933, 4476.352684
 178.357374, 4460.433847
 179.378815, 4444.515010
 180.400257, 4428.596174
 181.421698, 4412.677337
 182.443139, 4396.758500
 183.464581, 4380.839663
 184.486022, 4364.920827
 185.507463, 4349.001990
 186.528905, 4333.083153
 187.550346, 4317.164316
 188.571788, 4301.245479
 189.593229, 4285.326643
 190.614670, 4269.407806
 191.636112, 4255.984307
 192.657553, 4243.543642
 193.678994, 4231.102978
 194.700436, 4218.662314
 195.721877, 4206.221650
 196.743319, 4193.780985
 197.764760, 4181.340321
 198.786201, 4168.899657
 199.807643, 4156.458992
 200.829084, 4144.018328
 201.850525, 4131.577664
 202.871967, 4119.137000
 203.893408, 4106.696335
 204.914849, 4094.255671
 205.936291, 4081.815007
 206.957732, 4069.374343
 207.979174, 4056.933678
 209.000615, 4044.493014
 210.022056, 4032.052350
 211.043498, 4019.611685
 212.064939, 4007.171021
 213.086380, 3996.232146
 214.107822, 3985.370329
 215.129263, 3974.508511
 216.150705, 3963.646693
 217.172146, 3952.784876
 218.193587, 3941.923058
 219.215029, 3931.061240
 220.236470, 3920.199422
 221.257911, 3909.337605
 222.279353, 3898.475787
 223.300794, 3887.613969
 224.322236, 3876.752151
 225.343677, 3865.890334
 226.365118, 3855.028516
 227.386560, 3844.166698
 228.408001, 3833.304880
 229.429442, 3822.443063
 230.450884, 3811.581245
 231.472325, 3800.719427
 232.493766, 3789.857609
 233.515208, 3779.251230
 234.536649, 3769.770322
 235.558091, 3760.289414
 236.579532, 3750.808505
 237.600973, 3741.327597
 238.622415, 3731.846689
 239.643856, 3722.365780
 240.665297, 3712.884872
 241.686739, 3703.403964
 242.708180, 3693.923055
 243.729622, 3684.442147
 244.751063, 3674.961239
 245.772504, 3665.480330
 246.793946, 3655.999422
 247.815387, 3646.518514
 248.836828, 3637.037606
 249.858270, 3627.556697
 250.879711, 3618.075789
 251.901152, 3608.594881
 252.922594, 3599.113972
 253.944035, 3589.633064
 254.965477, 3580.646192
 255.986918, 3572.345087
 257.008359, 3564.043981
 258.029801, 3555.742876
 259.051242, 3547.441770
 260.072683, 3539.140665
 261.094125, 3530.839559
