Speed, Forces
 159.969618, 4778.138774
 160.991077, 4758.948191
 162.012537, 4739.757609
 163.033997, 4720.567026
 164.055456, 4701.376443
 165.076916, 4682.185861
 166.098376, 4662.995278
 167.119835, 4643.804695
 168.141295, 4624.614113
 169.162755, 4605.423530
 170.184214, 4587.809924
 171.205674, 4571.890802
 172.227134, 4555.971680
 173.248593, 4540.052558
 174.270053, 4524.133436
 175.291513, 4508.214314
 176.312972, 4492.295192
 177.334432, 4476.376070
 178.355892, 4460.456948
 179.377351, 4444.537826
 180.398811, 4428.618704
 181.420271, 4412.699582
 182.441730, 4396.780460
 183.463190, 4380.861338
 184.484650, 4364.942216
 185.506109, 4349.023094
 186.527569, 4333.103972
 187.549029, 4317.184850
 188.570488, 4301.265728
 189.591948, 4285.346606
 190.613408, 4269.427484
 191.634867, 4255.999462
 192.656327, 4243.558575
 193.677787, 4231.117688
 194.699246, 4218.676801
 195.720706, 4206.235914
 196.742166, 4193.795027
 197.763625, 4181.354140
 198.785085, 4168.913252
 199.806545, 4156.472365
 200.828004, 4144.031478
 201.849464, 4131.590591
 202.870924, 4119.149704
 203.892383, 4106.708817
 204.913843, 4094.267929
 205.935303, 4081.827042
 206.956762, 4069.386155
 207.978222, 4056.945268
 208.999682, 4044.504381
 210.021141, 4032.063494
 211.042601, 4019.622607
 212.064061, 4007.181719
 213.085520, 3996.241292
 214.106980, 3985.379280
 215.128440, 3974.517268
 216.149899, 3963.655255
 217.171359, 3952.793243
 218.192819, 3941.931231
 219.214278, 3931.069218
 220.235738, 3920.207206
 221.257198, 3909.345194
 222.278657, 3898.483181
 223.300117, 3887.621169
 224.321577, 3876.759157
 225.343036, 3865.897144
 226.364496, 3855.035132
 227.385956, 3844.173120
 228.407415, 3833.311107
 229.428875, 3822.449095
 230.450335, 3811.587083
 231.471794, 3800.725070
 232.493254, 3789.863058
 233.514714, 3779.255816
 234.536173, 3769.774738
 235.557633, 3760.293660
 236.579093, 3750.812582
 237.600552, 3741.331504
 238.622012, 3731.850425
 239.643472, 3722.369347
 240.664931, 3712.888269
 241.686391, 3703.407191
 242.707851, 3693.926113
 243.729310, 3684.445035
 244.750770, 3674.963956
 245.772230, 3665.482878
 246.793689, 3656.001800
 247.815149, 3646.520722
 248.836609, 3637.039644
 249.858068, 3627.558566
 250.879528, 3618.077487
 251.900988, 3608.596409
 252.922447, 3599.115331
 253.943907, 3589.634253
 254.965367, 3580.647084
 255.986826, 3572.345830
 257.008286, 3564.044576
 258.029746, 3555.743322
 259.051205, 3547.442068
 260.072665, 3539.140814
 261.094125, 3530.839559
