Speed, Forces
 147.443222, 5862.611120
 148.591211, 5834.075829
 149.739200, 5805.540538
 150.887189, 5777.005247
 152.035178, 5751.909004
 153.183167, 5729.157583
 154.331155, 5706.406162
 155.479144, 5683.654741
 156.627133, 5660.903320
 157.775122, 5638.151899
 158.923111, 5615.400478
 160.071100, 5592.649057
 161.219089, 5569.897636
 162.367078, 5547.146215
 163.515067, 5524.394794
 164.663056, 5501.643373
 165.811045, 5478.891952
 166.959034, 5456.140531
 168.107022, 5433.389110
 169.255011, 5410.637689
 170.403000, 5387.886268
 171.550989, 5365.134847
 172.698978, 5342.383426
 173.846967, 5322.329478
 174.994956, 5303.126945
 176.142945, 5283.924413
 177.290934, 5264.721881
 178.438923, 5245.519349
 179.586912, 5226.316816
 180.734901, 5207.114284
 181.882889, 5187.911752
 183.030878, 5168.709219
 184.178867, 5149.506687
 185.326856, 5130.304155
 186.474845, 5111.101623
 187.622834, 5091.899090
 188.770823, 5072.696558
 189.918812, 5053.494026
 191.066801, 5034.291493
 192.214790, 5015.088961
 193.362779, 4995.886429
 194.510768, 4976.683897
 195.658757, 4959.418634
 196.806745, 4942.309104
 197.954734, 4925.199574
 199.102723, 4908.090043
 200.250712, 4890.980513
 201.398701, 4873.870983
 202.546690, 4856.761452
 203.694679, 4839.651922
 204.842668, 4822.542392
 205.990657, 4805.432861
 207.138646, 4788.323331
 208.286635, 4771.213801
 209.434624, 4754.104270
 210.582612, 4736.994740
 211.730601, 4719.885210
 212.878590, 4702.775679
 214.026579, 4685.666149
 215.174568, 4668.556619
 216.322557, 4651.615520
 217.470546, 4636.355217
 218.618535, 4621.094914
 219.766524, 4605.834611
 220.914513, 4590.574308
 222.062502, 4575.314005
 223.210491, 4560.053702
 224.358479, 4544.793399
 225.506468, 4529.533096
 226.654457, 4514.272793
 227.802446, 4499.012490
 228.950435, 4483.752187
 230.098424, 4468.491884
 231.246413, 4453.231581
 232.394402, 4437.971278
 233.542391, 4422.710975
 234.690380, 4407.450672
 235.838369, 4392.190369
 236.986358, 4376.930066
 238.134346, 4362.163951
 239.282335, 4348.829658
 240.430324, 4335.495365
 241.578313, 4322.161072
 242.726302, 4308.826779
 243.874291, 4295.492486
 245.022280, 4282.158193
 246.170269, 4268.823900
 247.318258, 4255.489607
 248.466247, 4242.155314
 249.614236, 4228.821021
 250.762225, 4215.486728
 251.910213, 4202.152435
 253.058202, 4188.818142
 254.206191, 4175.483849
 255.354180, 4162.149556
 256.502169, 4148.815263
 257.650158, 4135.480970
 258.798147, 4122.146677
 259.946136, 4109.524911
 261.094125, 4097.878771
