Ground Distance, Angles
   0.000000,    0.000000
   0.000003,    0.000000
   0.000055,    0.000000
   0.000836,    0.000000
   0.008093,    0.000000
   0.025426,    0.000000
   0.052360,    0.000000
   0.089033,    0.000000
   0.135348,    0.000000
   0.191629,    0.000000
   0.257747,    0.000000
   0.334484,    0.000000
   0.421795,    0.000000
   0.519289,    0.000000
   0.627030,    0.000000
   0.744716,    0.000000
   0.874223,    0.000000
   1.014667,    0.000000
   1.168101,    0.000000
   1.333267,    0.000000
   1.509419,    0.000000
   1.697931,    0.000000
   1.897857,    0.000000
   2.110869,    0.000000
   2.339267,    0.000000
   2.581917,    0.000000
   2.839218,    0.000000
   3.109016,    0.000000
   3.395577,    0.000000
   3.695761,    0.000000
   4.014978,    0.000000
   4.342106,    0.000000
   4.684198,    0.000000
   5.050060,    0.000000
   5.433207,    0.000000
   5.830771,    0.000000
   6.240014,    0.000000
   6.678284,    0.000000
   7.125847,    0.000000
   7.596768,    0.000000
   8.079133,    0.000000
   8.591636,    0.000000
   9.127842,    0.000000
   9.683632,    0.000000
  10.262504,    0.000000
  10.848068,    0.000000
  11.457402,    0.000000
  12.090228,    0.000000
  12.746254,    0.000000
  13.424914,    0.000000
  14.133824,    0.000000
  14.859193,    0.000000
  15.612696,    0.000000
  16.399458,    0.000000
  17.213132,    0.000000
  18.040065,    0.000000
  18.896519,    0.000000
  19.765686,    0.000000
  20.678374,    0.000000
  21.614051,    0.000000
  22.573565,    0.000000
  23.565086,    0.000000
  24.587426,    0.000000
  25.635571,    0.000000
  26.728150,    0.000000
  27.836362,    0.000000
  28.988601,    0.000000
  30.169874,    0.000000
  31.384483,    0.000000
  32.617333,    0.000000
  33.886624,    0.000000
  35.190105,    0.000000
  36.535553,    0.000000
  37.914439,    0.000000
  39.315560,    0.000000
  40.754630,    0.000000
  42.250925,    0.000000
  43.785492,    0.000000
  45.339080,    0.000000
  46.933751,    0.000000
  48.560693,    0.000000
  50.201971,    0.000000
  51.904433,    0.000000
  53.627148,    0.000000
  55.390999,    0.000000
  57.187945,    0.000000
  59.035104,    0.000000
  60.922706,    0.000000
  62.856868,    0.000000
  64.827119,    0.000000
  66.822805,    0.000000
  68.867035,    0.000000
  70.962511,    0.000000
  73.104728,    0.000000
  75.295251,    0.000000
  77.526439,    0.000000
  79.785061,    0.000000
  82.116616,    0.000000
  82.589824,    0.000000
  82.640766,    0.000000
  82.685018,    0.000000
  82.726471,    0.000000
  82.735290,    0.000000
  82.737438,    0.000000
  82.741734,    0.000000
  82.742026,    0.000000
  82.742610,    0.000000
  82.743146,    0.000000
  82.748509,    0.000000
  82.783077,    0.000000
  82.948674,    0.000000
  83.591162,    0.000000
  85.165276,    0.000000
  87.309330,    0.000000
  89.494183,    0.000000
  91.710080,    0.000000
  93.978669,    0.000000
  96.257026,    0.000000
  98.582658,    0.000000
 100.936807,    0.000000
 103.348723,    0.000000
 105.805085,    0.000000
 108.287575,    0.000000
 110.827921,    0.000000
 113.415596,    0.000000
 116.018984,    0.000000
 118.683319,    0.000000
 121.377520,    0.000000
 124.121266,    0.000000
 126.882955,    0.000000
 129.694259,    0.000000
 132.554107,    0.000000
 135.451536,    0.000000
 138.381088,    0.000000
 141.364700,    0.000000
 144.391829,    0.000000
 147.464263,    0.000000
 150.590280,    0.000000
 153.741312,    0.000000
 156.956860,    0.000000
 160.232297,    0.000000
 163.536406,    0.000000
 166.846821,    0.000000
 170.220678,    0.000000
 173.647040,    0.000000
 177.115396,    0.000000
 180.659928,    0.000000
 184.224394,    0.000000
 187.853646,    0.000000
 191.523325,    0.000000
 195.251836,    0.000000
 199.019818,    0.000000
 202.835904,    0.000000
 206.711146,    0.000000
 210.631619,    0.000000
 214.601328,    0.000000
 218.623898,    0.000000
 222.682740,    0.000000
 226.772212,    0.000000
 230.954184,    0.000000
 235.166674,    0.000000
 239.432181,    0.000000
 243.755555,    0.000000
 248.141335,    0.000000
 252.556969,    0.000000
 257.054699,    0.000000
 261.574169,    0.000000
 266.160356,    0.000000
 270.804567,    0.000000
 275.500413,    0.000000
 280.235226,    0.000000
 285.055791,    0.000000
 289.905015,    0.000000
 294.847573,    0.000000
 299.799004,    0.000000
 304.822583,    0.000000
 309.904063,    0.000000
 315.047741,    0.000000
 320.223634,    0.000000
 325.481360,    0.000000
 330.769548,    0.000000
 336.148008,    0.000000
 341.578539,    0.000000
 342.669521,    0.000000
 342.800075,    0.000000
 342.825802,    0.000000
 342.835591,    0.000000
 342.854109,    0.000000
 342.860222,    0.000000
 342.861937,    0.000000
 342.862695,    0.000000
 342.863906,    0.000000
 342.865004,    0.000000
 342.875985,    0.000000
 342.962076,    0.000000
 343.474832,    0.000000
 345.432130,    0.000000
 350.333185,    0.000000
 355.260368,    0.000000
 360.216631,    0.000000
 365.244424,    0.000000
 370.322441,    0.000000
 375.447550,    0.000000
 380.621318,    0.000000
 385.837563,    0.000000
 391.107400,    0.000000
 396.414022,    0.000000
 401.771618,    0.000000
 407.193029,    0.000000
 412.645566,    0.000000
 418.156886,    0.000000
 423.707267,    0.000000
 429.322115,    0.000000
 434.985677,    0.000000
 440.668880,    0.000000
 446.420014,    0.000000
 452.233737,    0.000000
 458.095536,    0.000000
 463.985896,    0.000000
 469.949741,    0.000000
 475.954471,    0.000000
 482.027094,    0.000000
 488.132671,    0.000000
 494.279307,    0.000000
 500.482067,    0.000000
 506.742162,    0.000000
 513.070872,    0.000000
 519.448311,    0.000000
 525.865789,    0.000000
 532.360878,    0.000000
 538.903895,    0.000000
 545.478216,    0.000000
 552.106875,    0.000000
 558.809874,    0.000000
 565.545159,    0.000000
 572.351262,    0.000000
 579.207066,    0.000000
 586.119448,    0.000000
 593.084543,    0.000000
 600.127498,    0.000000
 607.218240,    0.000000
 614.334543,    0.000000
 621.501705,    0.000000
 628.760476,    0.000000
 636.051490,    0.000000
 643.401127,    0.000000
 650.823971,    0.000000
 658.277766,    0.000000
 665.806951,    0.000000
 673.402520,    0.000000
 681.050827,    0.000000
 688.733949,    0.000000
 696.491798,    0.000000
 704.306401,    0.000000
 712.183152,    0.000000
 720.139203,    0.000000
 728.138672,    0.000000
 736.172644,    0.000000
 744.274773,    0.000000
 752.442355,    0.000000
 760.647663,    0.000000
 768.941079,    0.000000
 777.290946,    0.000000
 785.669540,    0.000000
 794.164703,    0.000000
 802.674297,    0.000000
 804.390428,    0.000000
 805.531376,    0.000000
 806.453546,    0.000000
 807.136734,    0.000000
 807.676447,    0.000000
 807.808801,    0.000000
 807.998949,    0.000000
 808.216487,    0.000000
 808.265119,    0.000000
 808.278804,    0.000000
 808.306173,    0.000000
 808.308466,    0.000000
 808.310198,    0.000000
 808.310856,    0.000000
 808.311610,    0.000000
 808.319150,    0.000000
 808.386185,    0.000000
 808.763364,    0.000000
 810.418900,    0.000000
 817.135954,    0.000000
 824.681904,    0.000000
 832.293117,    0.000000
 839.929924,    0.000000
 847.619792,    0.000000
 855.348501,    0.000000
 863.130855,    0.000000
 870.943993,    0.000000
 878.845236,    0.000000
 886.802175,    0.000000
 894.763881,    0.000000
 902.799042,    0.000000
 910.873188,    0.000000
 918.994920,    0.000000
 927.140309,    0.000000
 935.320193,    0.000000
 943.575056,    0.000000
 951.853709,    0.000000
 960.216623,    0.000000
 968.625605,    0.000000
 977.051714,    0.000000
 985.549707,    0.000000
 994.096550,    0.000000
1002.691362,    0.000000
1011.356967,    0.000000
1020.048039,    0.000000
1028.781976,    0.000000
1037.572980,    0.000000
1046.402817,    0.000000
1055.299739,    0.000000
1064.231039,    0.000000
1073.228076,    0.000000
1082.280735,    0.000000
1091.388446,    0.000000
1100.557529,    0.000000
1109.745833,    0.000000
1118.985190,    0.000000
1128.305184,    0.000000
1137.664757,    0.000000
1147.084248,    0.000000
1156.527403,    0.000000
1166.054817,    0.000000
1175.617604,    0.000000
1185.230065,    0.000000
1194.906789,    0.000000
1204.631648,    0.000000
1214.385095,    0.000000
1224.220714,    0.000000
1234.087268,    0.000000
1244.010938,    0.000000
1253.993659,    0.000000
1264.025781,    0.000000
1274.125179,    0.000000
1284.257882,    0.000000
1294.431508,    0.000000
1304.662952,    0.000000
1314.951239,    0.000000
1325.296659,    0.000000
1335.708142,    0.000000
1346.173838,    0.000000
1356.694270,    0.000000
1367.258070,    0.000000
1377.867215,    0.000000
1388.543014,    0.000000
1399.283468,    0.000000
1410.082057,    0.000000
1420.892395,    0.000000
1431.789215,    0.000000
1442.741374,    0.000000
1453.726890,    0.000000
1464.769209,    0.000000
1475.871681,    0.000000
1487.037023,    0.000000
1498.243926,    0.000000
1509.511928,    0.000000
1520.825237,    0.000000
1523.093482,    0.000000
1530.766533,    0.000000
1530.857317,    0.000000
1530.922893,    0.000000
1530.954939,    0.000000
1530.978030,    0.000000
1531.000347,    0.000000
1531.024051,    0.000000
1531.045706,    0.000000
1531.261186,    0.000000
1532.492009,    0.000000
1539.451560,    0.000000
1550.854818,    0.000000
1562.326786,    0.000000
1573.837321,    0.000000
1585.372509,    0.000000
1596.980066,    0.000000
1608.661370,    0.000000
1620.387163,    0.000000
1632.187053,    0.000000
1644.057302,    0.000000
1655.970158,    0.000000
1667.919338,    0.000000
1679.937564,    0.000000
1692.010329,    0.000000
1704.138743,    0.000000
1716.311733,    0.000000
1728.531895,    0.000000
1740.829154,    0.000000
1753.177855,    0.000000
1765.598986,    0.000000
1778.047622,    0.000000
1790.586975,    0.000000
1803.176627,    0.000000
1815.821325,    0.000000
1828.500488,    0.000000
1841.235709,    0.000000
1854.062940,    0.000000
1866.930239,    0.000000
1879.833782,    0.000000
1892.833303,    0.000000
1905.882360,    0.000000
1918.974000,    0.000000
1932.149750,    0.000000
1945.390125,    0.000000
1958.658423,    0.000000
1971.975647,    0.000000
1985.358918,    0.000000
1998.796690,    0.000000
2012.288530,    0.000000
2025.852590,    0.000000
2039.503177,    0.000000
2053.202680,    0.000000
2060.014011,    0.000000
2066.970364,    0.000000
2080.790471,    0.119222
2094.669727,    0.354451
2108.595984,    0.587799
2122.595811,    0.819072
2136.656762,    1.048722
2150.790673,    1.276550
2165.021642,    1.502753
2179.290195,    1.727713
2193.641560,    1.950491
2208.053854,    2.171806
2222.531730,    2.391321
2237.090703,    2.609117
2251.718638,    2.825430
2266.385315,    3.040081
2281.083037,    3.252638
2295.831287,    3.463014
2310.684994,    3.671508
2325.555235,    3.878903
2340.496085,    4.083960
2355.468185,    4.287447
2370.495370,    4.488842
2385.544739,    4.688484
2400.698511,    4.885955
2415.860373,    5.082349
2431.078037,    5.276423
2446.328953,    5.468814
2461.607858,    5.659253
2462.638153,    5.847698
2463.668121,    5.860264
2464.699764,    5.872816
2465.732112,    5.885378
2466.765609,    5.897939
2467.798157,    5.910503
2468.833254,    5.923044
2469.868491,    5.935607
2470.905528,    5.948161
2471.942399,    5.960726
2472.980260,    5.973279
2474.014465,    5.985833
2475.053462,    5.998333
2476.094795,    6.010881
2477.135110,    6.023446
2478.178106,    6.035988
2479.221858,    6.048553
2480.261530,    6.061116
2481.304682,    6.073619
2482.350114,    6.086154
2483.397782,    6.098706
2484.443649,    6.111274
2485.483634,    6.123810
2486.534266,    6.136266
2487.583726,    6.148838
2488.635619,    6.161386
2489.688917,    6.173953
2490.742956,    6.186526
2491.795405,    6.199097
2492.849488,    6.211639
2493.899178,    6.224189
2494.957035,    6.236677
2496.011588,    6.249252
2497.071151,    6.261777
2498.127843,    6.274351
2499.188316,    6.286880
2500.248566,    6.299444
2501.310332,    6.311994
2502.371535,    6.324552
2503.435257,    6.337093
2504.500411,    6.349653
2505.566300,    6.362219
2506.632909,    6.374783
2507.701571,    6.387346
2508.773621,    6.399921
2509.847060,    6.412526
2510.919951,    6.425137
2511.994559,    6.437731
2513.067714,    6.450334
2514.145218,    6.462909
2515.217057,    6.475525
2516.293351,    6.488064
2517.373634,    6.500644
2518.456483,    6.513261
2519.540400,    6.525896
2520.621025,    6.538533
2521.705887,    6.551121
2522.794363,    6.563748
2523.876810,    6.576406
2524.963899,    6.588983
2526.057430,    6.601604
2527.145778,    6.614288
2528.238473,    6.626902
2529.325780,    6.639555
2530.424552,    6.652135
2531.521111,    6.664836
2532.614239,    6.677502
2533.714539,    6.690117
2534.818568,    6.702803
2535.917648,    6.715522
2537.024050,    6.728173
2538.124441,    6.740897
2539.232811,    6.753542
2540.335649,    6.766267
2541.447333,    6.778917
2542.554646,    6.778917
2543.669456,    6.778917
2544.785098,    6.778917
2545.898717,    6.778917
2547.015229,    6.778917
2548.132466,    6.778917
2549.253554,    6.778917
2550.376914,    6.778917
2551.498769,    6.778917
2552.619594,    6.778917
2553.746955,    6.778917
2554.873479,    6.778917
2555.999732,    6.778917
2557.114338,    6.778917
2558.247376,    6.778917
2559.380065,    6.778917
2560.514947,    6.778917
2561.648907,    6.778917
2562.774421,    6.778917
2563.910169,    6.778917
2565.047446,    6.778917
2566.187599,    6.778917
2567.332732,    6.778917
2568.472216,    6.778917
2569.617192,    6.778917
2570.761152,    6.778917
2571.904410,    6.778917
2573.052597,    6.778917
2574.197554,    6.778917
2575.351478,    6.778917
2576.500677,    6.778917
2577.657074,    6.778917
2578.812135,    6.778917
2579.970280,    6.778917
2581.123747,    6.778917
2582.278749,    6.778917
2583.438195,    6.778917
2584.601868,    6.778917
2585.768471,    6.778917
2586.931620,    6.778917
2588.095730,    6.778917
2589.268716,    6.778917
2590.440161,    6.778917
2591.609904,    6.778917
2592.786238,    6.778917
2593.961392,    6.778917
2595.136335,    6.778917
2596.318036,    6.778917
2597.494646,    6.778917
2598.675196,    6.778917
2599.850899,    6.778917
2601.037266,    6.778917
2602.220000,    6.778917
2602.457792,    6.778917
2602.622931,    6.778917
2602.740782,    6.778917
2602.837796,    6.778917
2603.111269,    6.778917
2603.144128,    6.778917
2603.148661,    6.778917
2603.150042,    6.778917
2603.151451,    6.778917
2603.161409,    6.778917
2603.213328,    6.778917
2603.400756,    6.778917
2603.858398,    6.778917
2604.882283,    6.778917
2606.066015,    6.778917
2607.259254,    6.778917
2608.453912,    6.778917
2609.655459,    6.778917
2610.854746,    6.778917
2612.056925,    6.778917
2613.262887,    6.778917
2614.465466,    6.778917
2615.670166,    6.778917
2616.881501,    6.778917
2618.090654,    6.778917
2619.303537,    6.778917
2620.517187,    6.778917
2621.733689,    6.778917
2622.952525,    6.778917
2624.177557,    6.778917
2625.396617,    6.778917
2626.620561,    6.778917
2627.847010,    6.778917
2629.072846,    6.778917
2630.303656,    6.778917
2631.536050,    6.778917
2632.768392,    6.778917
2634.002386,    6.778917
2635.245919,    6.778917
2636.485487,    6.778917
2637.502412,    6.778917
2637.727179,    6.778917
2638.970846,    6.778917
2640.213614,    6.778917
2641.466227,    6.778917
2642.717448,    6.778917
2643.973530,    6.778917
2645.228161,    6.778917
2646.480759,    6.778917
2647.740667,    6.778917
2649.005671,    6.778917
2650.274477,    6.778917
2651.543388,    6.778917
2652.812531,    6.778917
2654.086132,    6.778917
2655.358332,    6.778917
2656.637134,    6.778917
2657.917725,    6.778917
2659.197052,    6.778917
2660.476096,    6.778917
2661.760099,    6.778917
2663.050720,    6.778917
2664.340633,    6.778917
2665.631811,    6.778917
2666.928142,    6.778917
2668.223221,    6.778917
2669.520146,    6.778917
2670.819931,    6.778917
2672.123367,    6.778917
2673.432787,    6.778917
2674.739661,    6.778917
2676.053129,    6.778917
2677.364102,    6.778917
2678.677811,    6.778917
2679.993796,    6.778917
2681.320586,    6.778917
2682.647768,    6.778917
2683.971551,    6.778917
2685.297207,    6.778917
2686.623256,    6.778917
2687.954886,    6.778917
2689.294300,    6.778917
2690.622648,    6.778917
2691.967596,    6.778917
2693.308388,    6.778917
2694.656347,    6.778917
2695.999645,    6.778917
2697.349131,    6.778917
2698.699010,    6.778917
2700.059224,    6.778917
2701.412652,    6.778917
2702.775446,    6.778917
2704.135270,    6.778917
2705.502772,    6.778917
2706.877252,    6.778917
2708.247672,    6.778917
2709.630687,    6.778917
2711.008834,    6.778917
2712.393847,    6.778917
2713.769262,    6.778917
2715.158603,    6.778917
2716.548440,    6.778917
2717.942599,    6.778917
2719.335235,    6.778917
2720.730120,    6.778917
2722.125416,    6.778917
2723.524108,    6.778917
2724.933286,    6.778917
2726.337363,    6.778917
2727.751364,    6.778917
2729.168701,    6.778917
2730.576849,    6.778917
2732.003852,    6.778917
2733.417060,    6.778917
2734.848075,    6.778917
2736.269442,    6.778917
2737.698257,    6.778917
2739.129591,    6.778917
2740.560829,    6.778917
2742.004862,    6.778917
2743.449921,    6.778917
2744.903155,    6.778917
2746.346480,    6.778917
2747.790971,    6.778917
2749.233576,    6.778917
2750.685867,    6.778917
2752.143502,    6.778917
2753.607466,    6.778917
2755.072817,    6.778917
2756.536250,    6.778917
2758.013855,    6.778917
2759.499225,    6.778917
2760.973471,    6.778917
2762.452020,    6.778917
2763.930594,    6.778917
2765.419401,    6.778917
2766.916191,    6.778917
2768.404824,    6.778917
2769.898876,    6.778917
2771.398921,    6.778917
2772.907560,    6.778917
2774.414271,    6.778917
2775.924712,    6.778917
2777.443649,    6.778917
2778.959344,    6.778917
2780.485435,    6.778917
2782.008894,    6.778917
2783.528902,    6.778917
2785.064790,    6.778917
2786.592979,    6.778917
2788.135514,    6.778917
2789.678581,    6.778917
2791.213911,    6.778917
2792.762029,    6.778917
2794.306935,    6.778917
2795.862116,    6.778917
2797.417486,    6.778917
2798.987091,    6.778917
2800.559661,    6.778917
2802.128262,    6.778917
2803.694091,    6.778917
2805.258076,    6.778917
2806.833387,    6.778917
2808.404629,    6.778917
2809.998175,    6.778917
2811.581158,    6.778917
2813.159081,    6.778917
2814.737881,    6.778917
2816.324908,    6.778917
2817.916086,    6.778917
2819.502018,    6.778917
2821.110018,    6.778917
2822.703018,    6.778917
2824.308324,    6.778917
2825.928518,    6.778917
2827.543624,    6.778917
2829.163121,    6.778917
2830.789853,    6.778917
2832.408072,    6.778917
2834.038332,    6.778917
2835.663759,    6.778917
2837.286419,    6.778917
2838.926488,    6.778917
2840.574006,    6.778917
2842.208322,    6.778917
2843.839451,    6.778917
2845.482211,    6.778917
2847.123678,    6.778917
2848.758915,    6.778917
2850.428115,    6.778917
2852.080367,    6.778917
2853.747084,    6.778917
2855.413942,    6.778917
2857.075681,    6.778917
2858.765650,    6.778917
2860.450825,    6.778917
2862.123716,    6.778917
2863.799452,    6.778917
2865.492375,    6.778917
2867.187964,    6.778917
2868.878155,    6.778917
2870.563756,    6.778917
2872.256391,    6.778917
2873.960065,    6.778917
2875.665848,    6.778917
2877.376614,    6.778917
2879.087208,    6.778917
2880.794331,    6.778917
2882.508995,    6.778917
2884.244666,    6.778917
2885.954939,    6.778917
2887.689238,    6.778917
2889.432358,    6.778917
2891.177465,    6.778917
2892.915798,    6.778917
2894.653168,    6.778917
2896.393347,    6.778917
2898.136609,    6.778917
2899.874992,    6.778917
2901.627120,    6.778917
2903.382222,    6.778917
2905.134479,    6.778917
2906.911144,    6.778917
2908.661231,    6.778917
2910.416837,    6.778917
2912.201247,    6.778917
2913.980957,    6.778917
2915.761612,    6.778917
2917.539186,    6.778917
2919.315131,    6.778917
2921.125439,    6.778917
2922.920231,    6.778917
2924.705866,    6.778917
2926.521879,    6.778917
2928.315299,    6.778917
2930.123016,    6.778917
2931.922803,    6.778917
2933.760661,    6.778917
2935.572003,    6.778917
2937.383359,    6.778917
2939.214526,    6.778917
2941.033744,    6.778917
2942.857140,    6.778917
2944.703018,    6.778917
2946.542962,    6.778917
2948.363248,    6.778917
2950.203093,    6.778917
2952.045464,    6.778917
2953.879683,    6.778917
2955.711694,    6.778917
2957.559225,    6.778917
2959.409831,    6.778917
2961.268528,    6.778917
2963.124677,    6.778917
2964.984616,    6.778917
2966.837714,    6.778917
2968.687262,    6.778917
2970.556434,    6.778917
2972.425122,    6.778917
2974.307848,    6.778917
2976.179735,    6.778917
2978.068698,    6.778917
2979.961261,    6.778917
2981.843742,    6.778917
2983.731343,    6.778917
2985.635505,    6.778917
2987.534663,    6.778917
2989.439244,    6.778917
2991.351422,    6.778917
2993.243980,    6.778917
2995.159272,    6.778917
2997.084707,    6.778917
2998.995679,    6.778917
3000.880595,    6.778917
3002.776235,    6.778917
3004.714021,    6.778917
3006.637555,    6.778917
3008.546825,    6.778917
3010.462638,    6.778917
3012.383242,    6.778917
3014.292523,    6.778917
3016.230412,    6.778917
3018.173010,    6.778917
3020.101170,    6.778917
3022.036164,    6.778917
3023.990269,    6.778917
3025.932243,    6.778917
3027.878908,    6.778917
3029.818061,    6.778917
3031.761136,    6.778917
3033.704886,    6.778917
3035.642465,    6.778917
3037.604083,    6.778917
3039.563787,    6.778917
3041.512324,    6.778917
3043.490600,    6.778917
3045.468147,    6.778917
3047.429237,    6.778917
3049.398838,    6.778917
3051.386209,    6.778917
3053.374065,    6.778917
3055.338706,    6.778917
3057.322374,    6.778917
3059.296993,    6.778917
3061.291561,    6.778917
3063.293192,    6.778917
3065.278024,    6.778917
3067.268224,    6.778917
3069.252025,    6.778917
3071.254571,    6.778917
3073.266207,    6.778917
3075.278482,    6.778917
3077.271254,    6.778917
3079.287088,    6.778917
3081.280987,    6.778917
3083.294489,    6.778917
3085.307176,    6.778917
3087.315431,    6.778917
3089.326791,    6.778917
3091.357787,    6.778917
3093.397173,    6.778917
3095.399759,    6.778917
3097.447545,    6.778917
3099.469563,    6.778917
3101.486434,    6.778917
3103.509501,    6.778917
3105.552424,    6.778917
3107.576989,    6.778917
3109.606696,    6.778917
3111.641992,    6.778917
3113.677607,    6.778917
3115.719748,    6.778917
3117.751789,    6.778917
3119.823199,    6.778917
3121.870846,    6.778917
3123.941821,    6.778917
3126.006170,    6.778917
3128.054486,    6.778917
3130.107614,    6.778917
3132.156703,    6.778917
3134.210215,    6.778917
3136.264367,    6.778917
3138.334958,    6.778917
3140.393034,    6.778917
3142.455745,    6.778917
3144.511886,    6.778917
3145.818099,    6.778917
