Ground Distance, Angles
   0.000000,    0.000000
   0.000003,    0.000000
   0.000055,    0.000000
   0.000836,    0.000000
   0.008093,    0.000000
   0.025426,    0.000000
   0.052360,    0.000000
   0.089033,    0.000000
   0.135348,    0.000000
   0.191629,    0.000000
   0.257747,    0.000000
   0.334484,    0.000000
   0.421795,    0.000000
   0.519289,    0.000000
   0.627030,    0.000000
   0.744716,    0.000000
   0.874223,    0.000000
   1.014667,    0.000000
   1.168101,    0.000000
   1.333267,    0.000000
   1.509419,    0.000000
   1.697931,    0.000000
   1.897857,    0.000000
   2.110869,    0.000000
   2.339267,    0.000000
   2.581917,    0.000000
   2.839218,    0.000000
   3.109016,    0.000000
   3.395577,    0.000000
   3.695761,    0.000000
   4.014978,    0.000000
   4.342106,    0.000000
   4.684198,    0.000000
   5.050060,    0.000000
   5.433207,    0.000000
   5.830771,    0.000000
   6.240014,    0.000000
   6.678284,    0.000000
   7.125847,    0.000000
   7.596768,    0.000000
   8.079133,    0.000000
   8.591636,    0.000000
   9.127842,    0.000000
   9.683632,    0.000000
  10.262504,    0.000000
  10.848068,    0.000000
  11.457402,    0.000000
  12.090228,    0.000000
  12.746254,    0.000000
  13.424914,    0.000000
  14.133824,    0.000000
  14.859193,    0.000000
  15.612696,    0.000000
  16.399458,    0.000000
  17.213132,    0.000000
  18.040065,    0.000000
  18.896519,    0.000000
  19.765686,    0.000000
  20.678374,    0.000000
  21.614051,    0.000000
  22.573565,    0.000000
  23.565086,    0.000000
  24.587426,    0.000000
  25.635571,    0.000000
  26.728150,    0.000000
  27.836362,    0.000000
  28.988601,    0.000000
  30.169874,    0.000000
  31.384483,    0.000000
  32.617333,    0.000000
  33.886624,    0.000000
  35.190105,    0.000000
  36.535553,    0.000000
  37.914439,    0.000000
  39.315560,    0.000000
  40.754630,    0.000000
  42.250925,    0.000000
  43.785492,    0.000000
  45.339080,    0.000000
  46.933751,    0.000000
  48.560693,    0.000000
  50.201971,    0.000000
  51.904433,    0.000000
  53.627148,    0.000000
  55.390999,    0.000000
  57.187945,    0.000000
  59.035104,    0.000000
  60.922706,    0.000000
  62.856868,    0.000000
  64.827119,    0.000000
  66.822805,    0.000000
  68.867035,    0.000000
  70.962511,    0.000000
  73.104728,    0.000000
  75.295251,    0.000000
  77.526439,    0.000000
  79.785061,    0.000000
  82.116616,    0.000000
  82.589824,    0.000000
  82.640766,    0.000000
  82.685018,    0.000000
  82.726471,    0.000000
  82.735290,    0.000000
  82.737438,    0.000000
  82.741734,    0.000000
  82.742026,    0.000000
  82.742610,    0.000000
  82.743146,    0.000000
  82.748509,    0.000000
  82.783077,    0.000000
  82.948674,    0.000000
  83.591162,    0.000000
  85.165276,    0.000000
  87.309330,    0.000000
  89.494183,    0.000000
  91.710080,    0.000000
  93.978669,    0.000000
  96.257026,    0.000000
  98.582658,    0.000000
 100.936807,    0.000000
 103.348723,    0.000000
 105.805085,    0.000000
 108.287575,    0.000000
 110.827921,    0.000000
 113.415596,    0.000000
 116.018984,    0.000000
 118.683319,    0.000000
 121.377520,    0.000000
 124.121266,    0.000000
 126.882955,    0.000000
 129.694259,    0.000000
 132.554107,    0.000000
 135.451536,    0.000000
 138.381088,    0.000000
 141.364700,    0.000000
 144.391829,    0.000000
 147.464263,    0.000000
 150.590280,    0.000000
 153.741312,    0.000000
 156.956860,    0.000000
 160.232297,    0.000000
 163.536406,    0.000000
 166.846821,    0.000000
 170.220678,    0.000000
 173.647040,    0.000000
 177.115396,    0.000000
 180.659928,    0.000000
 184.224394,    0.000000
 187.853646,    0.000000
 191.523325,    0.000000
 195.251836,    0.000000
 199.019818,    0.000000
 202.835904,    0.000000
 206.711146,    0.000000
 210.631619,    0.000000
 214.601328,    0.000000
 218.623898,    0.000000
 222.682740,    0.000000
 226.772212,    0.000000
 230.954184,    0.000000
 235.166674,    0.000000
 239.432181,    0.000000
 243.755555,    0.000000
 248.141335,    0.000000
 252.556969,    0.000000
 257.054699,    0.000000
 261.574169,    0.000000
 266.160356,    0.000000
 270.804567,    0.000000
 275.500413,    0.000000
 280.235226,    0.000000
 285.055791,    0.000000
 289.905015,    0.000000
 294.847573,    0.000000
 299.799004,    0.000000
 304.822583,    0.000000
 309.904063,    0.000000
 315.047741,    0.000000
 320.223634,    0.000000
 325.481360,    0.000000
 330.769548,    0.000000
 336.148008,    0.000000
 341.578539,    0.000000
 342.669521,    0.000000
 342.800075,    0.000000
 342.825802,    0.000000
 342.835591,    0.000000
 342.854109,    0.000000
 342.860222,    0.000000
 342.861937,    0.000000
 342.862695,    0.000000
 342.863906,    0.000000
 342.865004,    0.000000
 342.875985,    0.000000
 342.962076,    0.000000
 343.474832,    0.000000
 345.432130,    0.000000
 350.333185,    0.000000
 355.260368,    0.000000
 360.216631,    0.000000
 365.244424,    0.000000
 370.322441,    0.000000
 375.447550,    0.000000
 380.621318,    0.000000
 385.837563,    0.000000
 391.107400,    0.000000
 396.414022,    0.000000
 401.771618,    0.000000
 407.193029,    0.000000
 412.645566,    0.000000
 418.156886,    0.000000
 423.707267,    0.000000
 429.322115,    0.000000
 434.985677,    0.000000
 440.668880,    0.000000
 446.420014,    0.000000
 452.233737,    0.000000
 458.095536,    0.000000
 463.985896,    0.000000
 469.949741,    0.000000
 475.954471,    0.000000
 482.027094,    0.000000
 488.132671,    0.000000
 494.279307,    0.000000
 500.482067,    0.000000
 506.742162,    0.000000
 513.070872,    0.000000
 519.448311,    0.000000
 525.865789,    0.000000
 532.360878,    0.000000
 538.903895,    0.000000
 545.478216,    0.000000
 552.106875,    0.000000
 558.809874,    0.000000
 565.545159,    0.000000
 572.351262,    0.000000
 579.207066,    0.000000
 586.119448,    0.000000
 593.084543,    0.000000
 600.127498,    0.000000
 607.218240,    0.000000
 614.334543,    0.000000
 621.501705,    0.000000
 628.760476,    0.000000
 636.051490,    0.000000
 643.401127,    0.000000
 650.823971,    0.000000
 658.277766,    0.000000
 665.806951,    0.000000
 673.402520,    0.000000
 681.050827,    0.000000
 688.733949,    0.000000
 696.491798,    0.000000
 704.306401,    0.000000
 712.183152,    0.000000
 720.139203,    0.000000
 728.138672,    0.000000
 736.172644,    0.000000
 744.274773,    0.000000
 752.442355,    0.000000
 760.647663,    0.000000
 768.941079,    0.000000
 777.290946,    0.000000
 785.669540,    0.000000
 794.164703,    0.000000
 802.674297,    0.000000
 804.390428,    0.000000
 805.531376,    0.000000
 806.453546,    0.000000
 807.136734,    0.000000
 807.676447,    0.000000
 807.808801,    0.000000
 807.998949,    0.000000
 808.216487,    0.000000
 808.265119,    0.000000
 808.278804,    0.000000
 808.306173,    0.000000
 808.308466,    0.000000
 808.310198,    0.000000
 808.310856,    0.000000
 808.311610,    0.000000
 808.319150,    0.000000
 808.386185,    0.000000
 808.763364,    0.000000
 810.418900,    0.000000
 817.135954,    0.000000
 824.681904,    0.000000
 832.293117,    0.000000
 839.929924,    0.000000
 847.619792,    0.000000
 855.348501,    0.000000
 863.130855,    0.000000
 870.943993,    0.000000
 878.845236,    0.000000
 886.802175,    0.000000
 894.763881,    0.000000
 902.799042,    0.000000
 910.873188,    0.000000
 918.994920,    0.000000
 927.140309,    0.000000
 935.320193,    0.000000
 943.575056,    0.000000
 951.853709,    0.000000
 960.216623,    0.000000
 968.625605,    0.000000
 977.051714,    0.000000
 985.549707,    0.000000
 994.096550,    0.000000
1002.691362,    0.000000
1011.356967,    0.000000
1020.048039,    0.000000
1028.781976,    0.000000
1037.572980,    0.000000
1046.402817,    0.000000
1055.299739,    0.000000
1064.231039,    0.000000
1073.228076,    0.000000
1082.280735,    0.000000
1091.388446,    0.000000
1100.557529,    0.000000
1109.745833,    0.000000
1118.985190,    0.000000
1128.305184,    0.000000
1137.664757,    0.000000
1147.084248,    0.000000
1156.527403,    0.000000
1166.054817,    0.000000
1175.617604,    0.000000
1185.230065,    0.000000
1194.906789,    0.000000
1204.631648,    0.000000
1214.385095,    0.000000
1224.220714,    0.000000
1234.087268,    0.000000
1244.010938,    0.000000
1253.993659,    0.000000
1264.025781,    0.000000
1274.125179,    0.000000
1284.257882,    0.000000
1294.431508,    0.000000
1304.662952,    0.000000
1314.951239,    0.000000
1325.296659,    0.000000
1335.708142,    0.000000
1346.173838,    0.000000
1356.694270,    0.000000
1367.258070,    0.000000
1377.867215,    0.000000
1388.543014,    0.000000
1399.283468,    0.000000
1410.082057,    0.000000
1420.892395,    0.000000
1431.789215,    0.000000
1442.741374,    0.000000
1453.726890,    0.000000
1464.769209,    0.000000
1475.871681,    0.000000
1487.037023,    0.000000
1498.243926,    0.000000
1509.511928,    0.000000
1520.825237,    0.000000
1523.093482,    0.000000
1530.766533,    0.000000
1530.857317,    0.000000
1530.922893,    0.000000
1530.954939,    0.000000
1530.978030,    0.000000
1531.000347,    0.000000
1531.024051,    0.000000
1531.045706,    0.000000
1531.261186,    0.000000
1532.492009,    0.000000
1539.451560,    0.000000
1550.854818,    0.000000
1562.326786,    0.000000
1573.837321,    0.000000
1585.372509,    0.000000
1596.980066,    0.000000
1608.661370,    0.000000
1620.387163,    0.000000
1632.187053,    0.000000
1644.057302,    0.000000
1655.970158,    0.000000
1667.919338,    0.000000
1679.937564,    0.000000
1692.010329,    0.000000
1704.138743,    0.000000
1716.311733,    0.000000
1728.531895,    0.000000
1740.829154,    0.000000
1753.177855,    0.000000
1765.598986,    0.000000
1778.047622,    0.000000
1790.586975,    0.000000
1803.176627,    0.000000
1815.821325,    0.000000
1828.500488,    0.000000
1841.235709,    0.000000
1854.062940,    0.000000
1866.930239,    0.000000
1879.833782,    0.000000
1892.833303,    0.000000
1905.882360,    0.000000
1918.974000,    0.000000
1932.149750,    0.000000
1945.390125,    0.000000
1958.658423,    0.000000
1971.975647,    0.000000
1985.358918,    0.000000
1998.796690,    0.000000
2012.288530,    0.000000
2025.852590,    0.000000
2039.503177,    0.000000
2053.202680,    0.000000
2060.014011,    0.000000
2066.970364,    0.000000
2080.790471,    0.119222
2094.669727,    0.354451
2108.595984,    0.587799
2122.595811,    0.819072
2136.656762,    1.048722
2150.790673,    1.276550
2165.021642,    1.502753
2179.290195,    1.727713
2193.641560,    1.950491
2208.053854,    2.171806
2222.531730,    2.391321
2237.090703,    2.609117
2251.718638,    2.825430
2266.385315,    3.040081
2281.083037,    3.252638
2295.831287,    3.463014
2310.684994,    3.671508
2325.555235,    3.878903
2340.496085,    4.083960
2355.468185,    4.287447
2370.495370,    4.488842
2385.544739,    4.688484
2400.698511,    4.885955
2415.860373,    5.082349
2431.078037,    5.276423
2446.328953,    5.468814
2461.607858,    5.659253
2462.638153,    5.850718
2463.668121,    5.866363
2464.699764,    5.882059
2465.732112,    5.897827
2466.765609,    5.913657
2467.798157,    5.929548
2468.833254,    5.945485
2469.868491,    5.961503
2470.905528,    5.977578
2471.942399,    5.993724
2472.980260,    6.009922
2474.014465,    6.026168
2475.053462,    6.042437
2476.094795,    6.058822
2477.135110,    6.075281
2478.178106,    6.091789
2479.221858,    6.108381
2480.261530,    6.125016
2481.304682,    6.141666
2482.350114,    6.158417
2483.397782,    6.175254
2484.443649,    6.192161
2485.483634,    6.209071
2486.534266,    6.226006
2487.583726,    6.243113
2488.635619,    6.260268
2489.688917,    6.277508
2490.742956,    6.294818
2491.795405,    6.312180
2492.849488,    6.329582
2493.899178,    6.347032
2494.957035,    6.364519
2496.011588,    6.382137
2497.071151,    6.399791
2498.127843,    6.417541
2499.188316,    6.435326
2500.248566,    6.453205
2501.310332,    6.471140
2502.371535,    6.489141
2503.435257,    6.507198
2504.500411,    6.525343
2505.566300,    6.543561
2506.632909,    6.561841
2507.701571,    6.580192
2508.773621,    6.598636
2509.847060,    6.617180
2510.919951,    6.635787
2511.994559,    6.654450
2513.067714,    6.673175
2514.145218,    6.691960
2515.217057,    6.710814
2516.293351,    6.729679
2517.373634,    6.748671
2518.456483,    6.767776
2519.540400,    6.786970
2520.621025,    6.806208
2521.705887,    6.825485
2522.794363,    6.844886
2523.876810,    6.864343
2524.963899,    6.883810
2526.057430,    6.903425
2527.145778,    6.923133
2528.238473,    6.942861
2529.325780,    6.962657
2530.424552,    6.982518
2531.521111,    7.002549
2532.614239,    7.022584
2533.714539,    7.042680
2534.818568,    7.062936
2535.917648,    7.083255
2537.024050,    7.103620
2538.124441,    7.124080
2539.232811,    7.144580
2540.335649,    7.165185
2541.447333,    7.185843
2542.554646,    7.193837
2543.669456,    7.201902
2544.785098,    7.209993
2545.898717,    7.218086
2547.015229,    7.226219
2548.132466,    7.234375
2549.253554,    7.242577
2550.376914,    7.250814
2551.498769,    7.259059
2552.619594,    7.267314
2553.746955,    7.275635
2554.873479,    7.283969
2555.999732,    7.292318
2557.114338,    7.300599
2558.247376,    7.309036
2559.380065,    7.317488
2560.514947,    7.325975
2561.648907,    7.334473
2562.774421,    7.342926
2563.910169,    7.351474
2565.047446,    7.360052
2566.187599,    7.368670
2567.332732,    7.377344
2568.472216,    7.385993
2569.617192,    7.394703
2570.761152,    7.403423
2571.904410,    7.412157
2573.052597,    7.420946
2574.197554,    7.429729
2575.351478,    7.438599
2576.500677,    7.447452
2577.657074,    7.456378
2578.812135,    7.465312
2579.970280,    7.474289
2581.123747,    7.483249
2582.278749,    7.492238
2583.438195,    7.501281
2584.601868,    7.510375
2585.768471,    7.519510
2586.931620,    7.528638
2588.095730,    7.537791
2589.268716,    7.547033
2590.440161,    7.556281
2591.609904,    7.565535
2592.786238,    7.574859
2593.961392,    7.584193
2595.136335,    7.593544
2596.318036,    7.602967
2597.494646,    7.612369
2598.675196,    7.621820
2599.850899,    7.631252
2601.037266,    7.640788
2602.220000,    7.650314
2602.457792,    7.652231
2602.622931,    7.653563
2602.740782,    7.654514
2602.837796,    7.655297
2603.111269,    7.657504
2603.144128,    7.657769
2603.148661,    7.657806
2603.150042,    7.657817
2603.151451,    7.657828
2603.161409,    7.657909
2603.213328,    7.658328
2603.400756,    7.659842
2603.858398,    7.663540
2604.882283,    7.671823
2606.066015,    7.681418
2607.259254,    7.691108
2608.453912,    7.700829
2609.655459,    7.710624
2610.854746,    7.720421
2612.056925,    7.730260
2613.262887,    7.740149
2614.465466,    7.750029
2615.670166,    7.759946
2616.881501,    7.769937
2618.090654,    7.779929
2619.303537,    7.789971
2620.517187,    7.800038
2621.733689,    7.810149
2622.952525,    7.820298
2624.177557,    7.830518
2625.396617,    7.840707
2626.620561,    7.850956
2627.847010,    7.861246
2629.072846,    7.871550
2630.303656,    7.881916
2631.536050,    7.892314
2632.768392,    7.902731
2634.002386,    7.913181
2635.245919,    7.923732
2636.485487,    7.934269
2637.502412,    7.942928
2637.727179,    7.944843
2638.970846,    7.955454
2640.213614,    7.966076
2641.466227,    7.976803
2642.717448,    7.987537
2643.973530,    7.998333
2645.228161,    8.009136
2646.480759,    8.019941
2647.740667,    8.030829
2649.005671,    8.041781
2650.274477,    8.052786
2651.543388,    8.063812
2652.812531,    8.074860
2654.086132,    8.085966
2655.358332,    8.097081
2656.637134,    8.108273
2657.917725,    8.119501
2659.197052,    8.130738
2660.476096,    8.141992
2661.760099,    8.153310
2663.050720,    8.164707
2664.340633,    8.176118
2665.631811,    8.187560
2666.928142,    8.199069
2668.223221,    8.210586
2669.520146,    8.222140
2670.819931,    8.233740
2672.123367,    8.245393
2673.432787,    8.257120
2674.739661,    8.268844
2676.053129,    8.280649
2677.364102,    8.292451
2678.677811,    8.304299
2679.993796,    8.316187
2681.320586,    8.328194
2682.647768,    8.340226
2683.971551,    8.352247
2685.297207,    8.364306
2686.623256,    8.376389
2687.954886,    8.388543
2689.294300,    8.400790
2690.622648,    8.412956
2691.967596,    8.425295
2693.308388,    8.437617
2694.656347,    8.450026
2695.999645,    8.462413
2697.349131,    8.474877
2698.699010,    8.487367
2700.059224,    8.499973
2701.412652,    8.512537
2702.775446,    8.525210
2704.135270,    8.537876
2705.502772,    8.550634
2706.877252,    8.563480
2708.247672,    8.576308
2709.630687,    8.589276
2711.008834,    8.602220
2712.393847,    8.615250
2713.769262,    8.628211
2715.158603,    8.641325
2716.548440,    8.654465
2717.942599,    8.667667
2719.335235,    8.680877
2720.730120,    8.694130
2722.125416,    8.707408
2723.524108,    8.720740
2724.933286,    8.734193
2726.337363,    8.747620
2727.751364,    8.761164
2729.168701,    8.774761
2730.576849,    8.788292
2732.003852,    8.802026
2733.417060,    8.815650
2734.848075,    8.829467
2736.269442,    8.843212
2737.698257,    8.857052
2739.129591,    8.870938
2740.560829,    8.884846
2742.004862,    8.898900
2743.449921,    8.912986
2744.903155,    8.927174
2746.346480,    8.941288
2747.790971,    8.955435
2749.233576,    8.969586
2750.685867,    8.983855
2752.143502,    8.998198
2753.607466,    9.012625
2755.072817,    9.027089
2756.536250,    9.041557
2758.013855,    9.056187
2759.499225,    9.070917
2760.973471,    9.085559
2762.452020,    9.100266
2763.930594,    9.114997
2765.419401,    9.129852
2766.916191,    9.144809
2768.404824,    9.159708
2769.898876,    9.174684
2771.398921,    9.189743
2772.907560,    9.204911
2774.414271,    9.220083
2775.924712,    9.235315
2777.443649,    9.250657
2778.959344,    9.265988
2780.485435,    9.281449
2782.008894,    9.296905
2783.528902,    9.312350
2785.064790,    9.327979
2786.592979,    9.343554
2788.135514,    9.359298
2789.678581,    9.375071
2791.213911,    9.390788
2792.762029,    9.406659
2794.306935,    9.422521
2795.862116,    9.438512
2797.417486,    9.454528
2798.987091,    9.470715
2800.559661,    9.486956
2802.128262,    9.503180
2803.694091,    9.519399
2805.258076,    9.535623
2806.833387,    9.551987
2808.404629,    9.568333
2809.998175,    9.584935
2811.581158,    9.601451
2813.159081,    9.617937
2814.737881,    9.634457
2816.324908,    9.651085
2817.916086,    9.667782
2819.502018,    9.684446
2821.110018,    9.701367
2822.703018,    9.718153
2824.308324,    9.735093
2825.928518,    9.752214
2827.543624,    9.769305
2829.163121,    9.786467
2830.789853,    9.803730
2832.408072,    9.820927
2834.038332,    9.838275
2835.663759,    9.855596
2837.286419,    9.872912
2838.926488,    9.890437
2840.574006,    9.908067
2842.208322,    9.925579
2843.839451,    9.943081
2845.482211,    9.960732
2847.123678,    9.978392
2848.758915,    9.996010
2850.428115,   10.014017
2852.080367,   10.031866
2853.747084,   10.049896
2855.413942,   10.067951
2857.075681,   10.085976
2858.765650,   10.104330
2860.450825,   10.122658
2862.123716,   10.140876
2863.799452,   10.159150
2865.492375,   10.177635
2867.187964,   10.196174
2868.878155,   10.214678
2870.563756,   10.233156
2872.256391,   10.251736
2873.960065,   10.270461
2875.665848,   10.289234
2877.376614,   10.308086
2879.087208,   10.326961
2880.794331,   10.345822
2882.508995,   10.364790
2884.244666,   10.384016
2885.954939,   10.402985
2887.689238,   10.422244
2889.432358,   10.441627
2891.177465,   10.461056
2892.915798,   10.480435
2894.653168,   10.499828
2896.393347,   10.519276
2898.136609,   10.538783
2899.874992,   10.558260
2901.627120,   10.577915
2903.382222,   10.597629
2905.134479,   10.617334
2906.911144,   10.637339
2908.661231,   10.657069
2910.416837,   10.676886
2912.201247,   10.697052
2913.980957,   10.717190
2915.761612,   10.737364
2917.539186,   10.757527
2919.315131,   10.777695
2921.125439,   10.798279
2922.920231,   10.818712
2924.705866,   10.839064
2926.521879,   10.859788
2928.315299,   10.880279
2930.123016,   10.900957
2931.922803,   10.921569
2933.760661,   10.942642
2935.572003,   10.963436
2937.383359,   10.984254
2939.214526,   11.005324
2941.033744,   11.026282
2942.857140,   11.047312
2944.703018,   11.068627
2946.542962,   11.089897
2948.363248,   11.110965
2950.203093,   11.132283
2952.045464,   11.153655
2953.879683,   11.174956
2955.711694,   11.196256
2957.559225,   11.217761
2959.409831,   11.239326
2961.268528,   11.261009
2963.124677,   11.282687
2964.984616,   11.304433
2966.837714,   11.326123
2968.687262,   11.347796
2970.556434,   11.369723
2972.425122,   11.391668
2974.307848,   11.413802
2976.179735,   11.435833
2978.068698,   11.458089
2979.961261,   11.480411
2981.843742,   11.502639
2983.731343,   11.524951
2985.635505,   11.547483
2987.534663,   11.569980
2989.439244,   11.592565
2991.351422,   11.615265
2993.243980,   11.637755
2995.159272,   11.660539
2997.084707,   11.683468
2998.995679,   11.706249
3000.880595,   11.728742
3002.776235,   11.751386
3004.714021,   11.774558
3006.637555,   11.797583
3008.546825,   11.820460
3010.462638,   11.843439
3012.383242,   11.866498
3014.292523,   11.889445
3016.230412,   11.912758
3018.173010,   11.936152
3020.101170,   11.959395
3022.036164,   11.982743
3023.990269,   12.006345
3025.932243,   12.029824
3027.878908,   12.053382
3029.818061,   12.076872
3031.761136,   12.100433
3033.704886,   12.124024
3035.642465,   12.147563
3037.604083,   12.171416
3039.563787,   12.195269
3041.512324,   12.219008
3043.490600,   12.243132
3045.468147,   12.267270
3047.429237,   12.291230
3049.398838,   12.315315
3051.386209,   12.339641
3053.374065,   12.363995
3055.338706,   12.388087
3057.322374,   12.412434
3059.296993,   12.436692
3061.291561,   12.461217
3063.293192,   12.485851
3065.278024,   12.510300
3067.268224,   12.534837
3069.252025,   12.559317
3071.254571,   12.584050
3073.266207,   12.608917
3075.278482,   12.633813
3077.271254,   12.658490
3079.287088,   12.683474
3081.280987,   12.708207
3083.294489,   12.733205
3085.307176,   12.758213
3087.315431,   12.783188
3089.326791,   12.808222
3091.357787,   12.833522
3093.397173,   12.858948
3095.399759,   12.883935
3097.447545,   12.909508
3099.469563,   12.934779
3101.486434,   12.960007
3103.509501,   12.985332
3105.552424,   13.010926
3107.576989,   13.036311
3109.606696,   13.061781
3111.641992,   13.087340
3113.677607,   13.112924
3115.719748,   13.138610
3117.751789,   13.164189
3119.823199,   13.190283
3121.870846,   13.216098
3123.941821,   13.242227
3126.006170,   13.268293
3128.054486,   13.294175
3130.107614,   13.320138
3132.156703,   13.346069
3134.210215,   13.372075
3136.264367,   13.398109
3138.334958,   13.424370
3140.393034,   13.450491
3142.455745,   13.476690
3144.511886,   13.502824
3145.818099,   13.519436
