Time, Emission H2O
   0.000000,    0.038483
   0.100000,   38.484719
   0.200000,   76.986295
   0.300000,  115.489948
   0.400000,  153.993601
   0.500000,  192.497254
   0.600000,  231.000907
   0.700000,  269.504559
   0.800000,  308.008212
   0.900000,  346.511865
   1.000000,  385.015518
   1.100000,  423.519171
   1.200000,  462.048540
   1.300000,  500.581121
   1.400000,  539.113701
   1.500000,  577.646281
   1.600000,  616.178862
   1.700000,  654.711442
   1.800000,  693.244022
   1.900000,  731.776603
   2.000000,  770.309183
   2.100000,  808.841763
   2.200000,  847.393743
   2.300000,  885.948144
   2.400000,  924.502546
   2.500000,  963.056948
   2.600000, 1001.611350
   2.700000, 1040.165751
   2.800000, 1078.720153
   2.900000, 1117.274555
   3.000000, 1155.828957
   3.100000, 1194.383358
   3.200000, 1232.951031
   3.300000, 1271.520360
   3.400000, 1310.089689
   3.500000, 1348.659019
   3.600000, 1387.228348
   3.700000, 1425.797677
   3.800000, 1464.367006
   3.900000, 1502.936336
   4.000000, 1541.505665
   4.100000, 1580.074994
   4.200000, 1618.651659
   4.300000, 1657.229240
   4.400000, 1695.806820
   4.500000, 1734.384401
   4.600000, 1772.961982
   4.700000, 1811.539562
   4.800000, 1850.117143
   4.900000, 1888.694724
   5.000000, 1927.272304
   5.100000, 1965.849885
   5.200000, 2004.429064
   5.300000, 2043.008443
   5.400000, 2081.587821
   5.500000, 2120.167200
   5.600000, 2158.746578
   5.700000, 2197.325957
   5.800000, 2235.905335
   5.900000, 2274.484714
   6.000000, 2313.064092
   6.100000, 2351.643471
   6.200000, 2390.236084
   6.300000, 2428.830350
   6.400000, 2467.424615
   6.500000, 2506.018881
   6.600000, 2544.613146
   6.700000, 2583.207412
   6.800000, 2621.801678
   6.900000, 2660.395943
   7.000000, 2698.990209
   7.100000, 2737.584475
   7.200000, 2776.214682
   7.300000, 2814.849376
   7.400000, 2853.484071
   7.500000, 2892.118765
   7.600000, 2930.753460
   7.700000, 2969.388154
   7.800000, 3008.022849
   7.900000, 3046.657543
   8.000000, 3085.292238
   8.100000, 3123.926933
   8.200000, 3162.585285
   8.300000, 3201.246592
   8.400000, 3239.907899
   8.500000, 3278.569205
   8.600000, 3317.230512
   8.700000, 3355.891819
   8.800000, 3394.553126
   8.900000, 3433.214432
   9.000000, 3471.875739
   9.100000, 3510.537046
   9.200000, 3549.209601
   9.300000, 3587.883561
   9.400000, 3626.557521
   9.500000, 3665.231481
   9.600000, 3703.905441
   9.700000, 3742.579401
   9.800000, 3781.253361
   9.900000, 3819.927321
  10.000000, 3858.601281
  10.100000, 3897.275241
  10.200000, 3935.948685
  10.300000, 3974.622065
  10.400000, 4013.295444
  10.500000, 4051.968824
  10.600000, 4090.642204
  10.700000, 4129.315583
  10.800000, 4167.988963
  10.900000, 4206.662343
  11.000000, 4245.335722
  11.100000, 4284.009102
  11.200000, 4322.670836
  11.300000, 4361.331115
  11.400000, 4399.991395
  11.500000, 4438.651675
  11.600000, 4477.311954
  11.700000, 4515.972234
  11.800000, 4554.632514
  11.900000, 4593.292793
  12.000000, 4631.953073
  12.100000, 4670.613353
  12.200000, 4709.251480
  12.300000, 4747.886842
  12.400000, 4786.522203
  12.500000, 4825.157565
  12.600000, 4863.792926
  12.700000, 4902.428288
  12.800000, 4941.063649
  12.900000, 4979.699011
  13.000000, 5018.334372
  13.100000, 5056.969734
  13.200000, 5095.622210
  13.300000, 5134.276823
  13.400000, 5172.931436
  13.500000, 5211.586049
  13.600000, 5250.240662
  13.700000, 5288.895275
  13.800000, 5327.549888
  13.900000, 5366.204501
  14.000000, 5404.859114
  14.100000, 5443.513727
  14.200000, 5482.238034
  14.300000, 5520.971044
  14.400000, 5559.704054
  14.500000, 5598.437064
  14.600000, 5637.170074
  14.700000, 5675.903084
  14.800000, 5714.636094
  14.900000, 5753.369104
  15.000000, 5792.102113
  15.100000, 5830.835123
  15.200000, 5869.613611
  15.300000, 5908.397776
  15.400000, 5947.181942
  15.500000, 5985.966108
  15.600000, 6024.750273
  15.700000, 6063.534439
  15.800000, 6102.318605
  15.900000, 6141.102770
  16.000000, 6179.886936
  16.100000, 6218.671102
  16.200000, 6257.477213
  16.300000, 6296.286065
  16.400000, 6335.094916
  16.500000, 6373.903768
  16.600000, 6412.712619
  16.700000, 6451.521471
  16.800000, 6490.330323
  16.900000, 6529.139174
  17.000000, 6567.948026
  17.100000, 6606.756877
  17.200000, 6645.565913
  17.300000, 6684.374972
  17.400000, 6723.184031
  17.500000, 6761.993090
  17.600000, 6800.802149
  17.700000, 6839.611208
  17.800000, 6878.420267
  17.900000, 6917.229326
  18.000000, 6956.038385
  18.100000, 6994.847444
  18.200000, 7033.636615
  18.300000, 7072.423303
  18.400000, 7111.209992
  18.500000, 7149.996680
  18.600000, 7188.783368
  18.700000, 7227.570057
  18.800000, 7266.356745
  18.900000, 7305.143433
  19.000000, 7343.930122
  19.100000, 7382.716810
  19.200000, 7421.465149
  19.300000, 7460.208699
  19.400000, 7498.952250
  19.500000, 7537.695801
  19.600000, 7576.439351
  19.700000, 7615.182902
  19.800000, 7653.926453
  19.900000, 7692.670003
  20.000000, 7731.413554
  20.100000, 7770.157105
  20.200000, 7808.845375
  20.300000, 7847.526744
  20.400000, 7886.208113
  20.500000, 7924.889481
  20.600000, 7963.570850
  20.700000, 8002.252218
  20.800000, 8040.933587
  20.900000, 8079.614955
  21.000000, 8118.296324
  21.100000, 8156.977692
  21.200000, 8195.617731
  21.300000, 8234.252608
  21.400000, 8272.887486
  21.500000, 8311.522364
  21.600000, 8350.157242
  21.700000, 8388.792120
  21.800000, 8427.426997
  21.900000, 8466.061875
  22.000000, 8504.696753
  22.100000, 8543.331631
  22.200000, 8582.023511
  22.300000, 8620.722508
  22.400000, 8659.421505
  22.500000, 8698.120502
  22.600000, 8736.819499
  22.700000, 8775.518497
  22.800000, 8814.217494
  22.900000, 8852.916491
  23.000000, 8891.615488
  23.100000, 8930.314485
  23.200000, 8969.056606
  23.300000, 9007.804111
  23.400000, 9046.551617
  23.500000, 9085.299122
  23.600000, 9124.046627
  23.700000, 9162.794133
  23.800000, 9201.541638
  23.900000, 9240.289143
  24.000000, 9279.036648
  24.100000, 9317.784154
  24.200000, 9356.555349
  24.300000, 9395.329503
  24.400000, 9434.103657
  24.500000, 9472.877811
  24.600000, 9511.651964
  24.700000, 9550.426118
  24.800000, 9589.200272
  24.900000, 9627.974425
  25.000000, 9666.748579
  25.100000, 9705.522733
  25.200000, 9744.302912
  25.215579, 9750.344548
  25.315579, 9789.125209
  25.415579, 9827.905870
  25.515579, 9866.686531
  25.615579, 9905.467192
  25.715579, 9944.247852
  25.815579, 9983.028513
  25.915579, 10021.809174
  26.015579, 10060.589835
  26.115579, 10099.369972
  26.215579, 10138.138926
  26.315579, 10176.907881
  26.415579, 10215.676836
  26.515579, 10254.445791
  26.615579, 10293.214746
  26.715579, 10331.983701
  26.815579, 10370.752656
  26.915579, 10409.521611
  27.015579, 10448.290565
  27.115579, 10487.058290
  27.215579, 10525.799769
  27.315579, 10564.541248
  27.415579, 10603.282727
  27.515579, 10642.024206
  27.615579, 10680.765686
  27.715579, 10719.507165
  27.815579, 10758.248644
  27.915579, 10796.990123
  28.015579, 10835.731602
  28.115579, 10874.471287
  28.215579, 10913.172695
  28.315579, 10951.874103
  28.415579, 10990.575511
  28.515579, 11029.276920
  28.615579, 11067.978328
  28.715579, 11106.679736
  28.815579, 11145.381145
  28.915579, 11184.082553
  29.015579, 11222.783961
  29.111100, 11259.751979
  29.211100, 11298.413548
  29.311100, 11337.075117
  29.411100, 11375.736686
  29.511100, 11414.398255
  29.611100, 11453.059824
  29.711100, 11491.721393
  29.811100, 11530.382962
  29.911100, 11569.044531
  30.011100, 11607.706100
  30.111100, 11646.367669
  30.211100, 11685.015255
  30.311100, 11723.662841
  30.411100, 11762.310427
  30.511100, 11800.958013
  30.611100, 11839.605599
  30.711100, 11878.250416
  30.811100, 11916.895232
  30.911100, 11955.540048
  31.011100, 11994.184864
  31.111100, 12032.829681
  31.211100, 12071.476297
  31.311100, 12110.122913
  31.411100, 12148.769529
  31.511100, 12187.416146
  31.611100, 12226.062762
