Time, Altitude
   0.000000,    0.000000
   0.001667,    0.000000
   0.003333,    0.000000
   0.005000,    0.000000
   0.006667,    0.000000
   0.008333,    0.000000
   0.010000,    0.000000
   0.011667,    0.000000
   0.013333,    0.000000
   0.015000,    0.000000
   0.016667,    0.000000
   0.018333,    0.000000
   0.020000,    0.000000
   0.021667,    0.000000
   0.023333,    0.000000
   0.025000,    0.000000
   0.026667,    0.000000
   0.028333,    0.000000
   0.030000,    0.000000
   0.031667,    0.000000
   0.033333,    0.000000
   0.035000,    0.000000
   0.036667,    0.000000
   0.038333,    0.000000
   0.040000,    0.000000
   0.041667,    0.000000
   0.043333,    0.000000
   0.045000,    0.000000
   0.046667,    0.000000
   0.048333,    0.000000
   0.050000,    0.000000
   0.051667,    0.000000
   0.053333,    0.000000
   0.055000,    0.000000
   0.056667,    0.000000
   0.058333,    0.000000
   0.060000,    0.000000
   0.061667,    0.000000
   0.063333,    0.000000
   0.065000,    0.000000
   0.066667,    0.000000
   0.068333,    0.000000
   0.070000,    0.000000
   0.071667,    0.000000
   0.073333,    0.000000
   0.075000,    0.000000
   0.076667,    0.000000
   0.078333,    0.000000
   0.080000,    0.000000
   0.081667,    0.000000
   0.083333,    0.000000
   0.085000,    0.000000
   0.086667,    0.000000
   0.088333,    0.000000
   0.090000,    0.000000
   0.091667,    0.000000
   0.093333,    0.000000
   0.095000,    0.000000
   0.096667,    0.000000
   0.098333,    0.000000
   0.100000,    0.000000
   0.101667,    0.000000
   0.103333,    0.000000
   0.105000,    0.000000
   0.106667,    0.000000
   0.108333,    0.000000
   0.110000,    0.000000
   0.111667,    0.000000
   0.113333,    0.000000
   0.115000,    0.000000
   0.116667,    0.000000
   0.118333,    0.000000
   0.120000,    0.000000
   0.121667,    0.000000
   0.123333,    0.000000
   0.125000,    0.000000
   0.126667,    0.000000
   0.128333,    0.000000
   0.130000,    0.000000
   0.131667,    0.000000
   0.133333,    0.000000
   0.135000,    0.000000
   0.136667,    0.000000
   0.138333,    0.000000
   0.140000,    0.000000
   0.141667,    0.000000
   0.143333,    0.000000
   0.145000,    0.000000
   0.146667,    0.000000
   0.148333,    0.000000
   0.150000,    0.000000
   0.151667,    0.000000
   0.153333,    0.000000
   0.155000,    0.000000
   0.156667,    0.000000
   0.158333,    0.000000
   0.160000,    0.000000
   0.161667,    0.000000
   0.163333,    0.000000
   0.165000,    0.000000
   0.166667,    0.000000
   0.168333,    0.000000
   0.170000,    0.000000
   0.171667,    0.000000
   0.173333,    0.000000
   0.175000,    0.000000
   0.176667,    0.000000
   0.178333,    0.000000
   0.180000,    0.000000
   0.181667,    0.000000
   0.183333,    0.000000
   0.185000,    0.000000
   0.186667,    0.000000
   0.188333,    0.000000
   0.190000,    0.000000
   0.191667,    0.000000
   0.193333,    0.000000
   0.195000,    0.000000
   0.196667,    0.000000
   0.198333,    0.000000
   0.200000,    0.000000
   0.201667,    0.000000
   0.203333,    0.000000
   0.205000,    0.000000
   0.206667,    0.000000
   0.208333,    0.000000
   0.210000,    0.000000
   0.211667,    0.000000
   0.213333,    0.000000
   0.215000,    0.000000
   0.216667,    0.000000
   0.218333,    0.000000
   0.220000,    0.000000
   0.221667,    0.000000
   0.223333,    0.000000
   0.225000,    0.000000
   0.226667,    0.000000
   0.228333,    0.000000
   0.230000,    0.000000
   0.231667,    0.000000
   0.233333,    0.000000
   0.235000,    0.000000
   0.236667,    0.000000
   0.238333,    0.000000
   0.240000,    0.000000
   0.241667,    0.000000
   0.243333,    0.000000
   0.245000,    0.000000
   0.246667,    0.000000
   0.248333,    0.000000
   0.250000,    0.000000
   0.251667,    0.000000
   0.253333,    0.000000
   0.255000,    0.000000
   0.256667,    0.000000
   0.258333,    0.000000
   0.260000,    0.000000
   0.261667,    0.000000
   0.263333,    0.000000
   0.265000,    0.000000
   0.266667,    0.000000
   0.268333,    0.000000
   0.270000,    0.000000
   0.271667,    0.000000
   0.273333,    0.000000
   0.275000,    0.000000
   0.276667,    0.000000
   0.278333,    0.000000
   0.280000,    0.000000
   0.281667,    0.000000
   0.283333,    0.000000
   0.285000,    0.000000
   0.286667,    0.000000
   0.288333,    0.000000
   0.290000,    0.000000
   0.291667,    0.000000
   0.293333,    0.000000
   0.295000,    0.000000
   0.296667,    0.000000
   0.298333,    0.000000
   0.300000,    0.000000
   0.301667,    0.000000
   0.303333,    0.000000
   0.305000,    0.000000
   0.306667,    0.000000
   0.308333,    0.000000
   0.310000,    0.000000
   0.311667,    0.000000
   0.312642,    0.000000
   0.314309,    0.000000
   0.315975,    0.000000
   0.317642,    0.000000
   0.319309,    0.000000
   0.320975,    0.000000
   0.322642,    0.000000
   0.324309,    0.000000
   0.325975,    0.000000
   0.327642,    0.000000
   0.329309,    0.000000
   0.330975,    0.000000
   0.332642,    0.000000
   0.334309,    0.000000
   0.335975,    0.000000
   0.337642,    0.000000
   0.339309,    0.000000
   0.340975,    0.000000
   0.342642,    0.000000
   0.344309,    0.000000
   0.345975,    0.000000
   0.347642,    0.000000
   0.349309,    0.000000
   0.350975,    0.000000
   0.352642,    0.000000
   0.354309,    0.000000
   0.355975,    0.000000
   0.357642,    0.000000
   0.359309,    0.000000
   0.360975,    0.000000
   0.362642,    0.000000
   0.364309,    0.000000
   0.365975,    0.000000
   0.367642,    0.000000
   0.368518,    0.000000
   0.370185,    0.500213
   0.371852,    1.000426
   0.373518,    1.500639
   0.375185,    2.000852
   0.376852,    2.501065
   0.378518,    3.001278
   0.380185,    3.501491
   0.381852,    4.001704
   0.383518,    4.501917
   0.385185,    5.002130
   0.386852,    6.308679
   0.388518,    7.615227
   0.390185,    8.921775
   0.391852,   10.228323
   0.393518,   11.534871
   0.395185,   13.410579
   0.396852,   15.286286
   0.398518,   17.161993
   0.400185,   19.037700
   0.401852,   20.913407
   0.403518,   23.404974
   0.405185,   25.896540
   0.406852,   28.388106
   0.408518,   30.879672
   0.410185,   33.371239
   0.410185,   35.000000
   1.605400, 1920.000000
   2.825139, 3805.000000
   4.084250, 5690.000000
   5.433948, 7575.000000
   6.920962, 9460.000000
   8.567151, 11345.000000
  10.405942, 13230.000000
  12.496124, 15115.000000
  14.982109, 17000.000000
  14.982109, 17000.000000
  15.801212, 17000.000000
  16.620315, 17000.000000
  17.439418, 17000.000000
  18.258522, 17000.000000
  19.077625, 17000.000000
  19.896728, 17000.000000
  20.715832, 17000.000000
  21.534935, 17000.000000
  22.354038, 17000.000000
  23.173141, 17000.000000
  23.992245, 17000.000000
  24.811348, 17000.000000
  25.630451, 17000.000000
  26.449554, 17000.000000
  27.268658, 17000.000000
  28.087761, 17000.000000
  28.906864, 17000.000000
  29.725967, 17000.000000
  30.545071, 17000.000000
  31.364174, 17000.000000
  32.183277, 17000.000000
  33.002380, 17000.000000
  33.821484, 17000.000000
  34.640587, 17000.000000
  35.459690, 17000.000000
  36.278793, 17000.000000
  37.097897, 17000.000000
  37.917000, 17000.000000
  38.736103, 17000.000000
  38.736103, 17000.000000
  39.896032, 15277.777778
  41.058764, 13555.555556
  42.220084, 11833.333333
  43.376236, 10111.111111
  44.524976, 8388.888889
  45.661995, 6666.666667
  46.783206, 4944.444444
  47.900611, 3222.222222
  49.010509, 1500.000000
  49.010509, 1500.000000
  49.589924, 2444.444444
  50.174964, 3388.888889
  50.765469, 4333.333333
  51.364214, 5277.777778
  51.981985, 6222.222222
  52.628108, 7166.666667
  53.305596, 8111.111111
  54.016769, 9055.555556
  54.763442, 10000.000000
  54.763442, 10000.000000
  56.615618, 10000.000000
  58.468603, 10000.000000
  60.322397, 10000.000000
  62.177002, 10000.000000
  64.032418, 10000.000000
  65.888646, 10000.000000
  67.745686, 10000.000000
  69.603540, 10000.000000
  71.462208, 10000.000000
  71.462208, 10000.000000
  72.108615, 9055.555556
  72.744854, 8111.111111
  73.383630, 7166.666667
  74.025084, 6222.222222
  74.669359, 5277.777778
  75.316244, 4333.333333
  75.965602, 3388.888889
  76.616971, 2444.444444
  77.269434, 1500.000000
  77.269434, 1500.000000
  82.269434, 1500.000000
  87.269434, 1500.000000
  92.269434, 1500.000000
  97.269434, 1500.000000
 102.269434, 1500.000000
 107.269434, 1500.000000
 112.269434, 1500.000000
 117.269434, 1500.000000
 122.269434, 1500.000000
 122.269434, 1500.000000
 122.271101, 1499.051587
 122.272767, 1498.103184
 122.274434, 1497.154781
 122.276101, 1496.206792
 122.277767, 1495.258884
 122.279434, 1494.310976
 122.281101, 1493.363068
 122.282767, 1492.415160
 122.284434, 1491.467252
 122.286101, 1490.519343
 122.287767, 1489.571435
 122.289434, 1488.623527
 122.291101, 1487.675619
 122.292767, 1486.728314
 122.294434, 1485.781126
 122.296101, 1484.833938
 122.297767, 1483.886750
 122.299434, 1482.939563
 122.301101, 1481.992375
 122.302767, 1481.045187
 122.304434, 1480.097999
 122.306101, 1479.150812
 122.307767, 1478.203624
 122.309434, 1477.256688
 122.311101, 1476.309800
 122.312767, 1475.362913
 122.314434, 1474.416025
 122.316101, 1473.469138
 122.317767, 1472.522251
 122.319434, 1471.575363
 122.321101, 1470.628476
 122.322767, 1469.681589
 122.324434, 1468.734701
 122.326101, 1467.788731
 122.327767, 1466.842939
 122.329434, 1465.897147
 122.331101, 1464.951354
 122.332767, 1464.005562
 122.334434, 1463.059770
 122.336101, 1462.113978
 122.337767, 1461.168186
 122.339434, 1460.222394
 122.341101, 1459.276602
 122.342767, 1458.330796
 122.344434, 1457.384988
 122.346101, 1456.439179
 122.347767, 1455.493371
 122.349434, 1454.547562
 122.351101, 1453.601754
 122.352767, 1452.655945
 122.354434, 1451.710137
 122.356101, 1450.764329
 122.357767, 1449.818520
 122.359434, 1448.872613
 122.361101, 1447.926687
 122.362767, 1446.980761
 122.364434, 1446.034835
 122.366101, 1445.088909
 122.367767, 1444.142983
 122.369434, 1443.197056
 122.371101, 1442.251130
 122.372767, 1441.305204
 122.374434, 1440.359278
 122.376101, 1439.413657
 122.377767, 1438.468095
 122.379434, 1437.522534
 122.381101, 1436.576972
 122.382767, 1435.631411
 122.384434, 1434.685849
 122.386101, 1433.740288
 122.387767, 1432.794726
 122.389434, 1431.849164
 122.391101, 1430.903603
 122.392767, 1429.957695
 122.394434, 1429.011719
 122.396101, 1428.065743
 122.397767, 1427.119768
 122.399434, 1426.173792
 122.401101, 1425.227817
 122.402767, 1424.281841
 122.404434, 1423.335865
 122.406101, 1422.389890
 122.407767, 1421.443914
 122.409434, 1420.498057
 122.411101, 1419.552222
 122.412767, 1418.606388
 122.414434, 1417.660553
 122.416101, 1416.714719
 122.417767, 1415.768884
 122.419434, 1414.823050
 122.421101, 1413.877215
 122.422767, 1412.931381
 122.424434, 1411.985546
 122.426101, 1411.039984
 122.427767, 1410.094475
 122.429434, 1409.148967
 122.431101, 1408.203458
 122.432767, 1407.257949
 122.434434, 1406.312441
 122.436101, 1405.366932
 122.437767, 1404.421423
 122.439434, 1403.475915
 122.441101, 1402.530406
 122.442767, 1401.585796
 122.444434, 1400.641360
 122.446101, 1399.696925
 122.447767, 1398.752490
 122.449434, 1397.808054
 122.451101, 1396.863619
 122.452767, 1395.919184
 122.454434, 1394.974749
 122.456101, 1394.030313
 122.457767, 1393.085878
 122.459434, 1392.142046
 122.461101, 1391.198330
 122.462767, 1390.254615
 122.464434, 1389.310900
 122.466101, 1388.367185
 122.467767, 1387.423469
 122.469434, 1386.479754
 122.471101, 1385.536039
 122.472767, 1384.592324
 122.474434, 1383.648608
 122.476101, 1382.705409
 122.477767, 1381.762310
 122.479434, 1380.819211
 122.481101, 1379.876112
 122.482767, 1378.933013
 122.484434, 1377.989914
 122.486101, 1377.046814
 122.487767, 1376.103715
 122.489434, 1375.160616
 122.491101, 1374.217517
 122.492767, 1373.274172
 122.494434, 1372.330779
 122.496101, 1371.387385
 122.497767, 1370.443992
 122.499434, 1369.500599
 122.501101, 1368.557206
 122.502767, 1367.613812
 122.504434, 1366.670419
 122.506101, 1365.727026
 122.507767, 1364.783632
 122.509434, 1363.840348
 122.511101, 1362.897085
 122.512767, 1361.953821
 122.514434, 1361.010558
 122.516101, 1360.067295
 122.517767, 1359.124031
 122.519434, 1358.180768
 122.521101, 1357.237505
 122.522767, 1356.294241
 122.524434, 1355.350978
 122.526101, 1354.408123
 122.527767, 1353.465347
 122.529434, 1352.522571
 122.531101, 1351.579796
 122.532767, 1350.637020
 122.534434, 1349.694244
 122.536101, 1348.751469
 122.537767, 1347.808693
 122.539434, 1346.865918
 122.541101, 1345.923142
 122.542767, 1344.980014
 122.544434, 1344.036817
 122.546101, 1343.093620
 122.547767, 1342.150424
 122.549434, 1341.207227
 122.551101, 1340.264030
 122.552767, 1339.320833
 122.554434, 1338.377637
 122.556101, 1337.434440
 122.557767, 1336.491243
 122.559434, 1335.548058
 122.561101, 1334.604875
 122.562767, 1333.661692
 122.564434, 1332.718509
 122.566101, 1331.775326
 122.567767, 1330.832143
 122.569434, 1329.888959
 122.571101, 1328.945776
 122.572767, 1328.002593
 122.574434, 1327.059410
 122.576101, 1326.116551
 122.577767, 1325.173755
 122.579434, 1324.230959
 122.581101, 1323.288163
 122.582767, 1322.345367
 122.584434, 1321.402570
 122.586101, 1320.459774
 122.587767, 1319.516978
 122.589434, 1318.574182
 122.591101, 1317.631386
 122.592767, 1316.688174
 122.594434, 1315.744882
 122.596101, 1314.801589
 122.597767, 1313.858297
 122.599434, 1312.915004
 122.601101, 1311.971712
 122.602767, 1311.028419
 122.604434, 1310.085127
 122.606101, 1309.141834
 122.607767, 1308.198541
 122.609434, 1307.255218
 122.611101, 1306.311888
 122.612767, 1305.368559
 122.614434, 1304.425229
 122.616101, 1303.481900
 122.617767, 1302.538570
 122.619434, 1301.595240
 122.621101, 1300.651911
 122.622767, 1299.708581
 122.624434, 1298.765252
 122.626101, 1297.822227
 122.627767, 1296.879262
 122.629434, 1295.936298
 122.631101, 1294.993333
 122.632767, 1294.050368
 122.634434, 1293.107403
 122.636101, 1292.164438
 122.637767, 1291.221473
 122.639434, 1290.278508
 122.641101, 1289.335543
 122.642767, 1288.392167
 122.644434, 1287.448711
 122.646101, 1286.505255
 122.647767, 1285.561799
 122.649434, 1284.618343
 122.651101, 1283.674887
 122.652767, 1282.731431
 122.654434, 1281.787975
 122.656101, 1280.844518
 122.657767, 1279.901062
 122.659434, 1278.957602
 122.661101, 1278.014141
 122.662767, 1277.070681
 122.664434, 1276.127220
 122.666101, 1275.183759
 122.667767, 1274.240298
 122.669434, 1273.296837
 122.671101, 1272.353376
 122.672767, 1271.409915
 122.674434, 1270.466455
 122.676101, 1269.523348
 122.677767, 1268.580310
 122.679434, 1267.637271
 122.681101, 1266.694233
 122.682767, 1265.751195
 122.684434, 1264.808157
 122.686101, 1263.865119
 122.687767, 1262.922081
 122.689434, 1261.979043
 122.691101, 1261.036005
 122.692767, 1260.092616
 122.694434, 1259.149159
 122.696101, 1258.205702
 122.697767, 1257.262245
 122.699434, 1256.318788
 122.701101, 1255.375331
 122.702767, 1254.431874
 122.704434, 1253.488416
 122.706101, 1252.544959
 122.707767, 1251.601502
 122.709434, 1250.658115
 122.711101, 1249.714741
 122.712767, 1248.771368
 122.714434, 1247.827994
 122.716101, 1246.884620
 122.717767, 1245.941247
 122.719434, 1244.997873
 122.721101, 1244.054500
 122.722767, 1243.111126
 122.724434, 1242.167752
 122.726101, 1241.224813
 122.727767, 1240.281958
 122.729434, 1239.339104
 122.731101, 1238.396249
 122.732767, 1237.453394
 122.734434, 1236.510539
 122.736101, 1235.567685
 122.737767, 1234.624830
 122.739434, 1233.681975
 122.741101, 1232.739121
 122.742767, 1231.795996
 122.744434, 1230.852819
 122.746101, 1229.909641
 122.747767, 1228.966464
 122.749434, 1228.023287
 122.751101, 1227.080109
 122.752767, 1226.136932
 122.754434, 1225.193755
 122.756101, 1224.250577
 122.757767, 1223.307400
 122.759434, 1222.364370
 122.761101, 1221.421368
 122.762767, 1220.478366
 122.764434, 1219.535365
 122.766101, 1218.592363
 122.767767, 1217.649361
 122.769434, 1216.706359
 122.771101, 1215.763358
 122.772767, 1214.820356
 122.774434, 1213.877354
 122.776101, 1212.934134
 122.777767, 1211.990871
 122.779434, 1211.047609
 122.781101, 1210.104346
 122.782767, 1209.161083
 122.784434, 1208.217821
 122.786101, 1207.274558
 122.787767, 1206.331295
 122.789434, 1205.388033
 122.791101, 1204.444770
 122.792767, 1203.500320
 122.794434, 1202.555638
 122.796101, 1201.610956
 122.797767, 1200.666274
 122.799434, 1199.721592
 122.801101, 1198.776911
 122.802767, 1197.832229
 122.804434, 1196.887547
 122.806101, 1195.942865
 122.807767, 1194.998183
 122.809434, 1194.053909
 122.811101, 1193.109715
 122.812767, 1192.165520
 122.814434, 1191.221325
 122.816101, 1190.277131
 122.817767, 1189.332936
 122.819434, 1188.388742
 122.821101, 1187.444547
 122.822767, 1186.500352
 122.824434, 1185.556158
 122.826101, 1184.612541
 122.827767, 1183.669036
 122.829434, 1182.725532
 122.831101, 1181.782027
 122.832767, 1180.838522
 122.834434, 1179.895018
 122.836101, 1178.951513
 122.837767, 1178.008009
 122.839434, 1177.064504
 122.841101, 1176.121000
 122.842767, 1175.177925
 122.844434, 1174.234934
 122.846101, 1173.291943
 122.847767, 1172.348951
 122.849434, 1171.405960
 122.851101, 1170.462969
 122.852767, 1169.519978
 122.854434, 1168.576987
 122.856101, 1167.633996
 122.857767, 1166.691005
 122.859434, 1165.747776
 122.861101, 1164.804501
 122.862767, 1163.861226
 122.864434, 1162.917951
 122.866101, 1161.974676
 122.867767, 1161.031402
 122.869434, 1160.088127
 122.871101, 1159.144852
 122.872767, 1158.201577
 122.874434, 1157.258302
 122.876101, 1156.315243
 122.877767, 1155.372225
 122.879434, 1154.429208
 122.881101, 1153.486191
 122.882767, 1152.543173
 122.884434, 1151.600156
 122.886101, 1150.657139
 122.887767, 1149.714121
 122.889434, 1148.771104
 122.891101, 1147.828087
 122.892767, 1146.885420
 122.894434, 1145.942821
 122.896101, 1145.000223
 122.897767, 1144.057624
 122.899434, 1143.115025
 122.901101, 1142.172427
 122.902767, 1141.229828
 122.904434, 1140.287230
 122.906101, 1139.344631
 122.907767, 1138.402032
 122.909434, 1137.460391
 122.911101, 1136.518936
 122.912767, 1135.577481
 122.914434, 1134.636026
 122.916101, 1133.694572
 122.917767, 1132.753117
 122.919434, 1131.811662
 122.921101, 1130.870207
 122.922767, 1129.928752
 122.924434, 1128.987297
 122.926101, 1128.046474
 122.927767, 1127.105774
 122.929434, 1126.165073
 122.931101, 1125.224373
 122.932767, 1124.283673
 122.934434, 1123.342973
 122.936101, 1122.402273
 122.937767, 1121.461572
 122.939434, 1120.520872
 122.941101, 1119.580172
 122.942767, 1118.639989
 122.944434, 1117.699906
 122.946101, 1116.759823
 122.947767, 1115.819740
 122.949434, 1114.879657
 122.951101, 1113.939575
 122.952767, 1112.999492
 122.954434, 1112.059409
 122.956101, 1111.119326
 122.957767, 1110.179243
 122.959434, 1109.238882
 122.961101, 1108.298467
 122.962767, 1107.358051
 122.964434, 1106.417636
 122.966101, 1105.477220
 122.967767, 1104.536805
 122.969434, 1103.596390
 122.971101, 1102.655974
 122.972767, 1101.715559
 122.974434, 1100.775143
 122.976101, 1099.834785
 122.977767, 1098.894438
 122.979434, 1097.954091
 122.981101, 1097.013743
 122.982767, 1096.073396
 122.984434, 1095.133049
 122.986101, 1094.192702
 122.987767, 1093.252355
 122.989434, 1092.312008
 122.991101, 1091.371660
 122.992767, 1090.431653
 122.994434, 1089.491711
 122.996101, 1088.551769
 122.997767, 1087.611827
 122.999434, 1086.671885
 123.001101, 1085.731943
 123.002767, 1084.792002
 123.004434, 1083.852060
 123.006101, 1082.912118
 123.007767, 1081.972176
 123.009434, 1081.031795
 123.011101, 1080.091329
 123.012767, 1079.150863
 123.014434, 1078.210397
 123.016101, 1077.269931
 123.017767, 1076.329465
 123.019434, 1075.388999
 123.021101, 1074.448533
 123.022767, 1073.508067
 123.024434, 1072.567600
 123.026101, 1071.627054
 123.027767, 1070.686491
 123.029434, 1069.745928
 123.031101, 1068.805366
 123.032767, 1067.864803
 123.034434, 1066.924240
 123.036101, 1065.983678
 123.037767, 1065.043115
 123.039434, 1064.102552
 123.041101, 1063.161989
 123.042767, 1062.222437
 123.044434, 1061.283082
 123.046101, 1060.343727
 123.047767, 1059.404372
 123.049434, 1058.465017
 123.051101, 1057.525662
 123.052767, 1056.586308
 123.054434, 1055.646953
 123.056101, 1054.707598
 123.057767, 1053.768243
 123.059434, 1052.829499
 123.061101, 1051.890875
 123.062767, 1050.952252
 123.064434, 1050.013628
 123.066101, 1049.075004
 123.067767, 1048.136380
 123.069434, 1047.197756
 123.071101, 1046.259132
 123.072767, 1045.320508
 123.074434, 1044.381884
 123.076101, 1043.443689
 123.077767, 1042.505578
 123.079434, 1041.567466
 123.081101, 1040.629354
 123.082767, 1039.691243
 123.084434, 1038.753131
 123.086101, 1037.815020
 123.087767, 1036.876908
 123.089434, 1035.938797
 123.091101, 1035.000685
 123.092767, 1034.062146
 123.094434, 1033.123523
 123.096101, 1032.184900
 123.097767, 1031.246278
 123.099434, 1030.307655
 123.101101, 1029.369032
 123.102767, 1028.430410
 123.104434, 1027.491787
 123.106101, 1026.553164
 123.107767, 1025.614542
 123.109434, 1024.675780
 123.111101, 1023.736991
 123.112767, 1022.798203
 123.114434, 1021.859414
 123.116101, 1020.920625
 123.117767, 1019.981836
 123.119434, 1019.043048
 123.121101, 1018.104259
 123.122767, 1017.165470
 123.124434, 1016.226681
 123.126101, 1015.287850
 123.127767, 1014.349011
 123.129434, 1013.410171
 123.131101, 1012.471332
 123.132767, 1011.532492
 123.134434, 1010.593652
 123.136101, 1009.654813
 123.137767, 1008.715973
 123.139434, 1007.777134
 123.141101, 1006.838294
 123.142767, 1005.898945
 123.144434, 1004.959496
 123.146101, 1004.020048
 123.147767, 1003.080599
 123.149434, 1002.141150
 123.151101, 1001.201701
 123.152767, 1000.262253
 123.154434,  999.322804
 123.156101,  998.383355
 123.157767,  997.443906
 123.159434,  996.504921
 123.161101,  995.566026
 123.162767,  994.627131
 123.164434,  993.688235
 123.166101,  992.749340
 123.167767,  991.810445
 123.169434,  990.871550
 123.171101,  989.932655
 123.172767,  988.993760
 123.174434,  988.054865
 123.176101,  987.115639
 123.177767,  986.176349
 123.179434,  985.237059
 123.181101,  984.297768
 123.182767,  983.358478
 123.184434,  982.419188
 123.186101,  981.479898
 123.187767,  980.540608
 123.189434,  979.601317
 123.191101,  978.662027
 123.192767,  977.722750
 123.194434,  976.783476
 123.196101,  975.844202
 123.197767,  974.904928
 123.199434,  973.965654
 123.201101,  973.026380
 123.202767,  972.087106
 123.204434,  971.147832
 123.206101,  970.208558
 123.207767,  969.269284
 123.209434,  968.330316
 123.211101,  967.391408
 123.212767,  966.452501
 123.214434,  965.513593
 123.216101,  964.574685
 123.217767,  963.635777
 123.219434,  962.696869
 123.221101,  961.757961
 123.222767,  960.819053
 123.224434,  959.880145
 123.226101,  958.940774
 123.227767,  958.001312
 123.229434,  957.061850
 123.231101,  956.122389
 123.232767,  955.182927
 123.234434,  954.243465
 123.236101,  953.304003
 123.237767,  952.364542
 123.239434,  951.425080
 123.241101,  950.485618
 123.242767,  949.546065
 123.244434,  948.606493
 123.246101,  947.666922
 123.247767,  946.727351
 123.249434,  945.787779
 123.251101,  944.848208
 123.252767,  943.908636
 123.254434,  942.969065
 123.256101,  942.029493
 123.257767,  941.089922
 123.259434,  940.151367
 123.261101,  939.213010
 123.262767,  938.274653
 123.264434,  937.336296
 123.266101,  936.397940
 123.267767,  935.459583
 123.269434,  934.521226
 123.271101,  933.582869
 123.272767,  932.644512
 123.274434,  931.706155
 123.276101,  930.768426
 123.277767,  929.830819
 123.279434,  928.893212
 123.281101,  927.955606
 123.282767,  927.017999
 123.284434,  926.080392
 123.286101,  925.142785
 123.287767,  924.205178
 123.289434,  923.267571
 123.291101,  922.329964
 123.292767,  921.392812
 123.294434,  920.455747
 123.296101,  919.518683
 123.297767,  918.581619
 123.299434,  917.644555
 123.301101,  916.707491
 123.302767,  915.770426
 123.304434,  914.833362
 123.306101,  913.896298
 123.307767,  912.959234
 123.309434,  912.021772
 123.311101,  911.084233
 123.312767,  910.146694
 123.314434,  909.209155
 123.316101,  908.271616
 123.317767,  907.334076
 123.319434,  906.396537
 123.321101,  905.458998
 123.322767,  904.521459
 123.324434,  903.583920
 123.326101,  902.646279
 123.327767,  901.708619
 123.329434,  900.770958
 123.331101,  899.833298
 123.332767,  898.895637
 123.334434,  897.957977
 123.336101,  897.020316
 123.337767,  896.082656
 123.339434,  895.144995
 123.341101,  894.207335
 123.342767,  893.269673
 123.344434,  892.332011
 123.346101,  891.394349
 123.347767,  890.456687
 123.349434,  889.519025
 123.351101,  888.581363
 123.352767,  887.643701
 123.354434,  886.706039
 123.356101,  885.768377
 123.357767,  884.830715
 123.359434,  883.892583
 123.361101,  882.954359
 123.362767,  882.016136
 123.364434,  881.077912
 123.366101,  880.139688
 123.367767,  879.201465
 123.369434,  878.263241
 123.371101,  877.325017
 123.372767,  876.386794
 123.374434,  875.448570
 123.376101,  874.510851
 123.377767,  873.573231
 123.379434,  872.635611
 123.381101,  871.697991
 123.382767,  870.760371
 123.384434,  869.822751
 123.386101,  868.885130
 123.387767,  867.947510
 123.389434,  867.009890
 123.391101,  866.072270
 123.392767,  865.134352
 123.394434,  864.196376
 123.396101,  863.258401
 123.397767,  862.320425
 123.399434,  861.382449
 123.401101,  860.444473
 123.402767,  859.506498
 123.404434,  858.568522
 123.406101,  857.630546
 123.407767,  856.692571
 123.409434,  855.754634
 123.411101,  854.816705
 123.412767,  853.878776
 123.414434,  852.940847
 123.416101,  852.002918
 123.417767,  851.064990
 123.419434,  850.127061
 123.421101,  849.189132
 123.422767,  848.251203
 123.424434,  847.313274
 123.426101,  846.375668
 123.427767,  845.438125
 123.429434,  844.500582
 123.431101,  843.563038
 123.432767,  842.625495
 123.434434,  841.687952
 123.436101,  840.750409
 123.437767,  839.812866
 123.439434,  838.875323
 123.441101,  837.937780
 123.442767,  836.999774
 123.444434,  836.061678
 123.446101,  835.123582
 123.447767,  834.185486
 123.449434,  833.247390
 123.451101,  832.309294
 123.452767,  831.371198
 123.454434,  830.433102
 123.456101,  829.495006
 123.457767,  828.556910
 123.459434,  827.618711
 123.461101,  826.680492
 123.462767,  825.742272
 123.464434,  824.804053
 123.466101,  823.865833
 123.467767,  822.927614
 123.469434,  821.989394
 123.471101,  821.051175
 123.472767,  820.112956
 123.474434,  819.174736
 123.476101,  818.237513
 123.477767,  817.300484
 123.479434,  816.363456
 123.481101,  815.426427
 123.482767,  814.489398
 123.484434,  813.552369
 123.486101,  812.615341
 123.487767,  811.678312
 123.489434,  810.741283
 123.491101,  809.804254
 123.492767,  808.867821
 123.494434,  807.931504
 123.496101,  806.995187
 123.497767,  806.058870
 123.499434,  805.122553
 123.501101,  804.186235
 123.502767,  803.249918
 123.504434,  802.313601
 123.506101,  801.377284
 123.507767,  800.440967
 123.509434,  799.505061
 123.511101,  798.569235
 123.512767,  797.633409
 123.514434,  796.697583
 123.516101,  795.761757
 123.517767,  794.825931
 123.519434,  793.890105
 123.521101,  792.954279
 123.522767,  792.018453
 123.524434,  791.082627
 123.526101,  790.146348
 123.527767,  789.209982
 123.529434,  788.273615
 123.531101,  787.337249
 123.532767,  786.400882
 123.534434,  785.464515
 123.536101,  784.528149
 123.537767,  783.591782
 123.539434,  782.655415
 123.541101,  781.719049
 123.542767,  780.782520
 123.544434,  779.845960
 123.546101,  778.909400
 123.547767,  777.972840
 123.549434,  777.036279
 123.551101,  776.099719
 123.552767,  775.163159
 123.554434,  774.226599
 123.556101,  773.290039
 123.557767,  772.353479
 123.559434,  771.416854
 123.561101,  770.480218
 123.562767,  769.543581
 123.564434,  768.606944
 123.566101,  767.670308
 123.567767,  766.733671
 123.569434,  765.797034
 123.571101,  764.860398
 123.572767,  763.923761
 123.574434,  762.987124
 123.576101,  762.049951
 123.577767,  761.112674
 123.579434,  760.175397
 123.581101,  759.238120
 123.582767,  758.300842
 123.584434,  757.363565
 123.586101,  756.426288
 123.587767,  755.489011
 123.589434,  754.551733
 123.591101,  753.614456
 123.592767,  752.677625
 123.594434,  751.740880
 123.596101,  750.804136
 123.597767,  749.867392
 123.599434,  748.930647
 123.601101,  747.993903
 123.602767,  747.057158
 123.604434,  746.120414
 123.606101,  745.183670
 123.607767,  744.246925
 123.609434,  743.309827
 123.611101,  742.372660
 123.612767,  741.435493
 123.614434,  740.498325
 123.616101,  739.561158
 123.617767,  738.623991
 123.619434,  737.686824
 123.621101,  736.749657
 123.622767,  735.812490
 123.624434,  734.875322
 123.626101,  733.938149
 123.627767,  733.000974
 123.629434,  732.063799
 123.631101,  731.126624
 123.632767,  730.189449
 123.634434,  729.252273
 123.636101,  728.315098
 123.637767,  727.377923
 123.639434,  726.440748
 123.641101,  725.503573
 123.642767,  724.566688
 123.644434,  723.629859
 123.646101,  722.693030
 123.647767,  721.756201
 123.649434,  720.819372
 123.651101,  719.882543
 123.652767,  718.945714
 123.654434,  718.008885
 123.656101,  717.072056
 123.657767,  716.135227
 123.659434,  715.197913
 123.661101,  714.260503
 123.662767,  713.323093
 123.664434,  712.385684
 123.666101,  711.448274
 123.667767,  710.510864
 123.669434,  709.573455
 123.671101,  708.636045
 123.672767,  707.698635
 123.674434,  706.761226
 123.676101,  705.823705
 123.677767,  704.886162
 123.679434,  703.948619
 123.681101,  703.011076
 123.682767,  702.073534
 123.684434,  701.135991
 123.686101,  700.198448
 123.687767,  699.260905
 123.689434,  698.323363
 123.691101,  697.385820
 123.692767,  696.449284
 123.694434,  695.512944
 123.696101,  694.576604
 123.697767,  693.640264
 123.699434,  692.703923
 123.701101,  691.767583
 123.702767,  690.831243
 123.704434,  689.894903
 123.706101,  688.958563
 123.707767,  688.022223
 123.709434,  687.086500
 123.711101,  686.150897
 123.712767,  685.215293
 123.714434,  684.279690
 123.716101,  683.344087
 123.717767,  682.408484
 123.719434,  681.472880
 123.721101,  680.537277
 123.722767,  679.601674
 123.724434,  678.666071
 123.726101,  677.730910
 123.727767,  676.795835
 123.729434,  675.860761
 123.731101,  674.925686
 123.732767,  673.990611
 123.734434,  673.055537
 123.736101,  672.120462
 123.737767,  671.185387
 123.739434,  670.250313
 123.741101,  669.315238
 123.742767,  668.379747
 123.744434,  667.444175
 123.746101,  666.508603
 123.747767,  665.573031
 123.749434,  664.637460
 123.751101,  663.701888
 123.752767,  662.766316
 123.754434,  661.830744
 123.756101,  660.895172
 123.757767,  659.959600
 123.759434,  659.023909
 123.761101,  658.088196
 123.762767,  657.152482
 123.764434,  656.216769
 123.766101,  655.281055
 123.767767,  654.345341
 123.769434,  653.409628
 123.771101,  652.473914
 123.772767,  651.538200
 123.774434,  650.602487
 123.776101,  649.666756
 123.777767,  648.731021
 123.779434,  647.795287
 123.781101,  646.859552
 123.782767,  645.923818
 123.784434,  644.988083
 123.786101,  644.052349
 123.787767,  643.116614
 123.789434,  642.180880
 123.791101,  641.245145
 123.792767,  640.308919
 123.794434,  639.372597
 123.796101,  638.436275
 123.797767,  637.499953
 123.799434,  636.563631
 123.801101,  635.627309
 123.802767,  634.690987
 123.804434,  633.754665
 123.806101,  632.818343
 123.807767,  631.882021
 123.809434,  630.946190
 123.811101,  630.010455
 123.812767,  629.074720
 123.814434,  628.138985
 123.816101,  627.203250
 123.817767,  626.267515
 123.819434,  625.331780
 123.821101,  624.396045
 123.822767,  623.460310
 123.824434,  622.524575
 123.826101,  621.588523
 123.827767,  620.652408
 123.829434,  619.716294
 123.831101,  618.780180
 123.832767,  617.844065
 123.834434,  616.907951
 123.836101,  615.971836
 123.837767,  615.035722
 123.839434,  614.099608
 123.841101,  613.163493
 123.842767,  612.227402
 123.844434,  611.291316
 123.846101,  610.355229
 123.847767,  609.419143
 123.849434,  608.483056
 123.851101,  607.546970
 123.852767,  606.610883
 123.854434,  605.674797
 123.856101,  604.738710
 123.857767,  603.802624
 123.859434,  602.866849
 123.861101,  601.931134
 123.862767,  600.995420
 123.864434,  600.059706
 123.866101,  599.123991
 123.867767,  598.188277
 123.869434,  597.252563
 123.871101,  596.316848
 123.872767,  595.381134
 123.874434,  594.445420
 123.876101,  593.509228
 123.877767,  592.572943
 123.879434,  591.636658
 123.881101,  590.700372
 123.882767,  589.764087
 123.884434,  588.827802
 123.886101,  587.891517
 123.887767,  586.955232
 123.889434,  586.018947
 123.891101,  585.082662
 123.892767,  584.146265
 123.894434,  583.209846
 123.896101,  582.273427
 123.897767,  581.337008
 123.899434,  580.400589
 123.901101,  579.464170
 123.902767,  578.527752
 123.904434,  577.591333
 123.906101,  576.654914
 123.907767,  575.718495
 123.909434,  574.783076
 123.911101,  573.847853
 123.912767,  572.912630
 123.914434,  571.977407
 123.916101,  571.042183
 123.917767,  570.106960
 123.919434,  569.171737
 123.921101,  568.236513
 123.922767,  567.301290
 123.924434,  566.366067
 123.926101,  565.431443
 123.927767,  564.496937
 123.929434,  563.562431
 123.931101,  562.627924
 123.932767,  561.693418
 123.934434,  560.758912
 123.936101,  559.824406
 123.937767,  558.889899
 123.939434,  557.955393
 123.941101,  557.020887
 123.942767,  556.086798
 123.944434,  555.152791
 123.946101,  554.218784
 123.947767,  553.284777
 123.949434,  552.350770
 123.951101,  551.416762
 123.952767,  550.482755
 123.954434,  549.548748
 123.956101,  548.614741
 123.957767,  547.680734
 123.959434,  546.746277
 123.961101,  545.811732
 123.962767,  544.877187
 123.964434,  543.942643
 123.966101,  543.008098
 123.967767,  542.073553
 123.969434,  541.139009
 123.971101,  540.204464
 123.972767,  539.269919
 123.974434,  538.335375
 123.976101,  537.400676
 123.977767,  536.465947
 123.979434,  535.531218
 123.981101,  534.596488
 123.982767,  533.661759
 123.984434,  532.727030
 123.986101,  531.792301
 123.987767,  530.857572
 123.989434,  529.922843
 123.991101,  528.988114
 123.992767,  528.053331
 123.994434,  527.118538
 123.996101,  526.183745
 123.997767,  525.248951
 123.999434,  524.314158
 124.001101,  523.379365
 124.002767,  522.444571
 124.004434,  521.509778
 124.006101,  520.574985
 124.007767,  519.640191
 124.009434,  518.704869
 124.011101,  517.769444
 124.012767,  516.834019
 124.014434,  515.898594
 124.016101,  514.963169
 124.017767,  514.027744
 124.019434,  513.092319
 124.021101,  512.156894
 124.022767,  511.221469
 124.024434,  510.286044
 124.026101,  509.351080
 124.027767,  508.416207
 124.029434,  507.481334
 124.031101,  506.546460
 124.032767,  505.611587
 124.034434,  504.676713
 124.036101,  503.741840
 124.037767,  502.806966
 124.039434,  501.872093
 124.041101,  500.937220
 124.042767,  500.002001
 124.044434,  499.066715
 124.046101,  498.131429
 124.047767,  497.196143
 124.049434,  496.260857
 124.051101,  495.325570
 124.052767,  494.390284
 124.054434,  493.454998
 124.056101,  492.519712
 124.057767,  491.584426
 124.059434,  490.649143
 124.061101,  489.713861
 124.062767,  488.778579
 124.064434,  487.843297
 124.066101,  486.908015
 124.067767,  485.972733
 124.069434,  485.037451
 124.071101,  484.102169
 124.072767,  483.166887
 124.074434,  482.231605
 124.076101,  481.296623
 124.077767,  480.361700
 124.079434,  479.426777
 124.081101,  478.491853
 124.082767,  477.556930
 124.084434,  476.622006
 124.086101,  475.687083
 124.087767,  474.752160
 124.089434,  473.817236
 124.091101,  472.882313
 124.092767,  471.946905
 124.094434,  471.011403
 124.096101,  470.075901
 124.097767,  469.140399
 124.099434,  468.204897
 124.101101,  467.269394
 124.102767,  466.333892
 124.104434,  465.398390
 124.106101,  464.462888
 124.107767,  463.527386
 124.109434,  462.591774
 124.111101,  461.656141
 124.112767,  460.720508
 124.114434,  459.784875
 124.116101,  458.849243
 124.117767,  457.913610
 124.119434,  456.977977
 124.121101,  456.042344
 124.122767,  455.106711
 124.124434,  454.171078
 124.126101,  453.236460
 124.127767,  452.302040
 124.129434,  451.367620
 124.131101,  450.433200
 124.132767,  449.498780
 124.134434,  448.564359
 124.136101,  447.629939
 124.137767,  446.695519
 124.139434,  445.761099
 124.141101,  444.826679
 124.142767,  443.892878
 124.144434,  442.959198
 124.146101,  442.025517
 124.147767,  441.091837
 124.149434,  440.158157
 124.151101,  439.224476
 124.152767,  438.290796
 124.154434,  437.357116
 124.156101,  436.423435
 124.157767,  435.489755
 124.159434,  434.556516
 124.161101,  433.623362
 124.162767,  432.690209
 124.164434,  431.757055
 124.166101,  430.823902
 124.167767,  429.890749
 124.169434,  428.957595
 124.171101,  428.024442
 124.172767,  427.091288
 124.174434,  426.158135
 124.176101,  425.224555
 124.177767,  424.290891
 124.179434,  423.357228
 124.181101,  422.423564
 124.182767,  421.489901
 124.184434,  420.556238
 124.186101,  419.622574
 124.187767,  418.688911
 124.189434,  417.755247
 124.191101,  416.821584
 124.192767,  415.887792
 124.194434,  414.953975
 124.196101,  414.020159
 124.197767,  413.086342
 124.199434,  412.152525
 124.201101,  411.218708
 124.202767,  410.284891
 124.204434,  409.351075
 124.206101,  408.417258
 124.207767,  407.483441
 124.209434,  406.549597
 124.211101,  405.615747
 124.212767,  404.681898
 124.214434,  403.748048
 124.216101,  402.814198
 124.217767,  401.880349
 124.219434,  400.946499
 124.221101,  400.012649
 124.222767,  399.078800
 124.224434,  398.144950
 124.226101,  397.210594
 124.227767,  396.276140
 124.229434,  395.341686
 124.231101,  394.407231
 124.232767,  393.472777
 124.234434,  392.538322
 124.236101,  391.603868
 124.237767,  390.669414
 124.239434,  389.734959
 124.241101,  388.800505
 124.242767,  387.866535
 124.244434,  386.932661
 124.246101,  385.998786
 124.247767,  385.064911
 124.249434,  384.131037
 124.251101,  383.197162
 124.252767,  382.263287
 124.254434,  381.329412
 124.256101,  380.395538
 124.257767,  379.461663
 124.259434,  378.527459
 124.261101,  377.593190
 124.262767,  376.658921
 124.264434,  375.724653
 124.266101,  374.790384
 124.267767,  373.856115
 124.269434,  372.921847
 124.271101,  371.987578
 124.272767,  371.053309
 124.274434,  370.119041
 124.276101,  369.184787
 124.277767,  368.250537
 124.279434,  367.316286
 124.281101,  366.382036
 124.282767,  365.447785
 124.284434,  364.513535
 124.286101,  363.579284
 124.287767,  362.645034
 124.289434,  361.710783
 124.291101,  360.776533
 124.292767,  359.842589
 124.294434,  358.908706
 124.296101,  357.974823
 124.297767,  357.040940
 124.299434,  356.107056
 124.301101,  355.173173
 124.302767,  354.239290
 124.304434,  353.305407
 124.306101,  352.371523
 124.307767,  351.437640
 124.309434,  350.503270
 124.311101,  349.568806
 124.312767,  348.634341
 124.314434,  347.699877
 124.316101,  346.765412
 124.317767,  345.830948
 124.319434,  344.896483
 124.321101,  343.962019
 124.322767,  343.027554
 124.324434,  342.093090
 124.326101,  341.158510
 124.327767,  340.223907
 124.329434,  339.289304
 124.331101,  338.354701
 124.332767,  337.420098
 124.334434,  336.485496
 124.336101,  335.550893
 124.337767,  334.616290
 124.339434,  333.681687
 124.341101,  332.747085
 124.342767,  331.813490
 124.344434,  330.880092
 124.346101,  329.946694
 124.347767,  329.013296
 124.349434,  328.079898
 124.351101,  327.146500
 124.352767,  326.213102
 124.354434,  325.279704
 124.356101,  324.346306
 124.357767,  323.412908
 124.359434,  322.480117
 124.361101,  321.547443
 124.362767,  320.614770
 124.364434,  319.682097
 124.366101,  318.749423
 124.367767,  317.816750
 124.369434,  316.884077
 124.371101,  315.951403
 124.372767,  315.018730
 124.374434,  314.086057
 124.376101,  313.153808
 124.377767,  312.221642
 124.379434,  311.289475
 124.381101,  310.357309
 124.382767,  309.425143
 124.384434,  308.492977
 124.386101,  307.560811
 124.387767,  306.628645
 124.389434,  305.696479
 124.391101,  304.764312
 124.392767,  303.831698
 124.394434,  302.898995
 124.396101,  301.966293
 124.397767,  301.033590
 124.399434,  300.100888
 124.401101,  299.168185
 124.402767,  298.235483
 124.404434,  297.302780
 124.406101,  296.370078
 124.407767,  295.437376
 124.409434,  294.504523
 124.411101,  293.571642
 124.412767,  292.638761
 124.414434,  291.705879
 124.416101,  290.772998
 124.417767,  289.840116
 124.419434,  288.907235
 124.421101,  287.974354
 124.422767,  287.041472
 124.424434,  286.108591
 124.426101,  285.175662
 124.427767,  284.242723
 124.429434,  283.309785
 124.431101,  282.376846
 124.432767,  281.443908
 124.434434,  280.510969
 124.436101,  279.578031
 124.437767,  278.645092
 124.439434,  277.712154
 124.441101,  276.779216
 124.442767,  275.845751
 124.444434,  274.912183
 124.446101,  273.978615
 124.447767,  273.045048
 124.449434,  272.111480
 124.451101,  271.177912
 124.452767,  270.244345
 124.454434,  269.310777
 124.456101,  268.377210
 124.457767,  267.443642
 124.459434,  266.510546
 124.461101,  265.577542
 124.462767,  264.644538
 124.464434,  263.711534
 124.466101,  262.778530
 124.467767,  261.845526
 124.469434,  260.912522
 124.471101,  259.979518
 124.472767,  259.046515
 124.474434,  258.113511
 124.476101,  257.180164
 124.477767,  256.246750
 124.479434,  255.313337
 124.481101,  254.379923
 124.482767,  253.446510
 124.484434,  252.513096
 124.486101,  251.579683
 124.487767,  250.646269
 124.489434,  249.712856
 124.491101,  248.779442
 124.492767,  247.846036
 124.494434,  246.912632
 124.496101,  245.979228
 124.497767,  245.045823
 124.499434,  244.112419
 124.501101,  243.179015
 124.502767,  242.245610
 124.504434,  241.312206
 124.506101,  240.378802
 124.507767,  239.445398
 124.509434,  238.512299
 124.511101,  237.579260
 124.512767,  236.646221
 124.514434,  235.713181
 124.516101,  234.780142
 124.517767,  233.847103
 124.519434,  232.914064
 124.521101,  231.981025
 124.522767,  231.047986
 124.524434,  230.114947
 124.526101,  229.181420
 124.527767,  228.247799
 124.529434,  227.314178
 124.531101,  226.380557
 124.532767,  225.446936
 124.534434,  224.513315
 124.536101,  223.579693
 124.537767,  222.646072
 124.539434,  221.712451
 124.541101,  220.778830
 124.542767,  219.845098
 124.544434,  218.911345
 124.546101,  217.977591
 124.547767,  217.043838
 124.549434,  216.110085
 124.551101,  215.176331
 124.552767,  214.242578
 124.554434,  213.308825
 124.556101,  212.375071
 124.557767,  211.441318
 124.559434,  210.508586
 124.561101,  209.576053
 124.562767,  208.643521
 124.564434,  207.710988
 124.566101,  206.778455
 124.567767,  205.845923
 124.569434,  204.913390
 124.571101,  203.980857
 124.572767,  203.048325
 124.574434,  202.115792
 124.576101,  201.183880
 124.577767,  200.252090
 124.579434,  199.320299
 124.581101,  198.388508
 124.582767,  197.456718
 124.584434,  196.524927
 124.586101,  195.593136
 124.587767,  194.661346
 124.589434,  193.729555
 124.591101,  192.797765
 124.592767,  191.866414
 124.594434,  190.935150
 124.596101,  190.003885
 124.597767,  189.072620
 124.599434,  188.141356
 124.601101,  187.210091
 124.602767,  186.278827
 124.604434,  185.347562
 124.606101,  184.416298
 124.607767,  183.485033
 124.609434,  182.553333
 124.611101,  181.621548
 124.612767,  180.689762
 124.614434,  179.757977
 124.616101,  178.826192
 124.617767,  177.894407
 124.619434,  176.962622
 124.621101,  176.030836
 124.622767,  175.099051
 124.624434,  174.167266
 124.626101,  173.235345
 124.627767,  172.303399
 124.629434,  171.371452
 124.631101,  170.439505
 124.632767,  169.507558
 124.634434,  168.575611
 124.636101,  167.643664
 124.637767,  166.711717
 124.639434,  165.779770
 124.641101,  164.847823
 124.642767,  163.915842
 124.644434,  162.983855
 124.646101,  162.051868
 124.647767,  161.119880
 124.649434,  160.187893
 124.651101,  159.255905
 124.652767,  158.323918
 124.654434,  157.391931
 124.656101,  156.459943
 124.657767,  155.527956
 124.659434,  154.595452
 124.661101,  153.662848
 124.662767,  152.730243
 124.664434,  151.797638
 124.666101,  150.865034
 124.667767,  149.932429
 124.669434,  148.999825
 124.671101,  148.067220
 124.672767,  147.134616
 124.674434,  146.202011
 124.676101,  145.269890
 124.677767,  144.337863
 124.679434,  143.405837
 124.681101,  142.473810
 124.682767,  141.541783
 124.684434,  140.609756
 124.686101,  139.677729
 124.687767,  138.745703
 124.689434,  137.813676
 124.691101,  136.881649
 124.692767,  135.949285
 124.694434,  135.016855
 124.696101,  134.084424
 124.697767,  133.151994
 124.699434,  132.219564
 124.701101,  131.287134
 124.702767,  130.354704
 124.704434,  129.422274
 124.706101,  128.489844
 124.707767,  127.557414
 124.709434,  126.624995
 124.711101,  125.692578
 124.712767,  124.760161
 124.714434,  123.827745
 124.716101,  122.895328
 124.717767,  121.962911
 124.719434,  121.030494
 124.721101,  120.098078
 124.722767,  119.165661
 124.724434,  118.233244
 124.726101,  117.301134
 124.727767,  116.369084
 124.729434,  115.437034
 124.731101,  114.504984
 124.732767,  113.572934
 124.734434,  112.640884
 124.736101,  111.708834
 124.737767,  110.776784
 124.739434,  109.844733
 124.741101,  108.912683
 124.742767,  107.980141
 124.744434,  107.047502
 124.746101,  106.114864
 124.747767,  105.182225
 124.749434,  104.249587
 124.751101,  103.316948
 124.752767,  102.384309
 124.754434,  101.451671
 124.756101,  100.519032
 124.757767,   99.586394
 124.759434,   98.653638
 124.761101,   97.720859
 124.762767,   96.788080
 124.764434,   95.855301
 124.766101,   94.922522
 124.767767,   93.989743
 124.769434,   93.056964
 124.771101,   92.124185
 124.772767,   91.191406
 124.774434,   90.258628
 124.776101,   89.326866
 124.777767,   88.395302
 124.779434,   87.463739
 124.781101,   86.532175
 124.782767,   85.600611
 124.784434,   84.669048
 124.786101,   83.737484
 124.787767,   82.805921
 124.789434,   81.874357
 124.791101,   80.942793
 124.792767,   80.011843
 124.794434,   79.081012
 124.796101,   78.150180
 124.797767,   77.219349
 124.799434,   76.288518
 124.801101,   75.357687
 124.802767,   74.426856
 124.804434,   73.496025
 124.806101,   72.565194
 124.807767,   71.634363
 124.809434,   70.703962
 124.811101,   69.773645
 124.812767,   68.843328
 124.814434,   67.913011
 124.816101,   66.982694
 124.817767,   66.052377
 124.819434,   65.122061
 124.821101,   64.191744
 124.822767,   63.261427
 124.824434,   62.331110
 124.826101,   61.400343
 124.827767,   60.469489
 124.829434,   59.538635
 124.831101,   58.607781
 124.832767,   57.676927
 124.834434,   56.746073
 124.836101,   55.815219
 124.837767,   54.884365
 124.839434,   53.953511
 124.841101,   53.022656
 124.842767,   52.091574
 124.844434,   51.160447
 124.846101,   50.229320
 124.846511,   50.000000
 124.848178,   49.069012
 124.849844,   48.138025
 124.851511,   47.207037
 124.853178,   46.276050
 124.854844,   45.345062
 124.856511,   44.414075
 124.858178,   43.483689
 124.859844,   42.559941
 124.861511,   41.636194
 124.863178,   40.712446
 124.864844,   39.788698
 124.866511,   38.864950
 124.868178,   37.941202
 124.869844,   37.017455
 124.871511,   36.093707
 124.873178,   35.169959
 124.874844,   34.247499
 124.876511,   33.339230
 124.878178,   32.430962
 124.879844,   31.522693
 124.881511,   30.614425
 124.883178,   29.706156
 124.884844,   28.797888
 124.886511,   27.889619
 124.888178,   26.981351
 124.889844,   26.073082
 124.891511,   25.165938
 124.893178,   24.271190
 124.894844,   23.376443
 124.896511,   22.481696
 124.898178,   21.586948
 124.899844,   20.692201
 124.901134,   20.000000
 124.902801,   19.115197
 124.904467,   18.230395
 124.906134,   17.345592
 124.907801,   16.460790
 124.909467,   15.705490
 124.911134,   14.968728
 124.912801,   14.231966
 124.914467,   13.495204
 124.916134,   12.758442
 124.917801,   12.021680
 124.919467,   11.284918
 124.921134,   10.548156
 124.922801,    9.811394
 124.924467,    9.074632
 124.926134,    8.589107
 124.927801,    8.139546
 124.929467,    7.689985
 124.931134,    7.240423
 124.932801,    6.790862
 124.934467,    6.341301
 124.936134,    5.891739
 124.937801,    5.442178
 124.939467,    4.992617
 124.941134,    4.543056
 124.942801,    4.311336
 124.944467,    4.110798
 124.946134,    3.910261
 124.947801,    3.709724
 124.949467,    3.509187
 124.951134,    3.308650
 124.952801,    3.108113
 124.954467,    2.907576
 124.956134,    2.707039
 124.957801,    2.506502
 124.959467,    2.368230
 124.961134,    2.238871
 124.962081,    2.165354
 124.963748,    2.050053
 124.965414,    1.934752
 124.967081,    1.819451
 124.968748,    1.704150
 124.970414,    1.588848
 124.972081,    1.473547
 124.973748,    1.358246
 124.975414,    1.294035
 124.977081,    1.294035
 124.978748,    1.294035
 124.980414,    1.294035
 124.982081,    1.294035
 124.983748,    1.294035
 124.985414,    1.294035
 124.987081,    1.294035
 124.988748,    1.294035
 124.990414,    1.294035
 124.992081,    1.294035
 124.993748,    1.294035
 124.995414,    1.294035
 124.997081,    1.294035
 124.998748,    1.294035
 125.000414,    1.294035
 125.002081,    1.294035
 125.003748,    1.294035
 125.005414,    1.294035
 125.007081,    1.294035
 125.008748,    1.294035
 125.010414,    1.294035
 125.012081,    1.294035
 125.013748,    1.294035
 125.015414,    1.294035
 125.017081,    1.294035
 125.018748,    1.294035
 125.020414,    1.294035
 125.022081,    1.294035
 125.023748,    1.294035
 125.025414,    1.294035
 125.027081,    1.294035
 125.028748,    1.294035
 125.030414,    1.294035
 125.032081,    1.294035
 125.033748,    1.294035
 125.035414,    1.294035
 125.037081,    1.294035
 125.038748,    1.294035
 125.040414,    1.294035
 125.042081,    1.294035
 125.043748,    1.294035
 125.045414,    1.294035
 125.047081,    1.294035
 125.048748,    1.294035
 125.050414,    1.294035
 125.052081,    1.294035
 125.053748,    1.294035
 125.055414,    1.294035
 125.057081,    1.294035
 125.058748,    1.294035
 125.060414,    1.294035
 125.062081,    1.294035
 125.063748,    1.294035
 125.065414,    1.294035
 125.067081,    1.294035
 125.068748,    1.294035
 125.070414,    1.294035
 125.072081,    1.294035
 125.073748,    1.294035
 125.075414,    1.294035
 125.077081,    1.294035
 125.078748,    1.294035
 125.080414,    1.294035
 125.082081,    1.294035
 125.083748,    1.294035
 125.085414,    1.294035
 125.087081,    1.294035
 125.088748,    1.294035
 125.090414,    1.294035
 125.092081,    1.294035
 125.093748,    1.294035
 125.095414,    1.294035
 125.097081,    1.294035
 125.098748,    1.294035
 125.100414,    1.294035
 125.102081,    1.294035
 125.103748,    1.294035
 125.105414,    1.294035
 125.107081,    1.294035
 125.108748,    1.294035
 125.110414,    1.294035
 125.112081,    1.294035
 125.113748,    1.294035
 125.115414,    1.294035
 125.117081,    1.294035
 125.118748,    1.294035
 125.120414,    1.294035
 125.122081,    1.294035
 125.123748,    1.294035
 125.125414,    1.294035
 125.127081,    1.294035
 125.128748,    1.294035
 125.130414,    1.294035
 125.132081,    1.294035
 125.133748,    1.294035
 125.135414,    1.294035
 125.137081,    1.294035
 125.138748,    1.294035
 125.140414,    1.294035
 125.142081,    1.294035
 125.143748,    1.294035
 125.145414,    1.294035
 125.147081,    1.294035
 125.148748,    1.294035
 125.150414,    1.294035
 125.152081,    1.294035
 125.153748,    1.294035
 125.155414,    1.294035
 125.157081,    1.294035
 125.158748,    1.294035
 125.160050,    1.294035
