Speed, Forces
 149.079234, 2984.791326
 150.379656, 2964.570505
 151.680078, 2945.263902
 152.980499, 2926.795937
 154.280921, 2909.409819
 155.581343, 2893.189791
 156.881765, 2877.637586
 158.182186, 2863.091715
 159.482608, 2849.596482
 160.783030, 2836.585641
 162.083452, 2824.873291
 163.383873, 2813.710392
 164.684295, 2803.367446
 165.984717, 2793.938013
 167.285139, 2784.970200
 168.585560, 2777.153621
 169.885982, 2769.564623
 171.186404, 2763.234151
 172.486826, 2757.025605
 173.787247, 2752.048357
 175.087669, 2747.219853
 176.388091, 2743.456809
 177.688513, 2740.005896
 178.988934, 2737.311901
 180.289356, 2735.234078
 181.589778, 2733.457840
 182.890200, 2732.746563
 184.190621, 2732.030210
 185.491043, 2732.377334
 186.791465, 2733.028563
 188.091887, 2733.952193
 189.392308, 2735.960027
 190.692730, 2737.981696
 191.993152, 2740.640178
 193.293574, 2744.014374
 194.593995, 2747.411347
 195.894417, 2751.587724
 197.194839, 2756.330420
 198.495261, 2761.104495
 199.795682, 2766.569537
 201.096104, 2772.679803
 202.396526, 2778.829710
 203.696948, 2785.341916
 204.997369, 2792.815754
 206.297791, 2800.337154
 207.598213, 2807.906115
 208.898635, 2816.473094
 210.199056, 2825.358580
 211.499478, 2834.299208
 212.799900, 2843.368237
 214.100322, 2853.607335
 215.400743, 2863.908813
 216.701165, 2874.272672
 218.001587, 2884.778356
 219.302009, 2896.426801
 220.602430, 2908.144525
 221.902852, 2919.931528
 223.203274, 2931.787809
 224.503696, 2944.580930
 225.804117, 2957.711063
 227.104539, 2970.917030
 228.404961, 2984.198834
 229.705383, 2997.686434
 231.005805, 3012.221046
 232.306226, 3026.837711
 233.606648, 3041.536427
 234.907070, 3056.317195
 236.207492, 3071.254372
 237.507913, 3087.269373
 238.808335, 3103.372302
 240.108757, 3119.563158
 241.409179, 3135.841941
 242.709600, 3152.208651
 244.010022, 3169.245448
 245.310444, 3186.829259
 246.610866, 3204.506532
 247.911287, 3222.277267
 249.211709, 3240.141464
 250.512131, 3258.099122
 251.812553, 3276.671871
 253.112974, 3295.824726
 254.413396, 3315.076236
 255.713818, 3334.426401
 257.014240, 3353.875222
 258.314661, 3373.422698
 259.615083, 3393.068829
 260.915505, 3413.640776
 262.215927, 3434.460280
 263.516348, 3455.383291
 264.816770, 3476.409811
 266.117192, 3497.539838
 267.417614, 3518.773374
 268.718035, 3540.110417
 270.018457, 3561.963899
 271.318879, 3584.447036
 272.619301, 3607.038193
 273.919722, 3629.737370
 275.220144, 3652.544566
 276.520566, 3675.459782
 277.820988, 3698.483018
