Speed, Forces
 130.806403, 4294.076253
 132.558663, 3880.546133
 134.310923, 3694.674528
 136.063183, 3552.907300
 137.815443, 3452.607159
 139.567703, 3355.751808
 141.319963, 3282.041176
 143.072222, 3207.410887
 144.824482, 3136.402466
 146.576742, 3073.945329
 148.329002, 3010.737056
 150.081262, 2948.915827
 151.833522, 2898.213772
 153.585782, 2846.923185
 155.338041, 2795.044066
 157.090301, 2749.676028
 158.842561, 2709.006165
 160.594821, 2667.885167
 162.347081, 2626.313034
 164.099341, 2589.853473
 165.851601, 2558.434653
 167.603860, 2526.682122
 169.356120, 2494.595882
 171.108380, 2462.175931
 172.860640, 2438.685319
 174.612900, 2417.073058
 176.365160, 2395.242823
 178.117420, 2373.194612
 179.869679, 2350.928427
 181.621939, 2332.020182
 183.374199, 2320.385130
 185.126459, 2308.638364
 186.878719, 2296.779883
 188.630979, 2284.809689
 190.383239, 2272.727780
 192.135498, 2260.534157
 193.887758, 2255.445012
 195.640018, 2252.293488
 197.392278, 2249.113610
 199.144538, 2245.905378
 200.896798, 2242.668792
 202.649058, 2239.403853
 204.401317, 2236.110559
 206.153577, 2232.788912
 207.905837, 2236.178721
 209.658097, 2241.188404
 211.410357, 2246.240133
 213.162617, 2251.333906
 214.914877, 2256.469725
 216.667136, 2261.647589
 218.419396, 2266.867498
 220.171656, 2272.129452
 221.923916, 2277.433452
 223.676176, 2282.779496
 225.428436, 2295.010400
 227.180696, 2309.230274
 228.932955, 2323.560253
 230.685215, 2338.000334
 232.437475, 2352.550519
 234.189735, 2367.210808
 235.941995, 2381.981200
 237.694255, 2396.861696
 239.446515, 2411.852295
 241.198774, 2426.952997
 242.951034, 2442.163803
 244.703294, 2457.484712
 246.455554, 2472.915725
 248.207814, 2493.339993
 249.960074, 2516.546527
 251.712334, 2539.916316
 253.464593, 2563.449358
 255.216853, 2587.145654
 256.969113, 2611.005204
 258.721373, 2635.028007
 260.473633, 2659.214064
 262.225893, 2683.563375
 263.978153, 2708.075940
 265.730412, 2732.751758
 267.482672, 2757.590830
 269.234932, 2782.593156
 270.987192, 2807.758735
 272.739452, 2833.087568
 274.491712, 2858.579655
 276.243972, 2884.234996
 277.996231, 2910.053590
 279.748491, 2938.276585
 281.500751, 2970.341593
 283.253011, 3002.606820
 285.005271, 3035.072265
 286.757531, 3067.737929
 288.509791, 3100.603811
 290.262050, 3133.669912
 292.014310, 3166.936231
 293.766570, 3200.402768
 295.518830, 3234.069524
 297.271090, 3267.936498
 299.023350, 3302.003691
 300.775609, 3336.271102
 302.527869, 3370.738732
 304.280129, 3405.406580
