Time, Horizontal Forces
   0.000000,    0.000000
   0.100000,    0.217463
   0.200000,    2.373142
   0.300000,    4.767779
   0.400000,    7.162416
   0.500000,    9.557052
   0.600000,   11.951689
   0.700000,   14.346325
   0.800000,   16.740962
   0.900000,   19.135599
   1.000000,   21.530235
   1.100000,   23.924872
   1.200000,   29.723820
   1.300000,   35.947827
   1.400000,   42.171835
   1.500000,   48.395843
   1.600000,   54.619851
   1.700000,   60.843859
   1.800000,   67.067866
   1.900000,   73.291874
   2.000000,   79.515882
   2.100000,   85.739890
   2.200000,   95.258020
   2.300000,  105.187452
   2.400000,  115.116884
   2.500000,  125.046316
   2.600000,  134.975748
   2.700000,  144.905180
   2.800000,  154.834612
   2.900000,  164.764044
   3.000000,  174.693476
   3.100000,  184.622908
   3.200000,  197.733315
   3.300000,  211.240897
   3.400000,  224.748478
   3.500000,  238.256060
   3.600000,  251.763642
   3.700000,  265.271224
   3.800000,  278.778806
   3.900000,  292.286387
   4.000000,  305.793969
   4.100000,  319.301551
   4.200000,  335.874413
   4.300000,  352.830004
   4.400000,  369.785595
   4.500000,  386.741186
   4.600000,  403.696776
   4.700000,  420.652367
   4.800000,  437.607958
   4.900000,  454.563549
   5.000000,  471.519140
   5.100000,  488.474731
   5.200000,  508.377764
   5.300000,  528.648813
   5.400000,  548.919862
   5.500000,  569.190912
   5.600000,  589.461961
   5.700000,  609.733010
   5.800000,  630.004059
   5.900000,  650.275108
   6.000000,  670.546158
   6.100000,  690.817207
   6.200000,  713.881526
   6.300000,  737.294612
   6.400000,  760.707697
   6.500000,  784.120783
   6.600000,  807.533868
   6.700000,  830.946954
   6.800000,  854.360039
   6.900000,  877.773125
   7.000000,  901.186210
   7.100000,  924.599296
   7.200000,  950.598063
   7.300000,  976.919677
   7.400000, 1003.241292
   7.500000, 1029.562906
   7.600000, 1055.884520
   7.700000, 1082.206134
   7.800000, 1108.527749
   7.900000, 1134.849363
   8.000000, 1161.170977
   8.100000, 1187.492591
   8.200000, 1216.241359
   8.300000, 1245.293179
   8.400000, 1274.344999
   8.500000, 1303.396819
   8.600000, 1332.448640
   8.700000, 1361.500460
   8.800000, 1390.552280
   8.900000, 1419.604101
   9.000000, 1448.655921
   9.100000, 1477.707741
   9.200000, 1509.031903
   9.300000, 1540.639788
   9.400000, 1572.247673
   9.500000, 1603.855559
   9.600000, 1635.463444
   9.700000, 1667.071329
   9.800000, 1698.679214
   9.900000, 1730.287099
  10.000000, 1761.894985
  10.100000, 1793.502870
  10.200000, 1827.231036
  10.300000, 1861.223940
  10.400000, 1895.216844
  10.500000, 1929.209748
  10.600000, 1963.202652
  10.700000, 1997.195555
  10.800000, 2031.188459
  10.900000, 2065.181363
  11.000000, 2099.174267
  11.100000, 2133.167170
  11.200000, 2169.131354
  11.300000, 2205.341671
  11.400000, 2241.551988
  11.500000, 2277.762305
  11.600000, 2313.972622
  11.700000, 2350.182939
  11.800000, 2386.393256
  11.900000, 2422.603572
  12.000000, 2458.813889
  12.100000, 2495.024206
  12.200000, 2533.060139
  12.300000, 2571.324017
  12.400000, 2609.587895
  12.500000, 2647.851773
  12.600000, 2686.115651
  12.700000, 2724.379529
  12.800000, 2762.643407
  12.900000, 2800.907285
  13.000000, 2839.171163
  13.100000, 2877.435041
  13.200000, 2917.294875
  13.300000, 2957.353978
  13.400000, 2997.413082
  13.500000, 3037.472185
  13.600000, 3077.531289
  13.700000, 3117.590393
  13.800000, 3157.649496
  13.900000, 3197.708600
  14.000000, 3237.767703
  14.100000, 3277.826807
  14.200000, 3319.192047
  14.300000, 3360.720371
  14.400000, 3402.248695
  14.500000, 3443.777019
  14.600000, 3485.305344
  14.700000, 3526.833668
  14.800000, 3568.361992
  14.900000, 3609.890316
  15.000000, 3651.418640
  15.100000, 3692.946964
  15.200000, 3735.617748
  15.300000, 3778.431180
  15.400000, 3821.244612
  15.500000, 3864.058044
  15.600000, 3906.871476
  15.700000, 3949.684908
  15.800000, 3992.498339
  15.900000, 4035.311771
  16.000000, 4078.125203
  16.100000, 4120.938635
  16.200000, 4164.741270
  16.300000, 4208.667416
  16.400000, 4252.593562
  16.500000, 4296.519709
  16.600000, 4340.445855
  16.700000, 4384.372001
  16.800000, 4428.298147
  16.900000, 4472.224293
  17.000000, 4516.150440
  17.100000, 4560.076586
  17.200000, 4604.846917
  17.300000, 4649.722653
  17.400000, 4694.598388
  17.500000, 4739.474124
  17.600000, 4784.349859
  17.700000, 4829.225595
  17.800000, 4874.101330
  17.900000, 4918.977066
  18.000000, 4963.852801
  18.100000, 5008.728537
  18.200000, 5054.311555
  18.300000, 5099.982883
  18.400000, 5145.654211
  18.500000, 5191.325539
  18.600000, 5236.996868
  18.700000, 5282.668196
  18.800000, 5328.339524
  18.900000, 5374.010853
  19.000000, 5419.682181
  19.100000, 5465.353509
  19.200000, 5511.603182
  19.300000, 5557.925066
  19.400000, 5604.246950
  19.500000, 5650.568834
  19.600000, 5696.890718
  19.700000, 5743.212602
  19.800000, 5789.534486
  19.900000, 5835.856370
  20.000000, 5882.178254
  20.100000, 5928.500137
  20.200000, 5975.279219
  20.300000, 6022.115386
  20.400000, 6068.951554
  20.500000, 6115.787721
  20.600000, 6162.623888
  20.700000, 6209.460055
  20.800000, 6256.296222
  20.900000, 6303.132390
  21.000000, 6349.968557
  21.100000, 6396.804724
  21.200000, 6443.987480
  21.300000, 6491.213511
  21.400000, 6538.439541
  21.500000, 6585.665572
  21.600000, 6632.891603
  21.700000, 6680.117634
  21.800000, 6727.343665
  21.900000, 6774.569696
  22.000000, 6821.795726
  22.100000, 6869.021757
  22.200000, 6916.499724
  22.300000, 6964.009148
  22.400000, 7011.518571
  22.500000, 7059.027995
  22.600000, 7106.537418
  22.700000, 7154.046842
  22.800000, 7201.556265
  22.900000, 7249.065689
  23.000000, 7296.575112
  23.100000, 7344.084536
  23.200000, 7391.748757
  23.300000, 7439.432307
  23.400000, 7487.115857
  23.500000, 7534.799407
  23.600000, 7582.482957
  23.700000, 7630.166507
  23.800000, 7677.850056
  23.900000, 7725.533606
  24.000000, 7773.217156
  24.100000, 7820.900706
  24.200000, 7868.641308
  24.300000, 7916.389033
  24.400000, 7964.136759
  24.500000, 8011.884484
  24.541539, 8031.718235
  24.641539, 8190.493297
  24.741539, 8349.268359
  24.841539, 8508.043421
  24.941539, 8666.818483
  25.041539, 8825.593545
  25.141539, 8981.482757
  25.241539, 9130.776939
  25.341539, 9280.071121
  25.441539, 9429.365304
  25.541539, 9578.659486
  25.641539, 9727.953668
  25.741539, 9877.247851
  25.841539, 10026.542033
  25.941539, 10175.836215
  26.041539, 10325.130398
  26.141539, 10507.752629
  26.241539, 10766.539416
  26.341539, 11025.326204
  26.441539, 11284.112991
  26.541539, 11542.899778
  26.641539, 11801.686565
  26.741539, 12060.473352
  26.841539, 12319.260139
  26.941539, 12578.046927
  27.041539, 12836.833714
  27.141539, 13102.247612
  27.241539, 13382.806440
  27.341539, 13663.365267
  27.441539, 13943.924095
  27.541539, 14224.482923
  27.641539, 14505.041751
  27.741539, 14785.600578
  27.841539, 15066.159406
  27.941539, 15346.718234
  28.041539, 15627.277062
  28.111100, 15822.437624
  28.211100, 16838.484972
  28.311100, 17854.532320
  28.411100, 18870.579668
  28.511100, 19886.627016
  28.611100, 20902.674364
  28.711100, 21918.721712
  28.811100, 22934.769060
  28.911100, 23950.816408
  29.011100, 24966.863756
  29.111100, 25982.911104
  29.211100, 26008.318374
  29.311100, 26033.725643
  29.411100, 26059.132913
  29.511100, 26084.540183
  29.611100, 26109.947452
  29.711100, 26116.228684
  29.811100, 26122.509915
  29.911100, 26128.791146
  30.011100, 26135.072377
  30.111100, 26141.353609
  30.211100, 26123.248381
  30.311100, 26105.143153
  30.411100, 26087.037925
  30.511100, 26068.932698
  30.611100, 26050.827470
  30.711100, 26032.722242
  30.811100, 26014.617014
  30.911100, 25996.511787
