Time, Horizontal Forces
   0.000000,    0.000000
   0.100000,    0.218329
   0.200000,    2.382588
   0.300000,    4.786755
   0.400000,    7.190922
   0.500000,    9.595089
   0.600000,   11.999255
   0.700000,   14.403422
   0.800000,   16.807589
   0.900000,   19.211756
   1.000000,   21.615923
   1.100000,   24.020090
   1.200000,   29.842070
   1.300000,   36.090796
   1.400000,   42.339522
   1.500000,   48.588249
   1.600000,   54.836975
   1.700000,   61.085701
   1.800000,   67.334427
   1.900000,   73.583153
   2.000000,   79.831879
   2.100000,   86.080605
   2.200000,   95.636395
   2.300000,  105.605103
   2.400000,  115.573811
   2.500000,  125.542519
   2.600000,  135.511227
   2.700000,  145.479935
   2.800000,  155.448643
   2.900000,  165.417351
   3.000000,  175.386059
   3.100000,  185.354767
   3.200000,  198.516753
   3.300000,  212.077449
   3.400000,  225.638145
   3.500000,  239.198842
   3.600000,  252.759538
   3.700000,  266.320234
   3.800000,  279.880930
   3.900000,  293.441627
   4.000000,  307.002323
   4.100000,  320.563019
   4.200000,  337.200587
   4.300000,  354.222331
   4.400000,  371.244076
   4.500000,  388.265820
   4.600000,  405.287564
   4.700000,  422.309309
   4.800000,  439.331053
   4.900000,  456.352797
   5.000000,  473.374542
   5.100000,  490.396286
   5.200000,  510.376291
   5.300000,  530.725663
   5.400000,  551.075035
   5.500000,  571.424406
   5.600000,  591.773778
   5.700000,  612.123150
   5.800000,  632.472521
   5.900000,  652.821893
   6.000000,  673.171265
   6.100000,  693.520637
   6.200000,  716.673160
   6.300000,  740.175683
   6.400000,  763.678206
   6.500000,  787.180728
   6.600000,  810.683251
   6.700000,  834.185774
   6.800000,  857.688297
   6.900000,  881.190820
   7.000000,  904.693343
   7.100000,  928.195866
   7.200000,  954.292742
   7.300000,  980.713547
   7.400000, 1007.134352
   7.500000, 1033.555157
   7.600000, 1059.975962
   7.700000, 1086.396767
   7.800000, 1112.817572
   7.900000, 1139.238377
   8.000000, 1165.659182
   8.100000, 1192.079987
   8.200000, 1220.935583
   8.300000, 1250.095186
   8.400000, 1279.254789
   8.500000, 1308.414391
   8.600000, 1337.573994
   8.700000, 1366.733597
   8.800000, 1395.893199
   8.900000, 1425.052802
   9.000000, 1454.212405
   9.100000, 1483.372007
   9.200000, 1514.810555
   9.300000, 1546.533651
   9.400000, 1578.256746
   9.500000, 1609.979842
   9.600000, 1641.702937
   9.700000, 1673.426033
   9.800000, 1705.149129
   9.900000, 1736.872224
  10.000000, 1768.595320
  10.100000, 1800.318415
  10.200000, 1834.167362
  10.300000, 1868.281741
  10.400000, 1902.396119
  10.500000, 1936.510498
  10.600000, 1970.624877
  10.700000, 2004.739256
  10.800000, 2038.853635
  10.900000, 2072.968013
  11.000000, 2107.082392
  11.100000, 2141.196771
  11.200000, 2177.286973
  11.300000, 2213.623875
  11.400000, 2249.960777
  11.500000, 2286.297679
  11.600000, 2322.634580
  11.700000, 2358.971482
  11.800000, 2395.308384
  11.900000, 2431.645286
  12.000000, 2467.982188
  12.100000, 2504.319090
  12.200000, 2542.485139
  12.300000, 2580.879574
  12.400000, 2619.274010
  12.500000, 2657.668445
  12.600000, 2696.062880
  12.700000, 2734.457315
  12.800000, 2772.851751
  12.900000, 2811.246186
  13.000000, 2849.640621
  13.100000, 2888.035056
  13.200000, 2928.028162
  13.300000, 2968.220876
  13.400000, 3008.413591
  13.500000, 3048.606305
  13.600000, 3088.799019
  13.700000, 3128.991734
  13.800000, 3169.184448
  13.900000, 3209.377163
  14.000000, 3249.569877
  14.100000, 3289.762591
  14.200000, 3331.262350
  14.300000, 3372.925306
  14.400000, 3414.588261
  14.500000, 3456.251217
  14.600000, 3497.914172
  14.700000, 3539.577128
  14.800000, 3581.240083
  14.900000, 3622.903039
  15.000000, 3664.565994
  15.100000, 3706.228950
  15.200000, 3749.034261
  15.300000, 3791.982206
  15.400000, 3834.930152
  15.500000, 3877.878097
  15.600000, 3920.826042
  15.700000, 3963.773987
  15.800000, 4006.721932
  15.900000, 4049.669878
  16.000000, 4092.617823
  16.100000, 4135.565768
  16.200000, 4179.501909
  16.300000, 4223.561436
  16.400000, 4267.620963
  16.500000, 4311.680490
  16.600000, 4355.740017
  16.700000, 4399.799544
  16.800000, 4443.859071
  16.900000, 4487.918598
  17.000000, 4531.978125
  17.100000, 4576.037651
  17.200000, 4620.939519
  17.300000, 4665.946562
  17.400000, 4710.953604
  17.500000, 4755.960646
  17.600000, 4800.967689
  17.700000, 4845.974731
  17.800000, 4890.981773
  17.900000, 4935.988815
  18.000000, 4980.995858
  18.100000, 5026.002900
  18.200000, 5071.714610
  18.300000, 5117.514305
  18.400000, 5163.314000
  18.500000, 5209.113694
  18.600000, 5254.913389
  18.700000, 5300.713084
  18.800000, 5346.512778
  18.900000, 5392.312473
  19.000000, 5438.112168
  19.100000, 5483.911863
  19.200000, 5530.286584
  19.300000, 5576.733103
  19.400000, 5623.179622
  19.500000, 5669.626141
  19.600000, 5716.072660
  19.700000, 5762.519178
  19.800000, 5808.965697
  19.900000, 5855.412216
  20.000000, 5901.858735
  20.100000, 5948.305254
  20.200000, 5995.205017
  20.300000, 6042.161371
  20.400000, 6089.117725
  20.500000, 6136.074080
  20.600000, 6183.030434
  20.700000, 6229.986788
  20.800000, 6276.943142
  20.900000, 6323.899497
  21.000000, 6370.855851
  21.100000, 6417.812205
  21.200000, 6465.110619
  21.300000, 6512.451741
  21.400000, 6559.792863
  21.500000, 6607.133985
  21.600000, 6654.475108
  21.700000, 6701.816230
  21.800000, 6749.157352
  21.900000, 6796.498474
  22.000000, 6843.839597
  22.100000, 6891.180719
  22.200000, 6938.768630
  22.300000, 6986.387355
  22.400000, 7034.006080
  22.500000, 7081.624805
  22.600000, 7129.243530
  22.700000, 7176.862255
  22.800000, 7224.480980
  22.900000, 7272.099705
  23.000000, 7319.718430
  23.100000, 7367.337154
  23.200000, 7415.105230
  23.300000, 7462.891952
  23.400000, 7510.678675
  23.500000, 7558.465398
  23.600000, 7606.252121
  23.700000, 7654.038844
  23.800000, 7701.825567
  23.900000, 7749.612289
  24.000000, 7797.399012
  24.100000, 7845.185735
  24.200000, 7893.028906
  24.300000, 7940.879126
  24.400000, 7988.729345
  24.500000, 8036.579564
  24.600000, 8084.429784
  24.700000, 8132.280003
  24.800000, 8180.130222
  24.852132, 8205.075545
  24.952132, 8608.839717
  25.052132, 9012.603889
  25.152132, 9286.823960
  25.252132, 9374.874071
  25.352132, 9462.924182
  25.452132, 9550.974294
  25.552132, 9639.024405
  25.652132, 9727.074516
  25.752132, 9815.124627
  25.852132, 9903.174739
  25.952132, 9991.224850
  26.052132, 10079.274961
  26.152132, 10218.796382
  26.252132, 10432.288068
  26.352132, 10645.779754
  26.452132, 10859.271440
  26.552132, 11072.763126
  26.652132, 11286.254812
  26.752132, 11499.746499
  26.852132, 11713.238185
  26.952132, 11926.729871
  27.052132, 12140.221557
  27.152132, 12362.507603
  27.252132, 12597.432169
  27.352132, 12832.356735
  27.452132, 13067.281300
  27.552132, 13302.205866
  27.652132, 13537.130432
  27.752132, 13772.054997
  27.852132, 14006.979563
  27.952132, 14241.904129
  28.052132, 14476.828695
  28.152132, 14717.168167
  28.252132, 14965.289492
  28.352132, 15213.410816
  28.452132, 15461.532140
  28.552132, 15709.653465
  28.652132, 15957.774789
  28.752132, 16205.896113
  28.852132, 16454.017438
  28.952132, 16702.138762
  29.052132, 16950.260086
  29.111100, 17096.572027
  29.211100, 18072.963755
  29.311100, 19049.355484
  29.411100, 20025.747212
  29.511100, 21002.138940
  29.611100, 21978.530669
  29.711100, 22954.922397
  29.811100, 23931.314126
  29.911100, 24907.705854
  30.011100, 25884.097583
  30.111100, 26860.489311
  30.211100, 26884.061511
  30.311100, 26907.633711
  30.411100, 26931.205911
  30.511100, 26954.778112
  30.611100, 26978.350312
  30.711100, 26983.818438
  30.811100, 26989.286564
  30.911100, 26994.754691
  31.011100, 27000.222817
  31.111100, 27005.690943
  31.211100, 26987.016264
  31.311100, 26968.341584
  31.411100, 26949.666905
  31.511100, 26930.992225
  31.611100, 26912.317546
  31.711100, 26893.642866
  31.811100, 26874.968186
  31.911100, 26856.293507
