Time, Horizontal Forces
   0.000000, 5516.240617
   0.100000, 5516.169846
   0.200000, 5515.535497
   0.300000, 5514.831667
   0.400000, 5514.127838
   0.500000, 5513.424008
   0.600000, 5512.720178
   0.700000, 5512.016348
   0.800000, 5511.312519
   0.900000, 5510.608689
   1.000000, 5509.904859
   1.100000, 5509.201029
   1.200000, 5507.507351
   1.300000, 5505.690082
   1.400000, 5503.872812
   1.500000, 5502.055543
   1.600000, 5500.238273
   1.700000, 5498.421003
   1.800000, 5496.603734
   1.900000, 5494.786464
   2.000000, 5492.969194
   2.100000, 5491.151925
   2.200000, 5488.376883
   2.300000, 5485.482254
   2.400000, 5482.587625
   2.500000, 5479.692996
   2.600000, 5476.798367
   2.700000, 5473.903738
   2.800000, 5471.009109
   2.900000, 5468.114480
   3.000000, 5465.219851
   3.100000, 5462.325222
   3.200000, 5458.505776
   3.300000, 5454.570858
   3.400000, 5450.635940
   3.500000, 5446.701021
   3.600000, 5442.766103
   3.700000, 5438.831185
   3.800000, 5434.896267
   3.900000, 5430.961348
   4.000000, 5427.026430
   4.100000, 5423.091512
   4.200000, 5418.265490
   4.300000, 5413.328206
   4.400000, 5408.390922
   4.500000, 5403.453638
   4.600000, 5398.516353
   4.700000, 5393.579069
   4.800000, 5388.641785
   4.900000, 5383.704500
   5.000000, 5378.767216
   5.100000, 5373.829932
   5.200000, 5368.035897
   5.300000, 5362.134888
   5.400000, 5356.233879
   5.500000, 5350.332871
   5.600000, 5344.431862
   5.700000, 5338.530853
   5.800000, 5332.629844
   5.900000, 5326.728836
   6.000000, 5320.827827
   6.100000, 5314.926818
   6.200000, 5308.213978
   6.300000, 5301.399773
   6.400000, 5294.585568
   6.500000, 5287.771363
   6.600000, 5280.957158
   6.700000, 5274.142953
   6.800000, 5267.328748
   6.900000, 5260.514543
   7.000000, 5253.700338
   7.100000, 5246.886132
   7.200000, 5239.320562
   7.300000, 5231.661177
   7.400000, 5224.001791
   7.500000, 5216.342406
   7.600000, 5208.683021
   7.700000, 5201.023635
   7.800000, 5193.364250
   7.900000, 5185.704865
   8.000000, 5178.045479
   8.100000, 5170.386094
   8.200000, 5162.021557
   8.300000, 5153.568975
   8.400000, 5145.116393
   8.500000, 5136.663811
   8.600000, 5128.211229
   8.700000, 5119.758647
   8.800000, 5111.306065
   8.900000, 5102.853484
   9.000000, 5094.400902
   9.100000, 5085.948320
   9.200000, 5076.835724
   9.300000, 5067.640718
   9.400000, 5058.445713
   9.500000, 5049.250708
   9.600000, 5040.055703
   9.700000, 5030.860698
   9.800000, 5021.665692
   9.900000, 5012.470687
  10.000000, 5003.275682
  10.100000, 4994.080677
  10.200000, 4984.269998
  10.300000, 4974.382446
  10.400000, 4964.494894
  10.500000, 4954.607343
  10.600000, 4944.719791
  10.700000, 4934.832239
  10.800000, 4924.944688
  10.900000, 4915.057136
  11.000000, 4905.169584
  11.100000, 4895.282032
  11.200000, 4884.822259
  11.300000, 4874.291038
  11.400000, 4863.759818
  11.500000, 4853.228597
  11.600000, 4842.697376
  11.700000, 4832.166155
  11.800000, 4821.634935
  11.900000, 4811.103714
  12.000000, 4800.572493
  12.100000, 4790.041273
  12.200000, 4778.980312
  12.300000, 4767.853207
  12.400000, 4756.726103
  12.500000, 4745.598999
  12.600000, 4734.471895
  12.700000, 4723.344791
  12.800000, 4712.217687
  12.900000, 4701.090582
  13.000000, 4689.963478
  13.100000, 4678.836374
  13.200000, 4667.246271
  13.300000, 4655.598358
  13.400000, 4643.950446
  13.500000, 4632.302533
  13.600000, 4620.654621
  13.700000, 4609.006708
  13.800000, 4597.358795
  13.900000, 4585.710883
  14.000000, 4574.062970
  14.100000, 4562.415057
  14.200000, 4550.388594
  14.300000, 4538.314865
  14.400000, 4526.241136
  14.500000, 4514.167407
  14.600000, 4502.093678
  14.700000, 4490.019949
  14.800000, 4477.946220
  14.900000, 4465.872491
  15.000000, 4453.798762
  15.100000, 4441.725034
  15.200000, 4429.320455
  15.300000, 4416.874566
  15.400000, 4404.428677
  15.500000, 4391.982788
  15.600000, 4379.536900
  15.700000, 4367.091011
  15.800000, 4354.645122
  15.900000, 4342.199234
  16.000000, 4329.753345
  16.100000, 4317.307456
  16.200000, 4304.575369
  16.300000, 4291.807547
  16.400000, 4279.039724
  16.500000, 4266.271902
  16.600000, 4253.504080
  16.700000, 4240.736258
  16.800000, 4227.968436
  16.900000, 4215.200614
  17.000000, 4202.432792
  17.100000, 4189.664970
  17.200000, 4176.653195
  17.300000, 4163.610960
  17.400000, 4150.568725
  17.500000, 4137.526490
  17.600000, 4124.484254
  17.700000, 4111.442019
  17.800000, 4098.399784
  17.900000, 4085.357549
  18.000000, 4072.315314
  18.100000, 4059.273079
  18.200000, 4046.026767
  18.300000, 4032.754974
  18.400000, 4019.483181
  18.500000, 4006.211388
  18.600000, 3992.939594
  18.700000, 3979.667801
  18.800000, 3966.396008
  18.900000, 3953.124215
  19.000000, 3939.852422
  19.100000, 3926.580628
  19.200000, 3913.142307
  19.300000, 3899.683194
  19.400000, 3886.224080
  19.500000, 3872.764967
  19.600000, 3859.305853
  19.700000, 3845.846739
  19.800000, 3832.387626
  19.900000, 3818.928512
  20.000000, 3805.469399
  20.100000, 3792.010285
  20.200000, 3778.419917
  20.300000, 3764.813160
  20.400000, 3751.206404
  20.500000, 3737.599647
  20.600000, 3723.992890
  20.700000, 3710.386134
  20.800000, 3696.779377
  20.900000, 3683.172621
  21.000000, 3669.565864
  21.100000, 3655.959108
  21.200000, 3642.253294
  21.300000, 3628.535113
  21.400000, 3614.816932
  21.500000, 3601.098750
  21.600000, 3587.380569
  21.700000, 3573.662387
  21.800000, 3559.944206
  21.900000, 3546.226025
  22.000000, 3532.507843
  22.100000, 3518.789662
  22.200000, 3504.999998
  22.300000, 3491.201408
  22.400000, 3477.402818
  22.500000, 3463.604228
  22.600000, 3449.805638
  22.700000, 3436.007048
  22.800000, 3422.208459
  22.900000, 3408.409869
  23.000000, 3394.611279
  23.100000, 3380.812689
  23.200000, 3366.970837
  23.300000, 3353.123583
  23.400000, 3339.276329
  23.500000, 3325.429075
  23.600000, 3311.581821
  23.700000, 3297.734567
  23.800000, 3283.887314
  23.900000, 3270.040060
  24.000000, 3256.192806
  24.100000, 3242.345552
  24.200000, 3228.481945
  24.300000, 3214.616297
  24.400000, 3200.750648
  24.500000, 3186.885000
  24.600000, 3173.019352
  24.700000, 3159.153703
  24.800000, 3145.288055
  24.852132, 3138.059601
  24.952132, 2890.234106
  25.052132, 2642.408610
  25.152132, 2480.886284
  25.252132, 2443.391664
  25.352132, 2405.897043
  25.452132, 2368.402422
  25.552132, 2330.907802
  25.652132, 2293.413181
  25.752132, 2255.918561
  25.852132, 2218.423940
  25.952132, 2180.929320
  26.052132, 2143.434699
  26.152132, 2081.120373
  26.252132, 1983.137240
  26.352132, 1885.154107
  26.452132, 1787.170974
  26.552132, 1689.187841
  26.652132, 1591.204709
  26.752132, 1493.221576
  26.852132, 1395.238443
  26.952132, 1297.255310
  27.052132, 1199.272177
  27.152132, 1102.549092
  27.252132, 1007.636842
  27.352132,  912.724593
  27.452132,  817.812343
  27.552132,  722.900093
  27.652132,  627.987844
  27.752132,  533.075594
  27.852132,  438.163344
  27.952132,  343.251095
  28.052132,  248.338845
  28.152132,  154.990799
  28.252132,   63.890695
  28.352132,  -27.209409
  28.452132, -118.309513
  28.552132, -209.409617
  28.652132, -300.509720
  28.752132, -391.609824
  28.852132, -482.709928
  28.952132, -573.810032
  29.052132, -664.910136
  29.111100, -718.629956
  29.211100, -646.766961
  29.311100, -574.903965
  29.411100, -503.040969
  29.511100, -431.177974
  29.611100, -359.314978
  29.711100, -287.451983
  29.811100, -215.588987
  29.911100, -143.725991
  30.011100,  -71.862996
  30.111100,    0.000000
  30.211100,    0.000000
  30.311100,    0.000000
  30.411100,    0.000000
  30.511100,    0.000000
  30.611100,    0.000000
  30.711100,    0.000000
  30.811100,    0.000000
  30.911100,    0.000000
  31.011100,    0.000000
  31.111100,    0.000000
  31.211100,    0.000000
  31.311100,    0.000000
  31.411100,    0.000000
  31.511100,    0.000000
  31.611100,    0.000000
  31.711100,    0.000000
  31.811100,    0.000000
  31.911100,    0.000000
