Time, Horizontal Forces
   0.000000, 68502.550442
   0.100000, 68440.213726
   0.200000, 68378.124797
   0.300000, 68316.074125
   0.400000, 68254.023454
   0.500000, 68191.972782
   0.600000, 68129.922111
   0.700000, 68067.871439
   0.800000, 68005.820768
   0.900000, 67943.770096
   1.000000, 67881.719424
   1.100000, 67819.668753
   1.200000, 67758.188049
   1.300000, 67696.778511
   1.400000, 67635.368973
   1.500000, 67573.959434
   1.600000, 67512.549896
   1.700000, 67451.140358
   1.800000, 67389.730820
   1.900000, 67328.321282
   2.000000, 67266.911743
   2.100000, 67205.502205
   2.200000, 67144.680290
   2.300000, 67083.931745
   2.400000, 67023.183201
   2.500000, 66962.434656
   2.600000, 66901.686111
   2.700000, 66840.937566
   2.800000, 66780.189021
   2.900000, 66719.440476
   3.000000, 66658.691932
   3.100000, 66597.943387
   3.200000, 66537.799172
   3.300000, 66477.730413
   3.400000, 66417.661654
   3.500000, 66357.592894
   3.600000, 66297.524135
   3.700000, 66237.455376
   3.800000, 66177.386617
   3.900000, 66117.317858
   4.000000, 66057.249099
   4.100000, 65997.180340
   4.200000, 65937.731658
   4.300000, 65878.360399
   4.400000, 65818.989140
   4.500000, 65759.617880
   4.600000, 65700.246621
   4.700000, 65640.875361
   4.800000, 65581.504102
   4.900000, 65522.132842
   5.000000, 65462.761583
   5.100000, 65403.390323
   5.200000, 65344.653923
   5.300000, 65285.996790
   5.400000, 65227.339658
   5.500000, 65168.682525
   5.600000, 65110.025393
   5.700000, 65051.368260
   5.800000, 64992.711128
   5.900000, 64934.053995
   6.000000, 64875.396863
   6.100000, 64816.739730
   6.200000, 64739.246918
   6.300000, 64659.402295
   6.400000, 64579.557672
   6.500000, 64499.713049
   6.600000, 64419.868426
   6.700000, 64340.023803
   6.800000, 64260.179180
   6.900000, 64180.334557
   7.000000, 64100.489934
   7.100000, 64020.645310
   7.200000, 63937.897245
   7.300000, 63854.786657
   7.400000, 63771.676070
   7.500000, 63688.565482
   7.600000, 63605.454895
   7.700000, 63522.344307
   7.800000, 63439.233720
   7.900000, 63356.123132
   8.000000, 63273.012545
   8.100000, 63189.901957
   8.200000, 63108.103137
   8.300000, 63026.468102
   8.400000, 62944.833068
   8.500000, 62863.198034
   8.600000, 62781.562999
   8.700000, 62699.927965
   8.800000, 62618.292931
   8.900000, 62536.657896
   9.000000, 62455.022862
   9.100000, 62373.387828
   9.200000, 62293.069524
   9.300000, 62212.915627
   9.400000, 62132.761730
   9.500000, 62052.607833
   9.600000, 61972.453936
   9.700000, 61892.300038
   9.800000, 61812.146141
   9.900000, 61731.992244
  10.000000, 61651.838347
  10.100000, 61571.684450
  10.200000, 61492.850622
  10.300000, 61414.181617
  10.400000, 61335.512612
  10.500000, 61256.843607
  10.600000, 61178.174602
  10.700000, 61099.505597
  10.800000, 61020.836592
  10.900000, 60942.167586
  11.000000, 60863.498581
  11.100000, 60784.829576
  11.200000, 60707.482406
  11.300000, 60630.300278
  11.400000, 60553.118151
  11.500000, 60475.936023
  11.600000, 60398.753896
  11.700000, 60321.571768
  11.800000, 60244.389641
  11.900000, 60167.207514
  12.000000, 60090.025386
  12.100000, 60012.843259
  12.200000, 59936.983212
  12.300000, 59861.288240
  12.400000, 59785.593268
  12.500000, 59709.898295
  12.600000, 59634.203323
  12.700000, 59558.508351
  12.800000, 59482.813379
  12.900000, 59407.118406
  13.000000, 59331.423434
  13.100000, 59255.728462
  13.200000, 59157.128352
  13.300000, 59055.668321
  13.400000, 58954.208290
  13.500000, 58852.748259
  13.600000, 58751.288228
  13.700000, 58649.828197
  13.800000, 58548.368166
  13.900000, 58446.908135
  14.000000, 58345.448104
  14.100000, 58243.988073
  14.200000, 58141.652978
  14.300000, 58039.208624
  14.400000, 57936.764269
  14.500000, 57834.319915
  14.600000, 57731.875560
  14.700000, 57629.431205
  14.800000, 57526.986851
  14.900000, 57424.542496
  15.000000, 57322.098141
  15.100000, 57219.653787
  15.200000, 57119.602674
  15.300000, 57019.850380
  15.400000, 56920.098086
  15.500000, 56820.345792
  15.600000, 56720.593498
  15.700000, 56620.841203
  15.800000, 56521.088909
  15.900000, 56421.336615
  16.000000, 56321.584321
  16.100000, 56221.832027
  16.200000, 56124.439540
  16.300000, 56027.341698
  16.400000, 55930.243856
  16.500000, 55833.146013
  16.600000, 55736.048171
  16.700000, 55638.950328
  16.800000, 55541.852486
  16.900000, 55444.754643
  17.000000, 55347.656801
  17.100000, 55250.558958
  17.200000, 55155.786030
  17.300000, 55061.303389
  17.400000, 54966.820748
  17.500000, 54872.338107
  17.600000, 54777.855466
  17.700000, 54683.372826
  17.800000, 54588.890185
  17.900000, 54494.407544
  18.000000, 54399.924903
  18.100000, 54305.442262
  18.200000, 54213.248330
  18.300000, 54121.340164
  18.400000, 54029.431998
  18.500000, 53937.523833
  18.600000, 53845.615667
  18.700000, 53753.707501
  18.800000, 53661.799336
  18.900000, 53569.891170
  19.000000, 53477.983005
  19.100000, 53386.074839
  19.200000, 53296.418006
  19.300000, 53207.042273
  19.400000, 53117.666540
  19.500000, 53028.290807
  19.600000, 52938.915074
  19.700000, 52849.539342
  19.800000, 52760.163609
  19.900000, 52670.787876
  20.000000, 52581.412143
  20.100000, 52492.036410
  20.200000, 52404.873600
  20.300000, 52317.987095
  20.400000, 52231.100590
  20.500000, 52144.214085
  20.600000, 52057.327579
  20.700000, 51970.441074
  20.800000, 51883.554569
  20.900000, 51796.668064
  21.000000, 51709.781558
  21.100000, 51622.895053
  21.200000, 51538.977981
  21.300000, 51455.431670
  21.400000, 51371.885359
  21.500000, 51288.339048
  21.600000, 51204.792738
  21.700000, 51121.246427
  21.800000, 51037.700116
  21.900000, 50954.153805
  22.000000, 50870.607495
  22.100000, 50787.061184
  22.200000, 50706.116580
  22.300000, 50625.496824
  22.400000, 50544.877068
  22.500000, 50464.257312
  22.600000, 50383.637556
  22.700000, 50303.017800
  22.800000, 50222.398044
  22.900000, 50141.778288
  23.000000, 50061.158532
  23.100000, 49980.538776
  23.200000, 49901.950115
  23.300000, 49823.615055
  23.400000, 49745.279995
  23.500000, 49666.944935
  23.600000, 49588.609875
  23.700000, 49510.274816
  23.800000, 49431.939756
  23.900000, 49353.604696
  24.000000, 49275.269636
  24.100000, 49196.934576
  24.200000, 49120.029581
  24.300000, 49043.303143
  24.400000, 48966.576706
  24.500000, 48889.850268
  24.541539, 48857.979156
  24.641539, 48778.523811
  24.741539, 48699.068466
  24.841539, 48619.613120
  24.941539, 48540.157775
  25.041539, 48460.702429
  25.141539, 48380.650867
  25.241539, 48299.236772
  25.341539, 48217.822676
  25.441539, 48136.408580
  25.541539, 48054.994485
  25.641539, 47973.580389
  25.741539, 47892.166294
  25.841539, 47810.752198
  25.941539, 47729.338102
  26.041539, 47647.924007
  26.141539, 47562.257444
  26.241539, 47466.872724
  26.341539, 47371.488004
  26.441539, 47276.103284
  26.541539, 47180.718564
  26.641539, 47085.333844
  26.741539, 46989.949124
  26.841539, 46894.564404
  26.941539, 46799.179684
  27.041539, 46703.794964
  27.141539, 46607.553149
  27.241539, 46509.352617
  27.341539, 46411.152085
  27.441539, 46312.951552
  27.541539, 46214.751020
  27.641539, 46116.550488
  27.741539, 46018.349956
  27.841539, 45920.149424
  27.941539, 45821.948892
  28.041539, 45723.748360
  28.111100, 45655.438725
  28.211100, 45583.007915
  28.311100, 45510.577106
  28.411100, 45438.146296
  28.511100, 45365.715486
  28.611100, 45293.284677
  28.711100, 45220.853867
  28.811100, 45148.423058
  28.911100, 45075.992248
  29.011100, 45003.561439
  29.111100, 44931.130629
  29.211100, 44916.842281
  29.311100, 44902.553932
  29.411100, 44888.265584
  29.511100, 44873.977236
  29.611100, 44859.688888
  29.711100, 44855.331179
  29.811100, 44850.973470
  29.911100, 44846.615761
  30.011100, 44842.258052
  30.111100, 44837.900343
  30.211100, 44846.175091
  30.311100, 44854.449838
  30.411100, 44862.724585
  30.511100, 44870.999332
  30.611100, 44879.274080
  30.711100, 44887.548827
  30.811100, 44895.823574
  30.911100, 44904.098321
