Vfailure/VsTO, Distance
   0.500000,  296.792139
   0.500551,  297.478801
   0.501101,  298.165463
   0.501652,  298.852125
   0.502202,  299.538787
   0.502753,  300.225449
   0.503303,  300.912111
   0.503854,  301.598773
   0.504404,  302.285435
   0.504955,  302.972097
   0.505506,  303.658760
   0.506056,  304.345422
   0.506607,  305.032084
   0.507157,  305.718746
   0.507708,  306.405408
   0.508258,  307.092070
   0.508809,  307.778732
   0.509359,  308.465394
   0.509910,  309.152056
   0.510460,  309.838718
   0.511011,  310.525381
   0.511562,  311.212043
   0.512112,  311.898705
   0.512663,  312.585367
   0.513213,  313.272029
   0.513764,  313.958691
   0.514314,  314.645353
   0.514865,  315.332015
   0.515415,  316.018677
   0.515966,  316.705339
   0.516517,  317.392002
   0.517067,  318.078664
   0.517618,  318.765326
   0.518168,  319.451988
   0.518719,  320.138650
   0.519269,  320.825312
   0.519820,  321.511974
   0.520370,  322.198636
   0.520921,  322.885298
   0.521471,  323.571960
   0.522022,  324.258623
   0.522573,  324.945285
   0.523123,  325.631947
   0.523674,  326.318609
   0.524224,  327.005271
   0.524775,  327.691933
   0.525325,  328.378595
   0.525876,  329.065257
   0.526426,  329.751919
   0.526977,  330.438581
   0.527528,  331.125244
   0.528078,  331.811906
   0.528629,  332.498568
   0.529179,  333.185230
   0.529730,  333.871892
   0.530280,  334.558554
   0.530831,  335.245216
   0.531381,  335.931878
   0.531932,  336.618540
   0.532482,  337.305202
   0.533033,  337.991864
   0.533584,  338.678527
   0.534134,  339.365189
   0.534685,  340.051851
   0.535235,  340.738513
   0.535786,  341.425175
   0.536336,  342.111837
   0.536887,  342.798499
   0.537437,  343.485161
   0.537988,  344.171823
   0.538539,  344.858485
   0.539089,  345.545148
   0.539640,  346.231810
   0.540190,  346.918472
   0.540741,  347.605134
   0.541291,  348.291796
   0.541842,  348.978458
   0.542392,  349.665120
   0.542943,  350.351782
   0.543493,  351.038444
   0.544044,  351.725106
   0.544595,  352.411769
   0.545145,  353.098431
   0.545696,  353.785093
   0.546246,  354.471755
   0.546797,  355.158417
   0.547347,  355.845079
   0.547898,  356.531741
   0.548448,  357.218403
   0.548999,  357.905065
   0.549550,  358.591727
   0.550100,  359.278390
   0.550651,  359.965052
   0.551201,  360.651714
   0.551752,  361.338376
   0.552302,  362.025038
   0.552853,  362.711700
   0.553403,  363.398362
   0.553954,  364.085024
   0.554505,  364.771686
   0.555055,  365.458348
   0.555606,  366.145011
   0.556156,  366.831673
   0.556707,  367.518335
   0.557257,  368.204997
   0.557808,  368.891659
   0.558358,  369.578321
   0.558909,  370.264983
   0.559459,  370.951645
   0.560010,  371.638307
   0.560561,  372.324969
   0.561111,  373.011632
   0.561662,  373.698294
   0.562212,  374.384956
   0.562763,  375.071618
   0.563313,  375.758280
   0.563864,  376.444942
   0.564414,  377.131604
   0.564965,  377.818266
   0.565516,  378.504928
   0.566066,  379.191590
   0.566617,  379.878253
   0.567167,  380.564915
   0.567718,  381.251577
   0.568268,  381.938239
   0.568819,  382.624901
   0.569369,  383.311563
   0.569920,  383.998225
   0.570470,  384.684887
   0.571021,  385.371549
   0.571572,  386.058211
   0.572122,  386.744874
   0.572673,  387.431536
   0.573223,  388.118198
   0.573774,  388.804860
   0.574324,  389.491522
   0.574875,  390.178184
   0.575425,  390.864846
   0.575976,  391.551508
   0.576527,  392.238170
   0.577077,  392.924832
   0.577628,  393.611495
   0.578178,  394.298157
   0.578729,  394.984819
   0.579279,  395.671481
   0.579830,  396.358143
   0.580380,  397.044805
   0.580931,  397.731467
   0.581481,  398.418129
   0.582032,  399.104791
   0.582583,  399.791453
   0.583133,  400.478115
   0.583684,  401.164778
   0.584234,  401.851440
   0.584785,  402.538102
   0.585335,  403.224764
   0.585886,  403.911426
   0.586436,  404.598088
   0.586987,  405.284750
   0.587538,  405.971412
   0.588088,  406.658074
   0.588639,  407.344736
   0.589189,  408.031399
   0.589740,  408.718061
   0.590290,  409.404723
   0.590841,  410.091385
   0.591391,  410.778047
   0.591942,  411.464709
   0.592492,  412.151371
   0.593043,  412.838033
   0.593594,  413.524695
   0.594144,  414.211357
   0.594695,  414.898020
   0.595245,  415.584682
   0.595796,  416.271344
   0.596346,  416.958006
   0.596897,  417.644668
   0.597447,  418.331330
   0.597998,  419.017992
   0.598549,  419.704654
   0.599099,  420.391316
   0.599650,  421.077978
   0.600200,  421.764641
   0.600751,  422.451303
   0.601301,  423.137965
   0.601852,  423.824627
   0.602402,  424.511289
   0.602953,  425.197951
   0.603504,  425.884613
   0.604054,  426.571275
   0.604605,  427.257937
   0.605155,  427.944599
   0.605706,  428.631262
   0.606256,  429.317924
   0.606807,  430.004586
   0.607357,  430.691248
   0.607908,  431.377910
   0.608458,  432.064572
   0.609009,  432.751234
   0.609560,  433.437896
   0.610110,  434.124558
   0.610661,  434.811220
   0.611211,  435.497883
   0.611762,  436.184545
   0.612312,  436.871207
   0.612863,  437.557869
   0.613413,  438.244531
   0.613964,  438.931193
   0.614515,  439.617855
   0.615065,  440.304517
   0.615616,  440.991179
   0.616166,  441.677841
   0.616717,  442.364504
   0.617267,  443.051166
   0.617818,  443.737828
   0.618368,  444.424490
   0.618919,  445.111152
   0.619469,  445.797814
   0.620020,  446.484476
   0.620571,  447.171138
   0.621121,  447.857800
   0.621672,  448.544462
   0.622222,  449.231125
   0.622773,  449.917787
   0.623323,  450.604449
   0.623874,  451.291111
   0.624424,  451.977773
   0.624975,  452.664435
   0.625526,  453.351097
   0.626076,  454.037759
   0.626627,  454.724421
   0.627177,  455.411083
   0.627728,  456.097746
   0.628278,  456.784408
   0.628829,  457.471070
   0.629379,  458.157732
   0.629930,  458.844394
   0.630480,  459.531056
   0.631031,  460.217718
   0.631582,  460.904380
   0.632132,  461.591042
   0.632683,  462.277704
   0.633233,  462.964367
   0.633784,  463.651029
   0.634334,  464.337691
   0.634885,  465.024353
   0.635435,  465.711015
   0.635986,  466.397677
   0.636537,  467.084339
   0.637087,  467.771001
   0.637638,  468.457663
   0.638188,  469.144325
   0.638739,  469.830987
   0.639289,  470.517650
   0.639840,  471.204312
   0.640390,  471.890974
   0.640941,  472.577636
   0.641491,  473.264298
   0.642042,  473.950960
   0.642593,  474.637622
   0.643143,  475.324284
   0.643694,  476.010946
   0.644244,  476.697608
   0.644795,  477.384271
   0.645345,  478.070933
   0.645896,  478.757595
   0.646446,  479.444257
   0.646997,  480.130919
   0.647548,  480.817581
   0.648098,  481.504243
   0.648649,  482.190905
   0.649199,  482.877567
   0.649750,  483.564229
   0.650300,  484.250892
   0.650851,  484.937554
   0.651401,  485.624216
   0.651952,  486.310878
   0.652503,  486.997540
   0.653053,  487.684202
   0.653604,  488.370864
   0.654154,  489.057526
   0.654705,  489.744188
   0.655255,  490.430850
   0.655806,  491.117513
   0.656356,  491.804175
   0.656907,  492.490837
   0.657457,  493.177499
   0.658008,  493.864161
   0.658559,  494.550823
   0.659109,  495.237485
   0.659660,  495.924147
   0.660210,  496.610809
   0.660761,  497.297471
   0.661311,  497.984134
   0.661862,  498.670796
   0.662412,  499.357458
   0.662963,  500.044120
   0.663514,  500.730782
   0.664064,  501.417444
   0.664615,  502.104106
   0.665165,  502.790768
   0.665716,  503.477430
   0.666266,  504.164092
   0.666817,  504.850755
   0.667367,  505.537417
   0.667918,  506.224079
   0.668468,  506.910741
   0.669019,  507.597403
   0.669570,  508.284065
   0.670120,  508.970727
   0.670671,  509.657389
   0.671221,  510.344051
   0.671772,  511.030713
   0.672322,  511.717376
   0.672873,  512.404038
   0.673423,  513.090700
   0.673974,  513.777362
   0.674525,  514.464024
   0.675075,  515.150686
   0.675626,  515.837348
   0.676176,  516.524010
   0.676727,  517.210672
   0.677277,  517.897334
   0.677828,  518.583997
   0.678378,  519.270659
   0.678929,  519.957321
   0.679479,  520.643983
   0.680030,  521.330645
   0.680581,  522.017307
   0.681131,  522.703969
   0.681682,  523.390631
   0.682232,  524.077293
   0.682783,  524.763955
   0.683333,  525.450618
   0.683884,  526.439507
   0.684434,  527.428396
   0.684985,  528.417285
   0.685536,  529.406174
   0.686086,  530.395063
   0.686637,  531.383952
   0.687187,  532.372841
   0.687738,  533.361730
   0.688288,  534.350619
   0.688839,  535.339508
   0.689389,  536.328397
   0.689940,  537.317286
   0.690490,  538.306175
   0.691041,  539.295064
   0.691592,  540.283953
   0.692142,  541.272842
   0.692693,  542.261731
   0.693243,  543.250620
   0.693794,  544.239509
   0.694344,  545.228398
   0.694895,  546.217287
   0.695445,  547.206176
   0.695996,  548.195065
   0.696547,  549.183954
   0.697097,  550.172843
   0.697648,  551.161732
   0.698198,  552.150621
   0.698749,  553.139510
   0.699299,  554.128400
   0.699850,  555.117289
   0.700400,  556.106178
   0.700951,  557.095067
   0.701502,  558.083956
   0.702052,  559.072845
   0.702603,  560.061734
   0.703153,  561.050623
   0.703704,  562.039512
   0.704254,  563.028401
   0.704805,  564.017290
   0.705355,  565.006179
   0.705906,  565.995068
   0.706456,  566.983957
   0.707007,  567.972846
   0.707558,  568.961735
   0.708108,  569.950624
   0.708659,  570.939513
   0.709209,  571.928402
   0.709760,  572.917291
   0.710310,  573.906180
   0.710861,  574.895069
   0.711411,  575.883958
   0.711962,  576.872847
   0.712513,  577.861736
   0.713063,  578.850625
   0.713614,  579.839514
   0.714164,  580.828403
   0.714715,  581.817293
   0.715265,  582.806182
   0.715816,  583.795071
   0.716366,  584.783960
   0.716917,  585.772849
   0.717467,  586.761738
   0.718018,  587.750627
   0.718569,  588.739516
   0.719119,  589.728405
   0.719670,  590.717294
   0.720220,  591.706183
   0.720771,  592.695072
   0.721321,  593.683961
   0.721872,  594.672850
   0.722422,  595.661739
   0.722973,  596.650628
   0.723524,  597.639517
   0.724074,  598.628406
   0.724625,  599.617295
   0.725175,  600.606184
   0.725726,  601.595073
   0.726276,  602.583962
   0.726827,  603.572851
   0.727377,  604.561740
   0.727928,  605.550629
   0.728478,  606.539518
   0.729029,  607.528407
   0.729580,  608.517296
   0.730130,  609.506185
   0.730681,  610.495075
   0.731231,  611.483964
   0.731782,  612.472853
   0.732332,  613.461742
   0.732883,  614.450631
   0.733433,  615.439520
   0.733984,  616.428409
   0.734535,  617.417298
   0.735085,  618.406187
   0.735636,  619.395076
   0.736186,  620.383965
   0.736737,  621.372854
   0.737287,  622.361743
   0.737838,  623.350632
   0.738388,  624.339521
   0.738939,  625.328410
   0.739489,  626.317299
   0.740040,  627.306188
   0.740591,  628.295077
   0.741141,  629.283966
   0.741692,  630.272855
   0.742242,  631.261744
   0.742793,  632.250633
   0.743343,  633.239522
   0.743894,  634.228411
   0.744444,  635.217300
   0.744995,  636.206189
   0.745546,  637.195078
   0.746096,  638.183968
   0.746647,  639.172857
   0.747197,  640.161746
   0.747748,  641.150635
   0.748298,  642.139524
   0.748849,  643.128413
   0.749399,  644.117302
   0.749950,  645.106191
   0.750501,  646.095080
   0.751051,  647.083969
   0.751602,  648.072858
   0.752152,  649.061747
   0.752703,  650.050636
   0.753253,  651.039525
   0.753804,  652.028414
   0.754354,  653.017303
   0.754905,  654.006192
   0.755455,  654.995081
   0.756006,  655.983970
   0.756557,  656.972859
   0.757107,  657.961748
   0.757658,  658.950637
   0.758208,  659.939526
   0.758759,  660.928415
   0.759309,  661.917304
   0.759860,  662.906193
   0.760410,  663.895082
   0.760961,  664.883971
   0.761512,  665.872860
   0.762062,  666.861750
   0.762613,  667.850639
   0.763163,  668.839528
   0.763714,  669.828417
   0.764264,  670.817306
   0.764815,  671.806195
   0.765365,  672.795084
   0.765916,  673.783973
   0.766466,  674.772862
   0.767017,  675.761751
   0.767568,  676.750640
   0.768118,  677.739529
   0.768669,  678.728418
   0.769219,  679.717307
   0.769770,  680.706196
   0.770320,  681.695085
   0.770871,  682.683974
   0.771421,  683.672863
   0.771972,  684.661752
   0.772523,  685.650641
   0.773073,  686.639530
   0.773624,  687.628419
   0.774174,  688.617308
   0.774725,  689.606197
   0.775275,  690.595086
   0.775826,  691.583975
   0.776376,  692.572864
   0.776927,  693.561753
   0.777477,  694.550643
   0.778028,  695.539532
   0.778579,  696.528421
   0.779129,  697.517310
   0.779680,  698.506199
   0.780230,  699.495088
   0.780781,  700.483977
   0.781331,  701.472866
   0.781882,  702.461755
   0.782432,  703.450644
   0.782983,  704.439533
   0.783534,  705.428422
   0.784084,  706.417311
   0.784635,  707.406200
   0.785185,  708.395089
   0.785736,  709.383978
   0.786286,  710.372867
   0.786837,  711.361756
   0.787387,  712.350645
   0.787938,  713.339534
   0.788488,  714.328423
   0.789039,  715.317312
   0.789590,  716.306201
   0.790140,  717.295090
   0.790691,  718.283979
   0.791241,  719.272868
   0.791792,  720.261757
   0.792342,  721.250646
   0.792893,  722.239535
   0.793443,  723.228425
   0.793994,  724.217314
   0.794545,  725.206203
   0.795095,  726.195092
   0.795646,  727.183981
   0.796196,  728.172870
   0.796747,  729.161759
   0.797297,  730.150648
   0.797848,  731.139537
   0.798398,  732.128426
   0.798949,  733.117315
   0.799499,  734.106204
   0.800050,  735.095093
   0.800601,  736.083982
   0.801151,  737.072871
   0.801702,  738.061760
   0.802252,  739.050649
   0.802803,  740.039538
   0.803353,  741.028427
   0.803904,  742.017316
   0.804454,  743.006205
   0.805005,  743.995094
   0.805556,  744.983983
   0.806106,  745.972872
   0.806657,  746.961761
   0.807207,  747.950650
   0.807758,  748.939539
   0.808308,  749.928428
   0.808859,  750.917318
   0.809409,  751.906207
   0.809960,  752.895096
   0.810511,  753.883985
   0.811061,  754.872874
   0.811612,  755.861763
   0.812162,  756.850652
   0.812713,  757.839541
   0.813263,  758.828430
   0.813814,  759.817319
   0.814364,  760.806208
   0.814915,  761.795097
   0.815465,  762.783986
   0.816016,  763.772875
   0.816567,  764.761764
   0.817117,  765.750653
   0.817668,  766.739542
   0.818218,  767.728431
   0.818769,  768.717320
   0.819319,  769.706209
   0.819870,  770.695098
   0.820420,  771.683987
   0.820971,  772.672876
   0.821522,  773.661765
   0.822072,  774.650654
   0.822623,  775.639543
   0.823173,  776.628432
   0.823724,  777.617321
   0.824274,  778.606211
   0.824825,  779.595100
   0.825375,  780.583989
   0.825926,  781.572878
   0.826476,  782.561767
   0.827027,  783.550656
   0.827578,  784.539545
   0.828128,  785.528434
   0.828679,  786.517323
   0.829229,  787.506212
   0.829780,  788.495101
   0.830330,  789.483990
   0.830881,  790.472879
   0.831431,  791.461768
   0.831982,  792.450657
   0.832533,  793.439546
   0.833083,  794.428435
   0.833634,  795.417324
   0.834184,  796.406213
   0.834735,  797.395102
   0.835285,  798.383991
   0.835836,  799.372880
   0.836386,  800.361769
   0.836937,  801.350658
   0.837487,  802.339547
   0.838038,  803.328436
   0.838589,  804.317325
   0.839139,  805.306214
   0.839690,  806.295103
   0.840240,  807.283993
   0.840791,  808.272882
   0.841341,  809.261771
   0.841892,  810.250660
   0.842442,  811.239549
   0.842993,  812.228438
   0.843544,  813.217327
   0.844094,  814.206216
   0.844645,  815.195105
   0.845195,  816.183994
   0.845746,  817.172883
   0.846296,  818.161772
   0.846847,  819.150661
   0.847397,  820.139550
   0.847948,  821.128439
   0.848498,  822.117328
   0.849049,  823.106217
   0.849600,  824.095106
   0.850150,  825.083995
   0.850701,  826.072884
   0.851251,  827.061773
   0.851802,  828.050662
   0.852352,  829.039551
   0.852903,  830.028440
   0.853453,  831.017329
   0.854004,  832.006218
   0.854555,  832.995107
   0.855105,  833.983996
   0.855656,  834.972886
   0.856206,  835.961775
   0.856757,  836.950664
   0.857307,  837.939553
   0.857858,  838.928442
   0.858408,  839.917331
   0.858959,  840.906220
   0.859510,  841.895109
   0.860060,  842.883998
   0.860611,  843.872887
   0.861161,  844.861776
   0.861712,  845.850665
   0.862262,  846.839554
   0.862813,  847.828443
   0.863363,  848.817332
   0.863914,  849.806221
   0.864464,  850.795110
   0.865015,  851.783999
   0.865566,  852.772888
   0.866116,  853.761777
   0.866667,  854.750666
   0.867217,  856.138306
   0.867768,  857.525946
   0.868318,  858.913586
   0.868869,  860.301226
   0.869419,  861.688867
   0.869970,  863.076507
   0.870521,  864.464147
   0.871071,  865.851787
   0.871622,  867.239427
   0.872172,  868.627067
   0.872723,  870.014707
   0.873273,  871.402347
   0.873824,  872.789987
   0.874374,  874.177627
   0.874925,  875.565267
   0.875475,  876.952907
   0.876026,  878.340547
   0.876577,  879.728187
   0.877127,  881.115827
   0.877678,  882.503468
   0.878228,  883.891108
   0.878779,  885.278748
   0.879329,  886.666388
   0.879880,  888.054028
   0.880430,  889.441668
   0.880981,  890.829308
   0.881532,  892.216948
   0.882082,  893.604588
   0.882633,  894.992228
   0.883183,  896.379868
   0.883734,  897.767508
   0.884284,  899.155148
   0.884835,  900.542788
   0.885385,  901.930428
   0.885936,  903.318069
   0.886486,  904.705709
   0.887037,  906.093349
   0.887588,  907.480989
   0.888138,  908.868629
   0.888689,  910.256269
   0.889239,  911.643909
   0.889790,  913.031549
   0.890340,  914.419189
   0.890891,  915.806829
   0.891441,  917.194469
   0.891992,  918.582109
   0.892543,  919.969749
   0.893093,  921.357389
   0.893644,  922.745029
   0.894194,  924.132669
   0.894745,  925.520310
   0.895295,  926.907950
   0.895846,  928.295590
   0.896396,  929.683230
   0.896947,  931.070870
   0.897497,  932.458510
   0.898048,  933.846150
   0.898599,  935.233790
   0.899149,  936.621430
   0.899700,  938.009070
   0.900250,  939.396710
   0.900801,  940.784350
   0.901351,  942.171990
   0.901902,  943.559630
   0.902452,  944.947270
   0.903003,  946.334911
   0.903554,  947.722551
   0.904104,  949.110191
   0.904655,  950.497831
   0.905205,  951.885471
   0.905756,  953.273111
   0.906306,  954.660751
   0.906857,  956.048391
   0.907407,  957.436031
   0.907958,  958.823671
   0.908509,  960.211311
   0.909059,  961.598951
   0.909610,  962.986591
   0.910160,  964.374231
   0.910711,  965.761871
   0.911261,  967.149512
   0.911812,  968.537152
   0.912362,  969.924792
   0.912913,  971.312432
   0.913463,  972.700072
   0.914014,  974.087712
   0.914565,  975.475352
   0.915115,  976.862992
   0.915666,  978.250632
   0.916216,  979.638272
   0.916767,  981.025912
   0.917317,  982.413552
   0.917868,  983.801192
   0.918418,  985.188832
   0.918969,  986.576472
   0.919520,  987.964113
   0.920070,  989.351753
   0.920621,  990.739393
   0.921171,  992.127033
   0.921722,  993.514673
   0.922272,  994.902313
   0.922823,  996.289953
   0.923373,  997.677593
   0.923924,  999.065233
   0.924474, 1000.452873
   0.925025, 1001.840513
   0.925576, 1003.228153
   0.926126, 1004.615793
   0.926677, 1006.003433
   0.927227, 1007.391073
   0.927778, 1008.778713
   0.928328, 1010.166354
   0.928879, 1011.553994
   0.929429, 1012.941634
   0.929980, 1014.329274
   0.930531, 1015.716914
   0.931081, 1017.104554
   0.931632, 1018.492194
   0.932182, 1019.879834
   0.932733, 1021.267474
   0.933283, 1022.655114
   0.933834, 1024.042754
   0.934384, 1025.430394
   0.934935, 1026.818034
   0.935485, 1028.205674
   0.936036, 1029.593314
   0.936587, 1030.980955
   0.937137, 1032.368595
   0.937688, 1033.756235
   0.938238, 1035.143875
   0.938789, 1036.531515
   0.939339, 1037.919155
   0.939890, 1039.306795
   0.940440, 1040.694435
   0.940991, 1042.082075
   0.941542, 1043.469715
   0.942092, 1044.857355
   0.942643, 1046.244995
   0.943193, 1047.632635
   0.943744, 1049.020275
   0.944294, 1050.407915
   0.944845, 1051.795556
   0.945395, 1053.183196
   0.945946, 1054.570836
   0.946496, 1055.958476
   0.947047, 1057.346116
   0.947598, 1058.733756
   0.948148, 1060.121396
   0.948699, 1061.509036
   0.949249, 1062.896676
   0.949800, 1064.284316
   0.950350, 1065.671956
   0.950901, 1067.059596
   0.951451, 1068.447236
   0.952002, 1069.834876
   0.952553, 1071.222516
   0.953103, 1072.610157
   0.953654, 1073.997797
   0.954204, 1075.385437
   0.954755, 1076.773077
   0.955305, 1078.160717
   0.955856, 1079.548357
   0.956406, 1080.935997
   0.956957, 1082.323637
   0.957508, 1083.711277
   0.958058, 1085.098917
   0.958609, 1086.486557
   0.959159, 1087.874197
   0.959710, 1089.261837
   0.960260, 1090.649477
   0.960811, 1092.037117
   0.961361, 1093.424757
   0.961912, 1094.812398
   0.962462, 1096.200038
   0.963013, 1097.587678
   0.963564, 1098.975318
   0.964114, 1100.362958
   0.964665, 1101.750598
   0.965215, 1103.138238
   0.965766, 1104.525878
   0.966316, 1105.913518
   0.966867, 1107.301158
   0.967417, 1108.688798
   0.967968, 1110.076438
   0.968519, 1111.464078
   0.969069, 1112.851718
   0.969620, 1114.239358
   0.970170, 1115.626999
   0.970721, 1117.014639
   0.971271, 1118.402279
   0.971822, 1119.789919
   0.972372, 1121.177559
   0.972923, 1122.565199
   0.973473, 1123.952839
   0.974024, 1125.340479
   0.974575, 1126.728119
   0.975125, 1128.115759
   0.975676, 1129.503399
   0.976226, 1130.891039
   0.976777, 1132.278679
   0.977327, 1133.666319
   0.977878, 1135.053959
   0.978428, 1136.441600
   0.978979, 1137.829240
   0.979530, 1139.216880
   0.980080, 1140.604520
   0.980631, 1141.992160
   0.981181, 1143.379800
   0.981732, 1144.767440
   0.982282, 1146.155080
   0.982833, 1147.542720
   0.983383, 1148.930360
   0.983934, 1150.318000
   0.984484, 1151.705640
   0.985035, 1153.093280
   0.985586, 1154.480920
   0.986136, 1155.868560
   0.986687, 1157.256201
   0.987237, 1158.643841
   0.987788, 1160.031481
   0.988338, 1161.419121
   0.988889, 1162.806761
   0.989439, 1164.194401
   0.989990, 1165.582041
   0.990541, 1166.969681
   0.991091, 1168.357321
   0.991642, 1169.744961
   0.992192, 1171.132601
   0.992743, 1172.520241
   0.993293, 1173.907881
   0.993844, 1175.295521
   0.994394, 1176.683161
   0.994945, 1178.070802
   0.995495, 1179.458442
   0.996046, 1180.846082
   0.996597, 1182.233722
   0.997147, 1183.621362
   0.997698, 1185.009002
   0.998248, 1186.396642
   0.998799, 1187.784282
   0.999349, 1189.171922
   0.999900, 1190.559562
   1.000450, 1191.947202
   1.001001, 1193.334842
   1.001552, 1194.722482
   1.002102, 1196.110122
   1.002653, 1197.497762
   1.003203, 1198.885402
   1.003754, 1200.273043
   1.004304, 1201.660683
   1.004855, 1203.048323
   1.005405, 1204.435963
   1.005956, 1205.823603
   1.006507, 1207.211243
   1.007057, 1208.598883
   1.007608, 1209.986523
   1.008158, 1211.374163
   1.008709, 1212.761803
   1.009259, 1214.149443
   1.009810, 1215.537083
   1.010360, 1216.924723
   1.010911, 1218.312363
   1.011461, 1219.700003
   1.012012, 1221.087644
   1.012563, 1222.475284
   1.013113, 1223.862924
   1.013664, 1225.250564
   1.014214, 1226.638204
   1.014765, 1228.025844
   1.015315, 1229.413484
   1.015866, 1230.801124
   1.016416, 1232.188764
   1.016967, 1233.576404
   1.017518, 1234.964044
   1.018068, 1236.351684
   1.018619, 1237.739324
   1.019169, 1239.126964
   1.019720, 1240.514604
   1.020270, 1241.902245
   1.020821, 1243.289885
   1.021371, 1244.677525
   1.021922, 1246.065165
   1.022472, 1247.452805
   1.023023, 1248.840445
   1.023574, 1250.228085
   1.024124, 1251.615725
   1.024675, 1253.003365
   1.025225, 1254.391005
   1.025776, 1255.778645
   1.026326, 1257.166285
   1.026877, 1258.553925
   1.027427, 1259.941565
   1.027978, 1261.329205
   1.028529, 1262.716846
   1.029079, 1264.104486
   1.029630, 1265.492126
   1.030180, 1266.879766
   1.030731, 1268.267406
   1.031281, 1269.655046
   1.031832, 1271.042686
   1.032382, 1272.430326
   1.032933, 1273.817966
   1.033483, 1275.205606
   1.034034, 1276.593246
   1.034585, 1277.980886
   1.035135, 1279.368526
   1.035686, 1280.756166
   1.036236, 1282.143806
   1.036787, 1283.531446
   1.037337, 1284.919087
   1.037888, 1286.306727
   1.038438, 1287.694367
   1.038989, 1289.082007
   1.039540, 1290.469647
   1.040090, 1291.857287
   1.040641, 1293.244927
   1.041191, 1294.632567
   1.041742, 1296.020207
   1.042292, 1297.407847
   1.042843, 1298.795487
   1.043393, 1300.183127
   1.043944, 1301.570767
   1.044494, 1302.958407
   1.045045, 1304.346047
   1.045596, 1305.733688
   1.046146, 1307.121328
   1.046697, 1308.508968
   1.047247, 1309.896608
   1.047798, 1311.284248
   1.048348, 1312.671888
   1.048899, 1314.059528
   1.049449, 1315.447168
   1.050000, 1316.834808
