Ground distance, Vertical Forces
   0.000000,    0.000003
   0.016710,    3.040653
   0.183425,   33.160609
   0.368636,   66.619061
   0.553847,  100.077513
   0.739059,  133.535965
   0.924270,  166.994417
   1.109481,  200.452869
   1.294692,  233.911322
   1.479903,  267.369774
   1.665114,  300.828226
   1.850325,  334.286678
   2.302802,  415.233781
   2.788649,  502.110288
   3.274497,  588.986794
   3.760344,  675.863301
   4.246191,  762.739808
   4.732039,  849.616315
   5.217886,  936.492822
   5.703734, 1023.369329
   6.189581, 1110.245835
   6.675428, 1197.122342
   7.425528, 1329.845678
   8.208622, 1468.293421
   8.991715, 1606.741164
   9.774809, 1745.188907
  10.557903, 1883.636650
  11.340997, 2022.084394
  12.124090, 2160.532137
  12.907184, 2298.979880
  13.690278, 2437.427623
  14.473372, 2575.875366
  15.517622, 2758.490262
  16.594479, 2946.619842
  17.671337, 3134.749421
  18.748195, 3322.879001
  19.825052, 3511.008581
  20.901910, 3699.138160
  21.978768, 3887.267740
  23.055626, 4075.397320
  24.132483, 4263.526900
  25.209341, 4451.656479
  26.544182, 4682.241821
  27.911234, 4918.128164
  29.278286, 5154.014507
  30.645338, 5389.900849
  32.012390, 5625.787192
  33.379442, 5861.673535
  34.746494, 6097.559877
  36.113546, 6333.446220
  37.480599, 6569.332563
  38.847651, 6805.218906
  40.469440, 7081.776858
  42.123036, 7363.413043
  43.776632, 7645.049228
  45.430228, 7926.685413
  47.083824, 8208.321598
  48.737419, 8489.957783
  50.391015, 8771.593968
  52.044611, 9053.230153
  53.698207, 9334.866338
  55.351803, 9616.502523
  57.256362, 9935.847005
  59.192256, 10259.899722
  61.128151, 10583.952440
  63.064045, 10908.005157
  64.999939, 11232.057874
  66.935834, 11556.110591
  68.871728, 11880.163309
  70.807622, 12204.216026
  72.743516, 12528.268743
  74.679411, 12852.321461
  76.861703, 13211.511670
  79.074761, 13575.089125
  81.287818, 13938.666581
  83.500876, 14302.244036
  85.713933, 14665.821492
  87.926991, 15029.398947
  90.140048, 15392.976402
  92.353106, 15756.553858
  94.566163, 16120.131313
  96.779221, 16483.708768
  99.234050, 16880.126683
 101.719067, 17280.645039
 104.204085, 17681.163394
 106.689102, 18081.681749
 109.174119, 18482.200104
 111.659136, 18882.718459
 114.144153, 19283.236814
 116.629171, 19683.755169
 119.114188, 20084.273524
 121.599205, 20484.791879
 124.321358, 20915.898752
 127.073121, 21350.824889
 129.824883, 21785.751026
 132.576645, 22220.677163
 135.328408, 22655.603300
 138.080170, 23090.529437
 140.831932, 23525.455574
 143.583695, 23960.381711
 146.335457, 24395.307848
 149.087219, 24830.233985
 152.071478, 25293.546327
 155.084766, 25760.402953
 158.098055, 26227.259579
 161.111343, 26694.116205
 164.124631, 27160.972831
 167.137919, 27627.829457
 170.151207, 28094.686083
 173.164496, 28561.542709
 176.177784, 29028.399335
 179.191072, 29495.255961
 182.432219, 29988.350166
 185.701815, 30484.720380
 188.971412, 30981.090593
 192.241008, 31477.460807
 195.510605, 31973.831020
 198.780201, 32470.201234
 202.049798, 32966.571447
 205.319395, 33462.941661
 208.588991, 33959.311875
 211.858588, 34455.682088
 215.351186, 34974.704249
 218.871628, 35496.554718
 222.392070, 36018.405188
 225.912512, 36540.255657
 229.432954, 37062.106127
 232.953396, 37583.956596
 236.473838, 38105.807065
 239.994280, 38627.657535
 243.514722, 39149.508004
 247.035164, 39671.358473
 250.772826, 40211.882233
 254.537610, 40754.737529
 258.302394, 41297.592825
 262.067178, 41840.448120
 265.831961, 42383.303416
 269.596745, 42926.158711
 273.361529, 43469.014007
 277.126313, 44011.869302
 280.891097, 44554.724598
 284.655881, 45097.579894
 288.631919, 45656.720069
 292.634333, 46217.893565
 296.636748, 46779.067061
 300.639163, 47340.240557
 304.641578, 47901.414053
 308.643992, 48462.587549
 312.646407, 49023.761045
 316.648822, 49584.934540
 320.651237, 50146.108036
 324.653651, 50707.281532
 328.861444, 51282.489485
 333.094881, 51859.449772
 337.328317, 52436.410058
 341.561754, 53013.370345
 345.795190, 53590.330631
 350.028627, 54167.290918
 354.262063, 54744.251204
 358.495499, 55321.211491
 362.728936, 55898.171778
 366.962372, 56475.132064
 371.395406, 57064.005411
 375.853361, 57654.366215
 380.311315, 58244.727018
 384.769270, 58835.087822
 389.227225, 59425.448626
 393.685180, 60015.809430
 398.143135, 60606.170234
 402.601090, 61196.531038
 407.059045, 61786.891842
 411.517000, 62377.252646
 416.168868, 62977.531595
 420.844948, 63579.048917
 425.521028, 64180.566240
 430.197108, 64782.083562
 434.873188, 65383.600884
 439.549268, 65985.118207
 444.225348, 66586.635529
 448.901428, 67188.152851
 453.577508, 67789.670174
 458.253588, 68391.187496
 463.117997, 69000.751608
 468.005921, 69611.320437
 472.893845, 70221.889266
 477.781769, 70832.458095
 482.669693, 71443.026924
 487.557617, 72053.595753
 492.445541, 72664.164582
 497.333465, 73274.733411
 502.221389, 73885.302240
 507.109313, 74495.871069
 512.180087, 75112.758980
 517.273692, 75730.435889
 522.367297, 76348.112797
 527.460902, 76965.789706
 532.554506, 77583.466614
 537.648111, 78201.143523
 542.741716, 78818.820431
 547.835321, 79436.497340
 552.928925, 80054.174248
 558.022530, 80671.851157
 563.293639, 81294.373261
 568.586911, 81917.500335
 573.880184, 82540.627408
 579.173456, 83163.754481
 584.466728, 83786.881554
 589.760000, 84410.008627
 595.053272, 85033.135700
 600.346545, 85656.262773
 605.639817, 86279.389846
 610.933089, 86902.516919
 616.398659, 87529.011628
 621.885743, 88155.926818
 627.372827, 88782.842008
 632.859910, 89409.757198
 638.346994, 90036.672388
 643.834078, 90663.587578
 649.321161, 91290.502768
 654.808245, 91917.417958
 660.295328, 92544.333148
 665.782412, 93171.248339
 671.431279, 93800.089551
 677.100346, 94429.171246
 682.769414, 95058.252941
 688.438481, 95687.334636
 694.107548, 96316.416331
 699.776615, 96945.498026
 705.445682, 97574.579721
 711.114750, 98203.661416
 716.783817, 98832.743111
 719.337716, 99116.142691
 725.131192, 141933.059337
 730.987301, 143081.934605
 736.843409, 144230.809872
 742.699518, 145379.685140
 748.555627, 146528.560407
 754.411735, 147677.435675
 760.267844, 148826.310943
 766.123952, 149975.186210
 771.980061, 151124.061478
 777.836170, 152272.936745
 783.750336, 154767.033664
 789.777456, 159878.302182
 795.804575, 164989.570699
 801.831695, 170100.839216
 807.858815, 175212.107734
 813.885934, 180323.376251
 819.913054, 185434.644768
 825.940173, 190545.913286
 831.967293, 195657.181803
 837.994413, 200768.450320
 844.075505, 205767.723449
 850.261604, 210549.105981
 856.447703, 215330.488512
 862.633801, 220111.871044
 868.819900, 224893.253575
 875.005999, 229674.636106
 881.192097, 234456.018638
 887.378196, 239237.401169
 893.564295, 244018.783701
 899.750393, 248800.166232
 903.836329, 251958.282495
 910.146858, 255842.147398
 916.457386, 259726.012301
 922.767915, 263609.877204
 929.078444, 267493.742107
 935.388973, 271377.607010
 941.699502, 275261.471913
 948.010031, 279145.336816
 954.320560, 283029.201719
 960.631089, 286913.066623
 966.941618, 290796.931526
 973.292781, 291035.174613
 979.643945, 291273.417700
 985.995108, 291511.660787
 992.346272, 291749.903875
 998.697435, 291988.146962
1005.055072, 291958.172480
1011.412710, 291928.197997
1017.770347, 291898.223515
1024.127984, 291868.249033
1030.485621, 291838.274551
1036.836308, 291558.958217
1043.186996, 291279.641883
1049.537683, 291000.325549
1055.888370, 290721.009215
