Ground distance, CL
   0.000000,    1.129969
   0.000002,    1.129969
   0.000026,    1.129969
   0.000279,    1.129969
   0.001780,    1.129969
   0.009956,    1.129969
   0.028232,    1.129969
   0.055863,    1.129969
   0.093070,    1.129969
   0.139583,    1.129969
   0.195946,    1.129969
   0.262367,    1.129969
   0.338265,    1.129969
   0.424840,    1.129969
   0.521081,    1.129969
   0.626951,    1.129969
   0.743696,    1.129969
   0.872046,    1.129969
   1.010273,    1.129969
   1.159360,    1.129969
   1.320352,    1.129969
   1.494548,    1.129969
   1.681278,    1.129969
   1.880630,    1.129969
   2.092759,    1.129969
   2.317004,    1.129969
   2.553808,    1.129969
   2.805410,    1.129969
   3.068534,    1.129969
   3.346559,    1.129969
   3.639749,    1.129969
   3.948656,    1.129969
   4.275586,    1.129969
   4.616759,    1.129969
   4.969417,    1.129969
   5.337942,    1.129969
   5.727362,    1.129969
   6.136880,    1.129969
   6.564417,    1.129969
   7.000551,    1.129969
   7.459632,    1.129969
   7.941305,    1.129969
   8.437214,    1.129969
   8.962907,    1.129969
   9.499779,    1.129969
  10.058468,    1.129969
  10.630379,    1.129969
  11.225396,    1.129969
  11.843167,    1.129969
  12.487102,    1.129969
  13.152793,    1.129969
  13.840708,    1.129969
  14.554475,    1.129969
  15.291631,    1.129969
  16.053004,    1.129969
  16.828933,    1.129969
  17.633349,    1.129969
  18.464215,    1.129969
  19.326140,    1.129969
  20.212344,    1.129969
  21.124584,    1.129969
  22.063274,    1.129969
  23.038611,    1.129969
  24.030965,    1.129969
  25.054101,    1.129969
  26.107998,    1.129969
  27.188251,    1.129969
  28.286361,    1.129969
  29.428402,    1.129969
  30.597124,    1.129969
  31.815965,    1.129969
  33.046647,    1.129969
  34.309839,    1.129969
  35.598210,    1.129969
  36.925962,    1.129969
  38.285270,    1.129969
  39.682033,    1.129969
  41.111151,    1.129969
  42.572960,    1.129969
  44.090519,    1.129969
  45.627115,    1.129969
  47.211981,    1.129969
  48.819191,    1.129969
  50.461126,    1.129969
  52.135667,    1.129969
  53.850480,    1.129969
  55.582264,    1.129969
  57.391442,    1.129969
  59.218548,    1.129969
  61.097013,    1.129969
  63.007112,    1.129969
  64.973257,    1.129969
  66.974261,    1.129969
  69.001214,    1.129969
  71.066314,    1.129969
  73.172440,    1.129969
  75.323309,    1.129969
  77.520898,    1.129969
  79.760182,    1.129969
  82.058542,    1.129969
  82.519490,    1.129969
  82.821635,    1.129969
  82.998740,    1.129969
  83.107386,    1.129969
  83.123763,    1.129969
  83.142080,    1.129969
  83.145546,    1.129969
  83.151557,    1.129969
  83.153271,    1.129969
  83.156305,    1.129969
  83.157431,    1.129969
  83.158484,    1.129969
  83.167988,    1.129969
  83.245735,    1.129969
  83.573222,    1.129969
  84.501337,    1.129969
  86.402007,    1.129969
  88.531454,    1.129969
  90.708608,    1.129969
  92.916421,    1.129969
  95.190543,    1.129969
  97.492225,    1.129969
  99.833114,    1.129969
 102.198156,    1.129969
 104.597768,    1.129969
 107.045224,    1.129969
 109.521413,    1.129969
 112.055099,    1.129969
 114.626661,    1.129969
 117.228037,    1.129969
 119.878610,    1.129969
 122.559461,    1.129969
 125.256142,    1.129969
 128.014795,    1.129969
 130.816008,    1.129969
 133.660580,    1.129969
 136.555296,    1.129969
 139.465627,    1.129969
 142.439337,    1.129969
 145.451127,    1.129969
 148.505543,    1.129969
 151.614857,    1.129969
 154.742815,    1.129969
 157.933565,    1.129969
 161.148286,    1.129969
 164.420111,    1.129969
 167.731217,    1.129969
 171.091389,    1.129969
 174.485801,    1.129969
 177.949586,    1.129969
 181.441529,    1.129969
 184.981472,    1.129969
 188.573389,    1.129969
 192.173500,    1.129969
 195.848947,    1.129969
 199.597788,    1.129969
 203.374009,    1.129969
 207.204957,    1.129969
 211.086157,    1.129969
 215.000525,    1.129969
 218.969206,    1.129969
 223.000382,    1.129969
 227.086816,    1.129969
 231.226737,    1.129969
 235.417772,    1.129969
 239.640777,    1.129969
 243.902726,    1.129969
 248.252474,    1.129969
 252.635887,    1.129969
 257.029673,    1.129969
 261.515368,    1.129969
 266.074585,    1.129969
 270.666108,    1.129969
 275.292708,    1.129969
 279.997772,    1.129969
 284.737357,    1.129969
 289.536691,    1.129969
 294.406352,    1.129969
 299.288273,    1.129969
 304.256967,    1.129969
 309.245707,    1.129969
 314.340590,    1.129969
 319.446765,    1.129969
 324.626996,    1.129969
 329.889655,    1.129969
 335.161470,    1.129969
 340.510653,    1.129969
 341.593815,    1.129969
 342.426121,    1.129969
 343.039939,    1.129969
 343.457212,    1.129969
 343.769402,    1.129969
 344.009643,    1.129969
 344.247310,    1.129969
 344.443360,    1.129969
 344.594513,    1.129969
 344.621031,    1.129969
 344.650906,    1.129969
 344.697295,    1.129969
 344.700354,    1.129969
 344.702580,    1.129969
 344.703931,    1.129969
 344.704897,    1.129969
 344.705513,    1.129969
 344.706121,    1.129969
 344.712205,    1.129969
 344.765687,    1.129969
 345.037462,    1.129969
 346.053085,    1.129969
 349.509377,    1.129969
 354.341222,    1.129969
 359.298084,    1.129969
 364.256663,    1.129969
 369.258129,    1.129969
 374.297528,    1.129969
 379.403519,    1.129969
 384.530672,    1.129969
 389.731318,    1.129969
 394.972929,    1.129969
 400.262120,    1.129969
 405.585189,    1.129969
 410.959610,    1.129969
 416.404641,    1.129969
 421.913318,    1.129969
 427.456483,    1.129969
 433.029042,    1.129969
 438.652643,    1.129969
 444.323271,    1.129969
 450.060305,    1.129969
 455.825095,    1.129969
 461.660468,    1.129969
 467.526362,    1.129969
 473.447963,    1.129969
 479.417871,    1.129969
 485.442922,    1.129969
 491.529972,    1.129969
 497.645811,    1.129969
 503.841262,    1.129969
 510.047268,    1.129969
 516.302770,    1.129969
 522.625141,    1.129969
 529.004313,    1.129969
 535.448139,    1.129969
 541.899915,    1.129969
 548.436932,    1.129969
 555.029611,    1.129969
 561.673836,    1.129969
 568.379571,    1.129969
 575.152323,    1.129969
 581.968558,    1.129969
 588.829393,    1.129969
 595.732654,    1.129969
 602.692500,    1.129969
 609.735840,    1.129969
 616.813045,    1.129969
 623.945081,    1.129969
 631.139556,    1.129969
 638.371403,    1.129969
 645.685603,    1.129969
 653.012593,    1.129969
 660.430143,    1.129969
 667.892073,    1.129969
 675.395593,    1.129969
 682.998257,    1.129969
 690.658967,    1.129969
 698.364533,    1.129969
 706.129310,    1.129969
 713.946688,    1.129969
 721.816065,    1.129969
 729.729551,    1.129969
 737.689198,    1.129969
 745.736729,    1.129969
 753.815542,    1.129969
 761.935926,    1.129969
 770.125281,    1.129969
 778.374270,    1.129969
 786.680120,    1.129969
 795.040785,    1.129969
 803.441164,    1.129969
 811.917185,    1.129969
 812.259096,    1.129969
 812.542937,    1.129969
 812.808691,    1.129969
 813.068171,    1.129969
 813.127755,    1.129969
 813.141969,    1.129969
 813.170170,    1.129969
 813.177691,    1.129969
 813.179309,    1.129969
 813.180305,    1.129969
 813.181333,    1.129969
 813.191618,    1.129969
 813.290256,    1.129969
 813.819556,    1.129969
 816.053410,    1.129969
 821.912851,    1.129969
 829.483908,    1.129969
 837.020858,    1.129969
 844.616010,    1.129969
 852.254377,    1.129969
 859.959811,    1.129969
 867.694800,    1.129969
 875.463457,    1.129969
 883.260426,    1.129969
 891.142348,    1.129969
 899.047254,    1.129969
 907.004377,    1.129969
 915.025500,    1.129969
 923.105667,    1.129969
 931.216103,    1.129969
 939.364407,    1.129969
 947.559788,    1.129969
 955.816290,    1.129969
 964.111110,    1.129969
 972.447419,    1.129969
 980.836626,    1.129969
 989.267467,    1.129969
 997.778917,    1.129969
1006.321048,    1.129969
1014.925936,    1.129969
1023.557874,    1.129969
1032.232734,    1.129969
1040.978055,    1.129969
1049.751626,    1.129969
1058.584135,    1.129969
1067.460100,    1.129969
1076.386310,    1.129969
1085.361282,    1.129969
1094.370094,    1.129969
1103.442856,    1.129969
1112.552796,    1.129969
1121.727417,    1.129969
1130.962792,    1.129969
1140.227802,    1.129969
1149.555198,    1.129969
1158.930549,    1.129969
1168.378717,    1.129969
1177.841418,    1.129969
1187.362268,    1.129969
1196.945624,    1.129969
1206.564155,    1.129969
1216.234979,    1.129969
1225.973925,    1.129969
1235.747272,    1.129969
1245.570996,    1.129969
1255.453953,    1.129969
1265.390069,    1.129969
1275.380238,    1.129969
1285.441362,    1.129969
1295.525647,    1.129969
1305.674630,    1.129969
1315.865092,    1.129969
1326.098365,    1.129969
1336.392742,    1.129969
1346.735103,    1.129969
1357.170537,    1.129969
1367.623046,    1.129969
1378.139767,    1.129969
1388.718010,    1.129969
1399.358609,    1.129969
1410.039205,    1.129969
1420.781619,    1.129969
1431.543057,    1.129969
1442.375572,    1.129969
1453.275958,    1.129969
1464.222227,    1.129969
1475.202724,    1.129969
1486.252507,    1.129969
1497.360739,    1.129969
1508.501596,    1.129969
1519.681370,    1.129969
1530.942372,    1.129969
1533.202801,    1.129969
1541.821884,    1.129969
1541.845245,    1.129969
1541.861912,    1.129969
1541.871492,    1.129969
1541.883604,    1.129969
1542.004729,    1.129969
1542.835950,    1.129969
1547.248557,    1.129969
1557.450202,    1.129969
1568.872258,    1.129969
1580.311964,    1.129969
1591.781704,    1.129969
1603.328580,    1.129969
1614.879594,    1.129969
1626.514013,    1.129969
1638.199224,    1.129969
1649.937640,    1.129969
1661.709559,    1.129969
1673.573235,    1.129969
1685.465814,    1.129969
1697.418511,    1.129969
1709.419416,    1.129969
1721.473520,    1.129969
1733.606903,    1.129969
1745.792761,    1.129969
1758.011129,    1.129969
1770.312960,    1.129969
1782.697376,    1.129969
1795.119115,    1.129969
1807.570691,    1.129969
1820.069502,    1.129969
1832.625141,    1.129969
1845.273172,    1.129969
1857.971449,    1.129969
1870.707953,    1.129969
1883.484812,    1.129969
1896.348175,    1.129969
1909.254218,    1.129969
1922.225286,    1.129969
1935.234496,    1.129969
1948.320921,    1.129969
1961.459854,    1.129969
1974.670521,    1.129969
1987.901125,    1.129969
2001.212372,    1.129969
2014.596507,    1.129969
2028.000601,    1.129969
2041.461772,    1.129969
2054.992137,    1.129969
2068.600753,    1.129969
2082.244900,    1.129969
2095.920126,    1.129969
2109.651901,    1.129969
2123.464666,    1.129969
2137.327812,    1.129969
2151.273345,    1.129969
2165.277838,    1.129969
2179.337221,    1.129969
2193.455849,    1.129969
2207.595553,    1.129969
2221.797810,    1.129969
2236.093985,    1.129969
2242.322665,    1.129969
2250.401488,    1.129969
2264.815747,    1.143001
2279.277764,    1.166081
2293.813955,    1.188956
2308.399408,    1.211668
2323.088451,    1.234179
2337.796558,    1.256574
2352.589046,    1.278724
2367.439682,    1.300729
2382.344216,    1.322551
2397.334902,    1.344183
2412.343573,    1.365675
2427.438264,    1.386929
2442.539828,    1.408043
2457.759663,    1.428908
2473.024827,    1.449679
2488.327620,    1.470257
2503.665914,    1.490632
2519.063953,    1.510805
2534.488655,    1.530808
2549.987083,    1.550601
2565.513359,    1.570246
2581.076188,    1.589685
2596.678425,    1.608932
2612.307917,    1.627993
2615.435515,    1.646854
2616.089701,    1.650586
2616.754471,    1.651365
2616.767998,    1.652156
2616.779885,    1.652172
2616.782708,    1.652186
2616.785379,    1.652190
2616.812082,    1.652193
2617.062875,    1.652225
2618.718616,    1.652523
2626.393374,    1.654491
2642.704475,    1.663601
2659.084821,    1.682832
2675.490851,    1.701902
2676.582985,    1.720761
2677.674194,    1.722002
2678.768038,    1.723241
2679.859704,    1.724482
2680.947885,    1.725720
2682.043627,    1.726952
2683.135900,    1.728192
2684.234547,    1.729427
2685.333930,    1.730668
2686.429675,    1.731909
2687.530618,    1.733145
2688.631750,    1.734386
2689.734023,    1.735626
2690.832655,    1.736866
2691.933472,    1.738101
2693.039463,    1.739337
2694.144857,    1.740578
2695.247608,    1.741817
2696.351020,    1.743053
2697.457818,    1.744288
2698.567130,    1.745526
2699.677749,    1.746765
2700.785765,    1.748005
2701.896376,    1.749241
2703.008216,    1.750479
2704.118614,    1.751718
2705.230487,    1.752953
2706.346564,    1.754189
2707.462941,    1.755429
2708.582005,    1.756668
2709.703534,    1.757909
2710.823084,    1.759152
2711.941094,    1.760392
2713.064054,    1.761628
2714.190612,    1.762869
2715.308298,    1.764114
2716.430535,    1.765347
2717.555847,    1.766584
2718.686290,    1.767823
2719.816310,    1.769068
2720.947103,    1.770310
2722.081681,    1.771553
2723.216999,    1.772798
2724.350323,    1.774043
2725.483336,    1.775285
2726.619721,    1.776526
2727.757821,    1.777769
2728.901007,    1.779013
2730.041259,    1.780262
2731.178751,    1.781506
2732.321372,    1.782746
2733.469635,    1.783991
2734.619688,    1.785240
2735.761553,    1.786491
2736.909632,    1.787732
2738.060014,    1.788978
2739.212270,    1.790226
2740.368441,    1.791474
2741.526098,    1.792726
2742.683626,    1.793979
2743.840233,    1.795230
2744.994946,    1.796479
2746.152200,    1.797725
2747.313779,    1.798973
2748.476222,    1.800224
2749.639876,    1.800224
2750.801271,    1.800224
2751.966205,    1.800224
2753.134094,    1.800224
2754.300972,    1.800224
2755.468712,    1.800224
2756.644688,    1.800224
2757.811119,    1.800224
2758.986430,    1.800224
2760.163445,    1.800224
2761.343264,    1.800224
2762.521333,    1.800224
2763.706038,    1.800224
2764.889563,    1.800224
2766.067310,    1.800224
2767.248013,    1.800224
2768.432908,    1.800224
2769.618887,    1.800224
2770.806411,    1.800224
2772.000373,    1.800224
2773.192540,    1.800224
2774.384006,    1.800224
2775.577908,    1.800224
2776.771609,    1.800224
2777.970663,    1.800224
2779.169368,    1.800224
2780.367680,    1.800224
2781.568429,    1.800224
2782.764614,    1.800224
2783.968367,    1.800224
2785.171805,    1.800224
2786.380475,    1.800224
2787.590632,    1.800224
2788.798109,    1.800224
2790.009338,    1.800224
2791.222316,    1.800224
2792.435311,    1.800224
2793.650223,    1.800224
2794.864392,    1.800224
2796.080555,    1.800224
2797.303005,    1.800224
2798.525660,    1.800224
2799.751918,    1.800224
2800.975772,    1.800224
2802.197561,    1.800224
2803.428323,    1.800224
2804.657523,    1.800224
2805.881930,    1.800224
2807.119926,    1.800224
2808.357958,    1.800224
2809.597916,    1.800224
2810.841289,    1.800224
2812.083878,    1.800224
2813.323635,    1.800224
2814.563973,    1.800224
2815.812208,    1.800224
2817.058819,    1.800224
2818.305455,    1.800224
2819.550460,    1.800224
2820.803049,    1.800224
2822.062224,    1.800224
2823.318804,    1.800224
2824.577749,    1.800224
2825.841078,    1.800224
2827.104362,    1.800224
2828.370866,    1.800224
2829.633142,    1.800224
2830.899487,    1.800224
2832.165598,    1.800224
2833.426000,    1.800224
2834.696312,    1.800224
2835.974286,    1.800224
2837.249915,    1.800224
2838.530658,    1.800224
2839.817860,    1.800224
2841.103217,    1.800224
2842.388886,    1.800224
2843.676265,    1.800224
2844.970690,    1.800224
2846.262257,    1.800224
2847.231627,    1.800224
2847.553446,    1.800224
2848.842486,    1.800224
2850.142594,    1.800224
2851.453215,    1.800224
2852.754582,    1.800224
2854.064772,    1.800224
2855.375816,    1.800224
2856.686175,    1.800224
2858.005098,    1.800224
2859.315997,    1.800224
2860.626965,    1.800224
2861.943005,    1.800224
2863.263295,    1.800224
2864.588138,    1.800224
2865.910061,    1.800224
2867.238534,    1.800224
2868.569581,    1.800224
2869.900393,    1.800224
2871.234813,    1.800224
2872.570866,    1.800224
2873.913097,    1.800224
2875.257956,    1.800224
2876.604669,    1.800224
2877.957920,    1.800224
2879.315587,    1.800224
2880.664259,    1.800224
2882.026879,    1.800224
2883.383090,    1.800224
2884.750256,    1.800224
2886.108936,    1.800224
2887.476757,    1.800224
2888.848690,    1.800224
2890.215681,    1.800224
2891.580152,    1.800224
2892.958870,    1.800224
2894.339774,    1.800224
2895.721695,    1.800224
2897.102506,    1.800224
2898.492992,    1.800224
2899.874278,    1.800224
2901.259240,    1.800224
2902.653115,    1.800224
2904.056404,    1.800224
2905.450334,    1.800224
2906.856619,    1.800224
2908.259475,    1.800224
2909.666180,    1.800224
2911.075008,    1.800224
2912.483127,    1.800224
2913.895181,    1.800224
2915.311963,    1.800224
2916.736003,    1.800224
2918.161325,    1.800224
2919.581026,    1.800224
2921.019352,    1.800224
2922.444084,    1.800224
2923.881624,    1.800224
2925.318067,    1.800224
2926.755026,    1.800224
2928.197225,    1.800224
2929.649058,    1.800224
2931.094848,    1.800224
2932.546872,    1.800224
2933.997638,    1.800224
2935.451518,    1.800224
2936.908934,    1.800224
2938.367818,    1.800224
2939.834653,    1.800224
2941.302397,    1.800224
2942.776679,    1.800224
2944.237713,    1.800224
2945.716476,    1.800224
2947.200160,    1.800224
2948.687406,    1.800224
2950.182289,    1.800224
2951.685521,    1.800224
2953.175679,    1.800224
2954.675770,    1.800224
2956.175660,    1.800224
2957.668924,    1.800224
2959.171585,    1.800224
2960.682518,    1.800224
2962.191769,    1.800224
2963.704819,    1.800224
2965.224321,    1.800224
2966.737512,    1.800224
2968.256330,    1.800224
2969.781741,    1.800224
2971.319013,    1.800224
2972.834438,    1.800224
2974.379876,    1.800224
2975.919057,    1.800224
2977.462512,    1.800224
2979.000123,    1.800224
2980.549087,    1.800224
2982.094839,    1.800224
2983.639880,    1.800224
2985.198983,    1.800224
2986.755771,    1.800224
2988.325511,    1.800224
2989.902303,    1.800224
2991.474609,    1.800224
2993.051745,    1.800224
2994.635620,    1.800224
2996.215196,    1.800224
2997.800901,    1.800224
2999.386508,    1.800224
3000.971632,    1.800224
3002.562335,    1.800224
3004.167381,    1.800224
3005.769393,    1.800224
3007.372546,    1.800224
3008.970787,    1.800224
3010.580461,    1.800224
3012.182194,    1.800224
3013.803887,    1.800224
3015.415652,    1.800224
3017.049978,    1.800224
3018.692725,    1.800224
3020.322161,    1.800224
3021.955478,    1.800224
3023.586182,    1.800224
3025.221806,    1.800224
3026.866603,    1.800224
3028.514615,    1.800224
3030.156773,    1.800224
3031.809681,    1.800224
3033.471216,    1.800224
3035.132641,    1.800224
3036.805073,    1.800224
3038.478639,    1.800224
3040.150052,    1.800224
3041.818134,    1.800224
3043.492516,    1.800224
3045.170180,    1.800224
3046.857809,    1.800224
3048.556171,    1.800224
3050.249288,    1.800224
3051.944972,    1.800224
3053.635025,    1.800224
3055.345355,    1.800224
3057.042004,    1.800224
3058.741408,    1.800224
3060.449061,    1.800224
3062.159277,    1.800224
3063.876044,    1.800224
3065.606666,    1.800224
3067.329448,    1.800224
3069.066616,    1.800224
3070.790927,    1.800224
3072.533796,    1.800224
3074.273017,    1.800224
3076.015594,    1.800224
3077.760679,    1.800224
3079.514374,    1.800224
3081.271464,    1.800224
3083.023560,    1.800224
3084.788166,    1.800224
3086.550935,    1.800224
3088.324161,    1.800224
3090.096966,    1.800224
3091.860111,    1.800224
3093.631660,    1.800224
3095.415665,    1.800224
3097.193084,    1.800224
3098.979015,    1.800224
3100.752782,    1.800224
3102.543949,    1.800224
3104.355979,    1.800224
3106.142010,    1.800224
3107.951129,    1.800224
3109.756608,    1.800224
3111.569696,    1.800224
3113.377659,    1.800224
3115.182775,    1.800224
3117.019757,    1.800224
3118.833712,    1.800224
3120.662176,    1.800224
3122.501715,    1.800224
3124.327298,    1.800224
3126.175379,    1.800224
3128.021311,    1.800224
3129.882920,    1.800224
3131.724079,    1.800224
3133.553831,    1.800224
3135.407292,    1.800224
3137.268387,    1.800224
3139.127386,    1.800224
3140.998098,    1.800224
3142.860075,    1.800224
3144.717901,    1.800224
3146.587074,    1.800224
3148.441775,    1.800224
3150.320413,    1.800224
3152.192998,    1.800224
3154.080906,    1.800224
3155.970893,    1.800224
3157.870123,    1.800224
3159.761973,    1.800224
3161.659222,    1.800224
3163.555960,    1.800224
3165.460113,    1.800224
3167.366637,    1.800224
3169.286583,    1.800224
3171.198640,    1.800224
3173.097154,    1.800224
3175.008308,    1.800224
3176.919891,    1.800224
3178.869375,    1.800224
3180.796248,    1.800224
3182.729092,    1.800224
3184.658218,    1.800224
3186.595453,    1.800224
3188.526776,    1.800224
3190.482769,    1.800224
3192.437390,    1.800224
3194.386303,    1.800224
3196.337328,    1.800224
3198.292503,    1.800224
3200.239756,    1.800224
3202.222774,    1.800224
3204.183824,    1.800224
3206.161011,    1.800224
3208.148598,    1.800224
3210.135097,    1.800224
3212.118688,    1.800224
3214.099888,    1.800224
3216.094830,    1.800224
3218.085593,    1.800224
3220.078960,    1.800224
3222.062037,    1.800224
3224.054307,    1.800224
3226.044591,    1.800224
3228.053202,    1.800224
3230.043534,    1.800224
3232.050937,    1.800224
3234.063482,    1.800224
3236.063695,    1.800224
3238.083816,    1.800224
3240.111696,    1.800224
3242.125450,    1.800224
3244.148552,    1.800224
3246.165394,    1.800224
3248.208576,    1.800224
3250.242085,    1.800224
3252.273106,    1.800224
3254.338089,    1.800224
3256.418253,    1.800224
3258.488419,    1.800224
3260.522225,    1.800224
3262.556528,    1.800224
3264.613602,    1.800224
3266.641182,    1.800224
3268.717105,    1.800224
3270.794392,    1.800224
3272.841369,    1.800224
3274.920577,    1.800224
3276.997964,    1.800224
3279.071660,    1.800224
3281.155042,    1.800224
3283.218845,    1.800224
3285.304971,    1.800224
3287.375413,    1.800224
3289.453498,    1.800224
3291.549733,    1.800224
3293.663505,    1.800224
3295.732215,    1.800224
3297.824191,    1.800224
3299.912516,    1.800224
3302.021474,    1.800224
3304.113067,    1.800224
3306.215490,    1.800224
3308.307867,    1.800224
3310.397534,    1.800224
3312.522095,    1.800224
3314.627897,    1.800224
3316.740773,    1.800224
3318.870359,    1.800224
3320.970392,    1.800224
3323.086659,    1.800224
3325.231049,    1.800224
3327.359042,    1.800224
3329.491150,    1.800224
3331.615945,    1.800224
3333.744846,    1.800224
3335.884264,    1.800224
3338.033054,    1.800224
3340.173188,    1.800224
3342.322739,    1.800224
3344.458590,    1.800224
3346.594182,    1.800224
3348.745440,    1.800224
3350.889080,    1.800224
3353.061130,    1.800224
3355.216379,    1.800224
3357.365596,    1.800224
3359.534672,    1.800224
3361.702954,    1.800224
3363.859412,    1.800224
3365.994991,    1.800224
3368.170251,    1.800224
3370.355647,    1.800224
3372.526018,    1.800224
3374.684475,    1.800224
3376.840391,    1.800224
3378.995788,    1.800224
3381.178869,    1.800224
3383.369798,    1.800224
3385.568333,    1.800224
3387.747773,    1.800224
3389.939428,    1.800224
3392.112737,    1.800224
3393.207826,    1.800224
