Speed, Forces
 132.747138, 5584.966881
 134.374026, 5066.937931
 136.000914, 4845.793006
 137.627802, 4652.843435
 139.254690, 4533.808795
 140.881577, 4413.375325
 142.508465, 4316.341547
 144.135353, 4228.231355
 145.762241, 4139.120999
 147.389128, 4059.101212
 149.016016, 3984.643646
 150.642904, 3909.368725
 152.269792, 3835.617202
 153.896680, 3775.306241
 155.523567, 3714.354326
 157.150455, 3652.761459
 158.777343, 3593.911155
 160.404231, 3545.681258
 162.031119, 3496.959699
 163.658006, 3447.746478
 165.284894, 3398.041596
 166.911782, 3358.134328
 168.538670, 3320.728578
 170.165557, 3282.960003
 171.792445, 3244.828602
 173.419333, 3206.334376
 175.046221, 3176.241578
 176.673109, 3150.594636
 178.299996, 3124.710433
 179.926884, 3098.588969
 181.553772, 3072.230244
 183.180660, 3045.634257
 184.807547, 3027.273995
 186.434435, 3013.358207
 188.061323, 2999.320452
 189.688211, 2985.160732
 191.315099, 2970.879046
 192.941986, 2956.475394
 194.568874, 2941.949776
 196.195762, 2932.727434
 197.822650, 2928.911113
 199.449537, 2925.063278
 201.076425, 2921.183928
 202.703313, 2917.273062
 204.330201, 2913.330682
 205.957089, 2909.356787
 207.583976, 2905.351377
 209.210864, 2901.314452
 210.837752, 2904.984951
 212.464640, 2910.890147
 214.091527, 2916.840733
 215.718415, 2922.836710
 217.345303, 2928.878079
 218.972191, 2934.964839
 220.599079, 2941.096990
 222.225966, 2947.274532
 223.852854, 2953.497465
 225.479742, 2959.765789
 227.106630, 2966.079505
 228.733517, 2980.922883
 230.360405, 2997.767023
 231.987293, 3014.730543
 233.614181, 3031.813444
 235.241069, 3049.015726
 236.867956, 3066.337389
 238.494844, 3083.778433
 240.121732, 3101.338858
 241.748620, 3119.018663
 243.375507, 3136.817850
 245.002395, 3154.736417
 246.629283, 3172.774366
 248.256171, 3190.931695
 249.883059, 3209.208405
 251.509946, 3231.692291
 253.136834, 3259.147578
 254.763722, 3286.779886
 256.390610, 3314.589217
 258.017498, 3342.575568
 259.644385, 3370.738942
 261.271273, 3399.079337
 262.898161, 3427.596753
 264.525049, 3456.291191
 266.151936, 3485.162650
 267.778824, 3514.211131
 269.405712, 3543.436633
 271.032600, 3572.839157
 272.659488, 3602.418703
 274.286375, 3632.175270
 275.913263, 3662.108858
 277.540151, 3692.219468
 279.167039, 3722.507100
 280.793926, 3752.971753
 282.420814, 3783.613428
 284.047702, 3817.834725
 285.674590, 3855.855903
 287.301478, 3894.094227
 288.928365, 3932.549696
 290.555253, 3971.222310
 292.182141, 4010.112068
 293.809029, 4049.218972
