Speed, Forces
 114.366752, 5584.966881
 116.285069, 4985.725522
 118.203385, 4683.884993
 120.121702, 4521.119942
 122.040019, 4362.238523
 123.958336, 4242.114656
 125.876653, 4120.117317
 127.794970, 4015.981382
 129.713287, 3913.220508
 131.631604, 3816.524110
 133.549921, 3733.539909
 135.468238, 3649.355097
 137.386555, 3573.539106
 139.304872, 3507.120805
 141.223189, 3439.781541
 143.141506, 3375.606406
 145.059823, 3324.553614
 146.978140, 3272.821190
 148.896457, 3220.409134
 150.814774, 3176.137029
 152.733091, 3140.974504
 154.651407, 3105.367549
 156.569724, 3069.316164
 158.488041, 3034.480737
 160.406358, 3015.491340
 162.324675, 2996.273482
 164.242992, 2976.827161
 166.161309, 2957.152377
 168.079626, 2937.249131
 169.997943, 2930.095780
 171.916260, 2924.834893
 173.834577, 2919.514973
 175.752894, 2914.136020
 177.671211, 2908.698035
 179.589528, 2903.201017
 181.507845, 2904.410335
 183.426162, 2912.497781
 185.344479, 2920.670253
 187.262796, 2928.927749
 189.181112, 2937.270271
 191.099429, 2945.697818
 193.017746, 2954.210389
 194.936063, 2962.807986
 196.854380, 2978.429590
 198.772697, 3001.488928
 200.691014, 3024.771885
 202.609331, 3048.278463
 204.527648, 3072.008661
 206.445965, 3095.962479
 208.364282, 3120.139918
 210.282599, 3144.540976
 212.200916, 3169.165655
 214.119233, 3194.013955
 216.037550, 3219.085874
 217.955867, 3256.569599
 219.874184, 3294.410161
 221.792501, 3332.582314
 223.710817, 3371.086058
 225.629134, 3409.921392
 227.547451, 3449.088317
 229.465768, 3488.586833
 231.384085, 3528.416940
 233.302402, 3568.578637
 235.220719, 3609.071925
 237.139036, 3649.896804
 239.057353, 3691.053273
 240.975670, 3732.541333
 242.893987, 3774.360984
 244.812304, 3820.386301
 246.730621, 3872.498253
 248.648938, 3925.016954
 250.567255, 3977.942404
 252.485572, 4031.274602
 254.403889, 4085.013550
 256.322206, 4139.159246
 258.240523, 4193.711691
 260.158839, 4248.670884
 262.077156, 4304.036827
 263.995473, 4359.809518
 265.913790, 4415.988958
 267.832107, 4472.575147
 269.750424, 4529.568084
 271.668741, 4586.967770
 273.587058, 4644.774205
 275.505375, 4702.987389
 277.423692, 4761.607322
 279.342009, 4820.634003
 281.260326, 4880.067433
 283.178643, 4939.907612
 285.096960, 5000.154540
 287.015277, 5061.440941
 288.933594, 5130.837699
 290.851911, 5200.696738
 292.770228, 5271.018058
 294.688544, 5341.801658
 296.606861, 5413.047538
 298.525178, 5484.755699
 300.443495, 5556.926141
 302.361812, 5629.558863
 304.280129, 5702.653866
