Speed, Forces
 155.797075, 5584.966881
 157.081560, 5224.829609
 158.366046, 4990.844390
 159.650531, 4841.749210
 160.935016, 4691.449625
 162.219502, 4609.721433
 163.503987, 4529.455687
 164.788473, 4448.556888
 166.072958, 4370.311145
 167.357443, 4311.563283
 168.641929, 4252.362788
 169.926414, 4192.709661
 171.210899, 4132.603900
 172.495385, 4077.925921
 173.779870, 4028.066428
 175.064356, 3977.837034
 176.348841, 3927.237739
 177.633326, 3876.268542
 178.917812, 3829.071652
 180.202297, 3788.522512
 181.486782, 3747.683304
 182.771268, 3706.554026
 184.055753, 3665.134679
 185.340239, 3623.425264
 186.624724, 3586.929314
 187.909209, 3554.489899
 189.193695, 3521.827980
 190.478180, 3488.943554
 191.762665, 3455.836623
 193.047151, 3422.507187
 194.331636, 3388.955245
 195.616121, 3363.547797
 196.900607, 3338.459484
 198.185092, 3313.206971
 199.469578, 3287.790259
 200.754063, 3262.209346
 202.038548, 3236.464234
 203.323034, 3210.554923
 204.607519, 3187.361011
 205.892004, 3170.203460
 207.176490, 3152.938534
 208.460975, 3135.566234
 209.745461, 3118.086559
 211.029946, 3100.499509
 212.314431, 3082.805084
 213.598917, 3065.003285
 214.883402, 3047.094111
 216.167887, 3032.556731
 217.452373, 3023.239999
 218.736858, 3013.868070
 220.021344, 3004.440945
 221.305829, 2994.958623
 222.590314, 2985.421104
 223.874800, 2975.828388
 225.159285, 2966.180476
 226.443770, 2956.477367
 227.728256, 2946.719061
 229.012741, 2936.905559
 230.297226, 2932.658874
 231.581712, 2930.094628
 232.866197, 2927.516119
 234.150683, 2924.923347
 235.435168, 2922.316314
 236.719653, 2919.695018
 238.004139, 2917.059459
 239.288624, 2914.409639
 240.573109, 2911.745556
 241.857595, 2909.067210
 243.142080, 2906.374603
 244.426566, 2903.667733
 245.711051, 2900.946600
 246.995536, 2903.594776
 248.280022, 2907.555128
 249.564507, 2911.536022
 250.848992, 2915.537457
 252.133478, 2919.559435
 253.417963, 2923.601955
 254.702449, 2927.665018
 255.986934, 2931.748622
 257.271419, 2935.852769
 258.555905, 2939.977457
 259.840390, 2944.122688
 261.124875, 2948.288461
 262.409361, 2952.474777
 263.693846, 2956.681634
 264.978331, 2960.909033
 266.262817, 2965.156975
 267.547302, 2972.998147
 268.831788, 2984.278493
 270.116273, 2995.612866
 271.400758, 3007.001265
 272.685244, 3018.443692
 273.969729, 3029.940145
 275.254214, 3041.490626
 276.538700, 3053.095133
 277.823185, 3064.753667
 279.107671, 3076.466228
 280.392156, 3088.232816
 281.676641, 3100.053430
 282.961127, 3111.928072
