Speed, Forces
 155.797075, 4856.530046
 157.081560, 4832.397892
 158.366046, 4808.265737
 159.650531, 4784.133583
 160.935016, 4760.001428
 162.219502, 4735.869273
 163.503987, 4711.737119
 164.788473, 4687.604964
 166.072958, 4663.472810
 167.357443, 4639.340655
 168.641929, 4615.208500
 169.926414, 4591.827657
 171.210899, 4571.809364
 172.495385, 4551.791070
 173.779870, 4531.772777
 175.064356, 4511.754484
 176.348841, 4491.736190
 177.633326, 4471.717897
 178.917812, 4451.699604
 180.202297, 4431.681310
 181.486782, 4411.663017
 182.771268, 4391.644724
 184.055753, 4371.626430
 185.340239, 4351.608137
 186.624724, 4331.589844
 187.909209, 4311.571550
 189.193695, 4291.553257
 190.478180, 4271.534964
 191.762665, 4254.442944
 193.047151, 4238.798530
 194.331636, 4223.154116
 195.616121, 4207.509703
 196.900607, 4191.865289
 198.185092, 4176.220876
 199.469578, 4160.576462
 200.754063, 4144.932048
 202.038548, 4129.287635
 203.323034, 4113.643221
 204.607519, 4097.998808
 205.892004, 4082.354394
 207.176490, 4066.709980
 208.460975, 4051.065567
 209.745461, 4035.421153
 211.029946, 4019.776740
 212.314431, 4004.440910
 213.598917, 3990.781932
 214.883402, 3977.122953
 216.167887, 3963.463974
 217.452373, 3949.804995
 218.736858, 3936.146016
 220.021344, 3922.487038
 221.305829, 3908.828059
 222.590314, 3895.169080
 223.874800, 3881.510101
 225.159285, 3867.851123
 226.443770, 3854.192144
 227.728256, 3840.533165
 229.012741, 3826.874186
 230.297226, 3813.215208
 231.581712, 3799.556229
 232.866197, 3785.897250
 234.150683, 3773.352822
 235.435168, 3761.430368
 236.719653, 3749.507914
 238.004139, 3737.585459
 239.288624, 3725.663005
 240.573109, 3713.740551
 241.857595, 3701.818097
 243.142080, 3689.895642
 244.426566, 3677.973188
 245.711051, 3666.050734
 246.995536, 3654.128279
 248.280022, 3642.205825
 249.564507, 3630.283371
 250.848992, 3618.360917
 252.133478, 3606.438462
 253.417963, 3594.516008
 254.702449, 3582.783783
 255.986934, 3572.344957
 257.271419, 3561.906131
 258.555905, 3551.467306
 259.840390, 3541.028480
 261.124875, 3530.589654
 262.409361, 3520.150828
 263.693846, 3509.712003
 264.978331, 3499.273177
 266.262817, 3488.834351
 267.547302, 3478.395525
 268.831788, 3467.956700
 270.116273, 3457.517874
 271.400758, 3447.079048
 272.685244, 3436.640222
 273.969729, 3426.201397
 275.254214, 3415.762571
 276.538700, 3406.310628
 277.823185, 3397.477473
 279.107671, 3388.644319
 280.392156, 3379.811164
 281.676641, 3370.978009
 282.961127, 3362.144855
