Speed, Forces
 114.366752, 9119.480973
 116.285069, 9041.785600
 118.203385, 8964.090228
 120.121702, 8886.394855
 122.040019, 8808.699483
 123.958336, 8731.004110
 125.876653, 8653.308738
 127.794970, 8575.613365
 129.713287, 8497.917993
 131.631604, 8420.222620
 133.549921, 8342.527248
 135.468238, 8264.831875
 137.386555, 8189.715802
 139.304872, 8121.375158
 141.223189, 8053.034513
 143.141506, 7984.693869
 145.059823, 7916.353224
 146.978140, 7848.012580
 148.896457, 7779.671936
 150.814774, 7711.331291
 152.733091, 7642.990647
 154.651407, 7574.650002
 156.569724, 7506.309358
 158.488041, 7437.968713
 160.406358, 7372.677722
 162.324675, 7312.252093
 164.242992, 7251.826463
 166.161309, 7191.400833
 168.079626, 7130.975203
 169.997943, 7070.549573
 171.916260, 7010.123943
 173.834577, 6949.698314
 175.752894, 6889.272684
 177.671211, 6828.847054
 179.589528, 6768.421424
 181.507845, 6707.995794
 183.426162, 6651.034589
 185.344479, 6597.609594
 187.262796, 6544.184599
 189.181112, 6490.759604
 191.099429, 6437.334608
 193.017746, 6383.909613
 194.936063, 6330.484618
 196.854380, 6277.059622
 198.772697, 6223.634627
 200.691014, 6170.209632
 202.609331, 6116.784637
 204.527648, 6063.359641
 206.445965, 6013.675623
 208.364282, 5966.439674
 210.282599, 5919.203725
 212.200916, 5871.967776
 214.119233, 5824.731827
 216.037550, 5777.495878
 217.955867, 5730.259929
 219.874184, 5683.023980
 221.792501, 5635.788031
 223.710817, 5588.552082
 225.629134, 5541.316133
 227.547451, 5494.080184
 229.465768, 5451.154468
 231.384085, 5409.955096
 233.302402, 5368.755723
 235.220719, 5327.556351
 237.139036, 5286.356979
 239.057353, 5245.157606
 240.975670, 5203.958234
 242.893987, 5162.758862
 244.812304, 5121.559490
 246.730621, 5080.360117
 248.648938, 5039.160745
 250.567255, 4997.961373
 252.485572, 4959.931063
 254.403889, 4922.579520
 256.322206, 4885.227976
 258.240523, 4847.876433
 260.158839, 4810.524890
 262.077156, 4773.173346
 263.995473, 4735.821803
 265.913790, 4698.470259
 267.832107, 4661.118716
 269.750424, 4623.767172
 271.668741, 4586.415629
 273.587058, 4549.064085
 275.505375, 4513.892493
 277.423692, 4478.877031
 279.342009, 4443.861570
 281.260326, 4408.846108
 283.178643, 4373.830646
 285.096960, 4338.815184
 287.015277, 4303.799722
 288.933594, 4268.784260
 290.851911, 4233.768799
 292.770228, 4198.753337
 294.688544, 4163.737875
 296.606861, 4128.713203
 298.525178, 4093.482263
 300.443495, 4058.251324
 302.361812, 4023.020384
 304.280129, 3987.789445
