Speed, Forces
 143.597410, 5958.205574
 145.060414, 5921.840028
 146.523418, 5885.474482
 147.986422, 5849.108936
 149.449426, 5812.743390
 150.912429, 5776.377844
 152.375433, 5745.165645
 153.838437, 5716.171097
 155.301441, 5687.176550
 156.764445, 5658.182003
 158.227449, 5629.187455
 159.690453, 5600.192908
 161.153457, 5571.198361
 162.616461, 5542.203814
 164.079465, 5513.209266
 165.542469, 5484.214719
 167.005473, 5455.220172
 168.468477, 5426.225625
 169.931481, 5397.231077
 171.394485, 5368.236530
 172.857489, 5339.241983
 174.320493, 5314.408764
 175.783497, 5289.936941
 177.246501, 5265.465119
 178.709505, 5240.993297
 180.172509, 5216.521475
 181.635513, 5192.049653
 183.098516, 5167.577830
 184.561520, 5143.106008
 186.024524, 5118.634186
 187.487528, 5094.162364
 188.950532, 5069.690542
 190.413536, 5045.218719
 191.876540, 5020.746897
 193.339544, 4996.275075
 194.802548, 4972.179492
 196.265552, 4950.375004
 197.728556, 4928.570516
 199.191560, 4906.766028
 200.654564, 4884.961540
 202.117568, 4863.157052
 203.580572, 4841.352564
 205.043576, 4819.548076
 206.506580, 4797.743588
 207.969584, 4775.939100
 209.432588, 4754.134612
 210.895592, 4732.330124
 212.358596, 4710.525636
 213.821600, 4688.721148
 215.284603, 4666.916661
 216.747607, 4645.965293
 218.210611, 4626.517471
 219.673615, 4607.069649
 221.136619, 4587.621828
 222.599623, 4568.174006
 224.062627, 4548.726185
 225.525631, 4529.278363
 226.988635, 4509.830542
 228.451639, 4490.382720
 229.914643, 4470.934898
 231.377647, 4451.487077
 232.840651, 4432.039255
 234.303655, 4412.591434
 235.766659, 4393.143612
 237.229663, 4373.695791
 238.692667, 4355.678865
 240.155671, 4338.685562
 241.618675, 4321.692260
 243.081679, 4304.698957
 244.544683, 4287.705654
 246.007687, 4270.712351
 247.470691, 4253.719048
 248.933694, 4236.725745
 250.396698, 4219.732442
 251.859702, 4202.739139
 253.322706, 4185.745836
 254.785710, 4168.752534
 256.248714, 4151.759231
 257.711718, 4134.765928
 259.174722, 4117.772625
 260.637726, 4102.508854
 262.100730, 4087.666943
 263.563734, 4072.825033
 265.026738, 4057.983122
 266.489742, 4043.141212
 267.952746, 4028.299301
 269.415750, 4013.457391
 270.878754, 3998.615480
 272.341758, 3983.773570
 273.804762, 3968.931659
 275.267766, 3954.089749
 276.730770, 3939.247838
 278.193774, 3924.405928
 279.656778, 3909.564017
 281.119781, 3894.752326
 282.582785, 3881.125292
 284.045789, 3867.498257
 285.508793, 3853.871223
 286.971797, 3840.244189
 288.434801, 3826.617155
