Speed, Forces
 123.056221, 8307.580625
 124.834332, 8243.361012
 126.612442, 8179.141398
 128.390553, 8114.921785
 130.168663, 8050.702171
 131.946774, 7986.482558
 133.724885, 7922.262945
 135.502995, 7864.385721
 137.281106, 7811.672261
 139.059216, 7758.958801
 140.837327, 7706.245341
 142.615438, 7653.531881
 144.393548, 7600.818421
 146.171659, 7548.104961
 147.949769, 7495.391501
 149.727880, 7442.678041
 151.505991, 7389.964582
 153.284101, 7337.251122
 155.062212, 7284.537662
 156.840323, 7231.824202
 158.618433, 7185.577963
 160.396544, 7139.729458
 162.174654, 7093.880952
 163.952765, 7048.032446
 165.730876, 7002.183940
 167.508986, 6956.335434
 169.287097, 6910.486928
 171.065207, 6864.638422
 172.843318, 6818.789917
 174.621429, 6772.941411
 176.399539, 6727.092905
 178.177650, 6681.244399
 179.955760, 6636.305359
 181.733871, 6593.188769
 183.511982, 6550.072178
 185.290092, 6506.955588
 187.068203, 6463.838998
 188.846314, 6420.722408
 190.624424, 6377.605818
 192.402535, 6334.489227
 194.180645, 6291.372637
 195.958756, 6248.256047
 197.736867, 6205.139457
 199.514977, 6162.022867
 201.293088, 6118.906276
 203.071198, 6075.722493
 204.849309, 6032.513061
 206.627420, 5989.303630
 208.405530, 5946.094199
 210.183641, 5902.884768
 211.961751, 5859.675336
 213.739862, 5816.465905
 215.517973, 5773.256474
 217.296083, 5730.047043
 219.074194, 5686.837611
 220.852305, 5643.628180
 222.630415, 5600.418749
 224.408526, 5557.837054
 226.186636, 5520.105946
 227.964747, 5482.374839
 229.742858, 5444.643731
 231.520968, 5406.912624
 233.299079, 5369.181516
 235.077189, 5331.450408
 236.855300, 5293.719301
 238.633411, 5255.988193
 240.411521, 5218.257086
 242.189632, 5180.525978
 243.967742, 5142.794871
 245.745853, 5105.063763
 247.523964, 5069.425584
 249.302074, 5035.835349
 251.080185, 5002.245115
 252.858296, 4968.654880
 254.636406, 4935.064645
 256.414517, 4901.474411
 258.192627, 4867.884176
 259.970738, 4834.293942
 261.748849, 4800.703707
 263.526959, 4767.113473
 265.305070, 4733.523238
 267.083180, 4699.933004
 268.861291, 4666.342769
 270.639402, 4635.545629
 272.417512, 4605.071760
 274.195623, 4574.597890
 275.973733, 4544.124020
 277.751844, 4513.650151
 279.529955, 4483.176281
 281.308065, 4452.702412
 283.086176, 4422.228542
 284.864287, 4391.754673
 286.642397, 4361.280803
 288.420508, 4330.806934
 290.198618, 4300.333064
 291.976729, 4270.110631
 293.754840, 4240.512502
 295.532950, 4210.914373
 297.311061, 4181.316244
 299.089171, 4151.718115
