Ground Distance, Angles
   0.000000,    0.000000
   0.000001,    0.000000
   0.000017,    0.000000
   0.000255,    0.000000
   0.002467,    0.000000
   0.007750,    0.000000
   0.015959,    0.000000
   0.027137,    0.000000
   0.041254,    0.000000
   0.058408,    0.000000
   0.078561,    0.000000
   0.101951,    0.000000
   0.128563,    0.000000
   0.158279,    0.000000
   0.191119,    0.000000
   0.226989,    0.000000
   0.266463,    0.000000
   0.309271,    0.000000
   0.356037,    0.000000
   0.406380,    0.000000
   0.460071,    0.000000
   0.517529,    0.000000
   0.578467,    0.000000
   0.643393,    0.000000
   0.713008,    0.000000
   0.786968,    0.000000
   0.865394,    0.000000
   0.947628,    0.000000
   1.034972,    0.000000
   1.126468,    0.000000
   1.223765,    0.000000
   1.323474,    0.000000
   1.427744,    0.000000
   1.539258,    0.000000
   1.656041,    0.000000
   1.777219,    0.000000
   1.901956,    0.000000
   2.035541,    0.000000
   2.171958,    0.000000
   2.315495,    0.000000
   2.462520,    0.000000
   2.618731,    0.000000
   2.782166,    0.000000
   2.951571,    0.000000
   3.128011,    0.000000
   3.306491,    0.000000
   3.492216,    0.000000
   3.685102,    0.000000
   3.885058,    0.000000
   4.091914,    0.000000
   4.307990,    0.000000
   4.529082,    0.000000
   4.758750,    0.000000
   4.998555,    0.000000
   5.246563,    0.000000
   5.498612,    0.000000
   5.759659,    0.000000
   6.024581,    0.000000
   6.302768,    0.000000
   6.587963,    0.000000
   6.880423,    0.000000
   7.182638,    0.000000
   7.494247,    0.000000
   7.813722,    0.000000
   8.146740,    0.000000
   8.484523,    0.000000
   8.835726,    0.000000
   9.195778,    0.000000
   9.565990,    0.000000
   9.941763,    0.000000
  10.328643,    0.000000
  10.725944,    0.000000
  11.136037,    0.000000
  11.556321,    0.000000
  11.983383,    0.000000
  12.422011,    0.000000
  12.878082,    0.000000
  13.345818,    0.000000
  13.819351,    0.000000
  14.305407,    0.000000
  14.801299,    0.000000
  15.301561,    0.000000
  15.820471,    0.000000
  16.345555,    0.000000
  16.883176,    0.000000
  17.430886,    0.000000
  17.993900,    0.000000
  18.569241,    0.000000
  19.158773,    0.000000
  19.759306,    0.000000
  20.367591,    0.000000
  20.990672,    0.000000
  21.629373,    0.000000
  22.282321,    0.000000
  22.949992,    0.000000
  23.630059,    0.000000
  24.318486,    0.000000
  25.029145,    0.000000
  25.173378,    0.000000
  25.188905,    0.000000
  25.202393,    0.000000
  25.215028,    0.000000
  25.217716,    0.000000
  25.218371,    0.000000
  25.219681,    0.000000
  25.219769,    0.000000
  25.219947,    0.000000
  25.220111,    0.000000
  25.221746,    0.000000
  25.232282,    0.000000
  25.282756,    0.000000
  25.478586,    0.000000
  25.958376,    0.000000
  26.611884,    0.000000
  27.277827,    0.000000
  27.953232,    0.000000
  28.644698,    0.000000
  29.339141,    0.000000
  30.047994,    0.000000
  30.765539,    0.000000
  31.500691,    0.000000
  32.249390,    0.000000
  33.006053,    0.000000
  33.780350,    0.000000
  34.569074,    0.000000
  35.362586,    0.000000
  36.174676,    0.000000
  36.995868,    0.000000
  37.832162,    0.000000
  38.673925,    0.000000
  39.530810,    0.000000
  40.402492,    0.000000
  41.285628,    0.000000
  42.178556,    0.000000
  43.087960,    0.000000
  44.010630,    0.000000
  44.947107,    0.000000
  45.899917,    0.000000
  46.860352,    0.000000
  47.840451,    0.000000
  48.838804,    0.000000
  49.845897,    0.000000
  50.854911,    0.000000
  51.883263,    0.000000
  52.927618,    0.000000
  53.984773,    0.000000
  55.065146,    0.000000
  56.151595,    0.000000
  57.257791,    0.000000
  58.376309,    0.000000
  59.512760,    0.000000
  60.661241,    0.000000
  61.824384,    0.000000
  63.005557,    0.000000
  64.200518,    0.000000
  65.410485,    0.000000
  66.636564,    0.000000
  67.873699,    0.000000
  69.120170,    0.000000
  70.394835,    0.000000
  71.678802,    0.000000
  72.978929,    0.000000
  74.296693,    0.000000
  75.633479,    0.000000
  76.979364,    0.000000
  78.350272,    0.000000
  79.727807,    0.000000
  81.125676,    0.000000
  82.541232,    0.000000
  83.972526,    0.000000
  85.415697,    0.000000
  86.885005,    0.000000
  88.363049,    0.000000
  89.869540,    0.000000
  91.378737,    0.000000
  92.909923,    0.000000
  94.458758,    0.000000
  96.026552,    0.000000
  97.604164,    0.000000
  99.206718,    0.000000
 100.818558,    0.000000
 102.457913,    0.000000
 104.113139,    0.000000
 104.445670,    0.000000
 104.485463,    0.000000
 104.493304,    0.000000
 104.496288,    0.000000
 104.501933,    0.000000
 104.503796,    0.000000
 104.504318,    0.000000
 104.504550,    0.000000
 104.504918,    0.000000
 104.505253,    0.000000
 104.508600,    0.000000
 104.534841,    0.000000
 104.691129,    0.000000
 105.287713,    0.000000
 106.781555,    0.000000
 108.283360,    0.000000
 109.794029,    0.000000
 111.326500,    0.000000
 112.874280,    0.000000
 114.436413,    0.000000
 116.013378,    0.000000
 117.603289,    0.000000
 119.209536,    0.000000
 120.826994,    0.000000
 122.459989,    0.000000
 124.112435,    0.000000
 125.774368,    0.000000
 127.454219,    0.000000
 129.145975,    0.000000
 130.857381,    0.000000
 132.583634,    0.000000
 134.315875,    0.000000
 136.068820,    0.000000
 137.840843,    0.000000
 139.627519,    0.000000
 141.422901,    0.000000
 143.240681,    0.000000
 145.070923,    0.000000
 146.921858,    0.000000
 148.782838,    0.000000
 150.656333,    0.000000
 152.546934,    0.000000
 154.455011,    0.000000
 156.384002,    0.000000
 158.327845,    0.000000
 160.283892,    0.000000
 162.263596,    0.000000
 164.257907,    0.000000
 166.261760,    0.000000
 168.282175,    0.000000
 170.325250,    0.000000
 172.378165,    0.000000
 174.452665,    0.000000
 176.542314,    0.000000
 178.649208,    0.000000
 180.772169,    0.000000
 182.918861,    0.000000
 185.080120,    0.000000
 187.249169,    0.000000
 189.433720,    0.000000
 191.646193,    0.000000
 193.868494,    0.000000
 196.108664,    0.000000
 198.371146,    0.000000
 200.643063,    0.000000
 202.937959,    0.000000
 205.253088,    0.000000
 207.584292,    0.000000
 209.926108,    0.000000
 212.290700,    0.000000
 214.672591,    0.000000
 217.073425,    0.000000
 219.498429,    0.000000
 221.936667,    0.000000
 224.385422,    0.000000
 226.854951,    0.000000
 229.344430,    0.000000
 231.845408,    0.000000
 234.373241,    0.000000
 236.918280,    0.000000
 239.472076,    0.000000
 242.061401,    0.000000
 244.655126,    0.000000
 245.178202,    0.000000
 245.525963,    0.000000
 245.807041,    0.000000
 246.015277,    0.000000
 246.179781,    0.000000
 246.220123,    0.000000
 246.278080,    0.000000
 246.344385,    0.000000
 246.359208,    0.000000
 246.363379,    0.000000
 246.371722,    0.000000
 246.372421,    0.000000
 246.372948,    0.000000
 246.373149,    0.000000
 246.373379,    0.000000
 246.375677,    0.000000
 246.396109,    0.000000
 246.511073,    0.000000
 247.015681,    0.000000
 249.063039,    0.000000
 251.363044,    0.000000
 253.682942,    0.000000
 256.010641,    0.000000
 258.354513,    0.000000
 260.710223,    0.000000
 263.082284,    0.000000
 265.463729,    0.000000
 267.872028,    0.000000
 270.297303,    0.000000
 272.724031,    0.000000
 275.173148,    0.000000
 277.634148,    0.000000
 280.109651,    0.000000
 282.592366,    0.000000
 285.085595,    0.000000
 287.601677,    0.000000
 290.125010,    0.000000
 292.674027,    0.000000
 295.237084,    0.000000
 297.805362,    0.000000
 300.395551,    0.000000
 303.000628,    0.000000
 305.620327,    0.000000
 308.261604,    0.000000
 310.910642,    0.000000
 313.572746,    0.000000
 316.252244,    0.000000
 318.943579,    0.000000
 321.655360,    0.000000
 324.377621,    0.000000
 327.119918,    0.000000
 329.879168,    0.000000
 332.655198,    0.000000
 335.449935,    0.000000
 338.250530,    0.000000
 341.066686,    0.000000
 343.907420,    0.000000
 346.760218,    0.000000
 349.631279,    0.000000
 352.509553,    0.000000
 355.413508,    0.000000
 358.328246,    0.000000
 361.258124,    0.000000
 364.207589,    0.000000
 367.171726,    0.000000
 370.144577,    0.000000
 373.142474,    0.000000
 376.149799,    0.000000
 379.174534,    0.000000
 382.217267,    0.000000
 385.275058,    0.000000
 388.353354,    0.000000
 391.441803,    0.000000
 394.542724,    0.000000
 397.661268,    0.000000
 400.797138,    0.000000
 403.950422,    0.000000
 407.123842,    0.000000
 410.313786,    0.000000
 413.520413,    0.000000
 416.740260,    0.000000
 419.973927,    0.000000
 423.227911,    0.000000
 426.501601,    0.000000
 429.793011,    0.000000
 433.088002,    0.000000
 436.409353,    0.000000
 439.747571,    0.000000
 443.095956,    0.000000
 446.461655,    0.000000
 449.845688,    0.000000
 453.248885,    0.000000
 456.664749,    0.000000
 460.099236,    0.000000
 463.547532,    0.000000
 464.238893,    0.000000
 466.577639,    0.000000
 466.605310,    0.000000
 466.625298,    0.000000
 466.635065,    0.000000
 466.642104,    0.000000
 466.648906,    0.000000
 466.656131,    0.000000
 466.662731,    0.000000
 466.728409,    0.000000
 467.103564,    0.000000
 469.224836,    0.000000
 472.700549,    0.000000
 476.197204,    0.000000
 479.705616,    0.000000
 483.221541,    0.000000
 486.759524,    0.000000
 490.319986,    0.000000
 493.894007,    0.000000
 497.490614,    0.000000
 501.108666,    0.000000
 504.739704,    0.000000
 508.381814,    0.000000
 512.044970,    0.000000
 515.724748,    0.000000
 519.421489,    0.000000
 523.131816,    0.000000
 526.856522,    0.000000
 530.604726,    0.000000
 534.368610,    0.000000
 538.154571,    0.000000
 541.948915,    0.000000
 545.770910,    0.000000
 549.608236,    0.000000
 553.462340,    0.000000
 557.326949,    0.000000
 561.208644,    0.000000
 565.118384,    0.000000
 569.040337,    0.000000
 572.973337,    0.000000
 576.935591,    0.000000
 580.912943,    0.000000
 584.903275,    0.000000
 588.919244,    0.000000
 592.954910,    0.000000
 596.999087,    0.000000
 601.058177,    0.000000
 605.137398,    0.000000
 609.233231,    0.000000
 613.345544,    0.000000
 617.479870,    0.000000
 621.640568,    0.000000
 625.816177,    0.000000
 627.892271,    0.000000
 630.012567,    0.000000
 634.224936,    0.119222
 638.455333,    0.354451
 642.700056,    0.587799
 646.967203,    0.819072
 651.252981,    1.048722
 655.560997,    1.276550
 659.898597,    1.502753
 664.247651,    1.727713
 668.621948,    1.950491
 673.014815,    2.171806
 677.427671,    2.391321
 681.865246,    2.609117
 686.323841,    2.825430
 690.794244,    3.040081
 695.274110,    3.252638
 699.769376,    3.463014
 704.296786,    3.671508
 708.829236,    3.878903
 713.383207,    4.083960
 717.946703,    4.287447
 722.526989,    4.488842
 727.114036,    4.688484
 731.732906,    4.885955
 736.354242,    5.082349
 740.992586,    5.276423
 745.641065,    5.468814
 750.298075,    5.659253
 750.612109,    5.847698
 750.926043,    5.860264
 751.240488,    5.872816
 751.555148,    5.885378
 751.870158,    5.897939
 752.184878,    5.910503
 752.500376,    5.923044
 752.815916,    5.935607
 753.132005,    5.948161
 753.448043,    5.960726
 753.764383,    5.973279
 754.079609,    5.985833
 754.396295,    5.998333
 754.713693,    6.010881
 755.030782,    6.023446
 755.348687,    6.035988
 755.666822,    6.048553
 755.983714,    6.061116
 756.301667,    6.073619
 756.620315,    6.086154
 756.939644,    6.098706
 757.258424,    6.111274
 757.575412,    6.123810
 757.895644,    6.136266
 758.215520,    6.148838
 758.536137,    6.161386
 758.857182,    6.173953
 759.178453,    6.186526
 759.499239,    6.199097
 759.820524,    6.211639
 760.140469,    6.224189
 760.462904,    6.236677
 760.784332,    6.249252
 761.107287,    6.261777
 761.429367,    6.274351
 761.752599,    6.286880
 762.075763,    6.299444
 762.399389,    6.311994
 762.722844,    6.324552
 763.047066,    6.337093
 763.371725,    6.349653
 763.696608,    6.362219
 764.021711,    6.374783
 764.347439,    6.387346
 764.674200,    6.399921
 765.001384,    6.412526
 765.328401,    6.425137
 765.655942,    6.437731
 765.983039,    6.450334
 766.311462,    6.462909
 766.638159,    6.475525
 766.966213,    6.488064
 767.295484,    6.500644
 767.625536,    6.513261
 767.955914,    6.525896
 768.285288,    6.538533
 768.615954,    6.551121
 768.947722,    6.563748
 769.277652,    6.576406
 769.608996,    6.588983
 769.942305,    6.601604
 770.274033,    6.614288
 770.607086,    6.626902
 770.938498,    6.639555
 771.273404,    6.652135
 771.607635,    6.664836
 771.940820,    6.677502
 772.276191,    6.690117
 772.612700,    6.702803
 772.947699,    6.715522
 773.284930,    6.728173
 773.620330,    6.740897
 773.958161,    6.753542
 774.294306,    6.766267
 774.633147,    6.778917
 774.970656,    6.778917
 775.310450,    6.778917
 775.650498,    6.778917
 775.989929,    6.778917
 776.330242,    6.778917
 776.670776,    6.778917
 777.012483,    6.778917
 777.354883,    6.778917
 777.696825,    6.778917
 778.038452,    6.778917
 778.382072,    6.778917
 778.725436,    6.778917
 779.068718,    6.778917
 779.408450,    6.778917
 779.753800,    6.778917
 780.099044,    6.778917
 780.444956,    6.778917
 780.790587,    6.778917
 781.133644,    6.778917
 781.479820,    6.778917
 781.826461,    6.778917
 782.173980,    6.778917
 782.523017,    6.778917
 782.870331,    6.778917
 783.219320,    6.778917
 783.567999,    6.778917
 783.916464,    6.778917
 784.266432,    6.778917
 784.615414,    6.778917
 784.967131,    6.778917
 785.317406,    6.778917
 785.669876,    6.778917
 786.021939,    6.778917
 786.374941,    6.778917
 786.726518,    6.778917
 787.078563,    6.778917
 787.431962,    6.778917
 787.786649,    6.778917
 788.142230,    6.778917
 788.496758,    6.778917
 788.851579,    6.778917
 789.209105,    6.778917
 789.566161,    6.778917
 789.922699,    6.778917
 790.281245,    6.778917
 790.639432,    6.778917
 790.997555,    6.778917
 791.357737,    6.778917
 791.716368,    6.778917
 792.076200,    6.778917
 792.434554,    6.778917
 792.796159,    6.778917
 793.156656,    6.778917
 793.229135,    6.778917
 793.279469,    6.778917
 793.315390,    6.778917
 793.344960,    6.778917
 793.428315,    6.778917
 793.438330,    6.778917
 793.439712,    6.778917
 793.440133,    6.778917
 793.440562,    6.778917
 793.443597,    6.778917
 793.459422,    6.778917
 793.516551,    6.778917
 793.656040,    6.778917
 793.968120,    6.778917
 794.328921,    6.778917
 794.692620,    6.778917
 795.056752,    6.778917
 795.422984,    6.778917
 795.788527,    6.778917
 796.154951,    6.778917
 796.522528,    6.778917
 796.889074,    6.778917
 797.256267,    6.778917
 797.625482,    6.778917
 797.994031,    6.778917
 798.363718,    6.778917
 798.733638,    6.778917
 799.104428,    6.778917
 799.475930,    6.778917
 799.849319,    6.778917
 800.220889,    6.778917
 800.593947,    6.778917
 800.967769,    6.778917
 801.341404,    6.778917
 801.716554,    6.778917
 802.092188,    6.778917
 802.467806,    6.778917
 802.843927,    6.778917
 803.222956,    6.778917
 803.600776,    6.778917
 803.910735,    6.778917
 803.979244,    6.778917
 804.358314,    6.778917
 804.737110,    6.778917
 805.118906,    6.778917
 805.500278,    6.778917
 805.883132,    6.778917
 806.265543,    6.778917
 806.647335,    6.778917
 807.031355,    6.778917
 807.416929,    6.778917
 807.803661,    6.778917
 808.190425,    6.778917
 808.577259,    6.778917
 808.965453,    6.778917
 809.353219,    6.778917
 809.742998,    6.778917
 810.133323,    6.778917
 810.523261,    6.778917
 810.913114,    6.778917
 811.304478,    6.778917
 811.697860,    6.778917
 812.091025,    6.778917
 812.484576,    6.778917
 812.879698,    6.778917
 813.274438,    6.778917
 813.669740,    6.778917
 814.065915,    6.778917
 814.463202,    6.778917
 814.862314,    6.778917
 815.260649,    6.778917
 815.660994,    6.778917
 816.060578,    6.778917
 816.460997,    6.778917
 816.862109,    6.778917
 817.266514,    6.778917
 817.671040,    6.778917
 818.074529,    6.778917
 818.478589,    6.778917
 818.882768,    6.778917
 819.288649,    6.778917
 819.696903,    6.778917
 820.101783,    6.778917
 820.511723,    6.778917
 820.920397,    6.778917
 821.331255,    6.778917
 821.740692,    6.778917
 822.152015,    6.778917
 822.563458,    6.778917
 822.978052,    6.778917
 823.390576,    6.778917
 823.805956,    6.778917
 824.220430,    6.778917
 824.637245,    6.778917
 825.056186,    6.778917
 825.473890,    6.778917
 825.895433,    6.778917
 826.315493,    6.778917
 826.737645,    6.778917
 827.156871,    6.778917
 827.580342,    6.778917
 828.003964,    6.778917
 828.428904,    6.778917
 828.853380,    6.778917
 829.278541,    6.778917
 829.703827,    6.778917
 830.130148,    6.778917
 830.559665,    6.778917
 830.987628,    6.778917
 831.418616,    6.778917
 831.850620,    6.778917
 832.279824,    6.778917
 832.714774,    6.778917
 833.145520,    6.778917
 833.581693,    6.778917
 834.014926,    6.778917
 834.450429,    6.778917
 834.886699,    6.778917
 835.322941,    6.778917
 835.763082,    6.778917
 836.203536,    6.778917
 836.646482,    6.778917
 837.086407,    6.778917
 837.526688,    6.778917
 837.966394,    6.778917
 838.409052,    6.778917
 838.853339,    6.778917
 839.299556,    6.778917
 839.746195,    6.778917
 840.192249,    6.778917
 840.642623,    6.778917
 841.095364,    6.778917
 841.544714,    6.778917
 841.995376,    6.778917
 842.446045,    6.778917
 842.899833,    6.778917
 843.356055,    6.778917
 843.809790,    6.778917
 844.265177,    6.778917
 844.722391,    6.778917
 845.182224,    6.778917
 845.641470,    6.778917
 846.101852,    6.778917
 846.564824,    6.778917
 847.026808,    6.778917
 847.491961,    6.778917
 847.956311,    6.778917
 848.419609,    6.778917
 848.887748,    6.778917
 849.353540,    6.778917
 849.823705,    6.778917
 850.294031,    6.778917
 850.762000,    6.778917
 851.233866,    6.778917
 851.704754,    6.778917
 852.178773,    6.778917
 852.652850,    6.778917
 853.131265,    6.778917
 853.610585,    6.778917
 854.088694,    6.778917
 854.565959,    6.778917
 855.042662,    6.778917
 855.522816,    6.778917
 856.001731,    6.778917
 856.487444,    6.778917
 856.969937,    6.778917
 857.450888,    6.778917
 857.932106,    6.778917
 858.415832,    6.778917
 858.900823,    6.778917
 859.384215,    6.778917
 859.874333,    6.778917
 860.359880,    6.778917
 860.849177,    6.778917
 861.343012,    6.778917
 861.835296,    6.778917
 862.328919,    6.778917
 862.824747,    6.778917
 863.317980,    6.778917
 863.814884,    6.778917
 864.310314,    6.778917
 864.804901,    6.778917
 865.304793,    6.778917
 865.806957,    6.778917
 866.305097,    6.778917
 866.802265,    6.778917
 867.302978,    6.778917
 867.803297,    6.778917
 868.301717,    6.778917
 868.810490,    6.778917
 869.314096,    6.778917
 869.822111,    6.778917
 870.330170,    6.778917
 870.836668,    6.778917
 871.351770,    6.778917
 871.865411,    6.778917
 872.375309,    6.778917
 872.886073,    6.778917
 873.402076,    6.778917
 873.918891,    6.778917
 874.434062,    6.778917
 874.947833,    6.778917
 875.463748,    6.778917
 875.983028,    6.778917
 876.502951,    6.778917
 877.024392,    6.778917
 877.545781,    6.778917
 878.066112,    6.778917
 878.588742,    6.778917
 879.117774,    6.778917
 879.639065,    6.778917
 880.167680,    6.778917
 880.698983,    6.778917
 881.230891,    6.778917
 881.760735,    6.778917
 882.290286,    6.778917
 882.820692,    6.778917
 883.352038,    6.778917
 883.881898,    6.778917
 884.415946,    6.778917
 884.950901,    6.778917
 885.484989,    6.778917
 886.026517,    6.778917
 886.559943,    6.778917
 887.095052,    6.778917
 887.638940,    6.778917
 888.181396,    6.778917
 888.724139,    6.778917
 889.265944,    6.778917
 889.807252,    6.778917
 890.359034,    6.778917
 890.906086,    6.778917
 891.450348,    6.778917
 892.003869,    6.778917
 892.550503,    6.778917
 893.101495,    6.778917
 893.650070,    6.778917
 894.210249,    6.778917
 894.762347,    6.778917
 895.314448,    6.778917
 895.872588,    6.778917
 896.427085,    6.778917
 896.982856,    6.778917
 897.545480,    6.778917
 898.106295,    6.778917
 898.661118,    6.778917
 899.221903,    6.778917
 899.783457,    6.778917
 900.342527,    6.778917
 900.900924,    6.778917
 901.464052,    6.778917
 902.028116,    6.778917
 902.594647,    6.778917
 903.160401,    6.778917
 903.727311,    6.778917
 904.292135,    6.778917
 904.855878,    6.778917
 905.425601,    6.778917
 905.995177,    6.778917
 906.569032,    6.778917
 907.139583,    6.778917
 907.715339,    6.778917
 908.292192,    6.778917
 908.865973,    6.778917
 909.441313,    6.778917
 910.021702,    6.778917
 910.600565,    6.778917
 911.181081,    6.778917
 911.763913,    6.778917
 912.340765,    6.778917
 912.924546,    6.778917
 913.511419,    6.778917
 914.093883,    6.778917
 914.668405,    6.778917
 915.246196,    6.778917
 915.836834,    6.778917
 916.423127,    6.778917
 917.005072,    6.778917
 917.589012,    6.778917
 918.174412,    6.778917
 918.756361,    6.778917
 919.347030,    6.778917
 919.939133,    6.778917
 920.526837,    6.778917
 921.116623,    6.778917
 921.712234,    6.778917
 922.304148,    6.778917
 922.897491,    6.778917
 923.488545,    6.778917
 924.080794,    6.778917
 924.673249,    6.778917
 925.263823,    6.778917
 925.861724,    6.778917
 926.459042,    6.778917
 927.052956,    6.778917
 927.655935,    6.778917
 928.258691,    6.778917
 928.856432,    6.778917
 929.456766,    6.778917
 930.062516,    6.778917
 930.668415,    6.778917
 931.267238,    6.778917
 931.871859,    6.778917
 932.473723,    6.778917
 933.081668,    6.778917
 933.691765,    6.778917
 934.296742,    6.778917
 934.903355,    6.778917
 935.508017,    6.778917
 936.118393,    6.778917
 936.731540,    6.778917
 937.344881,    6.778917
 937.952278,    6.778917
 938.566704,    6.778917
 939.174445,    6.778917
 939.788160,    6.778917
 940.401627,    6.778917
 941.013744,    6.778917
 941.626806,    6.778917
 942.245854,    6.778917
 942.867458,    6.778917
 943.477847,    6.778917
 944.102012,    6.778917
 944.718323,    6.778917
 945.333065,    6.778917
 945.949696,    6.778917
 946.572379,    6.778917
 947.189466,    6.778917
 947.808121,    6.778917
 948.428479,    6.778917
 949.048934,    6.778917
 949.671379,    6.778917
 950.290745,    6.778917
 950.922111,    6.778917
 951.546234,    6.778917
 952.177467,    6.778917
 952.806680,    6.778917
 953.431007,    6.778917
 954.056801,    6.778917
 954.681363,    6.778917
 955.307273,    6.778917
 955.933379,    6.778917
 956.564495,    6.778917
 957.191797,    6.778917
 957.820511,    6.778917
 958.447223,    6.778917
 958.845357,    6.778917
