Ground Distance, Angles
   0.000000,    0.000000
   0.000001,    0.000000
   0.000017,    0.000000
   0.000255,    0.000000
   0.002467,    0.000000
   0.007750,    0.000000
   0.015959,    0.000000
   0.027137,    0.000000
   0.041254,    0.000000
   0.058408,    0.000000
   0.078561,    0.000000
   0.101951,    0.000000
   0.128563,    0.000000
   0.158279,    0.000000
   0.191119,    0.000000
   0.226989,    0.000000
   0.266463,    0.000000
   0.309271,    0.000000
   0.356037,    0.000000
   0.406380,    0.000000
   0.460071,    0.000000
   0.517529,    0.000000
   0.578467,    0.000000
   0.643393,    0.000000
   0.713008,    0.000000
   0.786968,    0.000000
   0.865394,    0.000000
   0.947628,    0.000000
   1.034972,    0.000000
   1.126468,    0.000000
   1.223765,    0.000000
   1.323474,    0.000000
   1.427744,    0.000000
   1.539258,    0.000000
   1.656041,    0.000000
   1.777219,    0.000000
   1.901956,    0.000000
   2.035541,    0.000000
   2.171958,    0.000000
   2.315495,    0.000000
   2.462520,    0.000000
   2.618731,    0.000000
   2.782166,    0.000000
   2.951571,    0.000000
   3.128011,    0.000000
   3.306491,    0.000000
   3.492216,    0.000000
   3.685102,    0.000000
   3.885058,    0.000000
   4.091914,    0.000000
   4.307990,    0.000000
   4.529082,    0.000000
   4.758750,    0.000000
   4.998555,    0.000000
   5.246563,    0.000000
   5.498612,    0.000000
   5.759659,    0.000000
   6.024581,    0.000000
   6.302768,    0.000000
   6.587963,    0.000000
   6.880423,    0.000000
   7.182638,    0.000000
   7.494247,    0.000000
   7.813722,    0.000000
   8.146740,    0.000000
   8.484523,    0.000000
   8.835726,    0.000000
   9.195778,    0.000000
   9.565990,    0.000000
   9.941763,    0.000000
  10.328643,    0.000000
  10.725944,    0.000000
  11.136037,    0.000000
  11.556321,    0.000000
  11.983383,    0.000000
  12.422011,    0.000000
  12.878082,    0.000000
  13.345818,    0.000000
  13.819351,    0.000000
  14.305407,    0.000000
  14.801299,    0.000000
  15.301561,    0.000000
  15.820471,    0.000000
  16.345555,    0.000000
  16.883176,    0.000000
  17.430886,    0.000000
  17.993900,    0.000000
  18.569241,    0.000000
  19.158773,    0.000000
  19.759306,    0.000000
  20.367591,    0.000000
  20.990672,    0.000000
  21.629373,    0.000000
  22.282321,    0.000000
  22.949992,    0.000000
  23.630059,    0.000000
  24.318486,    0.000000
  25.029145,    0.000000
  25.173378,    0.000000
  25.188905,    0.000000
  25.202393,    0.000000
  25.215028,    0.000000
  25.217716,    0.000000
  25.218371,    0.000000
  25.219681,    0.000000
  25.219769,    0.000000
  25.219947,    0.000000
  25.220111,    0.000000
  25.221746,    0.000000
  25.232282,    0.000000
  25.282756,    0.000000
  25.478586,    0.000000
  25.958376,    0.000000
  26.611884,    0.000000
  27.277827,    0.000000
  27.953232,    0.000000
  28.644698,    0.000000
  29.339141,    0.000000
  30.047994,    0.000000
  30.765539,    0.000000
  31.500691,    0.000000
  32.249390,    0.000000
  33.006053,    0.000000
  33.780350,    0.000000
  34.569074,    0.000000
  35.362586,    0.000000
  36.174676,    0.000000
  36.995868,    0.000000
  37.832162,    0.000000
  38.673925,    0.000000
  39.530810,    0.000000
  40.402492,    0.000000
  41.285628,    0.000000
  42.178556,    0.000000
  43.087960,    0.000000
  44.010630,    0.000000
  44.947107,    0.000000
  45.899917,    0.000000
  46.860352,    0.000000
  47.840451,    0.000000
  48.838804,    0.000000
  49.845897,    0.000000
  50.854911,    0.000000
  51.883263,    0.000000
  52.927618,    0.000000
  53.984773,    0.000000
  55.065146,    0.000000
  56.151595,    0.000000
  57.257791,    0.000000
  58.376309,    0.000000
  59.512760,    0.000000
  60.661241,    0.000000
  61.824384,    0.000000
  63.005557,    0.000000
  64.200518,    0.000000
  65.410485,    0.000000
  66.636564,    0.000000
  67.873699,    0.000000
  69.120170,    0.000000
  70.394835,    0.000000
  71.678802,    0.000000
  72.978929,    0.000000
  74.296693,    0.000000
  75.633479,    0.000000
  76.979364,    0.000000
  78.350272,    0.000000
  79.727807,    0.000000
  81.125676,    0.000000
  82.541232,    0.000000
  83.972526,    0.000000
  85.415697,    0.000000
  86.885005,    0.000000
  88.363049,    0.000000
  89.869540,    0.000000
  91.378737,    0.000000
  92.909923,    0.000000
  94.458758,    0.000000
  96.026552,    0.000000
  97.604164,    0.000000
  99.206718,    0.000000
 100.818558,    0.000000
 102.457913,    0.000000
 104.113139,    0.000000
 104.445670,    0.000000
 104.485463,    0.000000
 104.493304,    0.000000
 104.496288,    0.000000
 104.501933,    0.000000
 104.503796,    0.000000
 104.504318,    0.000000
 104.504550,    0.000000
 104.504918,    0.000000
 104.505253,    0.000000
 104.508600,    0.000000
 104.534841,    0.000000
 104.691129,    0.000000
 105.287713,    0.000000
 106.781555,    0.000000
 108.283360,    0.000000
 109.794029,    0.000000
 111.326500,    0.000000
 112.874280,    0.000000
 114.436413,    0.000000
 116.013378,    0.000000
 117.603289,    0.000000
 119.209536,    0.000000
 120.826994,    0.000000
 122.459989,    0.000000
 124.112435,    0.000000
 125.774368,    0.000000
 127.454219,    0.000000
 129.145975,    0.000000
 130.857381,    0.000000
 132.583634,    0.000000
 134.315875,    0.000000
 136.068820,    0.000000
 137.840843,    0.000000
 139.627519,    0.000000
 141.422901,    0.000000
 143.240681,    0.000000
 145.070923,    0.000000
 146.921858,    0.000000
 148.782838,    0.000000
 150.656333,    0.000000
 152.546934,    0.000000
 154.455011,    0.000000
 156.384002,    0.000000
 158.327845,    0.000000
 160.283892,    0.000000
 162.263596,    0.000000
 164.257907,    0.000000
 166.261760,    0.000000
 168.282175,    0.000000
 170.325250,    0.000000
 172.378165,    0.000000
 174.452665,    0.000000
 176.542314,    0.000000
 178.649208,    0.000000
 180.772169,    0.000000
 182.918861,    0.000000
 185.080120,    0.000000
 187.249169,    0.000000
 189.433720,    0.000000
 191.646193,    0.000000
 193.868494,    0.000000
 196.108664,    0.000000
 198.371146,    0.000000
 200.643063,    0.000000
 202.937959,    0.000000
 205.253088,    0.000000
 207.584292,    0.000000
 209.926108,    0.000000
 212.290700,    0.000000
 214.672591,    0.000000
 217.073425,    0.000000
 219.498429,    0.000000
 221.936667,    0.000000
 224.385422,    0.000000
 226.854951,    0.000000
 229.344430,    0.000000
 231.845408,    0.000000
 234.373241,    0.000000
 236.918280,    0.000000
 239.472076,    0.000000
 242.061401,    0.000000
 244.655126,    0.000000
 245.178202,    0.000000
 245.525963,    0.000000
 245.807041,    0.000000
 246.015277,    0.000000
 246.179781,    0.000000
 246.220123,    0.000000
 246.278080,    0.000000
 246.344385,    0.000000
 246.359208,    0.000000
 246.363379,    0.000000
 246.371722,    0.000000
 246.372421,    0.000000
 246.372948,    0.000000
 246.373149,    0.000000
 246.373379,    0.000000
 246.375677,    0.000000
 246.396109,    0.000000
 246.511073,    0.000000
 247.015681,    0.000000
 249.063039,    0.000000
 251.363044,    0.000000
 253.682942,    0.000000
 256.010641,    0.000000
 258.354513,    0.000000
 260.710223,    0.000000
 263.082284,    0.000000
 265.463729,    0.000000
 267.872028,    0.000000
 270.297303,    0.000000
 272.724031,    0.000000
 275.173148,    0.000000
 277.634148,    0.000000
 280.109651,    0.000000
 282.592366,    0.000000
 285.085595,    0.000000
 287.601677,    0.000000
 290.125010,    0.000000
 292.674027,    0.000000
 295.237084,    0.000000
 297.805362,    0.000000
 300.395551,    0.000000
 303.000628,    0.000000
 305.620327,    0.000000
 308.261604,    0.000000
 310.910642,    0.000000
 313.572746,    0.000000
 316.252244,    0.000000
 318.943579,    0.000000
 321.655360,    0.000000
 324.377621,    0.000000
 327.119918,    0.000000
 329.879168,    0.000000
 332.655198,    0.000000
 335.449935,    0.000000
 338.250530,    0.000000
 341.066686,    0.000000
 343.907420,    0.000000
 346.760218,    0.000000
 349.631279,    0.000000
 352.509553,    0.000000
 355.413508,    0.000000
 358.328246,    0.000000
 361.258124,    0.000000
 364.207589,    0.000000
 367.171726,    0.000000
 370.144577,    0.000000
 373.142474,    0.000000
 376.149799,    0.000000
 379.174534,    0.000000
 382.217267,    0.000000
 385.275058,    0.000000
 388.353354,    0.000000
 391.441803,    0.000000
 394.542724,    0.000000
 397.661268,    0.000000
 400.797138,    0.000000
 403.950422,    0.000000
 407.123842,    0.000000
 410.313786,    0.000000
 413.520413,    0.000000
 416.740260,    0.000000
 419.973927,    0.000000
 423.227911,    0.000000
 426.501601,    0.000000
 429.793011,    0.000000
 433.088002,    0.000000
 436.409353,    0.000000
 439.747571,    0.000000
 443.095956,    0.000000
 446.461655,    0.000000
 449.845688,    0.000000
 453.248885,    0.000000
 456.664749,    0.000000
 460.099236,    0.000000
 463.547532,    0.000000
 464.238893,    0.000000
 466.577639,    0.000000
 466.605310,    0.000000
 466.625298,    0.000000
 466.635065,    0.000000
 466.642104,    0.000000
 466.648906,    0.000000
 466.656131,    0.000000
 466.662731,    0.000000
 466.728409,    0.000000
 467.103564,    0.000000
 469.224836,    0.000000
 472.700549,    0.000000
 476.197204,    0.000000
 479.705616,    0.000000
 483.221541,    0.000000
 486.759524,    0.000000
 490.319986,    0.000000
 493.894007,    0.000000
 497.490614,    0.000000
 501.108666,    0.000000
 504.739704,    0.000000
 508.381814,    0.000000
 512.044970,    0.000000
 515.724748,    0.000000
 519.421489,    0.000000
 523.131816,    0.000000
 526.856522,    0.000000
 530.604726,    0.000000
 534.368610,    0.000000
 538.154571,    0.000000
 541.948915,    0.000000
 545.770910,    0.000000
 549.608236,    0.000000
 553.462340,    0.000000
 557.326949,    0.000000
 561.208644,    0.000000
 565.118384,    0.000000
 569.040337,    0.000000
 572.973337,    0.000000
 576.935591,    0.000000
 580.912943,    0.000000
 584.903275,    0.000000
 588.919244,    0.000000
 592.954910,    0.000000
 596.999087,    0.000000
 601.058177,    0.000000
 605.137398,    0.000000
 609.233231,    0.000000
 613.345544,    0.000000
 617.479870,    0.000000
 621.640568,    0.000000
 625.816177,    0.000000
 627.892271,    0.000000
 630.012567,    0.000000
 634.224936,    0.000000
 638.455333,    0.000000
 642.700056,    0.000000
 646.967203,    0.000000
 651.252981,    0.000000
 655.560997,    0.000000
 659.898597,    0.000000
 664.247651,    0.000000
 668.621948,    0.000000
 673.014815,    0.000000
 677.427671,    0.000000
 681.865246,    0.000000
 686.323841,    0.000000
 690.794244,    0.000000
 695.274110,    0.000000
 699.769376,    0.000000
 704.296786,    0.000000
 708.829236,    0.000000
 713.383207,    0.000000
 717.946703,    0.000000
 722.526989,    0.000000
 727.114036,    0.000000
 731.732906,    0.000000
 736.354242,    0.000000
 740.992586,    0.000000
 745.641065,    0.000000
 750.298075,    0.000000
 750.612109,    0.003020
 750.926043,    0.006099
 751.240488,    0.009243
 751.555148,    0.012449
 751.870158,    0.015719
 752.184878,    0.019045
 752.500376,    0.022440
 752.815916,    0.025896
 753.132005,    0.029417
 753.448043,    0.032998
 753.764383,    0.036643
 754.079609,    0.040335
 754.396295,    0.044104
 754.713693,    0.047941
 755.030782,    0.051836
 755.348687,    0.055800
 755.666822,    0.059828
 755.983714,    0.063901
 756.301667,    0.068047
 756.620315,    0.072263
 756.939644,    0.076548
 757.258424,    0.080887
 757.575412,    0.085261
 757.895644,    0.089740
 758.215520,    0.094275
 758.536137,    0.098881
 758.857182,    0.103555
 759.178453,    0.108292
 759.499239,    0.113083
 759.820524,    0.117943
 760.140469,    0.122843
 760.462904,    0.127841
 760.784332,    0.132885
 761.107287,    0.138014
 761.429367,    0.143190
 761.752599,    0.148446
 762.075763,    0.153761
 762.399389,    0.159146
 762.722844,    0.164588
 763.047066,    0.170105
 763.371725,    0.175691
 763.696608,    0.181342
 764.021711,    0.187058
 764.347439,    0.192846
 764.674200,    0.198715
 765.001384,    0.204653
 765.328401,    0.210650
 765.655942,    0.216719
 765.983039,    0.222841
 766.311462,    0.229051
 766.638159,    0.235289
 766.966213,    0.241615
 767.295484,    0.248026
 767.625536,    0.254516
 767.955914,    0.261074
 768.285288,    0.267675
 768.615954,    0.274363
 768.947722,    0.281137
 769.277652,    0.287936
 769.608996,    0.294827
 769.942305,    0.301821
 770.274033,    0.308845
 770.607086,    0.315960
 770.938498,    0.323102
 771.273404,    0.330383
 771.607635,    0.337712
 771.940820,    0.345082
 772.276191,    0.352563
 772.612700,    0.360133
 772.947699,    0.367733
 773.284930,    0.375447
 773.620330,    0.383183
 773.958161,    0.391038
 774.294306,    0.398918
 774.633147,    0.406926
 774.970656,    0.414919
 775.310450,    0.422985
 775.650498,    0.431075
 775.989929,    0.439169
 776.330242,    0.447302
 776.670776,    0.455458
 777.012483,    0.463660
 777.354883,    0.471897
 777.696825,    0.480142
 778.038452,    0.488397
 778.382072,    0.496718
 778.725436,    0.505051
 779.068718,    0.513401
 779.408450,    0.521682
 779.753800,    0.530119
 780.099044,    0.538571
 780.444956,    0.547057
 780.790587,    0.555556
 781.133644,    0.564009
 781.479820,    0.572557
 781.826461,    0.581135
 782.173980,    0.589752
 782.523017,    0.598427
 782.870331,    0.607076
 783.219320,    0.615786
 783.567999,    0.624506
 783.916464,    0.633239
 784.266432,    0.642029
 784.615414,    0.650812
 784.967131,    0.659682
 785.317406,    0.668534
 785.669876,    0.677461
 786.021939,    0.686395
 786.374941,    0.695372
 786.726518,    0.704331
 787.078563,    0.713321
 787.431962,    0.722364
 787.786649,    0.731458
 788.142230,    0.740593
 788.496758,    0.749720
 788.851579,    0.758874
 789.209105,    0.768116
 789.566161,    0.777364
 789.922699,    0.786617
 790.281245,    0.795942
 790.639432,    0.805276
 790.997555,    0.814627
 791.357737,    0.824050
 791.716368,    0.833452
 792.076200,    0.842903
 792.434554,    0.852335
 792.796159,    0.861871
 793.156656,    0.871396
 793.229135,    0.873314
 793.279469,    0.874646
 793.315390,    0.875597
 793.344960,    0.876379
 793.428315,    0.878587
 793.438330,    0.878852
 793.439712,    0.878889
 793.440133,    0.878900
 793.440562,    0.878911
 793.443597,    0.878992
 793.459422,    0.879411
 793.516551,    0.880925
 793.656040,    0.884623
 793.968120,    0.892906
 794.328921,    0.902501
 794.692620,    0.912191
 795.056752,    0.921911
 795.422984,    0.931707
 795.788527,    0.941504
 796.154951,    0.951343
 796.522528,    0.961232
 796.889074,    0.971112
 797.256267,    0.981029
 797.625482,    0.991020
 797.994031,    1.001012
 798.363718,    1.011054
 798.733638,    1.021121
 799.104428,    1.031232
 799.475930,    1.041380
 799.849319,    1.051600
 800.220889,    1.061790
 800.593947,    1.072039
 800.967769,    1.082329
 801.341404,    1.092633
 801.716554,    1.102999
 802.092188,    1.113397
 802.467806,    1.123814
 802.843927,    1.134264
 803.222956,    1.144815
 803.600776,    1.155352
 803.910735,    1.164010
 803.979244,    1.165926
 804.358314,    1.176537
 804.737110,    1.187159
 805.118906,    1.197886
 805.500278,    1.208620
 805.883132,    1.219416
 806.265543,    1.230219
 806.647335,    1.241024
 807.031355,    1.251912
 807.416929,    1.262864
 807.803661,    1.273869
 808.190425,    1.284895
 808.577259,    1.295942
 808.965453,    1.307049
 809.353219,    1.318163
 809.742998,    1.329356
 810.133323,    1.340584
 810.523261,    1.351820
 810.913114,    1.363075
 811.304478,    1.374393
 811.697860,    1.385790
 812.091025,    1.397201
 812.484576,    1.408643
 812.879698,    1.420151
 813.274438,    1.431669
 813.669740,    1.443223
 814.065915,    1.454823
 814.463202,    1.466476
 814.862314,    1.478203
 815.260649,    1.489927
 815.660994,    1.501732
 816.060578,    1.513534
 816.460997,    1.525382
 816.862109,    1.537270
 817.266514,    1.549277
 817.671040,    1.561308
 818.074529,    1.573330
 818.478589,    1.585388
 818.882768,    1.597472
 819.288649,    1.609626
 819.696903,    1.621873
 820.101783,    1.634039
 820.511723,    1.646378
 820.920397,    1.658700
 821.331255,    1.671109
 821.740692,    1.683496
 822.152015,    1.695960
 822.563458,    1.708450
 822.978052,    1.721056
 823.390576,    1.733620
 823.805956,    1.746293
 824.220430,    1.758959
 824.637245,    1.771717
 825.056186,    1.784563
 825.473890,    1.797391
 825.895433,    1.810359
 826.315493,    1.823303
 826.737645,    1.836333
 827.156871,    1.849294
 827.580342,    1.862408
 828.003964,    1.875548
 828.428904,    1.888750
 828.853380,    1.901960
 829.278541,    1.915212
 829.703827,    1.928490
 830.130148,    1.941822
 830.559665,    1.955276
 830.987628,    1.968703
 831.418616,    1.982246
 831.850620,    1.995844
 832.279824,    2.009375
 832.714774,    2.023109
 833.145520,    2.036732
 833.581693,    2.050549
 834.014926,    2.064295
 834.450429,    2.078135
 834.886699,    2.092021
 835.322941,    2.105929
 835.763082,    2.119983
 836.203536,    2.134069
 836.646482,    2.148257
 837.086407,    2.162371
 837.526688,    2.176518
 837.966394,    2.190669
 838.409052,    2.204937
 838.853339,    2.219280
 839.299556,    2.233708
 839.746195,    2.248172
 840.192249,    2.262639
 840.642623,    2.277270
 841.095364,    2.291999
 841.544714,    2.306642
 841.995376,    2.321349
 842.446045,    2.336080
 842.899833,    2.350935
 843.356055,    2.365892
 843.809790,    2.380791
 844.265177,    2.395767
 844.722391,    2.410826
 845.182224,    2.425994
 845.641470,    2.441166
 846.101852,    2.456398
 846.564824,    2.471740
 847.026808,    2.487071
 847.491961,    2.502531
 847.956311,    2.517988
 848.419609,    2.533433
 848.887748,    2.549062
 849.353540,    2.564637
 849.823705,    2.580381
 850.294031,    2.596154
 850.762000,    2.611871
 851.233866,    2.627742
 851.704754,    2.643604
 852.178773,    2.659595
 852.652850,    2.675611
 853.131265,    2.691798
 853.610585,    2.708039
 854.088694,    2.724263
 854.565959,    2.740482
 855.042662,    2.756706
 855.522816,    2.773070
 856.001731,    2.789416
 856.487444,    2.806018
 856.969937,    2.822534
 857.450888,    2.839020
 857.932106,    2.855539
 858.415832,    2.872168
 858.900823,    2.888864
 859.384215,    2.905529
 859.874333,    2.922450
 860.359880,    2.939236
 860.849177,    2.956176
 861.343012,    2.973297
 861.835296,    2.990388
 862.328919,    3.007550
 862.824747,    3.024813
 863.317980,    3.042010
 863.814884,    3.059358
 864.310314,    3.076679
 864.804901,    3.093995
 865.304793,    3.111520
 865.806957,    3.129150
 866.305097,    3.146662
 866.802265,    3.164164
 867.302978,    3.181814
 867.803297,    3.199475
 868.301717,    3.217093
 868.810490,    3.235100
 869.314096,    3.252949
 869.822111,    3.270979
 870.330170,    3.289034
 870.836668,    3.307058
 871.351770,    3.325413
 871.865411,    3.343741
 872.375309,    3.361959
 872.886073,    3.380232
 873.402076,    3.398718
 873.918891,    3.417257
 874.434062,    3.435761
 874.947833,    3.454239
 875.463748,    3.472819
 875.983028,    3.491544
 876.502951,    3.510317
 877.024392,    3.529169
 877.545781,    3.548044
 878.066112,    3.566905
 878.588742,    3.585873
 879.117774,    3.605099
 879.639065,    3.624068
 880.167680,    3.643327
 880.698983,    3.662710
 881.230891,    3.682139
 881.760735,    3.701518
 882.290286,    3.720911
 882.820692,    3.740359
 883.352038,    3.759866
 883.881898,    3.779343
 884.415946,    3.798998
 884.950901,    3.818712
 885.484989,    3.838417
 886.026517,    3.858422
 886.559943,    3.878152
 887.095052,    3.897969
 887.638940,    3.918135
 888.181396,    3.938273
 888.724139,    3.958447
 889.265944,    3.978610
 889.807252,    3.998778
 890.359034,    4.019362
 890.906086,    4.039795
 891.450348,    4.060147
 892.003869,    4.080871
 892.550503,    4.101361
 893.101495,    4.122040
 893.650070,    4.142652
 894.210249,    4.163725
 894.762347,    4.184518
 895.314448,    4.205337
 895.872588,    4.226407
 896.427085,    4.247365
 896.982856,    4.268395
 897.545480,    4.289710
 898.106295,    4.310980
 898.661118,    4.332048
 899.221903,    4.353366
 899.783457,    4.374738
 900.342527,    4.396039
 900.900924,    4.417339
 901.464052,    4.438844
 902.028116,    4.460408
 902.594647,    4.482092
 903.160401,    4.503770
 903.727311,    4.525516
 904.292135,    4.547206
 904.855878,    4.568879
 905.425601,    4.590806
 905.995177,    4.612751
 906.569032,    4.634885
 907.139583,    4.656916
 907.715339,    4.679172
 908.292192,    4.701494
 908.865973,    4.723722
 909.441313,    4.746034
 910.021702,    4.768566
 910.600565,    4.791063
 911.181081,    4.813648
 911.763913,    4.836348
 912.340765,    4.858838
 912.924546,    4.881622
 913.511419,    4.904551
 914.093883,    4.927332
 914.668405,    4.949825
 915.246196,    4.972469
 915.836834,    4.995641
 916.423127,    5.018666
 917.005072,    5.041543
 917.589012,    5.064522
 918.174412,    5.087581
 918.756361,    5.110528
 919.347030,    5.133841
 919.939133,    5.157235
 920.526837,    5.180478
 921.116623,    5.203826
 921.712234,    5.227428
 922.304148,    5.250907
 922.897491,    5.274465
 923.488545,    5.297955
 924.080794,    5.321516
 924.673249,    5.345107
 925.263823,    5.368646
 925.861724,    5.392499
 926.459042,    5.416352
 927.052956,    5.440091
 927.655935,    5.464215
 928.258691,    5.488353
 928.856432,    5.512313
 929.456766,    5.536398
 930.062516,    5.560724
 930.668415,    5.585078
 931.267238,    5.609170
 931.871859,    5.633517
 932.473723,    5.657774
 933.081668,    5.682300
 933.691765,    5.706934
 934.296742,    5.731383
 934.903355,    5.755920
 935.508017,    5.780400
 936.118393,    5.805133
 936.731540,    5.830000
 937.344881,    5.854896
 937.952278,    5.879573
 938.566704,    5.904557
 939.174445,    5.929290
 939.788160,    5.954288
 940.401627,    5.979296
 941.013744,    6.004271
 941.626806,    6.029305
 942.245854,    6.054605
 942.867458,    6.080031
 943.477847,    6.105018
 944.102012,    6.130591
 944.718323,    6.155862
 945.333065,    6.181089
 945.949696,    6.206415
 946.572379,    6.232009
 947.189466,    6.257394
 947.808121,    6.282864
 948.428479,    6.308423
 949.048934,    6.334007
 949.671379,    6.359693
 950.290745,    6.385272
 950.922111,    6.411366
 951.546234,    6.437181
 952.177467,    6.463310
 952.806680,    6.489376
 953.431007,    6.515258
 954.056801,    6.541221
 954.681363,    6.567152
 955.307273,    6.593158
 955.933379,    6.619192
 956.564495,    6.645453
 957.191797,    6.671574
 957.820511,    6.697773
 958.447223,    6.723907
 958.845357,    6.740519
