Ground distance, Load Factor
   0.000000,    0.000000
   0.000002,    0.000000
   0.000020,    0.000000
   0.000149,    0.000000
   0.000844,    0.000000
   0.009713,    0.000003
   0.028168,    0.000010
   0.056342,    0.000020
   0.094383,    0.000033
   0.142289,    0.000050
   0.200090,    0.000071
   0.268159,    0.000095
   0.345949,    0.000122
   0.433793,    0.000153
   0.532009,    0.000188
   0.641048,    0.000226
   0.760237,    0.000268
   0.891327,    0.000314
   1.033556,    0.000364
   1.188436,    0.000419
   1.355821,    0.000478
   1.536611,    0.000541
   1.727693,    0.000608
   1.931754,    0.000680
   2.149282,    0.000757
   2.378010,    0.000837
   2.620984,    0.000922
   2.877608,    0.001012
   3.153509,    0.001109
   3.438707,    0.001209
   3.740966,    0.001315
   4.059623,    0.001427
   4.393889,    0.001544
   4.743275,    0.001666
   5.114186,    0.001796
   5.492051,    0.001928
   5.892412,    0.002068
   6.309676,    0.002214
   6.750035,    0.002368
   7.206305,    0.002528
   7.683750,    0.002694
   8.181316,    0.002868
   8.694175,    0.003047
   9.226904,    0.003233
   9.791761,    0.003430
  10.369660,    0.003631
  10.965893,    0.003839
  11.596128,    0.004059
  12.246221,    0.004285
  12.915556,    0.004518
  13.609044,    0.004759
  14.316901,    0.005005
  15.049908,    0.005260
  15.806929,    0.005523
  16.596454,    0.005797
  17.415346,    0.006081
  18.248875,    0.006370
  19.108041,    0.006668
  19.995418,    0.006976
  20.914004,    0.007294
  21.853185,    0.007619
  22.822747,    0.007955
  23.814851,    0.008298
  24.865116,    0.008661
  25.923896,    0.009027
  27.015616,    0.009404
  28.133793,    0.009791
  29.296206,    0.010192
  30.487030,    0.010603
  31.709763,    0.011024
  32.970048,    0.011458
  34.257490,    0.011902
  35.561064,    0.012351
  36.911021,    0.012815
  38.292145,    0.013290
  39.706092,    0.013776
  41.157840,    0.014275
  42.650617,    0.014787
  44.157157,    0.015304
  45.725589,    0.015842
  47.329946,    0.016392
  48.963393,    0.016952
  50.635187,    0.017524
  52.352261,    0.018112
  54.118320,    0.018716
  55.917906,    0.019331
  57.744872,    0.019955
  59.616994,    0.020595
  61.523746,    0.021245
  63.471987,    0.021910
  65.475558,    0.022593
  67.509317,    0.023286
  69.594558,    0.023996
  71.705278,    0.024714
  73.862824,    0.025447
  76.042946,    0.026188
  78.305883,    0.026957
  80.599167,    0.027736
  82.951353,    0.028533
  83.046209,    0.028566
  83.106241,    0.028586
  83.116990,    0.028590
  83.134144,    0.028595
  83.138054,    0.028597
  83.143877,    0.028599
  83.145380,    0.028599
  83.148167,    0.028600
  83.148520,    0.028600
  83.148681,    0.028600
  83.148870,    0.028600
  83.150764,    0.028601
  83.168686,    0.028607
  83.270623,    0.028642
  83.637802,    0.028766
  84.611401,    0.029096
  86.663252,    0.029792
  88.834568,    0.030527
  91.064183,    0.031281
  93.310257,    0.032041
  95.601741,    0.032815
  97.925010,    0.033599
 100.279469,    0.034394
 102.696125,    0.035209
 105.133308,    0.036030
 107.615798,    0.036865
 110.136890,    0.037713
 112.703281,    0.038576
 115.304129,    0.039450
 117.952271,    0.040339
 120.629564,    0.041237
 123.364964,    0.042153
 126.124778,    0.043077
 128.918452,    0.044012
 131.746872,    0.044958
 134.640861,    0.045925
 137.554463,    0.046898
 140.533308,    0.047891
 143.546784,    0.048896
 146.611432,    0.049917
 149.723226,    0.050952
 152.865924,    0.051997
 156.076013,    0.053064
 159.336865,    0.054147
 162.620205,    0.055236
 165.950770,    0.056340
 169.327355,    0.057458
 172.749832,    0.058591
 176.203577,    0.059733
 179.726005,    0.060896
 183.297764,    0.062075
 186.926440,    0.063272
 190.595815,    0.064482
 194.313799,    0.065706
 198.083966,    0.066946
 201.913472,    0.068205
 205.787556,    0.069477
 209.684288,    0.070756
 213.629901,    0.072050
 217.650563,    0.073367
 221.712774,    0.074697
 225.805521,    0.076035
 229.968388,    0.077395
 234.180051,    0.078770
 238.451168,    0.080163
 242.758664,    0.081567
 247.126827,    0.082989
 251.565275,    0.084433
 256.021865,    0.085882
 260.565438,    0.087357
 265.158493,    0.088847
 269.767105,    0.090341
 274.478657,    0.091867
 279.219609,    0.093401
 284.036707,    0.094958
 288.903532,    0.096530
 293.813926,    0.098114
 298.773188,    0.099713
 303.805809,    0.101334
 308.879200,    0.102966
 314.033550,    0.104623
 319.222980,    0.106290
 324.457451,    0.107969
 329.782751,    0.109676
 335.173730,    0.111403
 340.608162,    0.113141
 341.703081,    0.113491
 342.300649,    0.113682
 342.817830,    0.113848
 343.291670,    0.113999
 343.637877,    0.114110
 343.890063,    0.114190
 344.191009,    0.114287
 344.477612,    0.114378
 344.536243,    0.114397
 344.542376,    0.114399
 344.545399,    0.114400
 344.547730,    0.114401
 344.549176,    0.114401
 344.550191,    0.114401
 344.550575,    0.114402
 344.550967,    0.114402
 344.554891,    0.114403
 344.589506,    0.114414
 344.829468,    0.114491
 345.955447,    0.114850
 349.838005,    0.116090
 354.783882,    0.117668
 359.776554,    0.119259
 364.799297,    0.120858
 369.896447,    0.122479
 375.026014,    0.124108
 380.182011,    0.125744
 385.419988,    0.127404
 390.695472,    0.129074
 396.003406,    0.130753
 401.376477,    0.132450
 406.808472,    0.134164
 412.286894,    0.135891
 417.797561,    0.137625
 423.374247,    0.139379
 428.987193,    0.141142
 434.634064,    0.142914
 440.350477,    0.144705
 446.124079,    0.146513
 451.944290,    0.148333
 457.809253,    0.150165
 463.716589,    0.152007
 469.714542,    0.153876
 475.717817,    0.155745
 481.782399,    0.157630
 487.905078,    0.159532
 494.073351,    0.161445
 500.302603,    0.163375
 506.589565,    0.165320
 512.916678,    0.167276
 519.287457,    0.169242
 525.715141,    0.171224
 532.220930,    0.173228
 538.760423,    0.175240
 545.367433,    0.177270
 552.023937,    0.179312
 558.721962,    0.181365
 565.477730,    0.183434
 572.302651,    0.185521
 579.199938,    0.187627
 586.138780,    0.189744
 593.099393,    0.191864
 600.136693,    0.194006
 607.231285,    0.196162
 614.388135,    0.198334
 621.614912,    0.200525
 628.861771,    0.202719
 636.187540,    0.204935
 643.555022,    0.207160
 650.982245,    0.209401
 658.461113,    0.211654
 666.013824,    0.213927
 673.631790,    0.216216
 681.313151,    0.218522
 689.030949,    0.220835
 696.822082,    0.223168
 704.652292,    0.225509
 712.550370,    0.227868
 720.511860,    0.230243
 728.540887,    0.232634
 736.586550,    0.235028
 744.664240,    0.237428
 752.831570,    0.239851
 761.073598,    0.242294
 769.393308,    0.244756
 777.737308,    0.247222
 786.148134,    0.249705
 794.641046,    0.252209
 803.185106,    0.254724
 811.823576,    0.257264
 812.169374,    0.257366
 812.223947,    0.257382
 812.239743,    0.257387
 812.267541,    0.257395
 812.275681,    0.257397
 812.291324,    0.257402
 812.294318,    0.257403
 812.296329,    0.257403
 812.297018,    0.257403
 812.297706,    0.257404
 812.304579,    0.257406
 812.373311,    0.257426
 812.813071,    0.257555
 814.893083,    0.258166
 820.376552,    0.259775
 827.990033,    0.262007
 835.606557,    0.264237
 843.299934,    0.266485
 851.021099,    0.268738
 858.787743,    0.271002
 866.603397,    0.273276
 874.480459,    0.275564
 882.386126,    0.277857
 890.332303,    0.280159
 898.310866,    0.282467
 906.362434,    0.284792
 914.447867,    0.287123
 922.609831,    0.289473
 930.822735,    0.291834
 939.058992,    0.294198
 947.330501,    0.296569
 955.684869,    0.298959
 964.067309,    0.301354
 972.499789,    0.303760
 980.993232,    0.306179
 989.531865,    0.308607
 998.119013,    0.311046
1006.756088,    0.313495
1015.431186,    0.315950
1024.185142,    0.318425
1032.945843,    0.320897
1041.772523,    0.323384
1050.659153,    0.325884
1059.607585,    0.328397
1068.580830,    0.330914
1077.606296,    0.333441
1086.683868,    0.335978
1095.820722,    0.338528
1104.995321,    0.341085
1114.246368,    0.343659
1123.553223,    0.346244
1132.902386,    0.348837
1142.308692,    0.351442
1151.744102,    0.354050
1161.240832,    0.356671
1170.786855,    0.359302
1180.379063,    0.361941
1190.026643,    0.364591
1199.729279,    0.367251
1209.482570,    0.369922
1219.296541,    0.372604
1229.147084,    0.375292
1239.073679,    0.377997
1249.024090,    0.380703
1259.045914,    0.383425
1269.147107,    0.386163
1279.260898,    0.388901
1289.433597,    0.391649
1299.677193,    0.394413
1309.962271,    0.397183
1320.282674,    0.399958
1330.677583,    0.402748
1341.125041,    0.405548
1351.614534,    0.408354
1362.141792,    0.411166
1372.761205,    0.413997
1383.423342,    0.416836
1394.161096,    0.419689
1404.932492,    0.422547
1415.728512,    0.425406
1426.595836,    0.428279
1437.531819,    0.431166
1448.541916,    0.434067
1459.577439,    0.436970
1470.665392,    0.439882
1481.813895,    0.442805
1493.004987,    0.445733
1504.275332,    0.448678
1515.618879,    0.451636
1526.977975,    0.454594
1538.421475,    0.457568
1538.513175,    0.457592
1538.539883,    0.457599
1538.558337,    0.457604
1538.566769,    0.457606
1538.651092,    0.457628
1538.736826,    0.457650
1539.347458,    0.457809
1542.578697,    0.458647
1553.648368,    0.461518
1565.154644,    0.464496
1576.695527,    0.467479
1588.297865,    0.470471
1599.933256,    0.473468
1611.633779,    0.476475
1623.401739,    0.479495
1635.217918,    0.482522
1647.131078,    0.485568
1659.082401,    0.488618
1671.112043,    0.491683
1683.146684,    0.494744
1695.231104,    0.497812
1707.388227,    0.500893
1719.604182,    0.503984
1731.886699,    0.507086
1744.189706,    0.510187
1756.564216,    0.513301
1769.004965,    0.516426
1781.517474,    0.519563
1794.085251,    0.522708
1806.724229,    0.525865
1819.423213,    0.529032
1832.151256,    0.532200
1844.935296,    0.535377
1857.770654,    0.538560
1870.650615,    0.541748
1883.609276,    0.544950
1896.634341,    0.548163
1909.719666,    0.551385
1922.835524,    0.554608
1936.042898,    0.557847
1949.326628,    0.561100
1962.652537,    0.564357
1976.032606,    0.567620
1989.475213,    0.570893
2002.966887,    0.574172
2016.478271,    0.577450
2030.091822,    0.580746
2043.765659,    0.584050
2057.470167,    0.587356
2070.980778,    0.590609
2071.270326,    0.590679
2085.101765,    0.594256
2099.006734,    0.609733
2112.957212,    0.625267
2127.009483,    0.640846
2141.140510,    0.656514
2155.357027,    0.672250
2169.597766,    0.688043
2183.936151,    0.703860
2198.307531,    0.719745
2212.766641,    0.735657
2227.318919,    0.751642
2241.910735,    0.767690
2256.563745,    0.783760
2271.275106,    0.799869
2286.035357,    0.816011
2300.868782,    0.832184
2315.735891,    0.848395
2330.699086,    0.864630
2345.663891,    0.880910
2360.730516,    0.897190
2375.813127,    0.913519
2390.935206,    0.929838
2406.130899,    0.946176
2421.318202,    0.962530
2436.579879,    0.978865
2451.870836,    0.995227
2467.205342,    1.011587
2482.590103,    1.027956
2483.626005,    1.039407
2484.652803,    1.040493
2485.688659,    1.041576
2486.727585,    1.042666
2487.764696,    1.043756
2488.802592,    1.044846
2489.843291,    1.045937
2490.883736,    1.047029
2491.921591,    1.048120
2492.965292,    1.049210
2494.008220,    1.050304
2495.050612,    1.051397
2496.094501,    1.052490
2497.139417,    1.053583
2498.179594,    1.054676
2499.225345,    1.055766
2500.270811,    1.056860
2501.321992,    1.057955
2502.373327,    1.059054
2503.425181,    1.060153
2504.475087,    1.061251
2505.530325,    1.062349
2506.583985,    1.063450
2507.636355,    1.064548
2508.692960,    1.065647
2509.747450,    1.066748
2510.806186,    1.067848
2511.865125,    1.068951
2512.924176,    1.070054
2513.983144,    1.071156
2515.038811,    1.072256
2516.101262,    1.073357
2517.164412,    1.074461
2518.232141,    1.075567
2519.292557,    1.076674
2520.360948,    1.077777
2521.427354,    1.078885
2522.497534,    1.079993
2523.567834,    1.081102
2524.639867,    1.082212
2525.713009,    1.083323
2526.784034,    1.084433
2527.856301,    1.085542
2528.926410,    1.086651
2530.003867,    1.087760
2531.081745,    1.088874
2532.163917,    1.089989
2533.245619,    1.091106
2534.331738,    1.092224
2535.414825,    1.093343
2536.492758,    1.094458
2537.578105,    1.095572
2538.655323,    1.096687
2539.739971,    1.097799
2540.827169,    1.098916
2541.915195,    1.100035
2543.007234,    1.101155
2544.103314,    1.102279
2545.196322,    1.103404
2546.289946,    1.104526
2547.385704,    1.105649
2548.484679,    1.106774
2549.587613,    1.107902
2550.687689,    1.109031
2551.792510,    1.110159
2552.896819,    1.111290
2554.003564,    1.112421
2555.107673,    1.113551
2556.211020,    1.114680
2557.324567,    1.115810
2558.437522,    1.116947
2559.548763,    1.118082
2560.660724,    1.118450
2561.775207,    1.118819
2562.893101,    1.119189
2564.014104,    1.119559
2565.135827,    1.119929
2566.258118,    1.120299
2567.382246,    1.120669
2568.507485,    1.121039
2569.632053,    1.121409
2570.760474,    1.121779
2571.889204,    1.122150
2573.020424,    1.122520
2574.147920,    1.122889
2575.278374,    1.123259
2576.411198,    1.123629
2577.546958,    1.124000
2578.680797,    1.124369
2579.818526,    1.124740
2580.958597,    1.125110
2582.101066,    1.125482
2583.243031,    1.125852
2584.387050,    1.126223
2585.533110,    1.126595
2586.680898,    1.126966
2587.832128,    1.127338
2588.977695,    1.127708
2590.125982,    1.128078
2591.276904,    1.128449
2592.426910,    1.128819
2593.583662,    1.129191
2594.742363,    1.129563
2595.896169,    1.129933
2597.052274,    1.130304
2598.213713,    1.130675
2599.377663,    1.131048
2600.542565,    1.131420
2601.710723,    1.131792
2602.872038,    1.132162
2604.038933,    1.132534
2605.213145,    1.132907
2606.389048,    1.133281
2607.564389,    1.133653
2608.738220,    1.134025
2609.918839,    1.134399
2611.097645,    1.134772
2612.278834,    1.135145
2613.454644,    1.135516
2614.634233,    1.135887
2614.870629,    1.135962
2615.415718,    1.136133
2615.459512,    1.136147
2615.487609,    1.136156
2615.510471,    1.136163
2615.527357,    1.136168
2615.534263,    1.136171
2615.537219,    1.136172
2615.540075,    1.136172
2615.542669,    1.136173
2615.560664,    1.136179
2615.648270,    1.136206
2615.905499,    1.136287
2617.025610,    1.136639
2618.215672,    1.137013
2619.406013,    1.137386
2620.593717,    1.137758
2621.785024,    1.138131
2622.981010,    1.138505
2624.175130,    1.138878
2625.374261,    1.139251
2626.573873,    1.139625
2627.776941,    1.139999
2628.987591,    1.140375
2630.192901,    1.140749
2631.388157,    1.141120
2632.593210,    1.141492
2633.809827,    1.141869
2635.024905,    1.142244
2636.238625,    1.142618
2637.454302,    1.142993
2638.673922,    1.143368
2639.892384,    1.143742
2641.115042,    1.144117
2642.341653,    1.144493
2643.570439,    1.144869
2644.799421,    1.145245
2646.035194,    1.145622
2647.271625,    1.145999
2648.503658,    1.146375
2649.739760,    1.146751
2650.974201,    1.147126
2652.210928,    1.147501
2653.449793,    1.147876
2654.699128,    1.148254
2655.681319,    1.148551
2655.950831,    1.148633
2657.194779,    1.149008
2658.449752,    1.149386
2659.695956,    1.149761
2660.952456,    1.150139
2662.209663,    1.150517
2663.465781,    1.150893
2664.728824,    1.151271
2665.992393,    1.151649
2667.261270,    1.152028
2668.528924,    1.152406
2669.796867,    1.152784
2671.068924,    1.153162
2672.348890,    1.153542
2673.624142,    1.153920
2674.906172,    1.154300
2676.187943,    1.154679
2677.471162,    1.155058
2678.757606,    1.155438
2680.048608,    1.155818
2681.333411,    1.156196
2682.627813,    1.156576
2683.927846,    1.156957
2685.222099,    1.157336
2686.518818,    1.157715
2687.824646,    1.158097
2689.132447,    1.158478
2690.440490,    1.158859
2691.756635,    1.159242
2693.062242,    1.159621
2694.381735,    1.160003
2695.706313,    1.160387
2697.020270,    1.160766
2698.343539,    1.161148
2699.671316,    1.161531
2701.003170,    1.161914
2702.334220,    1.162297
2703.659090,    1.162677
2704.993638,    1.163059
2706.338484,    1.163444
2707.684703,    1.163828
2709.028708,    1.164211
2710.375441,    1.164595
2711.721449,    1.164977
2713.074622,    1.165361
2714.432328,    1.165746
2715.795869,    1.166132
2717.150284,    1.166514
2718.511193,    1.166898
2719.875792,    1.167282
2721.239922,    1.167666
2722.604960,    1.168049
2723.979632,    1.168434
2725.364746,    1.168821
2726.740612,    1.169206
2728.112392,    1.169588
2729.497741,    1.169974
2730.878068,    1.170357
2732.268473,    1.170743
2733.661153,    1.171129
2735.051921,    1.171514
2736.447667,    1.171899
2737.852741,    1.172286
2739.260816,    1.172674
2740.672566,    1.173061
2742.073862,    1.173445
2743.489557,    1.173833
2744.904225,    1.174220
2746.322276,    1.174606
2747.732726,    1.174990
2749.162140,    1.175379
2750.587791,    1.175766
2752.016793,    1.176153
2753.449589,    1.176540
2754.878072,    1.176926
2756.319815,    1.177314
2757.761736,    1.177702
2759.210637,    1.178091
2760.652301,    1.178477
2762.101592,    1.178865
2763.550827,    1.179252
2765.008909,    1.179640
2766.466962,    1.180028
2767.924553,    1.180415
2769.393121,    1.180804
2770.858075,    1.181192
2772.326220,    1.181579
2773.791934,    1.181966
2775.270006,    1.182354
2776.742624,    1.182741
2778.230421,    1.183131
2779.706634,    1.183517
2781.187810,    1.183903
2782.687519,    1.184294
2784.179125,    1.184682
2785.670616,    1.185069
2787.178251,    1.185459
2788.681769,    1.185848
2790.194469,    1.186238
2791.692975,    1.186624
2793.201703,    1.187011
2794.711152,    1.187398
2796.217761,    1.187784
2797.744043,    1.188173
2799.275948,    1.188564
2800.811402,    1.188954
2802.339582,    1.189342
2803.880791,    1.189732
2805.426098,    1.190123
2806.977213,    1.190514
2808.516986,    1.190901
2810.066231,    1.191290
2811.624227,    1.191681
2813.172856,    1.192068
2814.734125,    1.192457
2816.296760,    1.192846
2817.854468,    1.193233
2819.422728,    1.193622
2820.989696,    1.194009
2822.557111,    1.194396
2824.124744,    1.194782
2825.707598,    1.195171
2827.290665,    1.195559
2828.861710,    1.195943
2830.442822,    1.196329
2832.039075,    1.196718
2833.638967,    1.197107
2835.230450,    1.197492
2836.824786,    1.197878
2838.428499,    1.198265
2840.034900,    1.198651
2841.638528,    1.199036
2843.258397,    1.199424
2844.891038,    1.199815
2846.518485,    1.200203
2848.158082,    1.200593
2849.800196,    1.200982
2851.425522,    1.201367
2853.062825,    1.201754
2854.708353,    1.202141
2856.349311,    1.202527
2857.990129,    1.202911
2859.634475,    1.203296
2861.284153,    1.203681
2862.948511,    1.204068
2864.602554,    1.204452
2866.265924,    1.204837
2867.921605,    1.205219
2869.591804,    1.205604
2871.263813,    1.205988
2872.932347,    1.206370
2874.620027,    1.206756
2876.299273,    1.207139
2877.985970,    1.207522
2879.674078,    1.207905
2881.350947,    1.208284
2883.040445,    1.208665
2884.738765,    1.209047
2886.424603,    1.209426
2888.117845,    1.209805
2889.828786,    1.210186
2891.527626,    1.210564
2893.241475,    1.210945
2894.951127,    1.211323
2896.664614,    1.211701
2898.396217,    1.212083
2900.128121,    1.212463
2901.842585,    1.212838
2903.584163,    1.213218
2905.302403,    1.213592
2907.025893,    1.213966
2908.754840,    1.214340
2910.498973,    1.214717
2912.237353,    1.215091
2913.994367,    1.215468
2915.739134,    1.215841
2917.493055,    1.216215
2919.264720,    1.216592
2921.019635,    1.216964
2922.777985,    1.217335
2924.541926,    1.217707
2926.297294,    1.218076
2928.075583,    1.218449
2929.849517,    1.218819
2931.620143,    1.219188
2933.399255,    1.219557
2935.185342,    1.219927
2936.972923,    1.220295
2938.749604,    1.220661
2940.540411,    1.221028
2942.356911,    1.221399
2944.175859,    1.221770
2945.990742,    1.222138
2947.813580,    1.222507
2949.626723,    1.222873
2951.442860,    1.223238
2953.264809,    1.223603
2955.077180,    1.223965
2956.893881,    1.224327
2958.712365,    1.224688
2960.548649,    1.225051
2962.374196,    1.225411
2964.232303,    1.225776
2966.076029,    1.226137
2967.904622,    1.226494
2969.772301,    1.226857
2971.630089,    1.227217
2973.472624,    1.227573
2975.330974,    1.227930
2977.199085,    1.228288
2979.052294,    1.228643
2980.917291,    1.228998
2982.797441,    1.229354
2984.647492,    1.229704
2986.529347,    1.230058
2988.387586,    1.230407
2990.269983,    1.230759
2992.136950,    1.231107
2994.023279,    1.231457
2995.903905,    1.231805
2997.792885,    1.232153
2999.670846,    1.232498
3001.554168,    1.232842
3003.465106,    1.233190
3005.354960,    1.233533
3007.254252,    1.233877
3009.143456,    1.234217
3011.025446,    1.234554
3012.914564,    1.234892
3014.831367,    1.235233
3016.724928,    1.235569
3018.640627,    1.235907
3020.550980,    1.236243
3022.468985,    1.236580
3024.371123,    1.236911
3026.291879,    1.237245
3028.204620,    1.237576
3030.126772,    1.237908
3032.073293,    1.238242
3033.993742,    1.238570
3035.925252,    1.238899
3037.872019,    1.239229
3039.826480,    1.239559
3041.775861,    1.239887
3043.729015,    1.240214
3045.669431,    1.240537
3047.632037,    1.240863
3049.601011,    1.241189
3051.566190,    1.241512
3053.519741,    1.241832
3055.486983,    1.242153
3057.440777,    1.242470
3059.409104,    1.242788
3061.358815,    1.243102
3063.326544,    1.243417
3065.295207,    1.243731
3067.275445,    1.244045
3069.255845,    1.244358
3071.220597,    1.244667
3073.211868,    1.244978
3075.177330,    1.245285
3077.161926,    1.245592
3079.160342,    1.245901
3081.137490,    1.246204
3083.122527,    1.246508
3085.125489,    1.246812
3087.127576,    1.247116
3089.120756,    1.247416
3091.127068,    1.247716
3093.136829,    1.248016
3095.136533,    1.248313
3097.129602,    1.248607
3099.129162,    1.248901
3101.137937,    1.249195
3103.141007,    1.249486
3105.161106,    1.249778
3107.181625,    1.250069
3109.195026,    1.250357
3111.205105,    1.250643
3113.238370,    1.250931
3115.272635,    1.251218
3117.302074,    1.251503
3119.335097,    1.251786
3121.380838,    1.252070
3123.407728,    1.252349
3125.441032,    1.252628
3127.486598,    1.252907
3129.513205,    1.253182
3131.558949,    1.253457
3133.611059,    1.253733
3135.665288,    1.254006
3137.725058,    1.254279
3139.767135,    1.254549
3141.830857,    1.254819
3143.883538,    1.255086
3145.931364,    1.255351
3148.003081,    1.255618
3150.070994,    1.255883
3152.138996,    1.256146
3154.195098,    1.256405
3156.264649,    1.256665
3158.327756,    1.256923
3160.377933,    1.257177
3162.362524,    1.257422
