Time, Energies
   0.000000,    0.000000
   0.000028, 2446.090514
   0.000056, 9745.480606
   0.000083, 21877.292553
   0.000111, 38827.650371
   0.000139, 60580.927642
   0.000167, 87121.497947
   0.000194, 118433.734867
   0.000222, 154502.011984
   0.000250, 195310.702878
   0.000278, 240844.181131
   0.000306, 291086.820325
   0.000333, 345717.498247
   0.000361, 404935.381696
   0.000389, 468760.261288
   0.000417, 537176.885913
   0.000444, 610170.004461
   0.000472, 687724.365823
   0.000500, 769824.718888
   0.000528, 856455.812547
   0.000556, 947602.395690
   0.000583, 1043249.217207
   0.000611, 1142816.414451
   0.000639, 1246731.083921
   0.000667, 1355045.797502
   0.000694, 1467745.686050
   0.000722, 1584815.880415
   0.000750, 1706241.511453
   0.000778, 1832007.710015
   0.000806, 1962099.606954
   0.000833, 2096502.333125
   0.000861, 2235201.019379
   0.000889, 2377355.334644
   0.000917, 2523622.018385
   0.000944, 2674086.656973
   0.000972, 2828734.768724
   0.001000, 2987551.871957
   0.001028, 3150523.484989
   0.001056, 3317635.126139
   0.001083, 3488872.313723
   0.001111, 3664220.566061
   0.001139, 3843665.401468
   0.001167, 4026106.372976
   0.001194, 4212429.734808
   0.001222, 4402754.058888
   0.001250, 4597065.255372
   0.001278, 4795349.234413
   0.001306, 4997591.906165
   0.001333, 5203779.180785
   0.001361, 5413896.968425
   0.001389, 5627931.179242
   0.001417, 5845867.723388
   0.001444, 6064079.490690
   0.001472, 6285489.804186
   0.001500, 6510518.067146
   0.001528, 6739145.584099
   0.001556, 6971353.659574
   0.001583, 7207123.598102
   0.001611, 7446436.704211
   0.001639, 7689274.282432
   0.001667, 7935617.637293
   0.001694, 8185448.073325
   0.001722, 8435925.342216
   0.001750, 8689393.786530
   0.001778, 8946180.304615
   0.001806, 9206265.721159
   0.001833, 9469630.860854
   0.001861, 9736256.548388
   0.001889, 10006123.608452
   0.001917, 10279212.865735
   0.001944, 10555505.144926
   0.001972, 10834981.270715
   0.002000, 11115273.508244
   0.002028, 11398366.446771
   0.002056, 11684531.865212
   0.002083, 11973751.360804
   0.002111, 12266006.530781
   0.002139, 12561278.972377
   0.002167, 12859550.282828
   0.002194, 13160802.059368
   0.002222, 13465015.899232
   0.002250, 13772173.399655
   0.002278, 14079668.424888
   0.002306, 14389699.962368
   0.002333, 14702570.666476
   0.002361, 15018262.892763
   0.002389, 15336758.996781
   0.002417, 15658041.334081
   0.002444, 15982092.260216
   0.002472, 16308894.130737
   0.002500, 16638429.301195
   0.002528, 16970680.127143
   0.002556, 17302825.623256
   0.002583, 17637258.467994
   0.002611, 17974309.229364
   0.002639, 18313961.005836
   0.002667, 18656196.895879
   0.002694, 19000999.997964
   0.002722, 19348353.410560
   0.002750, 19698240.232137
   0.002778, 20050643.561164
   0.002806, 20405546.496110
   0.002833, 20759936.841293
   0.002861, 21116380.159167
   0.002889, 21475231.956155
   0.002917, 21836476.057207
   0.002944, 22200096.287277
   0.002972, 22566076.471318
   0.003000, 22934400.434282
   0.003028, 23305052.001123
   0.003056, 23678014.996793
   0.003083, 24053273.246244
   0.003111, 24414152.383565
   0.003139, 24774706.680437
   0.003167, 25136964.862636
   0.003194, 25500905.364595
   0.003222, 25866506.620746
   0.003250, 26233747.065523
   0.003278, 26602605.133358
   0.003306, 26973059.258685
   0.003333, 27345087.875936
   0.003361, 27718669.419544
   0.003389, 28089338.747736
   0.003417, 28460924.719515
   0.003444, 28833959.310695
   0.003472, 29208421.964471
   0.003500, 29584292.124038
   0.003528, 29961549.232593
   0.003556, 30340172.733330
   0.003583, 30720142.069445
   0.003611, 31101436.684133
   0.003639, 31484036.020591
   0.003667, 31864110.151204
   0.003694, 32244961.709039
   0.003722, 32627046.321121
   0.003750, 33010344.643264
   0.003778, 33394837.331285
   0.003806, 33780505.040998
   0.003833, 34167328.428219
   0.003861, 34555288.148763
   0.003889, 34944364.858446
   0.003917, 35334539.213082
   0.003944, 35722009.882685
   0.003972, 36110062.747600
   0.004000, 36499151.526337
   0.004028, 36889258.030790
   0.004056, 37280364.072856
   0.004083, 37672451.464427
   0.004111, 38065502.017401
   0.004139, 38459497.543671
   0.004167, 38854419.855132
   0.004194, 39250250.763679
   0.004222, 39643247.543902
   0.004250, 40036652.452509
   0.004278, 40430913.460664
   0.004306, 40826013.480905
   0.004333, 41221935.425773
   0.004361, 41618662.207809
   0.004389, 42016176.739553
   0.004417, 42414461.933546
   0.004444, 42813500.702326
   0.004472, 43213275.958436
   0.004500, 43610130.477615
   0.004528, 44007238.760882
   0.004556, 44405039.583837
   0.004583, 44803516.905486
   0.004611, 45202654.684840
   0.004639, 45602436.880908
   0.004667, 46002847.452697
   0.004694, 46403870.359217
   0.004722, 46805489.559476
   0.004750, 47207689.012485
   0.004778, 47607005.285751
   0.004806, 48006451.639455
   0.004833, 48406444.168781
   0.004861, 48806967.841390
   0.004889, 49208007.624943
   0.004917, 49609548.487099
   0.004944, 50011575.395518
   0.004972, 50414073.317863
   0.005000, 50817027.221791
   0.005028, 51220422.074965
   0.005056, 51622991.234472
   0.005083, 52025858.375971
   0.005111, 52429168.260298
   0.005139, 52832906.861548
   0.005167, 53237060.153821
   0.005194, 53641614.111213
   0.005206, 53812280.043076
   0.005234, 54215506.270732
   0.005262, 54619107.316118
   0.005289, 55023069.596785
   0.005317, 55426135.652988
   0.005345, 55826786.234649
   0.005373, 56227775.836613
   0.005401, 56629091.806607
   0.005428, 57030721.492358
   0.005456, 57432652.241592
   0.005484, 57834871.402035
   0.005512, 58237366.321415
   0.005539, 58640124.347457
   0.005567, 59043132.827888
   0.005595, 59444356.663000
   0.005623, 59841339.039495
   0.005651, 60238570.026352
   0.005678, 60636038.447954
   0.005706, 61033733.128682
   0.005734, 61431642.892919
   0.005762, 61829756.565046
   0.005789, 62228062.969446
   0.005817, 62626550.930500
   0.005845, 63025209.272591
   0.005873, 63421815.749410
   0.005901, 63813689.839039
   0.005928, 64205744.440445
   0.005956, 64597969.928843
   0.005984, 64990356.679451
   0.006012, 65382895.067486
   0.006039, 65775575.468162
   0.006067, 66168388.256698
   0.006095, 66561323.808310
   0.006123, 66954372.498214
   0.006142, 67225411.507353
   0.006170, 67584715.807790
   0.006198, 67944241.041048
   0.006225, 68303983.485979
   0.006253, 68663939.421439
   0.006281, 69024105.126280
   0.006309, 69384476.879357
   0.006336, 69745050.959524
   0.006364, 70105823.645635
   0.006392, 70466791.216543
   0.006420, 70827949.951102
   0.006448, 71162285.329437
   0.006475, 71496783.394258
   0.006503, 71831443.148941
   0.006531, 72166263.596865
   0.006559, 72501243.741407
   0.006586, 72821674.312558
   0.006614, 73142197.866251
   0.006642, 73462814.153517
   0.006670, 73783522.925387
   0.006698, 74104323.932893
   0.006725, 74409583.591138
   0.006753, 74714825.992287
   0.006781, 75020051.135989
   0.006809, 75325259.021890
   0.006836, 75630449.649638
   0.006836,    0.000000
   0.026741, 202360061.037527
   0.047055, 409279220.656805
   0.068023, 615701886.179619
   0.090500, 812187803.007490
   0.115262, 1016573505.557423
   0.142673, 1233334456.066295
   0.173290, 1462099251.503995
   0.208089, 1706319788.732649
   0.249473, 1957243223.575653
   0.249473,    0.000000
   0.263847, 96888704.591357
   0.278221, 193730307.725001
   0.292595, 290524822.376269
   0.306969, 387272261.520043
   0.321343, 483972638.130748
   0.335717, 580625965.182348
   0.350091, 677232255.648347
   0.364465, 773791522.501783
   0.378839, 870303778.715233
   0.393213, 966769037.260803
   0.407587, 1063187311.110132
   0.421961, 1159558613.234390
   0.436335, 1255882956.604274
   0.450709, 1352160354.190007
   0.465083, 1448390818.961336
   0.479458, 1544574363.887531
   0.493832, 1640711001.937384
   0.508206, 1736800746.079204
   0.522580, 1832843609.280818
   0.536954, 1928839604.509571
   0.551328, 2024788744.732317
   0.565702, 2120691042.915429
   0.580076, 2216546512.024781
   0.594450, 2312355165.025766
   0.608824, 2408117014.883276
   0.623198, 2503832074.561713
   0.637572, 2599500357.024978
   0.651946, 2695121875.236476
   0.666320, 2790696642.159114
   0.666320,    0.000000
   0.685652, 67998563.040396
   0.705031, 127195363.212753
   0.724387, 176776702.823747
   0.743656, 216135135.173080
   0.762801, 245369368.193437
   0.781752, 263039040.515539
   0.800438, 268350312.437788
   0.819062, 273280651.302966
   0.837560, 268134016.575357
   0.837560,    0.000000
   0.847217, 98185066.987797
   0.856967, 197428684.912967
   0.866809, 297824875.306438
   0.876788, 397767597.342622
   0.887084, 493398006.859883
   0.897853, 589958948.482903
   0.909144, 687683949.952703
   0.920996, 787859064.598447
   0.933441, 890566990.873216
   0.933441,    0.000000
   0.964311, 116594399.829710
   0.995194, 232934248.953825
   1.026091, 349019771.339063
   1.057001, 464851191.278728
   1.087925, 580428733.391248
   1.118863, 695752622.618707
   1.149814, 810823084.225385
   1.180778, 925640343.796292
   1.211756, 1040204627.235707
   1.211756,    0.000000
   1.222530, 30229069.877280
   1.233134, 55714168.886791
   1.243780, 80490307.961853
   1.254471, 103542290.393167
   1.265209, 124969739.459091
   1.275990, 144671996.018631
   1.286813, 162686722.784439
   1.297669, 178794390.831233
   1.308543, 192553802.018266
   1.308543,    0.000000
   1.391876, 311142985.040008
   1.475210, 620567325.533355
   1.558543, 928299746.613874
   1.641876, 1234412163.527978
   1.725210, 1538873735.891515
   1.808543, 1841690188.747957
   1.891876, 2142867235.249394
   1.975210, 2442410576.645547
   2.058543, 2740325902.273024
   2.058543,    0.000000
   2.058571, 55820.552366
   2.058599, 111641.752831
   2.058626, 167463.601395
   2.058654, 223285.938292
   2.058682, 279108.804868
   2.058710, 334932.224245
   2.058738, 390756.196424
   2.058765, 446580.721404
   2.058793, 502405.799185
   2.058821, 558231.429767
   2.058849, 614057.613151
   2.058876, 669884.349336
   2.058904, 725711.638322
   2.058932, 781539.258335
   2.058960, 837367.353615
   2.058988, 893195.963901
   2.059015, 949025.089193
   2.059043, 1004854.729490
   2.059071, 1060684.884793
   2.059099, 1116515.555102
   2.059126, 1172346.740416
   2.059154, 1228178.440736
   2.059182, 1284010.656061
   2.059210, 1339843.347185
   2.059238, 1395676.542167
   2.059265, 1451510.248256
   2.059293, 1507344.465453
   2.059321, 1563179.193758
   2.059349, 1619014.433171
   2.059376, 1674850.183691
   2.059404, 1730686.445320
   2.059432, 1786523.218057
   2.059460, 1842360.501901
   2.059488, 1898195.631800
   2.059515, 1954030.586661
   2.059543, 2009865.865611
   2.059571, 2065701.468651
   2.059599, 2121537.395782
   2.059626, 2177373.647001
   2.059654, 2233210.222311
   2.059682, 2289047.121711
   2.059710, 2344884.345200
   2.059738, 2400721.892780
   2.059765, 2456562.760889
   2.059793, 2512404.680629
   2.059821, 2568247.086943
   2.059849, 2624089.979830
   2.059876, 2679933.359290
   2.059904, 2735777.225324
   2.059932, 2791621.577931
   2.059960, 2847466.417112
   2.059988, 2903311.742866
   2.060015, 2959157.555193
   2.060043, 3015002.378389
   2.060071, 3070847.343474
   2.060099, 3126692.729931
   2.060126, 3182538.537759
   2.060154, 3238384.766958
   2.060182, 3294231.417528
   2.060210, 3350078.489469
   2.060238, 3405925.982782
   2.060265, 3461773.897465
   2.060293, 3517622.233520
   2.060321, 3573471.245329
   2.060349, 3629320.736312
   2.060376, 3685170.658149
   2.060404, 3741021.010840
   2.060432, 3796871.794387
   2.060460, 3852723.008788
   2.060488, 3908574.654043
   2.060515, 3964426.730153
   2.060543, 4020279.237118
   2.060571, 4076132.174938
   2.060599, 4131988.210433
   2.060626, 4187845.270408
   2.060654, 4243702.847221
   2.060682, 4299560.940874
   2.060710, 4355419.551365
   2.060738, 4411278.678695
   2.060765, 4467138.322864
   2.060793, 4522998.483872
   2.060821, 4578859.161719
   2.060849, 4634720.356404
   2.060876, 4690579.201071
   2.060904, 4746437.934539
   2.060932, 4802297.103417
   2.060960, 4858156.707703
   2.060988, 4914016.747398
   2.061015, 4969877.222502
   2.061043, 5025738.133016
   2.061071, 5081599.478938
   2.061099, 5137461.260270
   2.061126, 5193323.477010
   2.061154, 5249186.021978
   2.061182, 5305048.979173
   2.061210, 5360912.369057
   2.061238, 5416776.191629
   2.061265, 5472640.446890
   2.061293, 5528505.134839
   2.061321, 5584370.255477
   2.061349, 5640235.808803
   2.061376, 5696101.794818
   2.061404, 5751968.213522
   2.061432, 5807827.174074
   2.061460, 5863684.878297
   2.061488, 5919542.834180
   2.061515, 5975401.041724
   2.061543, 6031259.500928
   2.061571, 6087118.211792
   2.061599, 6142977.174316
   2.061626, 6198836.388501
   2.061654, 6254695.854346
   2.061682, 6310555.571851
   2.061710, 6366413.985314
   2.061738, 6422272.320319
   2.061765, 6478130.874426
   2.061793, 6533989.647633
   2.061821, 6589848.639941
   2.061849, 6645707.851349
   2.061876, 6701567.281859
   2.061904, 6757426.931469
   2.061932, 6813286.800180
   2.061960, 6869146.887991
   2.061988, 6925006.784590
   2.062015, 6980866.813857
   2.062043, 7036727.054330
   2.062071, 7092587.506009
   2.062099, 7148448.168894
   2.062126, 7204309.042985
   2.062154, 7260170.128281
   2.062182, 7316031.424783
   2.062210, 7371892.932491
   2.062238, 7427754.651405
   2.062265, 7483621.269259
   2.062293, 7539489.079588
   2.062321, 7595357.184591
   2.062349, 7651225.584267
   2.062376, 7707094.278615
   2.062404, 7762963.267636
   2.062432, 7818832.551329
   2.062460, 7874702.129696
   2.062488, 7930572.002735
   2.062515, 7986442.170447
   2.062543, 8042307.635592
   2.062571, 8098172.355031
   2.062599, 8154037.286344
   2.062626, 8209902.429530
   2.062654, 8265767.784591
   2.062682, 8321633.351526
   2.062710, 8377499.130334
   2.062738, 8433365.121017
   2.062765, 8489231.323573
   2.062793, 8545097.738003
   2.062821, 8600964.775450
   2.062849, 8656832.109960
   2.062876, 8712699.662713
   2.062904, 8768567.433711
   2.062932, 8824435.422952
   2.062960, 8880303.630437
   2.062988, 8936172.056166
   2.063015, 8992040.700138
   2.063043, 9047909.562355
   2.063071, 9103778.642815
   2.063099, 9159654.602614
   2.063126, 9215532.155064
   2.063154, 9271410.022666
   2.063182, 9327288.205419
   2.063210, 9383166.703324
   2.063238, 9439045.516380
   2.063265, 9494924.644588
   2.063293, 9550804.087947
   2.063321, 9606683.846457
   2.063349, 9662563.920119
   2.063376, 9718439.116048
   2.063404, 9774313.559654
   2.063432, 9830188.247205
   2.063460, 9886063.178702
   2.063488, 9941938.354144
   2.063515, 9997813.773532
   2.063543, 10053689.436866
   2.063571, 10109565.344145
   2.063599, 10165441.495370
   2.063626, 10221317.890540
   2.063654, 10277195.755292
   2.063682, 10333074.115097
   2.063710, 10388952.734742
   2.063738, 10444831.614224
   2.063765, 10500710.753545
   2.063793, 10556590.152704
   2.063821, 10612469.811702
   2.063849, 10668349.730538
   2.063876, 10724229.909212
   2.063904, 10780110.347725
   2.063932, 10835999.443983
   2.063960, 10891890.515484
   2.063988, 10947781.950106
   2.064015, 11003673.747849
   2.064043, 11059565.908712
   2.064071, 11115458.432695
   2.064099, 11171351.319800
   2.064126, 11227244.570025
   2.064154, 11283138.183371
   2.064182, 11339032.159837
   2.064210, 11394920.696661
   2.064238, 11450808.414515
   2.064265, 11506696.427623
   2.064293, 11562584.735984
   2.064321, 11618473.339598
   2.064349, 11674362.238465
   2.064376, 11730251.432586
   2.064404, 11786140.921960
   2.064432, 11842030.706587
   2.064460, 11897920.786467
   2.064488, 11953812.609905
   2.064515, 12009705.022906
   2.064543, 12065597.747306
   2.064571, 12121490.783108
   2.064599, 12177384.130310
   2.064626, 12233277.788913
   2.064654, 12289171.758916
   2.064682, 12345066.040320
   2.064710, 12400960.633125
   2.064738, 12456855.537330
   2.064765, 12512760.195466
   2.064793, 12568667.079493
   2.064821, 12624574.375498
   2.064849, 12680482.083479
   2.064876, 12736390.203438
   2.064904, 12792298.735374
   2.064932, 12848207.679287
   2.064960, 12904117.035178
   2.064988, 12960026.803045
   2.065015, 13015936.982890
   2.065043, 13071840.369031
   2.065071, 13127742.709199
   2.065099, 13183645.387874
   2.065126, 13239548.405054
   2.065154, 13295451.760741
   2.065182, 13351355.454935
   2.065210, 13407259.487634
   2.065238, 13463163.858840
   2.065265, 13519068.568552
   2.065293, 13574973.616770
   2.065321, 13630879.838623
   2.065349, 13686786.567636
   2.065376, 13742693.643321
   2.065404, 13798601.065679
   2.065432, 13854508.834709
   2.065460, 13910416.950411
   2.065488, 13966325.412786
   2.065515, 14022234.221834
   2.065543, 14078143.377554
   2.065571, 14134052.879946
   2.065599, 14189972.459679
   2.065626, 14245894.347742
   2.065654, 14301816.673882
   2.065682, 14357739.438098
   2.065710, 14413662.640391
   2.065738, 14469586.280761
   2.065765, 14525510.359207
   2.065793, 14581434.875729
   2.065821, 14637359.830328
   2.065849, 14693285.223004
   2.065876, 14749201.753251
   2.065904, 14805116.849676
   2.065932, 14861032.300124
   2.065960, 14916948.104594
   2.065988, 14972864.263086
   2.066015, 15028780.775601
   2.066043, 15084697.642138
   2.066071, 15140614.862698
   2.066099, 15196532.437280
   2.066126, 15252450.365884
   2.066154, 15308368.342436
   2.066182, 15364286.611499
   2.066210, 15420205.231919
   2.066238, 15476124.203697
   2.066265, 15532043.526832
   2.066293, 15587963.201323
   2.066321, 15643883.227172
   2.066349, 15699803.604379
   2.066376, 15755724.332942
   2.066404, 15811645.412862
   2.066432, 15867576.486408
   2.066460, 15923509.846354
   2.066488, 15979443.638663
   2.066515, 16035377.863336
   2.066543, 16091312.520372
   2.066571, 16147247.609771
   2.066599, 16203183.131533
   2.066626, 16259119.085658
   2.066654, 16315055.472147
   2.066682, 16370992.290999
   2.066710, 16426918.004240
   2.066738, 16482841.837394
   2.066765, 16538766.009276
   2.066793, 16594690.519887
   2.066821, 16650615.369225
   2.066849, 16706540.557291
   2.066876, 16762466.084086
   2.066904, 16818391.949608
   2.066932, 16874318.153859
   2.066960, 16930244.696838
   2.066988, 16986202.283274
   2.067015, 17042166.354773
   2.067043, 17098131.005984
   2.067071, 17154096.236907
   2.067099, 17210062.047542
   2.067126, 17266028.437889
   2.067154, 17321995.407948
   2.067182, 17377962.957719
   2.067210, 17433931.087203
   2.067238, 17489899.796398
   2.067265, 17545872.810458
   2.067293, 17601847.149058
   2.067321, 17657822.095676
   2.067349, 17713797.650311
   2.067376, 17769773.812964
   2.067404, 17825750.583634
   2.067432, 17881727.962322
   2.067460, 17937705.949028
   2.067488, 17993684.543751
   2.067515, 18049663.746492
   2.067543, 18105627.000587
   2.067571, 18161587.555835
   2.067599, 18217548.597177
   2.067626, 18273510.124614
   2.067654, 18329472.138147
   2.067682, 18385434.637774
   2.067710, 18441397.623496
   2.067738, 18497361.095313
   2.067765, 18553325.053225
   2.067793, 18609289.497232
   2.067821, 18665248.465644
   2.067849, 18721206.730628
   2.067876, 18777165.439120
   2.067904, 18833124.591120
   2.067932, 18889084.186628
   2.067960, 18945044.225644
   2.067988, 19001004.708167
   2.068015, 19056965.634198
   2.068043, 19112927.003736
   2.068071, 19168888.816783
   2.068099, 19224850.245490
   2.068126, 19280811.952686
   2.068154, 19336774.097647
   2.068182, 19392736.680374
   2.068210, 19448699.700867
   2.068238, 19504663.159126
   2.068265, 19560627.055151
   2.068293, 19616591.388942
   2.068321, 19672556.160499
   2.068349, 19728521.369822
   2.068376, 19784497.895307
   2.068404, 19840477.025063
   2.068432, 19896456.665904
   2.068460, 19952436.817831
   2.068488, 20008417.480842
   2.068515, 20064398.654939
   2.068543, 20120380.340121
   2.068571, 20176362.536388
   2.068599, 20232345.243741
   2.068626, 20288328.462178
   2.068654, 20344298.007025
   2.068682, 20400265.240398
   2.068710, 20456232.891880
   2.068738, 20512200.961470
   2.068765, 20568169.449169
   2.068793, 20624138.354976
   2.068821, 20680107.678891
   2.068849, 20736077.420915
   2.068876, 20792047.581047
   2.068904, 20848018.159287
   2.068932, 20903987.532900
   2.068960, 20959957.001980
   2.068988, 21015926.878816
   2.069015, 21071897.163409
   2.069043, 21127867.855757
   2.069071, 21183838.955862
   2.069099, 21239810.463723
   2.069126, 21295782.379340
   2.069154, 21351754.702713
   2.069182, 21407727.433843
   2.069210, 21463670.513596
   2.069238, 21519608.029179
   2.069265, 21575545.765750
   2.069293, 21631483.723310
   2.069321, 21687421.901858
   2.069349, 21743360.301395
   2.069376, 21799298.921920
   2.069404, 21855237.763433
   2.069432, 21911176.825935
   2.069460, 21967116.109426
   2.069488, 22023050.104152
   2.069515, 22078983.226028
   2.069543, 22134916.535528
   2.069571, 22190850.032651
   2.069599, 22246783.717397
   2.069626, 22302717.589767
   2.069654, 22358651.649760
   2.069682, 22414585.897377
   2.069710, 22470520.332617
   2.069738, 22526454.955480
   2.069765, 22582388.916659
   2.069793, 22638322.896967
   2.069821, 22694257.059883
   2.069849, 22750191.405406
   2.069876, 22806125.933537
   2.069904, 22862060.644275
   2.069932, 22917995.537622
   2.069960, 22973930.613575
   2.069988, 23029865.872136
   2.070015, 23085801.313305
   2.070043, 23141752.603266
   2.070071, 23197707.181794
   2.070099, 23253662.033215
   2.070126, 23309617.157529
   2.070154, 23365572.554737
   2.070182, 23421528.224839
   2.070210, 23477484.167833
   2.070238, 23533440.383721
   2.070265, 23589396.872503
   2.070293, 23645353.634177
   2.070321, 23701297.365012
   2.070349, 23757238.732821
   2.070376, 23813180.298660
   2.070404, 23869122.062530
   2.070432, 23925064.024431
   2.070460, 23981006.184363
   2.070488, 24036948.542326
   2.070515, 24092891.098320
   2.070543, 24148833.852344
   2.070571, 24204776.804400
   2.070599, 24260723.100683
   2.070626, 24316670.217989
   2.070654, 24372617.550623
   2.070682, 24428565.098584
   2.070710, 24484512.861873
   2.070738, 24540460.840488
   2.070765, 24596409.034431
   2.070793, 24652357.443701
   2.070821, 24708306.068298
   2.070849, 24764254.908222
   2.070876, 24820224.329138
   2.070904, 24876197.995765
   2.070932, 24932171.987158
   2.070960, 24988146.303318
   2.070988, 25044120.944243
   2.071015, 25100095.909935
   2.071043, 25156071.200392
   2.071071, 25212046.815617
   2.071099, 25268022.755607
   2.071126, 25323999.020363
   2.071154, 25379964.280745
   2.071182, 25435927.625078
   2.071210, 25491891.234639
   2.071238, 25547855.109428
   2.071265, 25603819.249444
   2.071293, 25659783.654688
   2.071321, 25715748.325160
   2.071349, 25771713.260859
   2.071376, 25827678.461787
   2.071404, 25883643.927942
   2.071432, 25939573.286592
   2.071460, 25995495.720017
   2.071488, 26051418.231639
   2.071515, 26107340.821457
   2.071543, 26163263.489471
   2.071571, 26219186.235682
   2.071599, 26275109.060089
   2.071626, 26331031.962693
   2.071654, 26386954.943492
   2.071682, 26442878.002489
   2.071710, 26498796.365159
   2.071738, 26554713.862637
   2.071765, 26610631.414277
   2.071793, 26666549.020081
   2.071821, 26722466.680049
   2.071849, 26778384.394180
   2.071876, 26834302.162474
   2.071904, 26890219.984931
   2.071932, 26946137.861552
   2.071960, 27002055.792336
   2.071988, 27057976.337113
   2.072015, 27113897.441601
   2.072043, 27169818.612871
   2.072071, 27225739.850924
   2.072099, 27281661.155759
   2.072126, 27337582.527376
   2.072154, 27393503.965775
   2.072182, 27449425.470957
   2.072210, 27505347.042920
   2.072238, 27561268.681667
   2.072265, 27617214.183827
   2.072293, 27673164.450248
   2.072321, 27729114.898385
   2.072349, 27785065.528237
   2.072376, 27841016.339805
   2.072404, 27896967.333088
   2.072432, 27952918.508086
   2.072460, 28008869.864799
   2.072488, 28064821.403228
   2.072515, 28120773.123373
   2.072543, 28176715.386857
   2.072571, 28232655.930281
   2.072599, 28288596.609793
   2.072626, 28344537.425392
   2.072654, 28400478.377079
   2.072682, 28456419.464853
   2.072710, 28512360.688715
   2.072738, 28568302.048664
   2.072765, 28624243.544701
   2.072793, 28680185.176825
   2.072821, 28736155.082696
   2.072849, 28792130.674197
   2.072876, 28848106.532396
   2.072904, 28904082.657295
   2.072932, 28960059.048892
   2.072960, 29016035.707188
   2.072988, 29072012.632184
   2.073015, 29127989.823878
   2.073043, 29183967.282272
   2.073071, 29239945.007364
   2.073099, 29295908.341632
   2.073126, 29351869.052914
   2.073154, 29407829.964155
   2.073182, 29463791.075355
   2.073210, 29519752.386514
   2.073238, 29575713.897633
   2.073265, 29631675.608710
   2.073293, 29687637.519747
   2.073321, 29743599.630742
   2.073349, 29799561.941697
   2.073376, 29855524.890149
   2.073404, 29911488.124786
   2.073432, 29967451.561336
   2.073460, 30023415.199800
   2.073488, 30079379.040179
   2.073515, 30135343.082471
   2.073543, 30191307.326678
   2.073571, 30247271.772798
   2.073599, 30303236.420832
   2.073626, 30359201.270781
   2.073654, 30415188.386350
   2.073682, 30471180.050229
   2.073710, 30527172.012790
   2.073738, 30583164.274035
   2.073765, 30639156.833962
   2.073793, 30695149.692573
   2.073821, 30751142.849866
   2.073849, 30807136.305843
   2.073876, 30863130.060502
   2.073904, 30919124.113844
   2.073932, 30975102.161859
   2.073960, 31031077.297967
   2.073988, 31087052.662541
   2.074015, 31143028.255581
   2.074043, 31199004.077088
   2.074071, 31254980.127060
   2.074099, 31310956.405499
   2.074126, 31366932.912404
   2.074154, 31422909.647775
   2.074182, 31478886.611612
   2.074210, 31534868.732145
   2.074238, 31590852.051265
   2.074265, 31646835.619700
   2.074293, 31702819.437449
   2.074321, 31758803.504513
   2.074349, 31814787.820891
   2.074376, 31870772.386583
   2.074404, 31926757.201589
   2.074432, 31982742.265910
   2.074460, 32038727.579545
   2.074488, 32094740.026645
   2.074515, 32150758.013383
   2.074543, 32206776.361184
   2.074571, 32262795.070048
   2.074599, 32318814.139974
   2.074626, 32374833.570963
   2.074654, 32430853.363015
   2.074682, 32486873.516129
   2.074710, 32542894.030306
   2.074738, 32598914.905545
   2.074765, 32654921.570335
   2.074793, 32710925.729725
   2.074821, 32766930.190645
   2.074849, 32822934.953097
   2.074876, 32878940.017080
   2.074904, 32934945.382593
   2.074932, 32990951.049638
   2.074960, 33046957.018213
   2.074988, 33102963.288319
   2.075015, 33158969.859957
   2.075043, 33214929.651682
   2.075071, 33270880.486200
   2.075099, 33326831.433137
   2.075126, 33382782.492493
   2.075154, 33438733.664267
   2.075182, 33494684.948460
   2.075210, 33550636.345072
   2.075238, 33606587.854102
   2.075265, 33662539.475550
   2.075293, 33718491.209418
   2.075321, 33774436.239622
   2.075349, 33830380.042254
   2.075376, 33886323.930380
   2.075404, 33942267.904000
   2.075432, 33998211.963113
   2.075460, 34054156.107720
   2.075488, 34110100.337821
   2.075515, 34166044.653415
   2.075543, 34221989.054503
   2.075571, 34277933.541085
   2.075599, 34333880.342826
   2.075626, 34389827.668265
   2.075654, 34445775.087862
   2.075682, 34501722.601617
   2.075710, 34557670.209529
   2.075738, 34613617.911600
   2.075765, 34669565.707828
   2.075793, 34725513.598214
   2.075821, 34781461.582758
   2.075849, 34837409.661460
   2.075876, 34893386.727148
   2.075904, 34949369.563746
   2.075932, 35005352.604976
   2.075960, 35061335.850839
   2.075988, 35117319.301334
   2.076015, 35173302.956461
   2.076043, 35229286.816221
   2.076071, 35285270.880613
   2.076099, 35341255.149637
   2.076126, 35397239.623294
   2.076154, 35453210.677397
   2.076182, 35509179.260060
   2.076210, 35565147.996084
   2.076238, 35621116.885468
   2.076265, 35677085.928213
   2.076293, 35733055.124319
   2.076321, 35789024.473785
   2.076349, 35844993.976612
   2.076376, 35900963.632800
   2.076404, 35956933.442348
   2.076432, 36012937.211296
   2.076460, 36068947.771996
   2.076488, 36124958.611303
   2.076515, 36180969.729216
   2.076543, 36236981.125737
   2.076571, 36292992.800864
   2.076599, 36349004.754599
   2.076626, 36405016.986940
   2.076654, 36461029.497888
   2.076682, 36517042.287444
   2.076710, 36573035.547013
   2.076738, 36629025.196466
   2.076765, 36685015.052260
   2.076793, 36741005.114395
   2.076821, 36796995.382872
   2.076849, 36852985.857690
   2.076876, 36908976.538849
   2.076904, 36964967.426350
   2.076932, 37020958.520191
   2.076960, 37076949.820374
   2.076988, 37132939.853608
   2.077015, 37188929.804028
   2.077043, 37244919.955496
   2.077071, 37300910.308011
   2.077099, 37356900.861573
   2.077126, 37412891.616183
   2.077154, 37468882.571839
   2.077182, 37524873.728544
   2.077210, 37580865.086295
   2.077238, 37636856.645094
   2.077265, 37692873.703458
   2.077293, 37748895.926828
   2.077321, 37804918.440802
   2.077349, 37860941.245378
   2.077376, 37916964.340556
   2.077404, 37972987.726338
   2.077432, 38029011.402722
   2.077460, 38085035.369709
   2.077488, 38141059.627298
   2.077515, 38197084.175490
   2.077543, 38253088.083217
   2.077571, 38309088.175543
   2.077599, 38365088.485460
   2.077626, 38421089.012969
   2.077654, 38477089.758068
   2.077682, 38533090.720759
   2.077710, 38589091.901040
   2.077738, 38645093.298913
   2.077765, 38701094.914377
   2.077793, 38757096.747432
   2.077821, 38813103.421588
   2.077849, 38869111.220106
   2.077876, 38925119.252110
   2.077904, 38981127.517600
   2.077932, 39037136.016577
   2.077960, 39093144.749040
   2.077988, 39149153.714990
   2.078015, 39205162.914426
   2.078043, 39261172.347349
   2.078071, 39317182.013758
   2.078099, 39373224.121831
   2.078126, 39429272.778668
   2.078154, 39485321.778147
   2.078182, 39541371.120270
   2.078210, 39597420.805035
   2.078238, 39653470.832444
   2.078265, 39709521.202496
   2.078293, 39765571.915190
   2.078321, 39821622.970528
   2.078349, 39877674.368509
   2.078376, 39933709.015474
   2.078404, 39989740.654159
   2.078432, 40045772.578367
   2.078460, 40101804.788096
   2.078488, 40157837.283348
   2.078515, 40213870.064123
   2.078543, 40269903.130419
   2.078571, 40325936.482238
   2.078599, 40381970.119580
   2.078626, 40438004.042443
   2.078654, 40493981.818288
   2.078682, 40549948.819399
   2.078710, 40605915.920061
   2.078738, 40661883.120272
   2.078765, 40717850.420035
   2.078793, 40773817.819347
   2.078821, 40829785.318210
   2.078849, 40885752.916623
   2.078876, 40941720.614587
   2.078904, 40997688.412100
   2.078932, 41053648.553274
   2.078960, 41109607.274236
   2.078988, 41165566.069537
   2.079015, 41221524.939177
   2.079043, 41277483.883156
   2.079071, 41333442.901475
   2.079099, 41389401.994132
   2.079126, 41445361.161129
   2.079154, 41501320.402465
   2.079182, 41557279.718141
   2.079210, 41613242.639991
   2.079238, 41669206.328099
   2.079265, 41725170.101874
   2.079293, 41781133.961313
   2.079321, 41837097.906418
   2.079349, 41893061.937189
   2.079376, 41949026.053625
   2.079404, 42004990.255726
   2.079432, 42060954.543492
   2.079460, 42116918.916925
   2.079488, 42172919.623034
   2.079515, 42228927.514519
   2.079543, 42284935.606368
   2.079571, 42340943.898581
   2.079599, 42396952.391158
   2.079626, 42452961.084098
   2.079654, 42508969.977403
   2.079682, 42564979.071071
   2.079710, 42620988.365103
   2.079738, 42676997.859499
   2.079765, 42732993.712780
   2.079793, 42788987.055819
   2.079821, 42844980.555995
   2.079849, 42900974.213309
   2.079876, 42956968.027761
   2.079904, 43012961.999351
   2.079932, 43068956.128078
   2.079960, 43124950.413943
   2.079988, 43180944.856946
   2.080015, 43236939.457087
   2.080043, 43292975.837513
   2.080071, 43349020.524684
   2.080099, 43405065.497300
   2.080126, 43461110.755361
   2.080154, 43517156.298866
   2.080182, 43573202.127817
   2.080210, 43629248.242212
   2.080238, 43685294.642052
   2.080265, 43741341.327337
   2.080293, 43797388.298066
   2.080321, 43853415.037751
   2.080349, 43909438.046595
   2.080376, 43965461.278447
   2.080404, 44021484.733306
   2.080432, 44077508.411172
   2.080460, 44133532.312047
   2.080488, 44189556.435928
   2.080515, 44245580.782818
   2.080543, 44301605.352715
   2.080571, 44357630.145619
   2.080599, 44413655.325806
   2.080626, 44469680.761153
   2.080654, 44525706.420000
   2.080682, 44581732.302350
   2.080710, 44637758.408200
   2.080738, 44693784.737552
   2.080765, 44749811.290404
   2.080793, 44805838.066758
   2.080821, 44861865.066614
   2.080849, 44917892.289970
   2.080876, 44973952.155554
   2.080904, 45030018.588639
   2.080932, 45086085.341429
   2.080960, 45142152.413926
   2.080988, 45198219.806128
   2.081015, 45254287.518037
   2.081043, 45310355.549651
   2.081071, 45366423.900971
   2.081099, 45422492.571998
   2.081126, 45478561.562730
   2.081154, 45534607.578665
   2.081182, 45590649.356600
   2.081210, 45646691.385963
   2.081238, 45702733.666753
   2.081265, 45758776.198970
   2.081293, 45814818.982614
   2.081321, 45870862.017685
   2.081349, 45926905.304184
   2.081376, 45982948.842109
   2.081404, 46038992.631462
   2.081432, 46095043.334575
   2.081460, 46151095.592422
   2.081488, 46207148.120987
   2.081515, 46263200.920271
   2.081543, 46319253.990272
   2.081571, 46375307.330992
   2.081599, 46431360.942430
   2.081626, 46487414.824587
   2.081654, 46543468.977461
   2.081682, 46599523.401054
   2.081710, 46655616.930315
   2.081738, 46711718.326071
   2.081765, 46767820.103646
   2.081793, 46823922.263038
   2.081821, 46880024.804248
   2.081849, 46936127.727276
   2.081876, 46992231.032122
   2.081904, 47048334.718787
   2.081932, 47104438.787269
   2.081960, 47160543.237569
   2.081988, 47216627.674479
   2.082015, 47272708.504719
   2.082043, 47328789.659121
   2.082071, 47384871.137685
   2.082099, 47440952.940411
   2.082126, 47497035.067300
   2.082154, 47553117.518351
   2.082182, 47609200.293565
   2.082210, 47665283.392941
   2.082238, 47721366.816479
   2.082265, 47777383.007707
   2.082293, 47833386.313804
   2.082321, 47889389.755323
   2.082349, 47945393.332262
   2.082376, 48001397.044624
   2.082404, 48057400.892407
   2.082432, 48113404.875612
   2.082460, 48169408.994238
   2.082488, 48225413.248286
   2.082515, 48281417.637756
   2.082543, 48337411.701785
   2.082571, 48393403.856137
   2.082599, 48449396.117023
   2.082626, 48505388.484443
   2.082654, 48561380.958397
   2.082682, 48617373.538886
   2.082710, 48673366.225908
   2.082738, 48729359.019465
   2.082765, 48785351.919555
   2.082793, 48841344.926180
   2.082821, 48897340.437493
   2.082849, 48953336.524109
   2.082876, 49009332.723807
   2.082904, 49065329.036585
   2.082932, 49121325.462443
   2.082960, 49177322.001383
   2.082988, 49233318.653403
   2.083015, 49289315.418505
   2.083043, 49345312.296687
   2.083071, 49401309.287949
   2.083099, 49457346.937216
   2.083126, 49513392.623765
   2.083154, 49569438.532826
   2.083182, 49625484.664399
   2.083210, 49681531.018484
   2.083238, 49737577.595081
   2.083265, 49793624.394190
   2.083293, 49849671.415811
   2.083321, 49905718.659943
   2.083349, 49961766.126588
   2.083376, 50017795.226452
   2.083404, 50073820.916205
   2.083432, 50129846.778859
   2.083460, 50185872.814414
   2.083488, 50241899.022869
   2.083515, 50297925.404224
   2.083543, 50353951.958480
   2.083571, 50409978.685636
   2.083599, 50466005.585693
   2.083626, 50522032.658650
   2.083654, 50578106.321513
   2.083682, 50634189.226584
   2.083710, 50690272.427065
   2.083738, 50746355.922954
   2.083765, 50802439.714252
   2.083793, 50858523.800958
   2.083821, 50914608.183073
   2.083849, 50970692.860597
   2.083876, 51026777.833530
   2.083904, 51082863.101871
   2.083932, 51138922.353320
   2.083960, 51194976.759778
   2.083988, 51251031.392958
   2.084015, 51307086.252861
   2.084043, 51363141.339487
   2.084071, 51419196.652835
   2.084099, 51475252.192906
   2.084126, 51531307.959699
   2.084154, 51587363.953214
   2.084182, 51643420.173452
   2.084210, 51699474.746139
   2.084238, 51755529.179437
   2.084265, 51811583.834618
   2.084293, 51867638.711681
   2.084321, 51923693.810628
   2.084349, 51979749.131457
   2.084376, 52035804.674169
   2.084404, 52091860.438763
   2.084432, 52147916.425241
   2.084460, 52203972.633601
   2.084488, 52260065.159021
   2.084515, 52316164.956062
   2.084543, 52372265.067193
   2.084571, 52428365.492411
   2.084599, 52484466.231719
   2.084626, 52540567.285115
   2.084654, 52596668.652601
   2.084682, 52652770.334174
   2.084710, 52708872.329837
   2.084738, 52764974.639588
   2.084765, 52821048.881507
   2.084793, 52877117.894956
   2.084821, 52933187.150759
   2.084849, 52989256.648917
   2.084876, 53045326.389429
   2.084904, 53101396.372296
   2.084932, 53157466.597518
   2.084960, 53213537.065094
   2.084988, 53269607.775024
   2.085015, 53325678.727309
   2.085043, 53381756.926210
   2.085071, 53437836.735120
   2.085099, 53493916.803903
   2.085126, 53549997.132557
   2.085154, 53606077.721084
   2.085182, 53662158.569482
   2.085210, 53718239.677753
   2.085238, 53774321.045895
   2.085265, 53830402.673909
   2.085293, 53886484.561796
   2.085321, 53942611.588291
   2.085349, 53998747.636632
   2.085376, 54054884.055922
   2.085404, 54111020.846159
   2.085432, 54167158.007344
   2.085460, 54223295.539477
   2.085488, 54279433.442558
   2.085515, 54335571.716587
   2.085543, 54391710.361564
   2.085571, 54447849.377489
   2.085599, 54503965.502820
   2.085626, 54560077.458137
   2.085654, 54616189.727421
   2.085682, 54672302.310670
   2.085710, 54728415.207885
   2.085738, 54784528.419067
   2.085765, 54840641.944215
   2.085793, 54896755.783329
   2.085821, 54952869.936409
   2.085849, 55008984.403455
   2.085876, 55065021.924014
   2.085904, 55121044.678038
   2.085932, 55177067.558694
   2.085960, 55233090.565981
   2.085988, 55289113.699900
   2.086015, 55345136.960449
   2.086043, 55401160.347630
   2.086071, 55457183.861442
   2.086099, 55513207.501886
   2.086126, 55569231.268960
   2.086154, 55625244.411179
   2.086182, 55681255.581683
   2.086210, 55737266.853011
   2.086238, 55793278.225164
   2.086265, 55849289.698140
   2.086293, 55905301.271941
   2.086321, 55961312.946566
   2.086349, 56017324.722015
   2.086376, 56073336.598288
   2.086404, 56129348.575386
   2.086432, 56185365.102147
   2.086460, 56241382.597906
   2.086488, 56297400.205062
   2.086515, 56353417.923614
   2.086543, 56409435.753563
   2.086571, 56465453.694908
   2.086599, 56521471.747650
   2.086626, 56577489.911788
   2.086654, 56633508.187322
   2.086682, 56689526.574253
   2.086710, 56745593.685276
   2.086738, 56801670.393223
   2.086765, 56857747.326950
   2.086793, 56913824.486459
   2.086821, 56969901.871749
   2.086849, 57025979.482821
   2.086876, 57082057.319673
   2.086904, 57138135.382307
   2.086932, 57194213.670723
   2.086960, 57250292.184919
   2.086988, 57306351.588146
   2.087015, 57362407.444489
   2.087043, 57418463.481559
   2.087071, 57474519.699356
   2.087099, 57530576.097879
   2.087126, 57586632.677128
   2.087154, 57642689.437104
   2.087182, 57698746.377807
   2.087210, 57754803.499236
   2.087238, 57810860.801392
   2.087265, 57866973.611873
   2.087293, 57923097.396535
   2.087321, 57979221.489590
   2.087349, 58035345.891039
   2.087376, 58091470.600881
   2.087404, 58147595.619116
   2.087432, 58203720.945744
   2.087460, 58259846.580766
   2.087488, 58315972.524181
   2.087515, 58372098.775990
   2.087543, 58428197.051539
   2.087571, 58484290.118211
   2.087599, 58540383.428636
   2.087626, 58596476.982813
   2.087654, 58652570.780742
   2.087682, 58708664.822425
   2.087710, 58764759.107859
   2.087738, 58820853.637046
   2.087765, 58876948.409986
   2.087793, 58933043.426678
   2.087821, 58989138.179979
   2.087849, 59045233.078117
   2.087876, 59101328.218860
   2.087904, 59157423.602207
   2.087932, 59213519.228159
   2.087960, 59269615.096716
   2.087988, 59325711.207877
   2.088015, 59381807.561642
   2.088043, 59437904.158012
   2.088071, 59494000.996986
   2.088099, 59550140.649802
   2.088126, 59606288.847586
   2.088154, 59662437.383437
   2.088182, 59718586.257354
   2.088210, 59774735.469339
   2.088238, 59830885.019389
   2.088265, 59887034.907507
   2.088293, 59943185.133691
   2.088321, 59999335.697941
   2.088349, 60055486.600258
   2.088376, 60111606.295697
   2.088404, 60167720.177822
   2.088432, 60223834.327936
   2.088460, 60279948.746038
   2.088488, 60336063.432129
   2.088515, 60392178.386208
   2.088543, 60448293.608277
   2.088571, 60504409.098333
   2.088599, 60560524.856378
   2.088626, 60616640.882412
   2.088654, 60672765.578963
   2.088682, 60728892.181869
   2.088710, 60785019.071257
   2.088738, 60841146.247128
   2.088765, 60897273.709482
   2.088793, 60953401.458318
   2.088821, 61009529.493638
   2.088849, 61065657.815440
   2.088876, 61121786.423725
   2.088904, 61177915.318493
   2.088932, 61234095.567785
   2.088960, 61290286.060107
   2.088988, 61346476.950288
   2.089015, 61402668.238326
   2.089043, 61458859.924223
   2.089071, 61515052.007977
   2.089099, 61571244.489590
   2.089126, 61627437.369061
   2.089154, 61683630.646389
   2.089182, 61739824.321576
   2.089210, 61795991.403474
   2.089238, 61852153.621355
   2.089265, 61908316.178762
   2.089293, 61964479.075695
   2.089321, 62020642.312153
   2.089349, 62076805.888137
   2.089376, 62132969.803647
   2.089404, 62189134.058683
   2.089432, 62245298.653245
   2.089460, 62301463.587332
   2.089488, 62357540.115394
   2.089515, 62413599.683781
   2.089543, 62469659.401621
   2.089571, 62525719.268916
   2.089599, 62581779.285664
   2.089626, 62637839.451867
   2.089654, 62693899.767523
   2.089682, 62749960.232633
   2.089710, 62806020.847197
   2.089738, 62862081.611215
   2.089765, 62918129.036839
   2.089793, 62974173.982962
   2.089821, 63030219.049909
   2.089849, 63086264.237678
   2.089876, 63142309.546271
   2.089904, 63198354.975687
   2.089932, 63254400.525925
   2.089960, 63310446.196987
   2.089988, 63366491.988872
   2.090015, 63422537.901580
   2.090043, 63478587.437993
   2.090071, 63534637.777925
   2.090099, 63590688.246050
   2.090126, 63646738.842368
   2.090154, 63702789.566879
   2.090182, 63758840.419583
   2.090210, 63814891.400480
   2.090238, 63870942.509571
   2.090265, 63926993.746855
   2.090293, 63983045.112331
   2.090321, 64039149.968390
   2.090349, 64095265.351836
   2.090376, 64151380.974767
   2.090404, 64207496.837184
   2.090432, 64263612.939087
   2.090460, 64319729.280475
   2.090488, 64375845.861349
   2.090515, 64431962.681709
   2.090543, 64488079.741554
   2.090571, 64544197.040884
   2.090599, 64600290.957185
   2.090626, 64656380.509838
   2.090654, 64712470.253137
   2.090682, 64768560.187081
   2.090710, 64824650.311671
   2.090738, 64880740.626906
   2.090765, 64936831.132786
   2.090793, 64992921.829312
   2.090821, 65049012.716484
   2.090849, 65105103.794301
   2.090876, 65161255.914898
   2.090904, 65217420.082923
   2.090932, 65273584.566325
   2.090960, 65329749.365105
   2.090988, 65385914.479264
   2.091015, 65442079.908800
   2.091043, 65498245.653714
   2.091071, 65554411.714006
   2.091099, 65610578.089675
   2.091126, 65666744.780723
   2.091154, 65722878.341516
   2.091182, 65779005.701483
   2.091210, 65835133.308856
   2.091238, 65891261.163636
   2.091265, 65947389.265822
   2.091293, 66003517.615414
   2.091321, 66059646.212412
   2.091349, 66115775.056816
   2.091376, 66171904.148627
   2.091404, 66228033.487844
   2.091432, 66284161.251272
   2.091460, 66340288.906922
   2.091488, 66396416.806304
   2.091515, 66452544.949419
   2.091543, 66508673.336266
   2.091571, 66564801.966845
   2.091599, 66620930.841157
   2.091626, 66677059.959200
   2.091654, 66733189.320976
   2.091682, 66789318.926484
   2.091710, 66845495.810878
   2.091738, 66901682.101378
   2.091765, 66957868.729600
   2.091793, 67014055.695542
   2.091821, 67070242.999204
   2.091849, 67126430.640588
   2.091876, 67182618.619692
   2.091904, 67238806.936517
   2.091932, 67294995.591063
   2.091960, 67351184.583329
   2.091988, 67407337.859709
   2.092015, 67463484.451172
   2.092043, 67519631.308911
   2.092071, 67575778.432923
   2.092099, 67631925.823211
   2.092126, 67688073.479773
   2.092154, 67744221.402610
   2.092182, 67800369.591721
   2.092210, 67856518.047107
   2.092238, 67912666.768767
   2.092265, 67968825.055461
   2.092293, 68024985.419532
   2.092321, 68081146.068153
   2.092349, 68137307.001323
   2.092376, 68193468.219044
   2.092404, 68249629.721314
   2.092432, 68305791.508134
   2.092460, 68361953.579504
   2.092488, 68418115.935424
   2.092515, 68474278.575893
   2.092543, 68530499.110899
   2.092571, 68586731.150196
   2.092599, 68642963.586342
   2.092626, 68699196.419336
   2.092654, 68755429.649177
   2.092682, 68811663.275867
   2.092710, 68867897.299405
   2.092738, 68924131.719791
   2.092765, 68980366.537025
   2.092793, 69036601.751107
   2.092821, 69092807.693537
   2.092849, 69149008.255204
   2.092876, 69205209.156356
   2.092904, 69261410.396992
   2.092932, 69317611.977112
   2.092960, 69373813.896716
   2.092988, 69430016.155805
   2.093015, 69486218.754379
   2.093043, 69542421.692436
   2.093071, 69598624.969978
   2.093099, 69654730.039148
   2.093126, 69710816.258108
   2.093154, 69766902.627543
   2.093182, 69822989.147452
   2.093210, 69879075.817837
   2.093238, 69935162.638697
   2.093265, 69991249.610032
   2.093293, 70047336.731841
   2.093321, 70103424.004126
   2.093349, 70159511.426886
   2.093376, 70215585.088544
   2.093404, 70271656.191946
   2.093432, 70327727.419354
   2.093460, 70383798.770768
   2.093488, 70439870.246188
   2.093515, 70495941.845614
   2.093543, 70552013.569047
   2.093571, 70608085.416486
   2.093599, 70664157.387931
   2.093626, 70720229.483382
   2.093654, 70776306.988267
   2.093682, 70832385.646214
   2.093710, 70888464.438143
   2.093738, 70944543.364056
   2.093765, 71000622.423952
   2.093793, 71056701.617830
   2.093821, 71112780.945691
   2.093849, 71168860.407536
   2.093876, 71224940.003363
   2.093904, 71281019.733173
   2.093932, 71337160.703587
   2.093960, 71393313.704412
   2.093988, 71449466.953659
   2.094015, 71505620.451329
   2.094043, 71561774.197420
   2.094071, 71617928.191934
   2.094099, 71674082.434870
   2.094126, 71730236.926228
   2.094154, 71786391.666009
   2.094182, 71842546.654212
   2.094210, 71898676.939999
   2.094238, 71954802.617035
   2.094265, 72010928.496131
   2.094293, 72067054.577285
   2.094321, 72123180.860497
   2.094349, 72179307.345769
   2.094376, 72235434.033099
   2.094404, 72291560.922488
   2.094432, 72347688.013935
   2.094460, 72403815.307442
   2.094488, 72460012.061378
   2.094515, 72516222.498966
   2.094543, 72572433.266314
   2.094571, 72628644.363421
   2.094599, 72684855.790288
   2.094626, 72741067.546915
   2.094654, 72797279.633302
   2.094682, 72853492.049448
   2.094710, 72909704.795355
   2.094738, 72965917.871021
   2.094765, 73022095.142746
   2.094793, 73078265.711041
   2.094821, 73134436.542981
   2.094849, 73190607.638568
   2.094876, 73246778.997801
   2.094904, 73302950.620680
   2.094932, 73359122.507205
   2.094960, 73415294.657376
   2.094988, 73471467.071193
   2.095015, 73527639.748656
   2.095043, 73583811.583555
   2.095071, 73639983.466797
   2.095099, 73696155.611677
   2.095126, 73752328.018195
   2.095154, 73808500.686350
   2.095182, 73864673.616142
   2.095210, 73920846.807572
   2.095238, 73977020.260639
   2.095265, 74033193.975344
   2.095293, 74089367.951686
   2.095321, 74145595.181042
   2.095349, 74201832.985116
   2.095376, 74258071.146321
   2.095404, 74314309.664657
   2.095432, 74370548.540124
   2.095460, 74426787.772722
   2.095488, 74483027.362451
   2.095515, 74539267.309311
   2.095543, 74595507.613302
   2.095571, 74651748.274423
   2.095599, 74707949.492632
   2.095626, 74764143.322657
   2.095654, 74820337.438628
   2.095682, 74876531.840546
   2.095710, 74932726.528410
   2.095738, 74988921.502221
   2.095765, 75045116.761979
   2.095793, 75101312.307684
   2.095821, 75157508.139335
   2.095849, 75213704.256932
   2.095876, 75269910.970382
   2.095904, 75326119.976018
   2.095932, 75382329.285903
   2.095960, 75438538.900038
   2.095988, 75494748.818422
   2.096015, 75550959.041055
   2.096043, 75607169.567937
   2.096071, 75663380.399068
   2.096099, 75719591.534449
   2.096126, 75775802.974079
   2.096154, 75832078.350411
   2.096182, 75888366.412686
   2.096210, 75944654.891338
   2.096238, 76000943.786369
   2.096265, 76057233.097777
   2.096293, 76113522.825563
   2.096321, 76169812.969726
   2.096349, 76226103.530268
   2.096376, 76282394.507187
   2.096404, 76338685.900485
   2.096432, 76394944.147581
   2.096460, 76451196.280800
   2.096488, 76507448.771689
   2.096515, 76563701.620248
   2.096543, 76619954.826476
   2.096571, 76676208.390374
   2.096599, 76732462.311942
   2.096626, 76788716.591180
   2.096654, 76844971.228088
   2.096682, 76901226.222665
   2.096710, 76957371.419807
   2.096738, 77013495.543079
   2.096765, 77069619.832739
   2.096793, 77125744.288787
   2.096821, 77181868.911222
   2.096849, 77237993.700045
   2.096876, 77294118.655256
   2.096904, 77350243.776854
   2.096932, 77406369.064840
   2.096960, 77462494.519214
   2.096988, 77518603.662622
   2.097015, 77574709.766810
   2.097043, 77630816.008979
   2.097071, 77686922.389131
   2.097099, 77743028.907264
   2.097126, 77799135.563379
   2.097154, 77855242.357475
   2.097182, 77911349.289554
   2.097210, 77967456.359614
   2.097238, 78023563.567657
   2.097265, 78079675.589419
   2.097293, 78135788.658757
   2.097321, 78191901.874080
   2.097349, 78248015.235388
   2.097376, 78304128.742680
   2.097404, 78360242.395957
   2.097432, 78416356.195219
   2.097460, 78472470.140465
   2.097488, 78528584.231696
   2.097515, 78584698.468911
   2.097543, 78640879.246386
   2.097571, 78697073.085108
   2.097599, 78753267.182643
   2.097626, 78809461.538992
   2.097654, 78865656.154154
   2.097682, 78921851.028130
   2.097710, 78978046.160919
   2.097738, 79034241.552522
   2.097765, 79090437.202938
   2.097793, 79146633.112167
   2.097821, 79202800.519806
   2.097849, 79258962.591996
   2.097876, 79315124.874469
   2.097904, 79371287.367227
   2.097932, 79427450.070269
   2.097960, 79483612.983596
   2.097988, 79539776.107207
   2.098015, 79595939.441103
   2.098043, 79652102.985283
   2.098071, 79708266.739747
   2.098099, 79764506.167529
   2.098126, 79820760.483292
   2.098154, 79877015.135778
   2.098182, 79933270.124987
   2.098210, 79989525.450919
   2.098238, 80045781.113575
   2.098265, 80102037.112954
   2.098293, 80158293.449057
   2.098321, 80214550.121882
   2.098349, 80270807.131431
   2.098376, 80327023.698300
   2.098404, 80383232.670663
   2.098432, 80439441.911899
   2.098460, 80495651.422008
   2.098488, 80551861.200992
   2.098515, 80608071.248849
   2.098543, 80664281.565579
   2.098571, 80720492.151183
   2.098599, 80776703.005661
   2.098626, 80832914.129012
   2.098654, 80889123.649794
   2.098682, 80945333.075491
   2.098710, 81001542.766969
   2.098738, 81057752.724229
   2.098765, 81113962.947269
   2.098793, 81170173.436092
   2.098821, 81226384.190695
   2.098849, 81282595.211080
   2.098876, 81338806.497247
   2.098904, 81395018.049195
   2.098932, 81451287.897356
   2.098960, 81507569.296479
   2.098988, 81563851.056607
   2.099015, 81620133.177741
   2.099043, 81676415.659880
   2.099071, 81732698.503026
   2.099099, 81788981.707177
   2.099126, 81845265.272334
   2.099154, 81901549.198496
   2.099182, 81957833.485664
   2.099210, 82014074.161690
   2.099238, 82070306.647910
   2.099265, 82126539.423474
   2.099293, 82182772.488380
   2.099321, 82239005.842629
   2.099349, 82295239.486221
   2.099376, 82351473.419157
   2.099404, 82407707.641435
   2.099432, 82463942.153056
   2.099460, 82520176.954021
   2.099488, 82576423.555786
   2.099515, 82632672.685292
   2.099543, 82688922.122775
   2.099571, 82745171.868234
   2.099599, 82801421.921669
   2.099626, 82857672.283081
   2.099654, 82913922.952469
   2.099682, 82970173.929833
   2.099710, 83026425.215174
   2.099738, 83082676.808490
   2.099765, 83138999.142879
   2.099793, 83195335.480223
   2.099821, 83251672.238782
   2.099849, 83308009.418558
   2.099876, 83364347.019550
   2.099904, 83420685.041759
   2.099932, 83477023.485183
   2.099960, 83533362.349823
   2.099988, 83589701.635680
   2.100015, 83646041.342753
   2.100043, 83702345.201909
   2.100071, 83758642.430486
   2.100099, 83814940.022358
   2.100126, 83871237.977524
   2.100154, 83927536.295984
   2.100182, 83983834.977739
   2.100210, 84040134.022787
   2.100238, 84096433.431130
   2.100265, 84152733.202767
   2.100293, 84209033.337698
   2.100321, 84265213.599604
   2.100349, 84321370.848472
   2.100376, 84377528.269893
   2.100404, 84433685.863868
   2.100432, 84489843.630395
   2.100460, 84546001.569476
   2.100488, 84602159.681109
   2.100515, 84658317.965296
   2.100543, 84714476.422036
   2.100571, 84770635.051329
   2.100599, 84826776.692502
   2.100626, 84882915.170016
   2.100654, 84939053.793040
   2.100682, 84995192.561573
   2.100710, 85051331.475616
   2.100738, 85107470.535168
   2.100765, 85163609.740230
   2.100793, 85219749.090801
   2.100821, 85275888.586882
   2.100849, 85332028.228472
   2.100876, 85388174.138511
   2.100904, 85444321.384364
   2.100932, 85500468.785312
   2.100960, 85556616.341355
   2.100988, 85612764.052493
   2.101015, 85668911.918727
   2.101043, 85725059.940056
   2.101071, 85781208.116481
   2.101099, 85837356.448001
   2.101126, 85893504.934616
   2.101154, 85949727.387971
   2.101182, 86005964.344767
   2.101210, 86062201.571462
   2.101238, 86118439.068057
   2.101265, 86174676.834550
   2.101293, 86230914.870943
   2.101321, 86287153.177235
   2.101349, 86343391.753425
   2.101376, 86399630.599515
   2.101404, 86455869.715504
   2.101432, 86512101.399348
   2.101460, 86568331.855950
   2.101476, 86600725.950151
   2.101504, 65730389.202208
   2.101531, 44832911.935500
   2.101559, 23908293.996954
   2.101587, 2956535.233454
   2.101615, -18022364.508073
   2.101642, -39028405.380745
   2.101670, -60061587.537633
   2.101698, -72403603.149703
   2.101726, -72430341.447859
   2.101754, -72456731.992804
   2.101781, -72482774.163172
   2.101809, -72508467.337594
   2.101837, -72533810.894704
   2.101865, -72558804.213132
   2.101892, -72583446.671513
   2.101920, -72607737.648477
   2.101948, -72631676.522658
   2.101976, -72655125.681092
   2.102004, -72678020.623438
   2.102031, -72700551.348008
   2.102059, -72722717.214618
   2.102087, -72744517.583083
   2.102115, -72765951.813222
   2.102142, -72787019.264851
   2.102170, -72807719.297786
   2.102198, -72828051.271844
   2.102226, -72848014.546843
   2.102254, -72867485.125349
   2.102281, -72886405.760624
   2.102309, -72904947.841222
   2.102337, -72923110.712585
   2.102365, -72940893.720154
   2.102385, -72953791.397895
