Time, Energies
   0.000000,    0.000000
   0.000028, 2084.199348
   0.000056, 8306.149869
   0.000083, 18649.442635
   0.000111, 33103.198015
   0.000139, 51655.154051
   0.000167, 74293.048790
   0.000194, 101004.620275
   0.000222, 131777.606551
   0.000250, 166599.745661
   0.000278, 205458.775651
   0.000306, 248342.434564
   0.000333, 294996.230603
   0.000361, 345578.114335
   0.000389, 400103.877238
   0.000417, 458561.530856
   0.000444, 520939.086731
   0.000472, 587224.556404
   0.000500, 657405.951418
   0.000528, 731471.283314
   0.000556, 809408.563635
   0.000583, 891205.803922
   0.000611, 976401.228394
   0.000639, 1065335.056455
   0.000667, 1158049.295036
   0.000694, 1254532.235081
   0.000722, 1354772.167535
   0.000750, 1458757.383344
   0.000778, 1566476.173451
   0.000806, 1677916.828803
   0.000833, 1793067.640343
   0.000861, 1911916.899016
   0.000889, 2033792.285306
   0.000917, 2159219.306918
   0.000944, 2288266.608222
   0.000972, 2420922.764631
   0.001000, 2557176.351557
   0.001028, 2697015.944414
   0.001056, 2840430.118615
   0.001083, 2987407.449571
   0.001111, 3137936.512698
   0.001139, 3292005.883406
   0.001167, 3448731.126752
   0.001194, 3608824.566142
   0.001222, 3772381.692896
   0.001250, 3939391.371131
   0.001278, 4109842.464963
   0.001306, 4283723.838510
   0.001333, 4461024.355887
   0.001361, 4641732.881213
   0.001389, 4825838.278603
   0.001417, 5013329.412174
   0.001444, 5202395.925009
   0.001472, 5394504.616952
   0.001500, 5589861.989330
   0.001528, 5788455.520999
   0.001556, 5990272.690818
   0.001583, 6195300.977643
   0.001611, 6403527.860333
   0.001639, 6614940.817744
   0.001667, 6829527.328735
   0.001694, 7047274.872163
   0.001722, 7264601.657457
   0.001750, 7484441.374551
   0.001778, 7707214.060751
   0.001806, 7932904.418147
   0.001833, 8161497.148828
   0.001861, 8392976.954885
   0.001889, 8627328.538406
   0.001917, 8864536.601481
   0.001944, 9104585.846201
   0.001972, 9347460.974654
   0.002000, 9591220.676968
   0.002028, 9837491.599794
   0.002056, 10086496.920032
   0.002083, 10338221.916447
   0.002111, 10592651.867804
   0.002139, 10849772.052866
   0.002167, 11109567.750399
   0.002194, 11372024.239167
   0.002222, 11637126.797934
   0.002250, 11904860.705466
   0.002278, 12173076.972190
   0.002306, 12443588.205385
   0.002333, 12716644.337209
   0.002361, 12992231.214667
   0.002389, 13270334.684762
   0.002417, 13550940.594498
   0.002444, 13834034.790878
   0.002472, 14119603.120906
   0.002500, 14407631.431585
   0.002528, 14698105.569919
   0.002556, 14988685.921140
   0.002583, 15281356.091100
   0.002611, 15576390.626138
   0.002639, 15873775.932091
   0.002667, 16173498.414796
   0.002694, 16475544.480091
   0.002722, 16779900.533813
   0.002750, 17086552.981801
   0.002778, 17395488.229891
   0.002806, 17706692.683921
   0.002833, 18017653.488089
   0.002861, 18330509.977444
   0.002889, 18645559.128262
   0.002917, 18962787.894932
   0.002944, 19282183.231846
   0.002972, 19603732.093391
   0.003000, 19927421.433960
   0.003028, 20253238.207940
   0.003056, 20581169.369724
   0.003083, 20911201.873700
   0.003111, 21240667.163060
   0.003139, 21571844.879326
   0.003167, 21905052.223210
   0.003194, 22240276.686587
   0.003222, 22577505.761335
   0.003250, 22916726.939329
   0.003278, 23257927.712445
   0.003306, 23601095.572560
   0.003333, 23946218.011550
   0.003361, 24293282.521291
   0.003389, 24626982.635709
   0.003417, 24960259.792502
   0.003444, 25294981.706492
   0.003472, 25631131.633354
   0.003500, 25968692.828763
   0.003528, 26307648.548392
   0.003556, 26647982.047917
   0.003583, 26989676.583012
   0.003611, 27332715.409350
   0.003639, 27677081.782607
   0.003667, 28018927.622799
   0.003694, 28361559.442592
   0.003722, 28705437.866018
   0.003750, 29050546.912353
   0.003778, 29396870.600875
   0.003806, 29744392.950860
   0.003833, 30093097.981585
   0.003861, 30442969.712326
   0.003889, 30793992.162360
   0.003917, 31146149.350965
   0.003944, 31496082.671800
   0.003972, 31846691.793461
   0.004000, 32198378.392415
   0.004028, 32551127.385302
   0.004056, 32904923.688761
   0.004083, 33259752.219429
   0.004111, 33615597.893947
   0.004139, 33972445.628952
   0.004167, 34330280.341084
   0.004194, 34689086.946980
   0.004222, 35045522.562000
   0.004250, 35402479.221862
   0.004278, 35760357.872941
   0.004306, 36119144.290208
   0.004333, 36478824.248637
   0.004361, 36839383.523199
   0.004389, 37200807.888867
   0.004417, 37563083.120613
   0.004444, 37926194.993410
   0.004472, 38290129.282230
   0.004500, 38651581.704712
   0.004528, 39013416.219688
   0.004556, 39376030.122843
   0.004583, 39739410.009037
   0.004611, 40103542.473131
   0.004639, 40468414.109983
   0.004667, 40834011.514454
   0.004694, 41200321.281403
   0.004722, 41567330.005690
   0.004750, 41935024.282176
   0.004778, 42300159.146864
   0.004806, 42665551.940878
   0.004833, 43031593.660106
   0.004861, 43398271.681547
   0.004889, 43765573.382198
   0.004917, 44133486.139056
   0.004944, 44501997.329117
   0.004972, 44871094.329380
   0.005000, 45240764.516841
   0.005028, 45610995.268498
   0.005056, 45978619.520394
   0.005083, 46346391.333992
   0.005111, 46714693.024225
   0.005139, 47083512.713272
   0.005167, 47452838.523316
   0.005194, 47822658.576535
   0.005222, 48192960.995110
   0.005250, 48563733.901221
   0.005278, 48934965.417050
   0.005306, 49306643.664775
   0.005333, 49676226.898635
   0.005361, 50045936.835332
   0.005389, 50416079.381226
   0.005417, 50786643.441907
   0.005444, 51157617.922968
   0.005472, 51528991.730003
   0.005500, 51900753.768602
   0.005528, 52272892.944360
   0.005556, 52645398.162869
   0.005583, 53018258.329720
   0.005611, 53389450.404640
   0.005639, 53760752.623676
   0.005667, 54132407.532787
   0.005694, 54504404.816128
   0.005722, 54876734.157853
   0.005750, 55249385.242116
   0.005778, 55622347.753072
   0.005806, 55995611.374876
   0.005833, 56369165.791681
   0.005861, 56743000.687642
   0.005889, 57115333.034970
   0.005917, 57487712.191384
   0.005930, 57669079.921342
   0.005958, 58040259.246010
   0.005986, 58411689.636944
   0.006014, 58783361.471541
   0.006041, 59155265.127198
   0.006069, 59527390.981312
   0.006097, 59899729.411279
   0.006125, 60272270.794497
   0.006152, 60643526.748411
   0.006180, 61012523.982919
   0.006208, 61381715.953015
   0.006236, 61751093.785654
   0.006264, 62120648.607791
   0.006291, 62490371.546382
   0.006319, 62860253.728383
   0.006347, 63230286.280750
   0.006375, 63600460.330439
   0.006402, 63970767.004404
   0.006430, 64339229.802763
   0.006458, 64704560.134006
   0.006486, 65070027.608287
   0.006514, 65435624.328131
   0.006541, 65801342.396057
   0.006569, 66167173.914589
   0.006597, 66533110.986249
   0.006625, 66899145.713558
   0.006652, 67265270.199040
   0.006680, 67631476.545216
   0.006708, 67995619.836579
   0.006736, 68356304.158902
   0.006764, 68717083.160738
   0.006791, 69077949.968953
   0.006819, 69438897.710414
   0.006847, 69799919.511990
   0.006875, 70161008.500546
   0.006902, 70522157.802950
   0.006930, 70883360.546069
   0.006958, 71244609.856769
   0.006975, 71470122.890365
   0.007003, 71795674.673599
   0.007031, 72121384.368023
   0.007059, 72447249.996215
   0.007086, 72773269.580756
   0.007114, 73099441.144225
   0.007142, 73425762.709200
   0.007170, 73752232.298262
   0.007198, 74078847.933990
   0.007225, 74405607.638963
   0.007253, 74732509.435760
   0.007281, 75033685.516631
   0.007309, 75334950.610190
   0.007336, 75636304.429267
   0.007364, 75937746.686692
   0.007392, 76239277.095294
   0.007420, 76527109.909137
   0.007448, 76814952.169678
   0.007475, 77102803.870474
   0.007503, 77390665.005084
   0.007531, 77678535.567068
   0.007559, 77952014.851095
   0.007586, 78225384.808142
   0.007614, 78498645.290100
   0.007642, 78771796.148856
   0.007670, 79044837.236300
   0.007670,    0.000000
   0.027585, 202464499.492279
   0.047909, 409491184.130146
   0.068888, 616023181.521044
   0.091377, 812616023.440065
   0.116154, 1017120126.325379
   0.143582, 1234018261.571553
   0.174218, 1462938252.936133
   0.209042, 1707339081.092966
   0.250459, 1958478995.729677
   0.250459,    0.000000
   0.264316, 103428639.193799
   0.278173, 206810443.642434
   0.292030, 310145424.933724
   0.305887, 413433594.655548
   0.319744, 516674964.395839
   0.333601, 619869545.742588
   0.347458, 723017350.283838
   0.361315, 826118389.607684
   0.375173, 929172675.302273
   0.389030, 1032180218.955797
   0.402887, 1135141032.156501
   0.416744, 1238055126.492671
   0.430601, 1340922513.552639
   0.444458, 1443743204.924777
   0.458315, 1546517212.197501
   0.472172, 1649244546.959262
   0.486029, 1751925220.798554
   0.499886, 1854559245.303900
   0.513743, 1957146632.063864
   0.527600, 2059687392.667037
   0.541457, 2162181538.702045
   0.555314, 2264629081.757541
   0.569171, 2367030033.422206
   0.583028, 2469384405.284748
   0.596885, 2571692208.933901
   0.610742, 2673953455.958417
   0.624599, 2776168157.947075
   0.638456, 2878336326.488669
   0.652313, 2980457973.172014
   0.652313,    0.000000
   0.671644, 68010383.130101
   0.691022, 127214786.093416
   0.710375, 176799593.025019
   0.729642, 216157481.903355
   0.748785, 245389797.506026
   0.767732, 263054274.882459
   0.786416, 268356986.140469
   0.805036, 273284458.079349
   0.823530, 268135948.785426
   0.823530,    0.000000
   0.833181, 98129352.887344
   0.842926, 197313473.722707
   0.852762, 297649225.536528
   0.862735, 397533133.116656
   0.873025, 493106127.206913
   0.883787, 589606866.428234
   0.895071, 687258003.743480
   0.906916, 787386024.399231
   0.919352, 890025468.390513
   0.919352,    0.000000
   0.950238, 116584039.143190
   0.981137, 232913416.353953
   1.012049, 348988355.928549
   1.042975, 464809082.489744
   1.073915, 580375820.985342
   1.104868, 695688796.686721
   1.135834, 810748235.187363
   1.166814, 925554362.401393
   1.197808, 1040107404.562110
   1.197808,    0.000000
   1.208580, 30231406.241203
   1.219183, 55714999.358846
   1.229827, 80492035.578696
   1.240517, 103545628.870977
   1.251253, 124975420.429357
   1.262033, 144680566.322676
   1.272854, 162698663.840980
   1.283708, 178810207.322011
   1.294581, 192574016.414288
   1.294581,    0.000000
   1.377915, 310957695.728344
   1.461248, 620197699.901514
   1.544581, 927746711.527594
   1.627915, 1233676617.791731
   1.711248, 1537956592.675029
   1.794581, 1840592358.807128
   1.877915, 2141589626.925012
   1.961248, 2440954095.862067
   2.044581, 2738691452.537406
   2.044581,    0.000000
   2.044609, 78359.745101
   2.044637, 156721.610706
   2.044665, 235085.596815
   2.044692, 313455.549029
   2.044720, 391830.441847
   2.044748, 470209.736889
   2.044776, 548593.434155
   2.044804, 626981.533646
   2.044831, 705374.035360
   2.044859, 783770.939299
   2.044887, 862172.245462
   2.044915, 940577.953849
   2.044942, 1018988.064460
   2.044970, 1097426.063806
   2.044998, 1175876.517850
   2.045026, 1254335.355635
   2.045054, 1332802.577161
   2.045081, 1411278.182428
   2.045109, 1489762.171437
   2.045137, 1568254.544186
   2.045165, 1646755.300676
   2.045192, 1725264.440908
   2.045220, 1803781.964880
   2.045248, 1882345.590490
   2.045276, 1960928.076965
   2.045304, 2039522.677058
   2.045331, 2118129.390766
   2.045359, 2196748.218091
   2.045387, 2275379.159033
   2.045415, 2354022.213591
   2.045442, 2432677.381765
   2.045470, 2511344.663556
   2.045498, 2590024.058963
   2.045526, 2668768.201416
   2.045554, 2747537.667349
   2.045581, 2826322.920914
   2.045609, 2905123.962109
   2.045637, 2983940.790935
   2.045665, 3062773.407392
   2.045692, 3141621.811480
   2.045720, 3220486.003198
   2.045748, 3299365.982548
   2.045776, 3378261.749528
   2.045804, 3457241.583175
   2.045831, 3536253.343014
   2.045859, 3615284.573408
   2.045887, 3694335.274357
   2.045915, 3773405.445861
   2.045942, 3852495.087920
   2.045970, 3931604.200535
   2.045998, 4010732.783705
   2.046026, 4089880.837430
   2.046054, 4169048.361711
   2.046081, 4248319.934095
   2.046109, 4327630.189563
   2.046137, 4406963.632815
   2.046165, 4486320.263853
   2.046192, 4565700.082676
   2.046220, 4645103.089285
   2.046248, 4724529.283679
   2.046276, 4803978.665858
   2.046304, 4883451.235822
   2.046331, 4962946.993572
   2.046359, 5042556.022822
   2.046387, 5122208.133185
   2.046415, 5201886.771934
   2.046442, 5281591.939067
   2.046470, 5361323.634585
   2.046498, 5441081.858489
   2.046526, 5520866.610776
   2.046554, 5600677.891449
   2.046581, 5680515.700507
   2.046609, 5760380.037949
   2.046637, 5840369.710980
   2.046665, 5920407.275942
   2.046692, 6000474.538236
   2.046720, 6080571.497862
   2.046748, 6160698.154820
   2.046776, 6240854.509110
   2.046804, 6321040.560732
   2.046831, 6401256.309686
   2.046859, 6481501.755972
   2.046887, 6561776.899590
   2.046915, 6642190.018630
   2.046942, 6722655.865390
   2.046970, 6803154.468764
   2.046998, 6883685.828751
   2.047026, 6964249.945351
   2.047054, 7044846.818564
   2.047081, 7125476.448390
   2.047109, 7206138.834830
   2.047137, 7286833.977883
   2.047165, 7367561.877549
   2.047192, 7448465.143779
   2.047220, 7529431.104347
   2.047248, 7610433.422172
   2.047276, 7691472.097254
   2.047304, 7772547.129591
   2.047331, 7853658.519185
   2.047359, 7934806.266035
   2.047387, 8015990.370142
   2.047415, 8097210.831505
   2.047442, 8178467.650125
   2.047470, 8259918.662019
   2.047498, 8341438.812219
   2.047526, 8422998.921570
   2.047554, 8504598.990070
   2.047581, 8586239.017720
   2.047609, 8667919.004521
   2.047637, 8749638.950471
   2.047665, 8831398.855571
   2.047692, 8913198.719822
   2.047720, 8995038.543222
   2.047748, 9077054.396969
   2.047776, 9159138.219604
   2.047804, 9241264.834213
   2.047831, 9323434.240795
   2.047859, 9405646.439349
   2.047887, 9487901.429877
   2.047915, 9570199.212378
   2.047942, 9652539.786852
   2.047970, 9734923.153299
   2.047998, 9817349.311719
   2.048026, 9899964.987487
   2.048054, 9982653.431122
   2.048081, 10065387.475018
   2.048109, 10148167.119175
   2.048137, 10230992.363593
   2.048165, 10313863.208272
   2.048192, 10396779.653213
   2.048220, 10479741.698414
   2.048248, 10562749.343877
   2.048276, 10645802.589600
   2.048304, 10729061.052288
   2.048331, 10812397.514766
   2.048359, 10895782.404544
   2.048387, 10979215.721620
   2.048415, 11062697.465995
   2.048442, 11146227.637669
   2.048470, 11229806.236643
   2.048498, 11313433.262915
   2.048526, 11397108.716487
   2.048554, 11480832.597357
   2.048581, 11564765.050991
   2.048609, 11648778.257303
   2.048637, 11732842.530344
   2.048665, 11816957.870115
   2.048692, 11901124.276616
   2.048720, 11985341.749846
   2.048748, 12069610.289806
   2.048776, 12153929.896496
   2.048804, 12238300.569915
   2.048831, 12322722.310064
   2.048859, 12407392.169683
   2.048887, 12492152.676843
   2.048915, 12576967.287558
   2.048942, 12661836.001829
   2.048970, 12746758.819655
   2.048998, 12831735.741037
   2.049026, 12916766.765973
   2.049054, 13001851.894465
   2.049081, 13086991.126513
   2.049109, 13172184.462116
   2.049137, 13257628.585950
   2.049165, 13343166.149931
   2.049192, 13428760.663795
   2.049220, 13514412.127540
   2.049248, 13600120.541168
   2.049276, 13685885.904678
   2.049304, 13771708.218071
   2.049331, 13857587.481346
   2.049359, 13943523.694502
   2.049387, 14029516.857542
   2.049415, 14115773.515670
   2.049442, 14202128.274090
   2.049470, 14288542.799632
   2.049498, 14375017.092297
   2.049526, 14461551.152086
   2.049554, 14548144.978998
   2.049581, 14634798.573032
   2.049609, 14721511.934190
   2.049637, 14808285.062471
   2.049665, 14895117.957875
   2.049692, 14982213.137630
   2.049720, 15069408.294096
   2.049748, 15156665.829860
   2.049776, 15243985.744922
   2.049804, 15331368.039282
   2.049831, 15418812.712940
   2.049859, 15506319.765896
   2.049887, 15593889.198150
   2.049915, 15681521.009702
   2.049942, 15769215.200552
   2.049970, 15857142.950897
   2.049998, 15945166.963333
   2.050026, 16033255.449227
   2.050054, 16121408.408578
   2.050081, 16209625.841388
   2.050109, 16297907.747657
   2.050137, 16386254.127383
   2.050165, 16474664.980568
   2.050192, 16563140.307210
   2.050220, 16651680.107311
   2.050248, 16740459.627977
   2.050276, 16829338.213054
   2.050304, 16918283.310409
   2.050331, 17007294.920042
   2.050359, 17096373.041952
   2.050387, 17185517.676140
   2.050415, 17274728.822606
   2.050442, 17364006.481350
   2.050470, 17453350.652371
   2.050498, 17542761.335670
   2.050526, 17632409.159123
   2.050554, 17722157.088579
   2.050581, 17811973.422632
   2.050609, 17901858.161282
   2.050637, 17991811.304528
   2.050665, 18081832.852371
   2.050692, 18171922.804810
   2.050720, 18262081.161846
   2.050748, 18352307.923479
   2.050776, 18442603.089708
   2.050804, 18533188.537815
   2.050831, 18623885.973170
   2.050859, 18714654.163960
   2.050887, 18805493.110186
   2.050915, 18896402.811848
   2.050942, 18987383.268945
   2.050970, 19078434.481478
   2.050998, 19169556.449448
   2.051026, 19260749.172852
   2.051054, 19352012.651693
   2.051081, 19443534.292924
   2.051109, 19535163.423163
   2.051137, 19626865.209600
   2.051165, 19718639.652237
   2.051192, 19810486.751071
   2.051220, 19902406.506105
   2.051248, 19994398.917337
   2.051276, 20086463.984768
   2.051304, 20178601.708398
   2.051331, 20270812.088226
   2.051359, 20363248.412846
   2.051387, 20455787.381001
   2.051415, 20548400.496357
   2.051442, 20641087.758913
   2.051470, 20733849.168670
   2.051498, 20826684.725627
   2.051526, 20919594.429784
   2.051554, 21012578.281141
   2.051581, 21105636.279699
   2.051609, 21198768.425457
   2.051637, 21292092.884048
   2.051665, 21385514.564498
   2.051692, 21479011.496267
   2.051720, 21572583.679353
   2.051748, 21666231.113759
   2.051776, 21759953.799482
   2.051804, 21853751.736525
   2.051831, 21947624.924886
   2.051859, 22041573.364565
   2.051887, 22135597.055563
   2.051915, 22229816.244733
   2.051942, 22324134.127075
   2.051970, 22418528.341742
   2.051998, 22512998.888732
   2.052026, 22607545.768046
   2.052054, 22702168.979685
   2.052081, 22796868.523647
   2.052109, 22891644.399934
   2.052137, 22986496.608544
   2.052165, 23081425.149478
   2.052192, 23176539.664177
   2.052220, 23271751.852409
   2.052248, 23367041.322656
   2.052276, 23462408.074917
   2.052304, 23557852.109193
   2.052331, 23653373.425484
   2.052359, 23748972.023791
   2.052387, 23844647.904112
   2.052415, 23940401.066448
   2.052442, 24036231.510798
   2.052470, 24132317.391872
   2.052498, 24228515.181904
   2.052526, 24324791.742753
   2.052554, 24421147.074419
   2.052581, 24517581.176902
   2.052609, 24614094.050203
   2.052637, 24710685.694321
   2.052665, 24807356.109256
   2.052692, 24904105.295009
   2.052720, 25000933.251579
   2.052748, 25097997.719477
   2.052776, 25195171.576029
   2.052804, 25292425.476767
   2.052831, 25389759.421690
   2.052859, 25487173.410799
   2.052887, 25584667.444094
   2.052915, 25682241.521574
   2.052942, 25779895.643240
   2.052970, 25877629.809091
   2.052998, 25975444.019128
   2.053026, 26073486.902515
   2.053054, 26171638.643027
   2.053081, 26269871.588073
   2.053109, 26368185.737654
   2.053137, 26466581.091769
   2.053165, 26565057.650418
   2.053192, 26663615.413602
   2.053220, 26762254.381320
   2.053248, 26860974.553572
   2.053276, 26959775.930359
   2.053304, 27058788.998930
   2.053331, 27157908.538130
   2.053359, 27257110.268135
   2.053387, 27356394.188946
   2.053415, 27455760.300563
   2.053442, 27555208.602987
   2.053470, 27654739.096216
   2.053498, 27754351.780251
   2.053526, 27854046.655092
   2.053554, 27953823.720739
   2.053581, 28053800.851483
   2.053609, 28153882.971557
   2.053637, 28254048.145878
   2.053665, 28354296.374444
   2.053692, 28454627.657257
   2.053720, 28555041.994316
   2.053748, 28655539.385620
   2.053776, 28756119.831171
   2.053804, 28856783.330968
   2.053831, 28957529.885011
   2.053859, 29058471.821668
   2.053887, 29159518.515740
   2.053915, 29260649.062240
   2.053942, 29361863.461165
   2.053970, 29463161.712518
   2.053998, 29564543.816296
   2.054026, 29666009.772501
   2.054054, 29767559.581133
   2.054081, 29869193.242191
   2.054109, 29970910.755675
   2.054137, 30072778.844107
   2.054165, 30174743.663848
   2.054192, 30276792.796348
   2.054220, 30378926.241608
   2.054248, 30481143.999627
   2.054276, 30583446.070406
   2.054304, 30685832.453944
   2.054331, 30788303.150242
   2.054359, 30890858.159299
   2.054387, 30993497.481115
   2.054415, 31096135.171611
   2.054442, 31198840.601242
   2.054470, 31301629.767436
   2.054498, 31404502.670193
   2.054526, 31507459.309513
   2.054554, 31610499.685395
   2.054581, 31713623.797840
   2.054609, 31816831.646848
   2.054637, 31920123.232418
   2.054665, 32023498.554551
   2.054692, 32127024.509169
   2.054720, 32230647.089337
   2.054748, 32334353.842238
   2.054776, 32438144.767873
   2.054804, 32542019.866241
   2.054831, 32645979.137342
   2.054859, 32750022.581176
   2.054887, 32854150.197744
   2.054915, 32958361.987045
   2.054942, 33062689.371370
   2.054970, 33167141.937795
   2.054998, 33271679.063838
   2.055026, 33376300.749498
   2.055054, 33481006.994776
   2.055081, 33585797.799673
   2.055109, 33690673.164187
   2.055137, 33795633.088318
   2.055165, 33900677.572068
   2.055192, 34005806.615436
   2.055220, 34111023.269910
   2.055248, 34216328.465808
   2.055276, 34321718.257915
   2.055304, 34427192.646230
   2.055331, 34532751.630753
   2.055359, 34638395.211484
   2.055387, 34744123.388423
   2.055415, 34849936.161570
   2.055442, 34955833.530926
   2.055470, 35061815.496489
   2.055498, 35167840.326882
   2.055526, 35273895.308448
   2.055554, 35380034.398556
   2.055581, 35486257.597206
   2.055609, 35592564.904398
   2.055637, 35698956.320132
   2.055665, 35805431.844408
   2.055692, 35911991.477226
   2.055720, 36018635.218586
   2.055748, 36125363.068488
   2.055776, 36232172.026491
   2.055804, 36339061.179122
   2.055831, 36446034.406103
   2.055859, 36553091.707433
   2.055887, 36660233.083112
   2.055915, 36767458.533141
   2.055942, 36874768.057518
   2.055970, 36982161.656246
   2.055998, 37089639.329322
   2.056026, 37197201.076748
   2.056054, 37304757.317970
   2.056081, 37412280.798249
   2.056109, 37519887.356747
   2.056137, 37627576.993465
   2.056165, 37735349.708401
   2.056192, 37843205.501557
   2.056220, 37951144.372932
   2.056248, 38059166.322526
   2.056276, 38167271.350339
   2.056304, 38275459.456372
   2.056331, 38383649.047953
   2.056359, 38491815.316040
   2.056387, 38600063.776491
   2.056415, 38708394.429304
   2.056442, 38816807.274481
   2.056470, 38925302.312020
   2.056498, 39033879.541923
   2.056526, 39142538.964189
   2.056554, 39251280.578818
   2.056581, 39360104.385810
   2.056609, 39468975.737895
   2.056637, 39577884.106471
   2.056665, 39686874.299930
   2.056692, 39795946.318272
   2.056720, 39905100.161498
   2.056748, 40014335.829607
   2.056776, 40123653.322599
   2.056804, 40233052.640474
   2.056831, 40342533.783233
   2.056859, 40452096.750874
   2.056887, 40561702.541761
   2.056915, 40671339.310787
   2.056942, 40781057.500370
   2.056970, 40890857.110511
   2.056998, 41000738.141209
   2.057026, 41110700.592464
   2.057054, 41220744.464277
   2.057081, 41330869.756647
   2.057109, 41441076.469575
   2.057137, 41551364.603060
   2.057165, 41661640.194078
   2.057192, 41771874.720752
   2.057220, 41882189.715382
   2.057248, 41992585.177968
   2.057276, 42103061.108510
   2.057304, 42213617.507008
   2.057331, 42324254.373462
   2.057359, 42434971.707872
   2.057387, 42545769.510238
   2.057415, 42656647.780561
   2.057442, 42767516.059906
   2.057470, 42878346.904259
   2.057498, 42989257.319298
   2.057526, 43100247.305024
   2.057554, 43211316.861436
   2.057581, 43322465.988535
   2.057609, 43433694.686321
   2.057637, 43545002.954793
   2.057665, 43656390.793952
   2.057692, 43767858.203798
   2.057720, 43879327.258787
   2.057748, 43990774.329091
   2.057776, 44102300.213474
   2.057804, 44213904.911936
   2.057831, 44325588.424475
   2.057859, 44437350.751093
   2.057887, 44549191.891789
   2.057915, 44661111.846564
   2.057942, 44773110.615417
   2.057970, 44885188.198348
   2.057998, 44997253.291143
   2.058026, 45109278.220254
   2.058054, 45221381.095290
   2.058081, 45333561.916253
   2.058109, 45445820.683140
   2.058137, 45558157.395954
   2.058165, 45670572.054693
   2.058192, 45783064.659358
   2.058220, 45895635.209948
   2.058248, 46008283.706465
   2.058276, 46120905.788649
   2.058304, 46233469.840222
   2.058331, 46346110.865554
   2.058359, 46458828.864646
   2.058387, 46571623.837497
   2.058415, 46684495.784107
   2.058442, 46797444.704476
   2.058470, 46910470.598604
   2.058498, 47023573.466492
   2.058526, 47136753.308139
   2.058554, 47249868.064773
   2.058581, 47362874.718110
   2.058609, 47475957.048169
   2.058637, 47589115.054951
   2.058665, 47702348.738454
   2.058692, 47815658.098679
   2.058720, 47929043.135626
   2.058748, 48042503.849294
   2.058776, 48156040.239685
   2.058804, 48269652.306798
   2.058831, 48383167.048244
   2.058859, 48496532.097486
   2.058887, 48609971.274678
   2.058915, 48723484.579821
   2.058942, 48837072.012916
   2.058970, 48950733.573962
   2.058998, 49064469.262959
   2.059026, 49178279.079907
   2.059054, 49292163.024807
   2.059081, 49406121.097658
   2.059109, 49520023.883790
   2.059137, 49633832.226244
   2.059165, 49747713.560242
   2.059192, 49861667.885783
   2.059220, 49975695.202867
   2.059248, 50089795.511495
   2.059276, 50203968.811666
   2.059304, 50318215.103380
   2.059331, 50432534.386638
   2.059359, 50546926.661439
   2.059387, 50661233.486442
   2.059415, 50775406.940830
   2.059442, 50889652.021570
   2.059470, 51003968.728661
   2.059498, 51118357.062103
   2.059526, 51232817.021897
   2.059554, 51347348.608042
   2.059581, 51461951.820539
   2.059609, 51576626.659387
   2.059637, 51691373.124586
   2.059665, 51805992.270786
   2.059692, 51920423.949330
   2.059720, 52034925.571605
   2.059748, 52149497.137609
   2.059776, 52264138.647344
   2.059804, 52378850.100809
   2.059831, 52493631.498004
   2.059859, 52608482.838929
   2.059887, 52723404.123585
   2.059915, 52838395.351971
   2.059942, 52953239.441813
   2.059970, 53067870.784811
   2.059998, 53182570.268723
   2.060026, 53297337.893548
   2.060054, 53412173.659286
   2.060081, 53527077.565938
   2.060109, 53642049.613503
   2.060137, 53757089.801981
   2.060165, 53872198.131373
   2.060192, 53987374.601677
   2.060220, 54102514.083642
   2.060248, 54217584.815413
   2.060276, 54332722.830531
   2.060304, 54447928.128996
   2.060331, 54563200.710808
   2.060359, 54678540.575968
   2.060387, 54793947.724475
   2.060415, 54909422.156329
   2.060442, 55024963.871530
   2.060470, 55140572.870079
   2.060498, 55256032.910048
   2.060526, 55371278.682104
   2.060554, 55486590.004351
   2.060581, 55601966.876789
   2.060609, 55717409.299418
   2.060637, 55832917.272238
   2.060665, 55948490.795249
   2.060692, 56064129.868451
   2.060720, 56179834.491845
   2.060748, 56295604.665430
   2.060776, 56411109.414287
   2.060804, 56526611.136515
   2.060831, 56642177.042550
   2.060859, 56757807.132392
   2.060887, 56873501.406042
   2.060915, 56989259.863499
   2.060942, 57105082.504764
   2.060970, 57220969.329836
   2.060998, 57336920.338716
   2.061026, 57452935.531403
   2.061054, 57568498.381115
   2.061081, 57684018.425052
   2.061109, 57799600.556346
   2.061137, 57915244.775000
   2.061165, 58030951.081012
   2.061192, 58146719.474382
   2.061220, 58262549.955111
   2.061248, 58378442.523198
   2.061276, 58494397.178644
   2.061304, 58610413.921449
   2.061331, 58726202.529575
   2.061359, 58841993.128471
   2.061387, 58957844.656323
   2.061415, 59073757.113133
   2.061442, 59189730.498899
   2.061470, 59305764.813622
   2.061498, 59421860.057301
   2.061526, 59538016.229938
   2.061554, 59654233.331531
   2.061581, 59770511.362081
   2.061609, 59886598.107702
   2.061637, 60002693.571115
   2.061665, 60118848.973211
   2.061692, 60235064.313993
   2.061720, 60351339.593458
   2.061748, 60467674.811608
   2.061776, 60584069.968443
   2.061804, 60700525.063962
   2.061831, 60817040.098165
   2.061859, 60933615.071053
   2.061887, 61049977.985671
   2.061915, 61166344.548179
   2.061942, 61282769.998566
   2.061970, 61399254.336833
   2.061998, 61515797.562979
   2.062026, 61632399.677005
   2.062054, 61749060.678910
   2.062081, 61865780.568694
   2.062109, 61982559.346358
   2.062137, 62099101.948081
   2.062165, 62215322.993409
   2.062192, 62331600.793784
   2.062220, 62447935.349207
   2.062248, 62564326.659678
   2.062276, 62680774.725197
   2.062304, 62797279.545764
   2.062331, 62913841.121378
   2.062359, 63030459.452040
   2.062387, 63146942.466479
   2.062415, 63263237.568459
   2.062442, 63379588.065863
   2.062470, 63495993.958691
   2.062498, 63612455.246944
   2.062526, 63728971.930621
   2.062554, 63845544.009723
   2.062581, 63962171.484248
   2.062609, 64078854.354198
   2.062637, 64195592.619573
   2.062665, 64311858.258986
   2.062692, 64428053.318518
   2.062720, 64544301.769837
   2.062748, 64660603.612943
   2.062776, 64776958.847837
   2.062804, 64893367.474519
   2.062831, 65009829.492988
   2.062859, 65126344.903245
   2.062887, 65242913.705289
   2.062915, 65359535.899120
   2.062942, 65475776.571549
   2.062970, 65591966.896796
   2.062998, 65708208.988471
   2.063026, 65824502.846573
   2.063054, 65940848.471102
   2.063081, 66057245.862059
   2.063109, 66173695.019443
   2.063137, 66290195.943255
   2.063165, 66406748.633494
   2.063192, 66523353.090160
   2.063220, 66639384.138000
   2.063248, 66755317.861976
   2.063276, 66871301.050791
   2.063304, 66987333.704444
   2.063331, 67103415.822936
   2.063359, 67219547.406267
   2.063387, 67335728.454436
   2.063415, 67451958.967443
   2.063442, 67568238.945290
   2.063470, 67684568.387975
   2.063498, 67800376.210616
   2.063526, 67916097.335081
   2.063554, 68031865.852803
   2.063581, 68147681.763782
   2.063609, 68263545.068018
   2.063637, 68379455.765512
   2.063665, 68495413.856262
   2.063692, 68611419.340270
   2.063720, 68727472.217534
   2.063748, 68843572.488056
   2.063776, 68959126.763075
   2.063804, 69074586.978637
   2.063831, 69190092.466119
   2.063859, 69305643.225521
   2.063887, 69421239.256843
   2.063915, 69536880.560084
   2.063942, 69652567.135245
   2.063970, 69768298.982325
   2.063998, 69884076.101325
   2.064026, 69999898.492245
   2.064054, 70115310.130467
   2.064081, 70230658.353963
   2.064109, 70346050.242369
   2.064137, 70461485.795683
   2.064165, 70576965.013907
   2.064192, 70692487.897039
   2.064220, 70808054.445081
   2.064248, 70923664.658032
   2.064276, 71039318.535891
   2.064304, 71155016.078660
   2.064331, 71270436.417074
   2.064359, 71385823.960398
   2.064387, 71501254.053806
   2.064415, 71616726.697296
   2.064442, 71732241.890871
   2.064470, 71847799.634528
   2.064498, 71963399.928269
   2.064526, 72079042.772093
   2.064554, 72194728.166000
   2.064581, 72310456.109990
   2.064609, 72425732.472284
   2.064637, 72540933.659448
   2.064665, 72656175.703699
   2.064692, 72771458.605037
   2.064720, 72886782.363462
   2.064748, 73002146.978974
   2.064776, 73117552.451573
   2.064804, 73232998.781259
   2.064831, 73348485.968033
   2.064859, 73463748.842743
   2.064887, 73578516.530548
   2.064915, 73693322.884332
   2.064942, 73808167.904095
   2.064970, 73923051.589837
   2.064998, 74037973.941558
   2.065026, 74152934.959259
   2.065054, 74267934.642939
   2.065081, 74382972.992598
   2.065109, 74498050.008237
   2.065137, 74612959.112092
   2.065165, 74727489.296784
   2.065192, 74842056.463559
   2.065220, 74956660.612417
   2.065248, 75071301.743357
   2.065276, 75185979.856380
   2.065304, 75300694.951485
   2.065331, 75415447.028673
   2.065359, 75530236.087943
   2.065387, 75645062.129296
   2.065415, 75759773.142548
   2.065442, 75874213.868984
   2.065470, 75988690.354930
   2.065498, 76103202.600384
   2.065526, 76217750.605347
   2.065554, 76332334.369819
   2.065581, 76446953.893800
   2.065609, 76561609.177290
   2.065637, 76676300.220288
   2.065665, 76791027.022796
   2.065692, 76905535.123834
   2.065720, 77019564.642398
   2.065748, 77133627.900845
   2.065776, 77247724.899173
   2.065804, 77361855.637382
   2.065831, 77476020.115474
   2.065859, 77590218.333447
   2.065887, 77704450.291301
   2.065915, 77818715.989038
   2.065942, 77933015.426656
   2.065970, 78046652.901917
   2.065998, 78160239.806252
   2.066026, 78273858.429432
   2.066054, 78387508.771457
   2.066081, 78501190.832327
   2.066109, 78614904.612042
   2.066137, 78728650.110603
   2.066165, 78842427.328009
   2.066192, 78956236.264261
   2.066220, 79070006.909802
   2.066248, 79183077.722825
   2.066276, 79296178.199639
   2.066304, 79409308.340245
   2.066331, 79522468.144642
   2.066359, 79635657.612830
   2.066387, 79748876.744809
   2.066415, 79862125.540580
   2.066442, 79975404.000142
   2.066470, 80088712.123495
   2.066498, 80201980.953316
   2.066526, 80314558.904598
   2.066554, 80427164.521159
   2.066581, 80539797.802999
   2.066609, 80652458.750119
   2.066637, 80765147.362518
   2.066665, 80877863.640196
   2.066692, 80990607.583154
   2.066720, 81103379.191390
   2.066748, 81216178.464906
   2.066776, 81328952.855731
   2.066804, 81441205.842934
   2.066831, 81553484.991537
   2.066859, 81665790.301542
   2.066887, 81778121.772949
   2.066915, 81890479.405757
   2.066942, 82002863.199967
   2.066970, 82115273.155578
   2.066998, 82227709.272590
   2.067026, 82340171.551004
   2.067054, 82452587.018100
   2.067081, 82564266.175402
   2.067109, 82675969.431503
   2.067137, 82787696.786404
   2.067165, 82899448.240105
   2.067192, 83011223.792606
   2.067220, 83123023.443906
   2.067248, 83234847.194006
   2.067276, 83346695.042906
   2.067304, 83458566.990605
   2.067331, 83570403.942496
   2.067359, 83681647.541518
   2.067387, 83792913.589403
   2.067415, 83904202.086151
   2.067442, 84015513.031761
   2.067470, 84126846.426235
   2.067498, 84238202.269571
   2.067526, 84349580.561770
   2.067554, 84460981.302832
   2.067581, 84572404.492757
   2.067609, 84683776.260474
   2.067637, 84794398.646642
   2.067665, 84905041.444052
   2.067692, 85015704.652706
   2.067720, 85126388.272601
   2.067748, 85237092.303740
   2.067776, 85347816.746121
   2.067804, 85458561.599744
   2.067831, 85569326.864611
   2.067859, 85680112.540720
   2.067887, 85790864.252386
   2.067915, 85901068.249105
   2.067942, 86011291.175073
   2.067970, 86121533.030291
   2.067998, 86231793.814759
   2.068026, 86342073.528476
   2.068054, 86452372.171444
   2.068081, 86562689.743660
   2.068109, 86673026.245127
   2.068137, 86783381.675843
   2.068165, 86893709.375480
   2.068192, 87003568.497655
   2.068220, 87113445.292345
   2.068248, 87223339.759551
   2.068276, 87333251.899272
   2.068304, 87443181.711508
   2.068330, 87548558.933378
   2.068358, 55276736.191263
   2.068386, 22923978.407216
   2.068413, -9509732.940057
   2.068441, -40532480.050865
   2.068469, -40580935.152950
   2.068497, -40629255.314628
   2.068525, -40677440.055434
   2.068552, -40725488.894898
   2.068580, -40773401.352556
   2.068608, -40821176.947938
   2.068636, -40868815.200578
   2.068663, -40916315.630009
   2.068691, -40963677.755763
   2.068719, -41010904.741601
   2.068747, -41058069.663854
   2.068775, -41105007.142977
   2.068802, -48392723.546029
   2.068830, -55678283.707674
   2.068858, -62961623.144389
   2.068886, -70242677.372656
   2.068913, -77521381.908953
   2.068941, -84797672.269760
   2.068969, -92071483.971556
   2.068997, -99326587.536176
   2.069025, -106199015.891507
   2.069052, -113013827.092544
   2.069080, -119770772.613150
   2.069081, -120082481.085232
   2.069109, -155929781.307860
   2.069137, -191358153.352741
   2.069165, -226365901.024390
   2.069192, -260951328.127322
   2.069220, -295112738.466055
   2.069248, -328848435.845104
   2.069276, -358716235.499448
   2.069304, -353748819.231920
   2.069331, -348808511.457627
   2.069359, -343895444.088397
   2.069387, -339009749.036058
   2.069415, -334151558.212441
   2.069442, -329321003.529373
   2.069470, -324518216.898684
   2.069498, -319743330.232201
   2.069526, -314996475.441755
   2.069554, -310256760.280908
   2.069581, -305335323.225360
   2.069609, -300445537.466893
   2.069637, -295587547.360331
   2.069665, -290761497.260498
   2.069692, -285967531.522218
   2.069720, -281205794.500315
   2.069748, -276476430.549614
   2.069776, -271779584.024938
   2.069804, -267115399.281113
   2.069831, -262477855.718122
   2.069859, -257811752.192382
   2.069887, -253179823.744291
   2.069915, -248582218.775710
   2.069942, -244019085.688500
   2.069970, -239490572.884522
   2.069998, -234996828.765638
   2.070026, -230538001.733709
   2.070054, -226114240.190596
   2.070081, -221725692.538161
   2.070109, -217389571.885205
   2.070137, -213259431.076857
   2.070165, -209162340.109144
   2.070192, -205098437.556933
   2.070220, -201067861.995092
   2.070248, -197070751.998490
   2.070276, -193107246.141993
   2.070304, -189177483.000471
   2.070331, -185281601.148790
   2.070359, -181419739.161820
   2.070387, -177606588.448132
   2.070415, -173972984.573562
   2.070442, -170371358.094185
   2.070470, -166801838.556472
   2.070498, -163264555.506895
   2.070526, -159759638.491925
   2.070554, -156287217.058033
   2.070581, -152847420.751691
   2.070609, -149440379.119369
   2.070637, -146066221.707539
   2.070665, -142725337.073278
   2.070692, -139420171.527503
   2.070720, -136148217.858730
   2.070748, -132909605.399786
   2.070776, -129704463.483496
   2.070804, -126532921.442685
   2.070831, -123395108.610180
   2.070859, -120291154.318804
   2.070887, -117221187.901385
   2.070915, -114185338.690747
   2.070942, -111185442.666222
   2.070970, -108236863.545853
   2.070998, -105322330.821036
   2.071026, -102441972.253422
   2.071054, -99595915.604660
   2.071081, -96784288.636401
   2.071109, -94007219.110295
   2.071137, -91264834.787993
   2.071165, -88557263.431144
   2.071192, -85884632.801398
   2.071220, -83249833.271841
   2.071248, -80677590.851213
   2.071276, -78139815.403672
   2.071304, -75636631.819526
   2.071331, -73168164.989080
   2.071359, -70734539.802640
   2.071387, -68335881.150511
   2.071415, -65972313.923000
   2.071442, -63643963.010413
   2.071470, -61350953.303055
   2.071498, -59096822.344577
   2.071526, -56911982.394402
   2.071554, -54761617.950025
   2.071581, -52645849.833124
   2.071609, -50564798.865373
   2.071637, -48518585.868448
   2.071665, -46507331.664024
   2.071692, -44531157.073778
   2.071720, -42590182.919385
   2.071748, -40684530.022521
   2.071776, -38845527.717788
   2.071804, -37351030.831135
   2.071831, -35882267.869606
   2.071859, -34439327.104770
   2.071887, -33022296.808194
   2.071915, -31631265.251446
   2.071942, -30266320.706093
   2.071970, -28927551.443705
   2.071998, -27615045.735849
   2.072026, -26328891.854092
   2.072054, -25094040.205187
   2.072081, -24131203.147314
   2.072109, -23185895.480578
   2.072137, -22258176.314103
   2.072165, -21348104.757009
   2.072192, -20455739.918419
   2.072220, -19581140.907456
   2.072248, -18724366.833241
   2.072276, -17885476.804897
   2.072304, -17064529.931545
   2.072331, -16261912.946456
   2.072359, -15480565.384892
   2.072387, -14717169.154469
   2.072415, -13971782.836172
   2.072442, -13244465.010988
   2.072470, -12535274.259903
   2.072498, -11844269.163903
   2.072526, -11171508.303975
   2.072554, -10517050.261103
   2.072581, -9880953.616276
   2.072609, -9263802.560081
   2.072637, -8670228.996162
   2.072665, -8094833.411888
   2.072692, -7537673.289440
   2.072720, -6998806.111000
   2.072748, -6478289.358752
   2.072776, -5976180.514877
   2.072804, -5492537.061556
   2.072831, -5027416.480973
   2.072859, -4580876.255310
   2.072887, -4153519.615285
   2.072915, -3750059.437509
   2.072942, -3364807.915217
   2.072970, -2997820.898628
   2.072998, -2649154.237960
   2.073026, -2318863.783431
   2.073054, -2007005.385259
   2.073081, -1713634.893663
   2.073109, -1438808.158859
   2.073137, -1182581.031068
   2.073165, -945404.224546
   2.073192, -730525.623098
   2.073220, -533696.484413
   2.073248, -354970.547875
   2.073276, -194401.552867
   2.073304, -52043.238771
   2.073331, 72050.655029
   2.073359, 177826.389150
   2.073387, 265230.224211
   2.073415, 334208.420827
   2.073442, 373554.040606
   2.073470, 296887.777092
   2.073498, 228955.871206
   2.073526, 169783.920814
   2.073554, 119397.523781
   2.073581, 77822.277973
   2.073609, 45083.781257
   2.073637, 21207.631498
   2.073665, 6219.426561
   2.073692,  144.764313
   2.073698,   -0.000000
