Speed, Forces
  72.472147, 22144.665026
  73.321269, 20133.868777
  74.170391, 19297.587460
  75.019513, 18517.641080
  75.868635, 18067.562015
  76.717757, 17612.417316
  77.566879, 17213.717571
  78.416001, 16880.276932
  79.265123, 16543.206001
  80.114245, 16216.791930
  80.963367, 15935.573683
  81.812489, 15651.390547
  82.661611, 15364.242523
  83.510733, 15111.948630
  84.359855, 14882.334125
  85.208977, 14650.396751
  86.058099, 14416.136507
  86.907221, 14208.007160
  87.756343, 14024.896111
  88.605465, 13840.004683
  89.454587, 13653.332878
  90.303708, 13464.880693
  91.152830, 13317.290556
  92.001952, 13175.278904
  92.851074, 13031.950495
  93.700196, 12887.305328
  94.549318, 12741.343403
  95.398440, 12619.469910
  96.247562, 12522.436250
  97.096684, 12424.542740
  97.945806, 12325.789380
  98.794928, 12226.176170
  99.644050, 12125.703110
 100.493172, 12035.319947
 101.342294, 11982.982870
 102.191416, 11930.205429
 103.040538, 11876.987624
 103.889660, 11823.329455
 104.738782, 11769.230921
 105.587904, 11714.692024
 106.437026, 11659.712761
 107.286148, 11635.158098
 108.135270, 11621.040602
 108.984392, 11606.811813
 109.833514, 11592.471730
 110.682636, 11578.020354
 111.531758, 11563.457684
 112.380880, 11548.783721
 113.230002, 11533.998466
 114.079124, 11519.101916
 114.928246, 11527.632598
 115.777368, 11550.264379
 116.626490, 11573.062755
 117.475611, 11596.027725
 118.324733, 11619.159290
 119.173855, 11642.457449
 120.022977, 11665.922202
 120.872099, 11689.553550
 121.721221, 11713.351493
 122.570343, 11737.316030
 123.419465, 11761.447161
 124.268587, 11792.257377
 125.117709, 11856.092988
 125.966831, 11920.363299
 126.815953, 11985.068311
 127.665075, 12050.208025
 128.514197, 12115.782439
 129.363319, 12181.791554
 130.212441, 12248.235370
 131.061563, 12315.113886
 131.910685, 12382.427104
 132.759807, 12450.175022
 133.608929, 12518.357642
 134.458051, 12586.974962
 135.307173, 12656.026983
 136.156295, 12725.513705
 137.005417, 12800.559885
 137.854539, 12904.844668
 138.703661, 13009.773782
 139.552783, 13115.347227
 140.401905, 13221.565005
 141.251027, 13328.427114
 142.100149, 13435.933555
 142.949271, 13544.084328
 143.798393, 13652.879432
 144.647514, 13762.318868
 145.496636, 13872.402636
 146.345758, 13983.130736
 147.194880, 14094.503168
 148.044002, 14206.519931
 148.893124, 14319.181026
 149.742246, 14432.486453
 150.591368, 14546.436211
 151.440490, 14661.030302
 152.289612, 14776.268724
 153.138734, 14892.151478
 153.987856, 15008.678563
 154.836978, 15132.902322
 155.686100, 15277.396444
 156.535222, 15422.680801
