Speed, Forces
  74.354978, 23310.251297
  75.185081, 21278.480624
  76.015185, 20396.767667
  76.845288, 19558.906838
  77.675392, 19108.315902
  78.505495, 18652.883711
  79.335599, 18218.370976
  80.165702, 17885.045906
  80.995806, 17548.251343
  81.825909, 17207.987288
  82.656013, 16914.314755
  83.486116, 16630.751311
  84.316220, 16344.354306
  85.146323, 16055.123739
  85.976427, 15825.497329
  86.806530, 15594.457015
  87.636633, 15361.196721
  88.466737, 15125.716446
  89.296840, 14926.814056
  90.126944, 14742.925627
  90.957047, 14557.335679
  91.787151, 14370.044213
  92.617254, 14181.051229
  93.447358, 14030.817679
  94.277461, 13888.522703
  95.107565, 13744.969295
  95.937668, 13600.157453
  96.767772, 13454.087179
  97.597875, 13316.219117
  98.427979, 13219.190876
  99.258082, 13121.340872
 100.088186, 13022.669103
 100.918289, 12923.175571
 101.748393, 12822.860275
 102.578496, 12721.723215
 103.408600, 12649.589849
 104.238703, 12596.951722
 105.068806, 12543.892736
 105.898910, 12490.412891
 106.729013, 12436.512188
 107.559117, 12382.190626
 108.389220, 12327.448205
 109.219324, 12272.284926
 110.049427, 12247.983695
 110.879531, 12233.829551
 111.709634, 12219.569044
 112.539738, 12205.202173
 113.369841, 12190.728938
 114.199945, 12176.149339
 115.030048, 12161.463377
 115.860152, 12146.671052
 116.690255, 12131.772362
 117.520359, 12123.681254
 118.350462, 12146.301480
 119.180566, 12169.080922
 120.010669, 12192.019579
 120.840773, 12215.117451
 121.670876, 12238.374539
 122.500979, 12261.790842
 123.331083, 12285.366361
 124.161186, 12309.101094
 124.991290, 12332.995044
 125.821393, 12357.048208
 126.651497, 12381.260588
 127.481600, 12411.753024
 128.311704, 12475.762129
 129.141807, 12540.186681
 129.971911, 12605.026679
 130.802014, 12670.282123
 131.632118, 12735.953014
 132.462221, 12802.039351
 133.292325, 12868.541134
 134.122428, 12935.458363
 134.952532, 13002.791038
 135.782635, 13070.539160
 136.612739, 13138.702728
 137.442842, 13207.281742
 138.272946, 13276.276202
 139.103049, 13345.686109
 139.933152, 13415.511462
 140.763256, 13499.262093
 141.593359, 13603.991728
 142.423463, 13709.337154
 143.253566, 13815.298373
 144.083670, 13921.875383
 144.913773, 14029.068184
 145.743877, 14136.876778
 146.573980, 14245.301163
 147.404084, 14354.341340
 148.234187, 14463.997309
 149.064291, 14574.269069
 149.894394, 14685.156622
 150.724498, 14796.659966
 151.554601, 14908.779101
 152.384705, 15021.514029
 153.214808, 15134.864748
 154.044912, 15248.831259
 154.875015, 15363.413561
 155.705119, 15478.611655
 156.535222, 15594.425541
