Speed, Forces
  68.551912, 19813.719273
  69.440633, 17935.309290
  70.329353, 17105.852296
  71.218073, 16440.319319
  72.106793, 15992.863403
  72.995514, 15540.182170
  73.884234, 15211.558731
  74.772954, 14878.958511
  75.661675, 14546.852287
  76.550395, 14268.719345
  77.439115, 13987.338534
  78.327836, 13702.709855
  79.216556, 13464.391185
  80.105276, 13236.307078
  80.993996, 13005.678399
  81.882717, 12777.998131
  82.771437, 12597.330667
  83.660157, 12414.712898
  84.548878, 12230.144825
  85.437598, 12043.626447
  86.326318, 11899.093160
  87.215039, 11758.260388
  88.103759, 11615.985183
  88.992479, 11472.267544
  89.881199, 11329.472356
  90.769920, 11233.740093
  91.658640, 11137.065912
  92.547360, 11039.449814
  93.436081, 10940.891798
  94.324801, 10841.391865
  95.213521, 10759.399813
  96.102242, 10707.477054
  96.990962, 10655.071902
  97.879682, 10602.184355
  98.768402, 10548.814414
  99.657123, 10494.962079
 100.545843, 10440.627349
 101.434563, 10411.196416
 102.323284, 10397.220568
 103.212004, 10383.122804
 104.100724, 10368.903125
 104.989445, 10354.561530
 105.878165, 10340.098020
 106.766885, 10325.512595
 107.655605, 10310.805254
 108.544326, 10310.040582
 109.433046, 10332.420939
 110.321766, 10354.983791
 111.210487, 10377.729138
 112.099207, 10400.656979
 112.987927, 10423.767316
 113.876648, 10447.060147
 114.765368, 10470.535473
 115.654088, 10494.193294
 116.542808, 10518.033610
 117.431529, 10542.859292
 118.320249, 10606.019046
 119.208969, 10669.654991
 120.097690, 10733.767126
 120.986410, 10798.355451
 121.875130, 10863.419967
 122.763851, 10928.960672
 123.652571, 10994.977569
 124.541291, 11061.470655
 125.430011, 11128.439932
 126.318732, 11195.885399
 127.207452, 11263.807056
 128.096172, 11332.204904
 128.984893, 11401.078942
 129.873613, 11485.546931
 130.762333, 11589.046562
 131.651054, 11693.252022
 132.539774, 11798.163312
 133.428494, 11903.780431
 134.317214, 12010.103379
 135.205935, 12117.132156
 136.094655, 12224.866762
 136.983375, 12333.307197
 137.872096, 12442.453462
 138.760816, 12552.305555
 139.649536, 12662.863478
 140.538257, 12774.127230
 141.426977, 12886.096811
 142.315697, 12998.772221
 143.204418, 13112.153461
 144.093138, 13226.240529
 144.981858, 13341.033427
 145.870578, 13456.532154
 146.759299, 13587.885309
 147.648019, 13731.269055
 148.536739, 13875.518460
 149.425460, 14020.633522
 150.314180, 14166.614243
 151.202900, 14313.460621
 152.091621, 14461.172658
 152.980341, 14609.750353
 153.869061, 14759.193706
 154.757781, 14909.502717
 155.646502, 15060.677387
 156.535222, 15212.717714
