Speed, Forces
  66.504993, 18648.133001
  67.414389, 16837.733046
  68.323785, 16013.462051
  69.233181, 15404.356380
  70.142578, 14959.106291
  71.051974, 14541.685365
  71.961370, 14214.268353
  72.870766, 13882.687369
  73.780163, 13576.802115
  74.689559, 13299.195830
  75.598955, 13018.188796
  76.508351, 12757.014348
  77.417748, 12531.528102
  78.327144, 12303.377507
  79.236540, 12072.562564
  80.145937, 11886.769884
  81.055333, 11705.776051
  81.964729, 11522.740111
  82.874125, 11337.662065
  83.783522, 11193.770164
  84.692918, 11053.866859
  85.602314, 10912.453223
  86.511710, 10769.529257
  87.421107, 10639.698058
  88.330503, 10544.395394
  89.239899, 10448.106475
  90.149295, 10350.831302
  91.058692, 10252.569875
  91.968088, 10153.322193
  92.877484, 10097.773502
  93.786880, 10045.934518
  94.696277, 9993.590434
  95.605673, 9940.741248
  96.515069, 9887.386961
  97.424465, 9833.527573
  98.333862, 9799.826673
  99.243258, 9785.959481
 100.152654, 9771.964634
 101.062050, 9757.842134
 101.971447, 9743.591979
 102.880843, 9729.214170
 103.790239, 9714.708707
 104.699635, 9700.075589
 105.609032, 9710.980087
 106.518428, 9733.266519
 107.427824, 9755.744037
 108.337220, 9778.412639
 109.246617, 9801.272327
 110.156013, 9824.323099
 111.065409, 9847.564957
 111.974805, 9870.997900
 112.884202, 9894.621927
 113.793598, 9918.437040
 114.702994, 9976.265600
 115.612390, 10039.404421
 116.521787, 10103.041847
 117.431183, 10167.177878
 118.340579, 10231.812513
 119.249976, 10296.945754
 120.159372, 10362.577600
 121.068768, 10428.708051
 121.978164, 10495.337107
 122.887561, 10562.464768
 123.796957, 10630.091035
 124.706353, 10698.215906
 125.615749, 10767.171440
 126.525146, 10869.627073
 127.434542, 10972.821759
 128.343938, 11076.755499
 129.253334, 11181.428291
 130.162731, 11286.840137
 131.072127, 11392.991036
 131.981523, 11499.880989
 132.890919, 11607.509994
 133.800316, 11715.878053
 134.709712, 11824.985165
 135.619108, 11934.831331
 136.528504, 12045.416549
 137.437901, 12156.740821
 138.347297, 12268.804145
 139.256693, 12381.606524
 140.166089, 12495.147955
 141.075486, 12609.428439
 141.984882, 12727.419087
 142.894278, 12869.390225
 143.803674, 13012.267768
 144.713071, 13156.051717
 145.622467, 13300.742072
 146.531863, 13446.338832
 147.441259, 13592.841997
 148.350656, 13740.251568
 149.260052, 13888.567545
 150.169448, 14037.789927
 151.078844, 14187.918715
 151.988241, 14338.953908
 152.897637, 14490.895507
 153.807033, 14643.743511
 154.716430, 14797.497921
 155.625826, 14952.158736
 156.535222, 15107.725957
