Time, Specific Fuel Consmption
   0.000000,    0.002642
   0.001667,    0.002645
   0.003333,    0.002648
   0.005000,    0.002651
   0.006667,    0.002654
   0.008333,    0.002658
   0.010000,    0.002661
   0.011667,    0.002664
   0.013333,    0.002667
   0.015000,    0.002670
   0.016667,    0.002673
   0.018333,    0.002676
   0.020000,    0.002679
   0.021667,    0.002683
   0.023333,    0.002686
   0.025000,    0.002689
   0.026667,    0.002692
   0.028333,    0.002695
   0.030000,    0.002698
   0.031667,    0.002701
   0.033333,    0.002704
   0.035000,    0.002707
   0.036667,    0.002710
   0.038333,    0.002713
   0.040000,    0.002716
   0.041667,    0.002719
   0.043333,    0.002722
   0.045000,    0.002725
   0.046667,    0.002729
   0.048333,    0.002732
   0.050000,    0.002735
   0.051667,    0.002738
   0.053333,    0.002741
   0.055000,    0.002744
   0.056667,    0.002747
   0.058333,    0.002750
   0.060000,    0.002753
   0.061667,    0.002756
   0.063333,    0.002759
   0.065000,    0.002762
   0.066667,    0.002765
   0.068333,    0.002768
   0.070000,    0.002771
   0.071667,    0.002774
   0.073333,    0.002777
   0.075000,    0.002780
   0.076667,    0.002783
   0.078333,    0.002786
   0.080000,    0.002789
   0.081667,    0.002792
   0.083333,    0.002795
   0.085000,    0.002798
   0.086667,    0.002802
   0.088333,    0.002806
   0.090000,    0.002810
   0.091667,    0.002815
   0.093333,    0.002819
   0.095000,    0.002823
   0.096667,    0.002828
   0.098333,    0.002832
   0.100000,    0.002837
   0.101667,    0.002841
   0.103333,    0.002846
   0.105000,    0.002850
   0.106667,    0.002855
   0.108333,    0.002860
   0.110000,    0.002865
   0.111667,    0.002869
   0.113333,    0.002874
   0.115000,    0.002879
   0.116667,    0.002884
   0.118333,    0.002889
   0.120000,    0.002893
   0.121667,    0.002898
   0.123333,    0.002902
   0.125000,    0.002907
   0.126667,    0.002912
   0.128333,    0.002916
   0.130000,    0.002921
   0.131667,    0.002925
   0.133333,    0.002930
   0.135000,    0.002935
   0.136667,    0.002939
   0.138333,    0.002944
   0.140000,    0.002948
   0.141667,    0.002953
   0.143333,    0.002957
   0.145000,    0.002962
   0.146667,    0.002966
   0.148333,    0.002971
   0.150000,    0.002975
   0.151667,    0.002980
   0.153333,    0.002984
   0.155000,    0.002989
   0.156667,    0.002993
   0.158333,    0.002997
   0.160000,    0.003002
   0.161667,    0.003006
   0.163333,    0.003011
   0.165000,    0.003015
   0.166667,    0.003020
   0.168333,    0.003024
   0.170000,    0.003028
   0.171667,    0.003033
   0.173333,    0.003037
   0.175000,    0.003041
   0.176667,    0.003046
   0.178333,    0.003050
   0.180000,    0.003054
   0.181667,    0.003059
   0.183333,    0.003063
   0.185000,    0.003067
   0.186667,    0.003074
   0.188333,    0.003081
   0.190000,    0.003089
   0.191667,    0.003096
   0.193333,    0.003103
   0.195000,    0.003110
   0.196667,    0.003118
   0.198333,    0.003125
   0.200000,    0.003132
   0.201667,    0.003140
   0.203333,    0.003147
   0.205000,    0.003154
   0.206667,    0.003161
   0.208333,    0.003169
   0.210000,    0.003176
   0.211667,    0.003183
   0.213333,    0.003191
   0.215000,    0.003198
   0.216667,    0.003205
   0.218333,    0.003213
   0.220000,    0.003220
   0.221667,    0.003227
   0.223333,    0.003234
   0.225000,    0.003241
   0.226667,    0.003248
   0.228333,    0.003255
   0.230000,    0.003262
   0.231667,    0.003269
   0.233333,    0.003276
   0.235000,    0.003283
   0.236667,    0.003290
   0.238333,    0.003297
   0.240000,    0.003303
   0.241667,    0.003310
   0.243333,    0.003317
   0.245000,    0.003324
   0.246667,    0.003331
   0.248333,    0.003338
   0.250000,    0.003345
   0.251667,    0.003351
   0.253333,    0.003358
   0.255000,    0.003365
   0.256667,    0.003371
   0.258333,    0.003378
   0.260000,    0.003384
   0.261667,    0.003391
   0.263333,    0.003398
   0.265000,    0.003404
   0.266667,    0.003411
   0.268333,    0.003418
   0.270000,    0.003424
   0.271667,    0.003430
   0.273333,    0.003437
   0.275000,    0.003443
   0.276667,    0.003449
   0.278333,    0.003456
   0.280000,    0.003462
   0.281667,    0.003469
   0.283333,    0.003475
   0.285000,    0.003482
   0.286667,    0.003488
   0.288333,    0.003494
   0.290000,    0.003500
   0.291667,    0.003507
   0.293333,    0.003513
   0.295000,    0.003519
   0.296667,    0.003525
   0.298333,    0.003532
   0.300000,    0.003538
   0.301667,    0.003544
   0.303333,    0.003552
   0.305000,    0.003560
   0.306667,    0.003568
   0.308333,    0.003575
   0.310000,    0.003583
   0.311667,    0.003591
   0.312642,    0.003596
   0.314309,    0.003604
   0.315975,    0.003611
   0.317642,    0.003619
   0.319309,    0.003627
   0.320975,    0.003634
   0.322642,    0.003641
   0.324309,    0.003649
   0.325975,    0.003656
   0.327642,    0.003663
   0.329309,    0.003671
   0.330975,    0.003678
   0.332642,    0.003686
   0.334309,    0.003693
   0.335975,    0.003701
   0.337642,    0.003707
   0.339309,    0.003714
   0.340975,    0.003721
   0.342642,    0.003728
   0.344309,    0.003735
   0.345975,    0.003742
   0.347642,    0.003749
   0.349309,    0.003756
   0.350975,    0.003763
   0.352642,    0.003770
   0.354309,    0.003776
   0.355975,    0.003783
   0.357642,    0.003789
   0.359309,    0.003796
   0.360975,    0.003802
   0.362642,    0.003809
   0.364309,    0.003815
   0.365975,    0.003822
   0.367642,    0.003828
   0.368518,    0.003832
   0.370185,    0.003836
   0.371852,    0.003840
   0.373518,    0.003844
   0.375185,    0.003848
   0.376852,    0.003852
   0.378518,    0.003856
   0.380185,    0.003860
   0.381852,    0.003864
   0.383518,    0.003868
   0.385185,    0.003872
   0.386852,    0.003874
   0.388518,    0.003876
   0.390185,    0.003878
   0.391852,    0.003880
   0.393518,    0.003882
   0.395185,    0.003883
   0.396852,    0.003884
   0.398518,    0.003885
   0.400185,    0.003886
   0.401852,    0.003887
   0.403518,    0.003887
   0.405185,    0.003887
   0.406852,    0.003887
   0.408518,    0.003887
   0.410185,    0.003887
   0.410185,    0.313415
   1.605400,    0.317786
   2.825139,    0.321521
   4.084250,    0.325497
   5.433948,    0.330717
   6.920962,    0.336538
   8.567151,    0.343683
  10.405942,    0.351290
  12.496124,    0.359057
  14.982109,    0.368107
  14.982109,    0.499357
  15.801212,    0.499387
  16.620315,    0.499418
  17.439418,    0.499448
  18.258522,    0.499478
  19.077625,    0.499508
  19.896728,    0.499539
  20.715832,    0.499569
  21.534935,    0.499599
  22.354038,    0.499629
  23.173141,    0.499659
  23.992245,    0.499690
  24.811348,    0.499720
  25.630451,    0.499750
  26.449554,    0.499780
  27.268658,    0.499810
  28.087761,    0.499841
  28.906864,    0.499871
  29.725967,    0.499901
  30.545071,    0.499931
  31.364174,    0.499961
  32.183277,    0.499991
  33.002380,    0.500022
  33.821484,    0.500052
  34.640587,    0.500082
  35.459690,    0.500112
  36.278793,    0.500142
  37.097897,    0.500172
  37.917000,    0.500202
  38.736103,    0.500233
  38.736103,   -0.322046
  39.896032,   -0.382519
  41.058764,   -0.440909
  42.220084,   -0.488713
  43.376236,   -0.511784
  44.524976,   -0.518920
  45.661995,   -0.514146
  46.783206,   -0.496854
  47.900611,   -0.471657
  49.010509,   -0.422109
  49.010509,    0.316865
  49.589924,    0.318891
  50.174964,    0.320754
  50.765469,    0.322447
  51.364214,    0.324328
  51.981985,    0.326991
  52.628108,    0.329604
  53.305596,    0.332164
  54.016769,    0.335193
  54.763442,    0.338319
  54.763442,    0.451562
  56.615618,    0.451585
  58.468603,    0.451608
  60.322397,    0.451630
  62.177002,    0.451653
  64.032418,    0.451675
  65.888646,    0.451697
  67.745686,    0.451718
  69.603540,    0.451740
  71.462208,    0.451761
  71.462208,   -0.509755
  72.108615,   -0.286358
  72.744854,   -0.505779
  73.383630,   -0.497917
  74.025084,   -0.486078
  74.669359,   -0.470167
  75.316244,   -0.454472
  75.965602,   -0.437894
  76.616971,   -0.415021
  77.269434,   -0.382746
  77.269434,    0.437329
  82.269434,    0.437492
  87.269434,    0.437655
  92.269434,    0.437815
  97.269434,    0.437972
 102.269434,    0.438128
 107.269434,    0.438284
 112.269434,    0.438439
 117.269434,    0.438595
 122.269434,    0.438749
 122.269434,    0.000000
 122.271101,    0.008190
 122.272767,    0.008190
 122.274434,    0.008191
 122.276101,    0.008191
 122.277767,    0.008191
 122.279434,    0.008191
 122.281101,    0.008191
 122.282767,    0.008191
 122.284434,    0.008191
 122.286101,    0.008192
 122.287767,    0.008192
 122.289434,    0.008192
 122.291101,    0.008192
 122.292767,    0.008192
 122.294434,    0.008192
 122.296101,    0.008192
 122.297767,    0.008193
 122.299434,    0.008193
 122.301101,    0.008193
 122.302767,    0.008193
 122.304434,    0.008193
 122.306101,    0.008193
 122.307767,    0.008193
 122.309434,    0.008194
 122.311101,    0.008194
 122.312767,    0.008194
 122.314434,    0.008194
 122.316101,    0.008194
 122.317767,    0.008194
 122.319434,    0.008194
 122.321101,    0.008194
 122.322767,    0.008195
 122.324434,    0.008195
 122.326101,    0.008195
 122.327767,    0.008195
 122.329434,    0.008195
 122.331101,    0.008195
 122.332767,    0.008195
 122.334434,    0.008196
 122.336101,    0.008196
 122.337767,    0.008196
 122.339434,    0.008196
 122.341101,    0.008196
 122.342767,    0.008196
 122.344434,    0.008196
 122.346101,    0.008197
 122.347767,    0.008197
 122.349434,    0.008197
 122.351101,    0.008197
 122.352767,    0.008197
 122.354434,    0.008197
 122.356101,    0.008197
 122.357767,    0.008197
 122.359434,    0.008198
 122.361101,    0.008198
 122.362767,    0.008198
 122.364434,    0.008198
 122.366101,    0.008198
 122.367767,    0.008198
 122.369434,    0.008198
 122.371101,    0.008199
 122.372767,    0.008199
 122.374434,    0.008199
 122.376101,    0.008199
 122.377767,    0.008199
 122.379434,    0.008199
 122.381101,    0.008199
 122.382767,    0.008200
 122.384434,    0.008200
 122.386101,    0.008200
 122.387767,    0.008200
 122.389434,    0.008200
 122.391101,    0.008200
 122.392767,    0.008200
 122.394434,    0.008200
 122.396101,    0.008201
 122.397767,    0.008201
 122.399434,    0.008201
 122.401101,    0.008201
 122.402767,    0.008201
 122.404434,    0.008201
 122.406101,    0.008201
 122.407767,    0.008202
 122.409434,    0.008202
 122.411101,    0.008202
 122.412767,    0.008202
 122.414434,    0.008202
 122.416101,    0.008202
 122.417767,    0.008202
 122.419434,    0.008203
 122.421101,    0.008203
 122.422767,    0.008203
 122.424434,    0.008203
 122.426101,    0.008203
 122.427767,    0.008203
 122.429434,    0.008203
 122.431101,    0.008203
 122.432767,    0.008204
 122.434434,    0.008204
 122.436101,    0.008204
 122.437767,    0.008204
 122.439434,    0.008204
 122.441101,    0.008204
 122.442767,    0.008204
 122.444434,    0.008205
 122.446101,    0.008205
 122.447767,    0.008205
 122.449434,    0.008205
 122.451101,    0.008205
 122.452767,    0.008205
 122.454434,    0.008205
 122.456101,    0.008205
 122.457767,    0.008206
 122.459434,    0.008206
 122.461101,    0.008206
 122.462767,    0.008206
 122.464434,    0.008206
 122.466101,    0.008206
 122.467767,    0.008206
 122.469434,    0.008207
 122.471101,    0.008207
 122.472767,    0.008207
 122.474434,    0.008207
 122.476101,    0.008207
 122.477767,    0.008207
 122.479434,    0.008207
 122.481101,    0.008207
 122.482767,    0.008208
 122.484434,    0.008208
 122.486101,    0.008208
 122.487767,    0.008208
 122.489434,    0.008208
 122.491101,    0.008208
 122.492767,    0.008208
 122.494434,    0.008209
 122.496101,    0.008209
 122.497767,    0.008209
 122.499434,    0.008209
 122.501101,    0.008209
 122.502767,    0.008209
 122.504434,    0.008209
 122.506101,    0.008209
 122.507767,    0.008210
 122.509434,    0.008210
 122.511101,    0.008210
 122.512767,    0.008210
 122.514434,    0.008210
 122.516101,    0.008210
 122.517767,    0.008210
 122.519434,    0.008211
 122.521101,    0.008211
 122.522767,    0.008211
 122.524434,    0.008211
 122.526101,    0.008211
 122.527767,    0.008211
 122.529434,    0.008211
 122.531101,    0.008211
 122.532767,    0.008212
 122.534434,    0.008212
 122.536101,    0.008212
 122.537767,    0.008212
 122.539434,    0.008212
 122.541101,    0.008212
 122.542767,    0.008212
 122.544434,    0.008213
 122.546101,    0.008213
 122.547767,    0.008213
 122.549434,    0.008213
 122.551101,    0.008213
 122.552767,    0.008213
 122.554434,    0.008213
 122.556101,    0.008213
 122.557767,    0.008214
 122.559434,    0.008214
 122.561101,    0.008214
 122.562767,    0.008214
 122.564434,    0.008214
 122.566101,    0.008214
 122.567767,    0.008214
 122.569434,    0.008215
 122.571101,    0.008215
 122.572767,    0.008215
 122.574434,    0.008215
 122.576101,    0.008215
 122.577767,    0.008215
 122.579434,    0.008215
 122.581101,    0.008215
 122.582767,    0.008216
 122.584434,    0.008216
 122.586101,    0.008216
 122.587767,    0.008216
 122.589434,    0.008216
 122.591101,    0.008216
 122.592767,    0.008216
 122.594434,    0.008216
 122.596101,    0.008217
 122.597767,    0.008217
 122.599434,    0.008217
 122.601101,    0.008217
 122.602767,    0.008217
 122.604434,    0.008217
 122.606101,    0.008217
 122.607767,    0.008218
 122.609434,    0.008218
 122.611101,    0.008218
 122.612767,    0.008218
 122.614434,    0.008218
 122.616101,    0.008218
 122.617767,    0.008218
 122.619434,    0.008218
 122.621101,    0.008219
 122.622767,    0.008219
 122.624434,    0.008219
 122.626101,    0.008219
 122.627767,    0.008219
 122.629434,    0.008219
 122.631101,    0.008219
 122.632767,    0.008220
 122.634434,    0.008220
 122.636101,    0.008220
 122.637767,    0.008220
 122.639434,    0.008220
 122.641101,    0.008220
 122.642767,    0.008220
 122.644434,    0.008220
 122.646101,    0.008221
 122.647767,    0.008221
 122.649434,    0.008221
 122.651101,    0.008221
 122.652767,    0.008221
 122.654434,    0.008221
 122.656101,    0.008221
 122.657767,    0.008222
 122.659434,    0.008222
 122.661101,    0.008222
 122.662767,    0.008222
 122.664434,    0.008222
 122.666101,    0.008222
 122.667767,    0.008222
 122.669434,    0.008222
 122.671101,    0.008223
 122.672767,    0.008223
 122.674434,    0.008223
 122.676101,    0.008223
 122.677767,    0.008223
 122.679434,    0.008223
 122.681101,    0.008223
 122.682767,    0.008224
 122.684434,    0.008224
 122.686101,    0.008224
 122.687767,    0.008224
 122.689434,    0.008224
 122.691101,    0.008224
 122.692767,    0.008224
 122.694434,    0.008224
 122.696101,    0.008225
 122.697767,    0.008225
 122.699434,    0.008225
 122.701101,    0.008225
 122.702767,    0.008225
 122.704434,    0.008225
 122.706101,    0.008225
 122.707767,    0.008225
 122.709434,    0.008226
 122.711101,    0.008226
 122.712767,    0.008226
 122.714434,    0.008226
 122.716101,    0.008226
 122.717767,    0.008226
 122.719434,    0.008226
 122.721101,    0.008227
 122.722767,    0.008227
 122.724434,    0.008227
 122.726101,    0.008227
 122.727767,    0.008227
 122.729434,    0.008227
 122.731101,    0.008227
 122.732767,    0.008227
 122.734434,    0.008228
 122.736101,    0.008228
 122.737767,    0.008228
 122.739434,    0.008228
 122.741101,    0.008228
 122.742767,    0.008228
 122.744434,    0.008228
 122.746101,    0.008229
 122.747767,    0.008229
 122.749434,    0.008229
 122.751101,    0.008229
 122.752767,    0.008229
 122.754434,    0.008229
 122.756101,    0.008229
 122.757767,    0.008229
 122.759434,    0.008230
 122.761101,    0.008230
 122.762767,    0.008230
 122.764434,    0.008230
 122.766101,    0.008230
 122.767767,    0.008230
 122.769434,    0.008230
 122.771101,    0.008230
 122.772767,    0.008231
 122.774434,    0.008231
 122.776101,    0.008231
 122.777767,    0.008231
 122.779434,    0.008231
 122.781101,    0.008231
 122.782767,    0.008231
 122.784434,    0.008232
 122.786101,    0.008232
 122.787767,    0.008232
 122.789434,    0.008232
 122.791101,    0.008232
 122.792767,    0.008232
 122.794434,    0.008232
 122.796101,    0.008232
 122.797767,    0.008233
 122.799434,    0.008233
 122.801101,    0.008233
 122.802767,    0.008233
 122.804434,    0.008233
 122.806101,    0.008233
 122.807767,    0.008233
 122.809434,    0.008234
 122.811101,    0.008234
 122.812767,    0.008234
 122.814434,    0.008234
 122.816101,    0.008234
 122.817767,    0.008234
 122.819434,    0.008234
 122.821101,    0.008234
 122.822767,    0.008235
 122.824434,    0.008235
 122.826101,    0.008235
 122.827767,    0.008235
 122.829434,    0.008235
 122.831101,    0.008235
 122.832767,    0.008235
 122.834434,    0.008236
 122.836101,    0.008236
 122.837767,    0.008236
 122.839434,    0.008236
 122.841101,    0.008236
 122.842767,    0.008236
 122.844434,    0.008236
 122.846101,    0.008236
 122.847767,    0.008237
 122.849434,    0.008237
 122.851101,    0.008237
 122.852767,    0.008237
 122.854434,    0.008237
 122.856101,    0.008237
 122.857767,    0.008237
 122.859434,    0.008238
 122.861101,    0.008238
 122.862767,    0.008238
 122.864434,    0.008238
 122.866101,    0.008238
 122.867767,    0.008238
 122.869434,    0.008238
 122.871101,    0.008238
 122.872767,    0.008239
 122.874434,    0.008239
 122.876101,    0.008239
 122.877767,    0.008239
 122.879434,    0.008239
 122.881101,    0.008239
 122.882767,    0.008239
 122.884434,    0.008239
 122.886101,    0.008240
 122.887767,    0.008240
 122.889434,    0.008240
 122.891101,    0.008240
 122.892767,    0.008240
 122.894434,    0.008240
 122.896101,    0.008240
 122.897767,    0.008241
 122.899434,    0.008241
 122.901101,    0.008241
 122.902767,    0.008241
 122.904434,    0.008241
 122.906101,    0.008241
 122.907767,    0.008241
 122.909434,    0.008241
 122.911101,    0.008242
 122.912767,    0.008242
 122.914434,    0.008242
 122.916101,    0.008242
 122.917767,    0.008242
 122.919434,    0.008242
 122.921101,    0.008242
 122.922767,    0.008242
 122.924434,    0.008243
 122.926101,    0.008243
 122.927767,    0.008243
 122.929434,    0.008243
 122.931101,    0.008243
 122.932767,    0.008243
 122.934434,    0.008243
 122.936101,    0.008243
 122.937767,    0.008244
 122.939434,    0.008244
 122.941101,    0.008244
 122.942767,    0.008244
 122.944434,    0.008244
 122.946101,    0.008244
 122.947767,    0.008244
 122.949434,    0.008244
 122.951101,    0.008245
 122.952767,    0.008245
 122.954434,    0.008245
 122.956101,    0.008245
 122.957767,    0.008245
 122.959434,    0.008245
 122.961101,    0.008245
 122.962767,    0.008246
 122.964434,    0.008246
 122.966101,    0.008246
 122.967767,    0.008246
 122.969434,    0.008246
 122.971101,    0.008246
 122.972767,    0.008246
 122.974434,    0.008246
 122.976101,    0.008247
 122.977767,    0.008247
 122.979434,    0.008247
 122.981101,    0.008247
 122.982767,    0.008247
 122.984434,    0.008247
 122.986101,    0.008247
 122.987767,    0.008247
 122.989434,    0.008248
 122.991101,    0.008248
 122.992767,    0.008248
 122.994434,    0.008248
 122.996101,    0.008248
 122.997767,    0.008248
 122.999434,    0.008248
 123.001101,    0.008248
 123.002767,    0.008249
 123.004434,    0.008249
 123.006101,    0.008249
 123.007767,    0.008249
 123.009434,    0.008249
 123.011101,    0.008249
 123.012767,    0.008249
 123.014434,    0.008249
 123.016101,    0.008250
 123.017767,    0.008250
 123.019434,    0.008250
 123.021101,    0.008250
 123.022767,    0.008250
 123.024434,    0.008250
 123.026101,    0.008250
 123.027767,    0.008251
 123.029434,    0.008251
 123.031101,    0.008251
 123.032767,    0.008251
 123.034434,    0.008251
 123.036101,    0.008251
 123.037767,    0.008251
 123.039434,    0.008251
 123.041101,    0.008252
 123.042767,    0.008252
 123.044434,    0.008252
 123.046101,    0.008252
 123.047767,    0.008252
 123.049434,    0.008252
 123.051101,    0.008252
 123.052767,    0.008252
 123.054434,    0.008253
 123.056101,    0.008253
 123.057767,    0.008253
 123.059434,    0.008253
 123.061101,    0.008253
 123.062767,    0.008253
 123.064434,    0.008253
 123.066101,    0.008253
 123.067767,    0.008254
 123.069434,    0.008254
 123.071101,    0.008254
 123.072767,    0.008254
 123.074434,    0.008254
 123.076101,    0.008254
 123.077767,    0.008254
 123.079434,    0.008254
 123.081101,    0.008255
 123.082767,    0.008255
 123.084434,    0.008255
 123.086101,    0.008255
 123.087767,    0.008255
 123.089434,    0.008255
 123.091101,    0.008255
 123.092767,    0.008255
 123.094434,    0.008256
 123.096101,    0.008256
 123.097767,    0.008256
 123.099434,    0.008256
 123.101101,    0.008256
 123.102767,    0.008256
 123.104434,    0.008256
 123.106101,    0.008256
 123.107767,    0.008257
 123.109434,    0.008257
 123.111101,    0.008257
 123.112767,    0.008257
 123.114434,    0.008257
 123.116101,    0.008257
 123.117767,    0.008257
 123.119434,    0.008257
 123.121101,    0.008258
 123.122767,    0.008258
 123.124434,    0.008258
 123.126101,    0.008258
 123.127767,    0.008258
 123.129434,    0.008258
 123.131101,    0.008258
 123.132767,    0.008258
 123.134434,    0.008259
 123.136101,    0.008259
 123.137767,    0.008259
 123.139434,    0.008259
 123.141101,    0.008259
 123.142767,    0.008259
 123.144434,    0.008259
 123.146101,    0.008259
 123.147767,    0.008260
 123.149434,    0.008260
 123.151101,    0.008260
 123.152767,    0.008260
 123.154434,    0.008260
 123.156101,    0.008260
 123.157767,    0.008260
 123.159434,    0.008260
 123.161101,    0.008261
 123.162767,    0.008261
 123.164434,    0.008261
 123.166101,    0.008261
 123.167767,    0.008261
 123.169434,    0.008261
 123.171101,    0.008261
 123.172767,    0.008261
 123.174434,    0.008262
 123.176101,    0.008262
 123.177767,    0.008262
 123.179434,    0.008262
 123.181101,    0.008262
 123.182767,    0.008262
 123.184434,    0.008262
 123.186101,    0.008262
 123.187767,    0.008263
 123.189434,    0.008263
 123.191101,    0.008263
 123.192767,    0.008263
 123.194434,    0.008263
 123.196101,    0.008263
 123.197767,    0.008263
 123.199434,    0.008263
 123.201101,    0.008264
 123.202767,    0.008264
 123.204434,    0.008264
 123.206101,    0.008264
 123.207767,    0.008264
 123.209434,    0.008264
 123.211101,    0.008264
 123.212767,    0.008264
 123.214434,    0.008265
 123.216101,    0.008265
 123.217767,    0.008265
 123.219434,    0.008265
 123.221101,    0.008265
 123.222767,    0.008265
 123.224434,    0.008265
 123.226101,    0.008265
 123.227767,    0.008266
 123.229434,    0.008266
 123.231101,    0.008266
 123.232767,    0.008266
 123.234434,    0.008266
 123.236101,    0.008266
 123.237767,    0.008266
 123.239434,    0.008266
 123.241101,    0.008267
 123.242767,    0.008267
 123.244434,    0.008267
 123.246101,    0.008267
 123.247767,    0.008267
 123.249434,    0.008267
 123.251101,    0.008267
 123.252767,    0.008267
 123.254434,    0.008268
 123.256101,    0.008268
 123.257767,    0.008268
 123.259434,    0.008268
 123.261101,    0.008268
 123.262767,    0.008268
 123.264434,    0.008268
 123.266101,    0.008268
 123.267767,    0.008269
 123.269434,    0.008269
 123.271101,    0.008269
 123.272767,    0.008269
 123.274434,    0.008269
 123.276101,    0.008269
 123.277767,    0.008269
 123.279434,    0.008269
 123.281101,    0.008270
 123.282767,    0.008270
 123.284434,    0.008270
 123.286101,    0.008270
 123.287767,    0.008270
 123.289434,    0.008270
 123.291101,    0.008270
 123.292767,    0.008270
 123.294434,    0.008271
 123.296101,    0.008271
 123.297767,    0.008271
 123.299434,    0.008271
 123.301101,    0.008271
 123.302767,    0.008271
 123.304434,    0.008271
 123.306101,    0.008271
 123.307767,    0.008272
 123.309434,    0.008272
 123.311101,    0.008272
 123.312767,    0.008272
 123.314434,    0.008272
 123.316101,    0.008272
 123.317767,    0.008272
 123.319434,    0.008272
 123.321101,    0.008273
 123.322767,    0.008273
 123.324434,    0.008273
 123.326101,    0.008273
 123.327767,    0.008273
 123.329434,    0.008273
 123.331101,    0.008273
 123.332767,    0.008273
 123.334434,    0.008274
 123.336101,    0.008274
 123.337767,    0.008274
 123.339434,    0.008274
 123.341101,    0.008274
 123.342767,    0.008274
 123.344434,    0.008274
 123.346101,    0.008274
 123.347767,    0.008274
 123.349434,    0.008275
 123.351101,    0.008275
 123.352767,    0.008275
 123.354434,    0.008275
 123.356101,    0.008275
 123.357767,    0.008275
 123.359434,    0.008275
 123.361101,    0.008275
 123.362767,    0.008276
 123.364434,    0.008276
 123.366101,    0.008276
 123.367767,    0.008276
 123.369434,    0.008276
 123.371101,    0.008276
 123.372767,    0.008276
 123.374434,    0.008276
 123.376101,    0.008277
 123.377767,    0.008277
 123.379434,    0.008277
 123.381101,    0.008277
 123.382767,    0.008277
 123.384434,    0.008277
 123.386101,    0.008277
 123.387767,    0.008277
 123.389434,    0.008278
 123.391101,    0.008278
 123.392767,    0.008278
 123.394434,    0.008278
 123.396101,    0.008278
 123.397767,    0.008278
 123.399434,    0.008278
 123.401101,    0.008278
 123.402767,    0.008279
 123.404434,    0.008279
 123.406101,    0.008279
 123.407767,    0.008279
 123.409434,    0.008279
 123.411101,    0.008279
 123.412767,    0.008279
 123.414434,    0.008279
 123.416101,    0.008280
 123.417767,    0.008280
 123.419434,    0.008280
 123.421101,    0.008280
 123.422767,    0.008280
 123.424434,    0.008280
 123.426101,    0.008280
 123.427767,    0.008280
 123.429434,    0.008281
 123.431101,    0.008281
 123.432767,    0.008281
 123.434434,    0.008281
 123.436101,    0.008281
 123.437767,    0.008281
 123.439434,    0.008281
 123.441101,    0.008281
 123.442767,    0.008282
 123.444434,    0.008282
 123.446101,    0.008282
 123.447767,    0.008282
 123.449434,    0.008282
 123.451101,    0.008282
 123.452767,    0.008282
 123.454434,    0.008282
 123.456101,    0.008283
 123.457767,    0.008283
 123.459434,    0.008283
 123.461101,    0.008283
 123.462767,    0.008283
 123.464434,    0.008283
 123.466101,    0.008283
 123.467767,    0.008283
 123.469434,    0.008283
 123.471101,    0.008284
 123.472767,    0.008284
 123.474434,    0.008284
 123.476101,    0.008284
 123.477767,    0.008284
 123.479434,    0.008284
 123.481101,    0.008284
 123.482767,    0.008284
 123.484434,    0.008285
 123.486101,    0.008285
 123.487767,    0.008285
 123.489434,    0.008285
 123.491101,    0.008285
 123.492767,    0.008285
 123.494434,    0.008285
 123.496101,    0.008285
 123.497767,    0.008286
 123.499434,    0.008286
 123.501101,    0.008286
 123.502767,    0.008286
 123.504434,    0.008286
 123.506101,    0.008286
 123.507767,    0.008286
 123.509434,    0.008286
 123.511101,    0.008287
 123.512767,    0.008287
 123.514434,    0.008287
 123.516101,    0.008287
 123.517767,    0.008287
 123.519434,    0.008287
 123.521101,    0.008287
 123.522767,    0.008287
 123.524434,    0.008287
 123.526101,    0.008288
 123.527767,    0.008288
 123.529434,    0.008288
 123.531101,    0.008288
 123.532767,    0.008288
 123.534434,    0.008288
 123.536101,    0.008288
 123.537767,    0.008288
 123.539434,    0.008289
 123.541101,    0.008289
 123.542767,    0.008289
 123.544434,    0.008289
 123.546101,    0.008289
 123.547767,    0.008289
 123.549434,    0.008289
 123.551101,    0.008289
 123.552767,    0.008290
 123.554434,    0.008290
 123.556101,    0.008290
 123.557767,    0.008290
 123.559434,    0.008290
 123.561101,    0.008290
 123.562767,    0.008290
 123.564434,    0.008290
 123.566101,    0.008291
 123.567767,    0.008291
 123.569434,    0.008291
 123.571101,    0.008291
 123.572767,    0.008291
 123.574434,    0.008291
 123.576101,    0.008291
 123.577767,    0.008291
 123.579434,    0.008291
 123.581101,    0.008292
 123.582767,    0.008292
 123.584434,    0.008292
 123.586101,    0.008292
 123.587767,    0.008292
 123.589434,    0.008292
 123.591101,    0.008292
 123.592767,    0.008292
 123.594434,    0.008293
 123.596101,    0.008293
 123.597767,    0.008293
 123.599434,    0.008293
 123.601101,    0.008293
 123.602767,    0.008293
 123.604434,    0.008293
 123.606101,    0.008293
 123.607767,    0.008294
 123.609434,    0.008294
 123.611101,    0.008294
 123.612767,    0.008294
 123.614434,    0.008294
 123.616101,    0.008294
 123.617767,    0.008294
 123.619434,    0.008294
 123.621101,    0.008295
 123.622767,    0.008295
 123.624434,    0.008295
 123.626101,    0.008295
 123.627767,    0.008295
 123.629434,    0.008295
 123.631101,    0.008295
 123.632767,    0.008295
 123.634434,    0.008295
 123.636101,    0.008296
 123.637767,    0.008296
 123.639434,    0.008296
 123.641101,    0.008296
 123.642767,    0.008296
 123.644434,    0.008296
 123.646101,    0.008296
 123.647767,    0.008296
 123.649434,    0.008297
 123.651101,    0.008297
 123.652767,    0.008297
 123.654434,    0.008297
 123.656101,    0.008297
 123.657767,    0.008297
 123.659434,    0.008297
 123.661101,    0.008297
 123.662767,    0.008298
 123.664434,    0.008298
 123.666101,    0.008298
 123.667767,    0.008298
 123.669434,    0.008298
 123.671101,    0.008298
 123.672767,    0.008298
 123.674434,    0.008298
 123.676101,    0.008299
 123.677767,    0.008299
 123.679434,    0.008299
 123.681101,    0.008299
 123.682767,    0.008299
 123.684434,    0.008299
 123.686101,    0.008299
 123.687767,    0.008299
 123.689434,    0.008299
 123.691101,    0.008300
 123.692767,    0.008300
 123.694434,    0.008300
 123.696101,    0.008300
 123.697767,    0.008300
 123.699434,    0.008300
 123.701101,    0.008300
 123.702767,    0.008300
 123.704434,    0.008301
 123.706101,    0.008301
 123.707767,    0.008301
 123.709434,    0.008301
 123.711101,    0.008301
 123.712767,    0.008301
 123.714434,    0.008301
 123.716101,    0.008301
 123.717767,    0.008302
 123.719434,    0.008302
 123.721101,    0.008302
 123.722767,    0.008302
 123.724434,    0.008302
 123.726101,    0.008302
 123.727767,    0.008302
 123.729434,    0.008302
 123.731101,    0.008302
 123.732767,    0.008303
 123.734434,    0.008303
 123.736101,    0.008303
 123.737767,    0.008303
 123.739434,    0.008303
 123.741101,    0.008303
 123.742767,    0.008303
 123.744434,    0.008303
 123.746101,    0.008304
 123.747767,    0.008304
 123.749434,    0.008304
 123.751101,    0.008304
 123.752767,    0.008304
 123.754434,    0.008304
 123.756101,    0.008304
 123.757767,    0.008304
 123.759434,    0.008304
 123.761101,    0.008305
 123.762767,    0.008305
 123.764434,    0.008305
 123.766101,    0.008305
 123.767767,    0.008305
 123.769434,    0.008305
 123.771101,    0.008305
 123.772767,    0.008305
 123.774434,    0.008306
 123.776101,    0.008306
 123.777767,    0.008306
 123.779434,    0.008306
 123.781101,    0.008306
 123.782767,    0.008306
 123.784434,    0.008306
 123.786101,    0.008306
 123.787767,    0.008307
 123.789434,    0.008307
 123.791101,    0.008307
 123.792767,    0.008307
 123.794434,    0.008307
 123.796101,    0.008307
 123.797767,    0.008307
 123.799434,    0.008307
 123.801101,    0.008307
 123.802767,    0.008308
 123.804434,    0.008308
 123.806101,    0.008308
 123.807767,    0.008308
 123.809434,    0.008308
 123.811101,    0.008308
 123.812767,    0.008308
 123.814434,    0.008308
 123.816101,    0.008309
 123.817767,    0.008309
 123.819434,    0.008309
 123.821101,    0.008309
 123.822767,    0.008309
 123.824434,    0.008309
 123.826101,    0.008309
 123.827767,    0.008309
 123.829434,    0.008309
 123.831101,    0.008310
 123.832767,    0.008310
 123.834434,    0.008310
 123.836101,    0.008310
 123.837767,    0.008310
 123.839434,    0.008310
 123.841101,    0.008310
 123.842767,    0.008310
 123.844434,    0.008311
 123.846101,    0.008311
 123.847767,    0.008311
 123.849434,    0.008311
 123.851101,    0.008311
 123.852767,    0.008311
 123.854434,    0.008311
 123.856101,    0.008311
 123.857767,    0.008312
 123.859434,    0.008312
 123.861101,    0.008312
 123.862767,    0.008312
 123.864434,    0.008312
 123.866101,    0.008312
 123.867767,    0.008312
 123.869434,    0.008312
 123.871101,    0.008312
 123.872767,    0.008313
 123.874434,    0.008313
 123.876101,    0.008313
 123.877767,    0.008313
 123.879434,    0.008313
 123.881101,    0.008313
 123.882767,    0.008313
 123.884434,    0.008313
 123.886101,    0.008314
 123.887767,    0.008314
 123.889434,    0.008314
 123.891101,    0.008314
 123.892767,    0.008314
 123.894434,    0.008314
 123.896101,    0.008314
 123.897767,    0.008314
 123.899434,    0.008314
 123.901101,    0.008315
 123.902767,    0.008315
 123.904434,    0.008315
 123.906101,    0.008315
 123.907767,    0.008315
 123.909434,    0.008315
 123.911101,    0.008315
 123.912767,    0.008315
 123.914434,    0.008316
 123.916101,    0.008316
 123.917767,    0.008316
 123.919434,    0.008316
 123.921101,    0.008316
 123.922767,    0.008316
 123.924434,    0.008316
 123.926101,    0.008316
 123.927767,    0.008316
 123.929434,    0.008317
 123.931101,    0.008317
 123.932767,    0.008317
 123.934434,    0.008317
 123.936101,    0.008317
 123.937767,    0.008317
 123.939434,    0.008317
 123.941101,    0.008317
 123.942767,    0.008318
 123.944434,    0.008318
 123.946101,    0.008318
 123.947767,    0.008318
 123.949434,    0.008318
 123.951101,    0.008318
 123.952767,    0.008318
 123.954434,    0.008318
 123.956101,    0.008318
 123.957767,    0.008319
 123.959434,    0.008319
 123.961101,    0.008319
 123.962767,    0.008319
 123.964434,    0.008319
 123.966101,    0.008319
 123.967767,    0.008319
 123.969434,    0.008319
 123.971101,    0.008320
 123.972767,    0.008320
 123.974434,    0.008320
 123.976101,    0.008320
 123.977767,    0.008320
 123.979434,    0.008320
 123.981101,    0.008320
 123.982767,    0.008320
 123.984434,    0.008320
 123.986101,    0.008321
 123.987767,    0.008321
 123.989434,    0.008321
 123.991101,    0.008321
 123.992767,    0.008321
 123.994434,    0.008321
 123.996101,    0.008321
 123.997767,    0.008321
 123.999434,    0.008322
 124.001101,    0.008322
 124.002767,    0.008322
 124.004434,    0.008322
 124.006101,    0.008322
 124.007767,    0.008322
 124.009434,    0.008322
 124.011101,    0.008322
 124.012767,    0.008322
 124.014434,    0.008323
 124.016101,    0.008323
 124.017767,    0.008323
 124.019434,    0.008323
 124.021101,    0.008323
 124.022767,    0.008323
 124.024434,    0.008323
 124.026101,    0.008323
 124.027767,    0.008323
 124.029434,    0.008324
 124.031101,    0.008324
 124.032767,    0.008324
 124.034434,    0.008324
 124.036101,    0.008324
 124.037767,    0.008324
 124.039434,    0.008324
 124.041101,    0.008324
 124.042767,    0.008325
 124.044434,    0.008325
 124.046101,    0.008325
 124.047767,    0.008325
 124.049434,    0.008325
 124.051101,    0.008325
 124.052767,    0.008325
 124.054434,    0.008325
 124.056101,    0.008325
 124.057767,    0.008326
 124.059434,    0.008326
 124.061101,    0.008326
 124.062767,    0.008326
 124.064434,    0.008326
 124.066101,    0.008326
 124.067767,    0.008326
 124.069434,    0.008326
 124.071101,    0.008327
 124.072767,    0.008327
 124.074434,    0.008327
 124.076101,    0.008327
 124.077767,    0.008327
 124.079434,    0.008327
 124.081101,    0.008327
 124.082767,    0.008327
 124.084434,    0.008327
 124.086101,    0.008328
 124.087767,    0.008328
 124.089434,    0.008328
 124.091101,    0.008328
 124.092767,    0.008328
 124.094434,    0.008328
 124.096101,    0.008328
 124.097767,    0.008328
 124.099434,    0.008329
 124.101101,    0.008329
 124.102767,    0.008329
 124.104434,    0.008329
 124.106101,    0.008329
 124.107767,    0.008329
 124.109434,    0.008329
 124.111101,    0.008329
 124.112767,    0.008329
 124.114434,    0.008330
 124.116101,    0.008330
 124.117767,    0.008330
 124.119434,    0.008330
 124.121101,    0.008330
 124.122767,    0.008330
 124.124434,    0.008330
 124.126101,    0.008330
 124.127767,    0.008331
 124.129434,    0.008331
 124.131101,    0.008331
 124.132767,    0.008331
 124.134434,    0.008331
 124.136101,    0.008331
 124.137767,    0.008331
 124.139434,    0.008331
 124.141101,    0.008331
 124.142767,    0.008332
 124.144434,    0.008332
 124.146101,    0.008332
 124.147767,    0.008332
 124.149434,    0.008332
 124.151101,    0.008332
 124.152767,    0.008332
 124.154434,    0.008332
 124.156101,    0.008332
 124.157767,    0.008333
 124.159434,    0.008333
 124.161101,    0.008333
 124.162767,    0.008333
 124.164434,    0.008333
 124.166101,    0.008333
 124.167767,    0.008333
 124.169434,    0.008333
 124.171101,    0.008333
 124.172767,    0.008334
 124.174434,    0.008334
 124.176101,    0.008334
 124.177767,    0.008334
 124.179434,    0.008334
 124.181101,    0.008334
 124.182767,    0.008334
 124.184434,    0.008334
 124.186101,    0.008335
 124.187767,    0.008335
 124.189434,    0.008335
 124.191101,    0.008335
 124.192767,    0.008335
 124.194434,    0.008335
 124.196101,    0.008335
 124.197767,    0.008335
 124.199434,    0.008335
 124.201101,    0.008336
 124.202767,    0.008336
 124.204434,    0.008336
 124.206101,    0.008336
 124.207767,    0.008336
 124.209434,    0.008336
 124.211101,    0.008336
 124.212767,    0.008336
 124.214434,    0.008336
 124.216101,    0.008337
 124.217767,    0.008337
 124.219434,    0.008337
 124.221101,    0.008337
 124.222767,    0.008337
 124.224434,    0.008337
 124.226101,    0.008337
 124.227767,    0.008337
 124.229434,    0.008338
 124.231101,    0.008338
 124.232767,    0.008338
 124.234434,    0.008338
 124.236101,    0.008338
 124.237767,    0.008338
 124.239434,    0.008338
 124.241101,    0.008338
 124.242767,    0.008338
 124.244434,    0.008339
 124.246101,    0.008339
 124.247767,    0.008339
 124.249434,    0.008339
 124.251101,    0.008339
 124.252767,    0.008339
 124.254434,    0.008339
 124.256101,    0.008339
 124.257767,    0.008339
 124.259434,    0.008340
 124.261101,    0.008340
 124.262767,    0.008340
 124.264434,    0.008340
 124.266101,    0.008340
 124.267767,    0.008340
 124.269434,    0.008340
 124.271101,    0.008340
 124.272767,    0.008340
 124.274434,    0.008341
 124.276101,    0.008341
 124.277767,    0.008341
 124.279434,    0.008341
 124.281101,    0.008341
 124.282767,    0.008341
 124.284434,    0.008341
 124.286101,    0.008341
 124.287767,    0.008342
 124.289434,    0.008342
 124.291101,    0.008342
 124.292767,    0.008342
 124.294434,    0.008342
 124.296101,    0.008342
 124.297767,    0.008342
 124.299434,    0.008342
 124.301101,    0.008342
 124.302767,    0.008343
 124.304434,    0.008343
 124.306101,    0.008343
 124.307767,    0.008343
 124.309434,    0.008343
 124.311101,    0.008343
 124.312767,    0.008343
 124.314434,    0.008343
 124.316101,    0.008343
 124.317767,    0.008344
 124.319434,    0.008344
 124.321101,    0.008344
 124.322767,    0.008344
 124.324434,    0.008344
 124.326101,    0.008344
 124.327767,    0.008344
 124.329434,    0.008344
 124.331101,    0.008345
 124.332767,    0.008345
 124.334434,    0.008345
 124.336101,    0.008345
 124.337767,    0.008345
 124.339434,    0.008345
 124.341101,    0.008345
 124.342767,    0.008345
 124.344434,    0.008345
 124.346101,    0.008346
 124.347767,    0.008346
 124.349434,    0.008346
 124.351101,    0.008346
 124.352767,    0.008346
 124.354434,    0.008346
 124.356101,    0.008346
 124.357767,    0.008346
 124.359434,    0.008346
 124.361101,    0.008347
 124.362767,    0.008347
 124.364434,    0.008347
 124.366101,    0.008347
 124.367767,    0.008347
 124.369434,    0.008347
 124.371101,    0.008347
 124.372767,    0.008347
 124.374434,    0.008347
 124.376101,    0.008348
 124.377767,    0.008348
 124.379434,    0.008348
 124.381101,    0.008348
 124.382767,    0.008348
 124.384434,    0.008348
 124.386101,    0.008348
 124.387767,    0.008348
 124.389434,    0.008348
 124.391101,    0.008349
 124.392767,    0.008349
 124.394434,    0.008349
 124.396101,    0.008349
 124.397767,    0.008349
 124.399434,    0.008349
 124.401101,    0.008349
 124.402767,    0.008349
 124.404434,    0.008349
 124.406101,    0.008350
 124.407767,    0.008350
 124.409434,    0.008350
 124.411101,    0.008350
 124.412767,    0.008350
 124.414434,    0.008350
 124.416101,    0.008350
 124.417767,    0.008350
 124.419434,    0.008350
 124.421101,    0.008351
 124.422767,    0.008351
 124.424434,    0.008351
 124.426101,    0.008351
 124.427767,    0.008351
 124.429434,    0.008351
 124.431101,    0.008351
 124.432767,    0.008351
 124.434434,    0.008352
 124.436101,    0.008352
 124.437767,    0.008352
 124.439434,    0.008352
 124.441101,    0.008352
 124.442767,    0.008352
 124.444434,    0.008352
 124.446101,    0.008352
 124.447767,    0.008352
 124.449434,    0.008353
 124.451101,    0.008353
 124.452767,    0.008353
 124.454434,    0.008353
 124.456101,    0.008353
 124.457767,    0.008353
 124.459434,    0.008353
 124.461101,    0.008353
 124.462767,    0.008353
 124.464434,    0.008354
 124.466101,    0.008354
 124.467767,    0.008354
 124.469434,    0.008354
 124.471101,    0.008354
 124.472767,    0.008354
 124.474434,    0.008354
 124.476101,    0.008354
 124.477767,    0.008354
 124.479434,    0.008355
 124.481101,    0.008355
 124.482767,    0.008355
 124.484434,    0.008355
 124.486101,    0.008355
 124.487767,    0.008355
 124.489434,    0.008355
 124.491101,    0.008355
 124.492767,    0.008355
 124.494434,    0.008356
 124.496101,    0.008356
 124.497767,    0.008356
 124.499434,    0.008356
 124.501101,    0.008356
 124.502767,    0.008356
 124.504434,    0.008356
 124.506101,    0.008356
 124.507767,    0.008356
 124.509434,    0.008357
 124.511101,    0.008357
 124.512767,    0.008357
 124.514434,    0.008357
 124.516101,    0.008357
 124.517767,    0.008357
 124.519434,    0.008357
 124.521101,    0.008357
 124.522767,    0.008357
 124.524434,    0.008358
 124.526101,    0.008358
 124.527767,    0.008358
 124.529434,    0.008358
 124.531101,    0.008358
 124.532767,    0.008358
 124.534434,    0.008358
 124.536101,    0.008358
 124.537767,    0.008358
 124.539434,    0.008359
 124.541101,    0.008359
 124.542767,    0.008359
 124.544434,    0.008359
 124.546101,    0.008359
 124.547767,    0.008359
 124.549434,    0.008359
 124.551101,    0.008359
 124.552767,    0.008360
 124.554434,    0.008360
 124.556101,    0.008360
 124.557767,    0.008360
 124.559434,    0.008360
 124.561101,    0.008360
 124.562767,    0.008360
 124.564434,    0.008360
 124.566101,    0.008360
 124.567767,    0.008361
 124.569434,    0.008361
 124.571101,    0.008361
 124.572767,    0.008361
 124.574434,    0.008361
 124.576101,    0.008361
 124.577767,    0.008361
 124.579434,    0.008361
 124.581101,    0.008361
 124.582767,    0.008362
 124.584434,    0.008362
 124.586101,    0.008362
 124.587767,    0.008362
 124.589434,    0.008362
 124.591101,    0.008362
 124.592767,    0.008362
 124.594434,    0.008362
 124.596101,    0.008362
 124.597767,    0.008362
 124.599434,    0.008363
 124.601101,    0.008363
 124.602767,    0.008363
 124.604434,    0.008363
 124.606101,    0.008363
 124.607767,    0.008363
 124.609434,    0.008363
 124.611101,    0.008363
 124.612767,    0.008363
 124.614434,    0.008364
 124.616101,    0.008364
 124.617767,    0.008364
 124.619434,    0.008364
 124.621101,    0.008364
 124.622767,    0.008364
 124.624434,    0.008364
 124.626101,    0.008364
 124.627767,    0.008364
 124.629434,    0.008365
 124.631101,    0.008365
 124.632767,    0.008365
 124.634434,    0.008365
 124.636101,    0.008365
 124.637767,    0.008365
 124.639434,    0.008365
 124.641101,    0.008365
 124.642767,    0.008365
 124.644434,    0.008366
 124.646101,    0.008366
 124.647767,    0.008366
 124.649434,    0.008366
 124.651101,    0.008366
 124.652767,    0.008366
 124.654434,    0.008366
 124.656101,    0.008366
 124.657767,    0.008366
 124.659434,    0.008367
 124.661101,    0.008367
 124.662767,    0.008367
 124.664434,    0.008367
 124.666101,    0.008367
 124.667767,    0.008367
 124.669434,    0.008367
 124.671101,    0.008367
 124.672767,    0.008367
 124.674434,    0.008368
 124.676101,    0.008368
 124.677767,    0.008368
 124.679434,    0.008368
 124.681101,    0.008368
 124.682767,    0.008368
 124.684434,    0.008368
 124.686101,    0.008368
 124.687767,    0.008368
 124.689434,    0.008369
 124.691101,    0.008369
 124.692767,    0.008369
 124.694434,    0.008369
 124.696101,    0.008369
 124.697767,    0.008369
 124.699434,    0.008369
 124.701101,    0.008369
 124.702767,    0.008369
 124.704434,    0.008370
 124.706101,    0.008370
 124.707767,    0.008370
 124.709434,    0.008370
 124.711101,    0.008370
 124.712767,    0.008370
 124.714434,    0.008370
 124.716101,    0.008370
 124.717767,    0.008370
 124.719434,    0.008371
 124.721101,    0.008371
 124.722767,    0.008371
 124.724434,    0.008371
 124.726101,    0.008371
 124.727767,    0.008371
 124.729434,    0.008371
 124.731101,    0.008371
 124.732767,    0.008371
 124.734434,    0.008372
 124.736101,    0.008372
 124.737767,    0.008372
 124.739434,    0.008372
 124.741101,    0.008372
 124.742767,    0.008372
 124.744434,    0.008372
 124.746101,    0.008372
 124.747767,    0.008372
 124.749434,    0.008373
 124.751101,    0.008373
 124.752767,    0.008373
 124.754434,    0.008373
 124.756101,    0.008373
 124.757767,    0.008373
 124.759434,    0.008373
 124.761101,    0.008373
 124.762767,    0.008373
 124.764434,    0.008374
 124.766101,    0.008374
 124.767767,    0.008374
 124.769434,    0.008374
 124.771101,    0.008374
 124.772767,    0.008374
 124.774434,    0.008374
 124.776101,    0.008374
 124.777767,    0.008374
 124.779434,    0.008375
 124.781101,    0.008375
 124.782767,    0.008375
 124.784434,    0.008375
 124.786101,    0.008375
 124.787767,    0.008375
 124.789434,    0.008375
 124.791101,    0.008375
 124.792767,    0.008375
 124.794434,    0.008376
 124.796101,    0.008376
 124.797767,    0.008376
 124.799434,    0.008376
 124.801101,    0.008376
 124.802767,    0.008376
 124.804434,    0.008376
 124.806101,    0.008376
 124.807767,    0.008376
 124.809434,    0.008376
 124.811101,    0.008377
 124.812767,    0.008377
 124.814434,    0.008377
 124.816101,    0.008377
 124.817767,    0.008377
 124.819434,    0.008377
 124.821101,    0.008377
 124.822767,    0.008377
 124.824434,    0.008377
 124.826101,    0.008378
 124.827767,    0.008378
 124.829434,    0.008378
 124.831101,    0.008378
 124.832767,    0.008378
 124.834434,    0.008378
 124.836101,    0.008378
 124.837767,    0.008378
 124.839434,    0.008378
 124.841101,    0.008379
 124.842767,    0.008379
 124.844434,    0.008379
 124.846101,    0.008379
 124.846511,    0.008379
 124.848178,    0.011400
 124.849844,    0.017826
 124.851511,    0.040862
 124.853178,   -0.139849
 124.854844,   -0.025791
 124.856511,   -0.014206
 124.858178,   -0.010013
 124.859844,   -0.009434
 124.861511,   -0.008855
 124.863178,   -0.008279
 124.864844,   -0.007703
 124.866511,   -0.007130
 124.868178,   -0.006558
 124.869844,   -0.005987
 124.871511,   -0.005418
 124.873178,   -0.004851
 124.874844,   -0.004331
 124.876511,   -0.004324
 124.878178,   -0.004317
 124.879844,   -0.004310
 124.881511,   -0.004303
 124.883178,   -0.004297
 124.884844,   -0.004290
 124.886511,   -0.004283
 124.888178,   -0.004276
 124.889844,   -0.004269
 124.891511,   -0.004263
 124.893178,   -0.004256
 124.894844,   -0.004249
 124.896511,   -0.004242
 124.898178,   -0.004235
 124.899844,   -0.004228
 124.901134,   -0.004223
 124.902801,   -0.003747
 124.904467,   -0.003367
 124.906134,   -0.003057
 124.907801,   -0.002799
 124.909467,   -0.002348
 124.911134,   -0.001930
 124.912801,   -0.001569
 124.914467,   -0.001253
 124.916134,   -0.000974
 124.917801,   -0.000727
 124.919467,   -0.000506
 124.921134,   -0.000307
 124.922801,   -0.000127
 124.924467,    0.000037
 124.926134,    0.000283
 124.927801,    0.000522
 124.929467,    0.000741
 124.931134,    0.000944
 124.932801,    0.001132
 124.934467,    0.001306
 124.936134,    0.001468
 124.937801,    0.001619
 124.939467,    0.001761
 124.941134,    0.001893
 124.942801,    0.002029
 124.944467,    0.002161
 124.946134,    0.002289
 124.947801,    0.002412
 124.949467,    0.002531
 124.951134,    0.002646
 124.952801,    0.002758
 124.954467,    0.002866
 124.956134,    0.002970
 124.957801,    0.003071
 124.959467,    0.003126
 124.961134,    0.003175
 124.962081,    0.003203
 124.963748,    0.003356
 124.965414,    0.003520
 124.967081,    0.003695
 124.968748,    0.003884
 124.970414,    0.004087
 124.972081,    0.004306
 124.973748,    0.004544
 124.975414,    0.004492
 124.977081,    0.004052
 124.978748,    0.003605
 124.980414,    0.003151
 124.982081,    0.002691
 124.983748,    0.002224
 124.985414,    0.001749
 124.987081,    0.001267
 124.988748,    0.000777
 124.990414,    0.000280
 124.992081,   -0.000000
 124.993748,   -0.000000
 124.995414,   -0.000000
 124.997081,   -0.000000
 124.998748,   -0.000000
 125.000414,   -0.000000
 125.002081,   -0.000000
 125.003748,   -0.000000
 125.005414,   -0.000000
 125.007081,   -0.000000
 125.008748,   -0.000000
 125.010414,   -0.000000
 125.012081,   -0.000000
 125.013748,   -0.000000
 125.015414,   -0.000000
 125.017081,   -0.000000
 125.018748,   -0.000000
 125.020414,   -0.000000
 125.022081,   -0.000000
 125.023748,   -0.000000
 125.025414,   -0.000000
 125.027081,   -0.000000
 125.028748,   -0.000000
 125.030414,   -0.000000
 125.032081,   -0.000000
 125.033748,   -0.000000
 125.035414,   -0.000000
 125.037081,   -0.000000
 125.038748,   -0.000000
 125.040414,   -0.000000
 125.042081,   -0.000000
 125.043748,   -0.000000
 125.045414,   -0.000000
 125.047081,   -0.000000
 125.048748,   -0.000000
 125.050414,   -0.000000
 125.052081,   -0.000000
 125.053748,   -0.000000
 125.055414,   -0.000000
 125.057081,   -0.000000
 125.058748,   -0.000000
 125.060414,   -0.000000
 125.062081,   -0.000000
 125.063748,   -0.000000
 125.065414,   -0.000000
 125.067081,   -0.000000
 125.068748,   -0.000000
 125.070414,   -0.000000
 125.072081,   -0.000000
 125.073748,   -0.000000
 125.075414,   -0.000000
 125.077081,   -0.000000
 125.078748,   -0.000000
 125.080414,   -0.000000
 125.082081,   -0.000000
 125.083748,   -0.000000
 125.085414,   -0.000000
 125.087081,   -0.000000
 125.088748,   -0.000000
 125.090414,   -0.000000
 125.092081,   -0.000000
 125.093748,   -0.000000
 125.095414,   -0.000000
 125.097081,   -0.000000
 125.098748,   -0.000000
 125.100414,   -0.000000
 125.102081,   -0.000000
 125.103748,   -0.000000
 125.105414,   -0.000000
 125.107081,   -0.000000
 125.108748,   -0.000000
 125.110414,   -0.000000
 125.112081,   -0.000000
 125.113748,   -0.000000
 125.115414,   -0.000000
 125.117081,   -0.000000
 125.118748,   -0.000000
 125.120414,   -0.000000
 125.122081,   -0.000000
 125.123748,   -0.000000
 125.125414,   -0.000000
 125.127081,   -0.000000
 125.128748,   -0.000000
 125.130414,   -0.000000
 125.132081,   -0.000000
 125.133748,   -0.000000
 125.135414,   -0.000000
 125.137081,    0.000000
 125.138748,    0.000000
 125.140414,    0.000000
 125.142081,    0.000000
 125.143748,    0.000000
 125.145414,    0.000000
 125.147081,    0.000000
 125.148748,    0.000000
 125.150414,    0.000000
 125.152081,    0.000000
 125.153748,    0.000000
 125.155414,    0.000000
 125.157081,    0.000000
 125.158748,    0.000000
 125.160050,    0.000000
