V/VsTO, Thrust - Yawing Moment
   0.325225, 16022.138809
   0.328457, 16342.171864
   0.331689, 16665.369629
   0.334921, 16991.732105
   0.338153, 17321.259290
   0.341385, 17653.951186
   0.344617, 17989.807791
   0.347849, 18328.829107
   0.351081, 18671.015133
   0.354313, 19016.365869
   0.357545, 19364.881315
   0.360777, 19716.561471
   0.364009, 20071.406337
   0.367241, 20429.415913
   0.370473, 20790.590199
   0.373705, 21154.929196
   0.376937, 21522.432902
   0.380169, 21893.101319
   0.383401, 22266.934445
   0.386633, 22643.932282
   0.389865, 23024.094829
   0.393097, 23407.422086
   0.396329, 23793.914052
   0.399561, 24183.570730
   0.402793, 24576.392117
   0.406025, 24972.378214
   0.409257, 25371.529021
   0.412490, 25773.844538
   0.415722, 26179.324766
   0.418954, 26587.969703
   0.422186, 26999.779351
   0.425418, 27414.753709
   0.428650, 27832.892776
   0.431882, 28254.196554
   0.435114, 28678.665042
   0.438346, 29106.298240
   0.441578, 29537.096148
   0.444810, 29971.058766
   0.448042, 30408.186095
   0.451274, 30848.478133
   0.454506, 31291.934881
   0.457738, 31738.556340
   0.460970, 32188.342508
   0.464202, 32641.293387
   0.467434, 33097.408976
   0.470666, 33556.689275
   0.473898, 34019.134284
   0.477130, 34484.744002
   0.480362, 34953.518432
   0.483594, 35425.457571
   0.486826, 35900.561420
   0.490058, 36378.829979
   0.493290, 36860.263249
   0.496522, 37344.861228
   0.499754, 37832.623918
   0.502986, 38323.551317
   0.506218, 38817.643427
   0.509450, 39314.900247
   0.512682, 39815.321777
   0.515914, 40318.908017
   0.519146, 40825.658967
   0.522379, 41335.574627
   0.525611, 41848.654997
   0.528843, 42364.900077
   0.532075, 42884.309868
   0.535307, 43406.884368
   0.538539, 43932.623579
   0.541771, 44461.527499
   0.545003, 44993.596130
   0.548235, 45528.829471
   0.551467, 46067.227522
   0.554699, 46608.790283
   0.557931, 47153.517754
   0.561163, 47701.409935
   0.564395, 48252.466826
   0.567627, 48806.688427
   0.570859, 49364.074739
   0.574091, 49924.625760
   0.577323, 50488.341492
   0.580555, 51055.221933
   0.583787, 51625.267085
   0.587019, 52198.476947
   0.590251, 52774.851518
   0.593483, 53354.390800
   0.596715, 53937.094792
   0.599947, 54522.963494
   0.603179, 55111.996907
   0.606411, 55704.195029
   0.609643, 56299.557861
   0.612875, 56898.085404
   0.616107, 57499.777656
   0.619339, 58104.634619
   0.622571, 58712.656291
   0.625803, 59323.842674
   0.629035, 59938.193767
   0.632268, 60555.709570
   0.635500, 61176.390083
   0.638732, 61800.235306
   0.641964, 62427.245239
   0.645196, 63057.419882
   0.648428, 63690.759236
   0.651660, 64327.263299
   0.654892, 64966.932073
   0.658124, 65609.765556
   0.661356, 66255.763750
   0.664588, 66904.926654
   0.667820, 67557.254267
   0.671052, 68212.746591
   0.674284, 68871.403625
   0.677516, 69533.225369
   0.680748, 70198.211823
   0.683980, 70866.362988
   0.687212, 71537.678862
   0.690444, 72212.159446
   0.693676, 72889.804741
   0.696908, 73570.614745
   0.700140, 74254.589460
   0.703372, 74941.728885
   0.706604, 75632.033019
   0.709836, 76325.501864
   0.713068, 77022.135419
   0.716300, 77721.933684
   0.719532, 78424.896659
   0.722764, 79131.024345
   0.725996, 79840.316740
   0.729228, 80552.773845
   0.732460, 81268.395661
   0.735692, 81987.182186
   0.738924, 82709.133422
   0.742156, 83434.249368
   0.745389, 84162.530023
   0.748621, 84893.975389
   0.751853, 85628.585465
   0.755085, 86366.360251
   0.758317, 87107.299747
   0.761549, 87851.403954
   0.764781, 88598.672870
   0.768013, 89349.106496
   0.771245, 90102.704833
   0.774477, 90859.467879
   0.777709, 91619.395636
   0.780941, 92382.488102
   0.784173, 93148.745279
   0.787405, 93918.167166
   0.790637, 94690.753763
   0.793869, 95466.505070
   0.797101, 96245.421087
   0.800333, 97027.501814
   0.803565, 97812.747251
   0.806797, 98601.157399
   0.810029, 99392.732256
   0.813261, 100187.471824
   0.816493, 100985.376101
   0.819725, 101786.445089
   0.822957, 102590.678787
   0.826189, 103398.077194
   0.829421, 104208.640312
   0.832653, 105022.368140
   0.835885, 105839.260678
   0.839117, 106659.317927
   0.842349, 107482.539885
   0.845581, 108308.926553
   0.848813, 109138.477932
   0.852045, 109971.194020
   0.855278, 110807.074819
   0.858510, 111646.120327
   0.861742, 112488.330546
   0.864974, 113333.705475
   0.868206, 114182.245114
   0.871438, 115033.949463
   0.874670, 115888.818522
   0.877902, 116746.852291
   0.881134, 117608.050770
   0.884366, 118472.413959
   0.887598, 119339.941859
   0.890830, 120210.634468
   0.894062, 121084.491788
   0.897294, 121961.513817
   0.900526, 122841.700557
   0.903758, 123725.052007
   0.906990, 124611.568167
   0.910222, 125501.249037
   0.913454, 126394.094617
   0.916686, 127290.104907
   0.919918, 128189.279907
   0.923150, 129091.619617
   0.926382, 129997.124038
   0.929614, 130905.793168
   0.932846, 131817.627009
   0.936078, 132732.625559
   0.939310, 133650.788820
   0.942542, 134572.116791
   0.945774, 135496.609471
   0.949006, 136424.266862
   0.952238, 137355.088963
   0.955470, 138289.075775
   0.958702, 139226.227296
   0.961934, 140166.543527
   0.965167, 141110.024468
   0.968399, 142056.670120
   0.971631, 143006.480481
   0.974863, 143959.455553
   0.978095, 144915.595335
   0.981327, 145874.899826
   0.984559, 146837.369028
   0.987791, 147803.002940
   0.991023, 148771.801562
   0.994255, 149743.764894
   0.997487, 150718.892936
   1.000719, 151697.185689
   1.003951, 152678.643151
   1.007183, 153663.265323
   1.010415, 154651.052206
   1.013647, 155642.003798
   1.016879, 156636.120101
   1.020111, 157633.401114
   1.023343, 158633.846837
   1.026575, 159637.457269
   1.029807, 160644.232412
   1.033039, 161654.172265
   1.036271, 162667.276829
   1.039503, 163683.546102
   1.042735, 164702.980085
   1.045967, 165725.578779
   1.049199, 166751.342182
   1.052431, 167780.270296
   1.055663, 168812.363119
   1.058895, 169847.620653
   1.062127, 170886.042897
   1.065359, 171927.629851
   1.068591, 172972.381515
   1.071823, 174020.297889
   1.075056, 175071.378973
   1.078288, 176125.624767
   1.081520, 177183.035271
   1.084752, 178243.610486
   1.087984, 179307.350410
   1.091216, 180374.255045
   1.094448, 181444.324389
   1.097680, 182517.558444
   1.100912, 183593.957209
   1.104144, 184673.520684
   1.107376, 185756.248869
   1.110608, 186842.141764
   1.113840, 187931.199369
   1.117072, 189023.421684
   1.120304, 190118.808709
   1.123536, 191217.360444
   1.126768, 192319.076890
   1.130000, 193423.958045
