Time, Vertical Forces
   0.000100,    0.000003
   0.000597,    0.000104
   0.002118,    0.001311
   0.006000,    0.010514
   0.013409,    0.052507
   0.025776,    0.193995
   0.050478,    0.743808
   0.078860,    1.814889
   0.107231,    3.354744
   0.135754,    5.375351
   0.164285,    7.870098
   0.192786,   10.834621
   0.221427,   14.289189
   0.250002,   18.210067
   0.278792,   22.639531
   0.307720,   27.573871
   0.336801,   33.022689
   0.365999,   38.985452
   0.395324,   45.470283
   0.424752,   52.476817
   0.454334,   60.023963
   0.483922,   68.076974
   0.513902,   76.751243
   0.543998,   85.978880
   0.574132,   95.740182
   0.604589,  106.136152
   0.635202,  117.122002
   0.665680,  128.593053
   0.696805,  140.856929
   0.728105,  153.748532
   0.759386,  167.192504
   0.790805,  181.258102
   0.823009,  196.259988
   0.855112,  211.803244
   0.887601,  228.131086
   0.920021,  245.023130
   0.952657,  262.631289
   0.985716,  281.084308
   1.019144,  300.373563
   1.052681,  320.362492
   1.086312,  341.047057
   1.120768,  362.902515
   1.155376,  385.528957
   1.190329,  409.067643
   1.225051,  433.133078
   1.260463,  458.376033
   1.295730,  484.216392
   1.331831,  511.392051
   1.367713,  539.127991
   1.403564,  567.560699
   1.439859,  597.078805
   1.476690,  627.786503
   1.513168,  658.946842
   1.550329,  691.453912
   1.587555,  724.790253
   1.625520,  759.583892
   1.663335,  795.035733
   1.701359,  831.485143
   1.739975,  869.322827
   1.778616,  908.012608
   1.818149,  948.450923
   1.857714,  989.786738
   1.897315, 1032.025077
   1.937493, 1075.762781
   1.977233, 1119.898321
   2.017468, 1165.468151
   2.057621, 1211.832392
   2.098892, 1260.407699
   2.140367, 1310.164485
   2.181313, 1360.209667
   2.222727, 1411.757834
   2.264752, 1465.022650
   2.306943, 1519.466102
   2.349666, 1575.584134
   2.392480, 1632.815406
   2.435325, 1691.082789
   2.478412, 1750.683990
   2.521890, 1811.843672
   2.565666, 1874.453330
   2.609548, 1938.252728
   2.653538, 2003.249088
   2.697987, 2069.981266
   2.742758, 2138.269333
   2.787783, 2208.028599
   2.832751, 2278.782833
   2.878364, 2351.655701
   2.924142, 2425.909670
   2.970033, 2501.466143
   3.016121, 2578.476345
   3.062908, 2657.807150
   3.109176, 2737.399592
   3.155950, 2819.016254
   3.203176, 2902.594241
   3.250564, 2987.640942
   3.298182, 3074.292963
   3.345500, 3161.579773
   3.393585, 3251.485287
   3.441717, 3342.694055
   3.490411, 3436.200399
   3.539407, 3531.537109
   3.588110, 3627.545896
   3.637471, 3726.110340
   3.686899, 3826.078159
   3.736685, 3928.049582
   3.786223, 4030.788506
   3.836643, 4136.658714
   3.886872, 4243.431299
   3.937877, 4353.184132
   3.989209, 4464.990379
   4.040325, 4577.671250
   4.091267, 4691.297984
   4.142668, 4807.294246
   4.193968, 4924.404749
   4.246300, 5045.254145
   4.248393, 5050.116780
   4.248869, 5051.221534
   4.248974, 5051.466178
   4.249123, 5051.812240
   4.249175, 5051.932954
   4.249275, 5052.166302
   4.249316, 5052.260198
   4.249320, 5052.270562
   4.249324, 5052.279898
   4.249364, 5052.373253
   4.249766, 5053.306855
   4.251923, 5058.320276
   4.260001, 5077.122635
   4.285765, 5137.305801
   4.334340, 5251.675525
   4.382405, 5366.005290
   4.430454, 5481.449315
   4.478753, 5598.649352
   4.527143, 5717.228828
   4.575592, 5837.116668
   4.624658, 5959.710347
   4.673806, 6083.701062
   4.723125, 6209.314907
   4.772612, 6336.555358
   4.822316, 6465.557990
   4.872217, 6596.286137
   4.922507, 6729.261669
   4.973108, 6864.298044
   5.023738, 7000.652522
   5.074108, 7137.536304
   5.124756, 7276.410989
   5.175556, 7416.937648
   5.226723, 7559.734413
   5.278219, 7704.712857
   5.330175, 7852.272340
   5.381689, 7999.840774
   5.433555, 8149.693344
   5.485692, 8301.612242
   5.537972, 8455.240095
   5.590382, 8610.540689
   5.642837, 8767.265492
   5.695399, 8925.608487
   5.748291, 9086.244674
   5.801419, 9248.915335
   5.854678, 9413.302240
   5.908203, 9579.836590
   5.961203, 9746.043709
   6.014767, 9915.334792
   6.068625, 10086.887146
   6.122578, 10260.076764
   6.176799, 10435.468177
   6.231116, 10612.512746
   6.285440, 10790.925912
   6.340042, 10971.600389
   6.394772, 11154.052368
   6.450166, 11340.094612
   6.505531, 11527.419715
   6.560856, 11715.980210
   6.616344, 11906.474759
   6.672373, 12100.216955
   6.727766, 12293.135241
   6.784048, 12490.540045
   6.840168, 12688.773741
   6.896461, 12889.014608
   6.952964, 13091.397449
   7.009604, 13295.679670
   7.066298, 13501.557644
   7.123010, 13708.902179
   7.179721, 13917.641628
   7.236718, 14128.833949
   7.293922, 14342.203583
   7.351312, 14557.679008
   7.409361, 14777.069297
   7.467271, 14997.369208
   7.525191, 15219.136823
   7.583316, 15443.119269
   7.641609, 15669.187549
   7.700113, 15897.517094
   7.758616, 16127.283274
   7.817439, 16359.750027
   7.876215, 16593.481144
   7.935129, 16829.200128
   7.994180, 17066.916368
   8.053264, 17306.208908
   8.112483, 17547.493066
   8.172226, 17792.376722
   8.232014, 18038.903297
   8.291963, 18287.563304
   8.352085, 18538.410197
   8.412656, 18792.612831
   8.472889, 19046.866399
   8.533217, 19302.983851
   8.593887, 19562.030243
   8.654559, 19822.557440
   8.715533, 20085.858998
   8.727746, 20138.774590
   8.736018, 20174.648229
   8.742617, 20203.285558
   8.743599, 20207.550170
   8.743833, 20208.566678
   8.743905, 20208.880588
   8.743939, 20209.026132
   8.743946, 20209.058260
   8.743954, 20209.091685
   8.744031, 20209.425936
   8.744724, 20212.434668
   8.748743, 20229.889566
   8.763093, 20292.258681
   8.811984, 20505.334718
   8.867623, 20748.923733
   8.923520, 20994.818814
   8.979573, 21242.578356
   9.035881, 21492.649959
   9.092404, 21744.864449
   9.148720, 21997.334320
   9.205512, 22253.128301
   9.262126, 22509.297811
   9.318660, 22766.281722
   9.375511, 23025.881059
   9.432481, 23287.202733
   9.489629, 23550.524723
   9.546727, 23814.788126
   9.604263, 24082.260557
   9.661821, 24351.020501
   9.719218, 24620.203087
   9.776764, 24891.251124
   9.834634, 25165.010077
   9.892602, 25440.404247
   9.950469, 25716.493549
  10.008520, 25994.634238
  10.066906, 26275.554679
  10.125242, 26557.409825
  10.183644, 26840.748704
  10.242354, 27126.761480
  10.301234, 27414.783251
  10.360008, 27703.451148
  10.418895, 27993.846409
  10.477722, 28285.103631
  10.536972, 28579.622215
  10.596207, 28875.238716
  10.655393, 29171.765397
  10.714881, 29470.966845
  10.774554, 29772.264135
  10.834559, 30076.413291
  10.894432, 30381.050808
  10.954355, 30687.108284
  11.014374, 30994.808820
  11.074565, 31304.551636
  11.134861, 31615.992452
  11.195128, 31928.429102
  11.255503, 32242.573311
  11.316177, 32559.428434
  11.376900, 32877.690249
  11.437915, 33198.632152
  11.498965, 33520.912004
  11.559984, 33844.170814
  11.621290, 34170.094806
  11.682601, 34497.195609
  11.743915, 34825.444417
  11.805463, 35156.086005
  11.867069, 35488.172373
  11.928781, 35821.969603
  11.990563, 36157.269180
  12.052456, 36494.302883
  12.114489, 36833.231120
  12.176490, 37173.096721
  12.238494, 37514.104038
  12.300810, 37857.937057
  12.363436, 38204.607490
  12.426286, 38553.638232
  12.489304, 38904.736567
  12.552133, 39255.891528
  12.614921, 39607.925219
  12.677848, 39961.842121
  12.740675, 40316.295179
  12.803771, 40673.362994
  12.867135, 41033.044512
  12.930653, 41394.701114
  12.994164, 41757.412890
  13.057722, 42121.482569
  13.121378, 42487.200336
  13.185269, 42855.351911
  13.249443, 43226.224357
  13.313645, 43598.348291
  13.377613, 43970.190664
  13.441981, 44345.427905
  13.506369, 44721.861586
  13.570793, 45099.572999
  13.583718, 45175.476044
  13.632699, 45463.521313
  13.633215, 45466.553976
  13.633362, 45467.421589
  13.633600, 45468.825005
  13.633678, 45469.279496
  13.633832, 45470.188483
  13.633852, 45470.306313
  13.633863, 45470.368414
  13.633873, 45470.428001
  13.633882, 45470.482216
  13.633974, 45471.024362
  13.634887, 45476.401534
  13.641271, 45513.989764
  13.669796, 45682.062277
  13.726223, 46015.068284
  13.784283, 46358.442894
  13.842305, 46702.341638
  13.900518, 47048.106689
  13.958825, 47395.164162
  14.017140, 47743.001171
  14.075459, 48091.587723
  14.133968, 48442.037045
  14.192534, 48793.546119
  14.251115, 49145.856218
  14.310013, 49500.792962
  14.368785, 49855.680725
  14.427570, 50211.350685
  14.486516, 50568.695169
  14.545512, 50927.038619
  14.604755, 51287.576380
  14.664056, 51649.162240
  14.723339, 52011.331376
  14.782810, 52375.331291
  14.842262, 52739.893649
  14.901854, 53105.989231
  14.961589, 53473.641880
  15.021263, 53841.587306
  15.081189, 54211.752607
  15.141002, 54581.880910
  15.201095, 54954.402450
  15.261217, 55327.760429
  15.321506, 55702.805071
  15.381845, 56078.813717
  15.442218, 56455.674276
  15.502652, 56833.553950
  15.563200, 57212.789303
  15.623815, 57593.071017
  15.684519, 57974.536172
  15.745140, 58356.103438
  15.806020, 58739.923979
  15.866801, 59123.733127
  15.927864, 59509.928054
  15.989006, 59897.237861
  16.050203, 60285.493786
  16.111474, 60674.824446
  16.172956, 61066.092128
  16.234510, 61458.407226
  16.295991, 61850.847190
  16.357633, 62244.901954
  16.419417, 62640.438485
  16.481199, 63036.536462
  16.543123, 63434.119673
  16.605086, 63832.519620
  16.667231, 64232.656955
  16.729337, 64633.095181
  16.791521, 65034.590464
  16.853902, 65437.912967
  16.916218, 65841.357442
  16.978579, 66245.628502
  17.041098, 66651.467660
  17.103618, 67057.840967
  17.166373, 67466.266388
  17.229173, 67875.511466
  17.292014, 68285.544177
  17.354772, 68695.541547
  17.417879, 69108.336461
  17.480932, 69521.281808
  17.544131, 69935.682175
  17.607450, 70351.369201
  17.670939, 70768.662079
  17.734490, 71186.854345
  17.797970, 71605.064183
  17.861371, 72023.228157
  17.924916, 72442.814342
  17.988668, 72864.236289
  18.052596, 73287.283745
  18.116486, 73710.544640
  18.180529, 74135.276911
  18.244675, 74561.143702
  18.308912, 74988.057122
  18.373012, 75414.507520
  18.437370, 75843.102729
  18.501788, 76272.541036
  18.566283, 76702.913210
  18.630786, 77133.763209
  18.695282, 77564.983164
  18.759920, 77997.562703
  18.824800, 78432.176400
  18.889688, 78867.246888
  18.954630, 79303.075275
  19.019543, 79739.105796
  19.084698, 80177.153766
  19.149841, 80615.499661
  19.162902, 80703.436803
  19.172900, 80770.758991
  19.180257, 80820.301039
  19.181423, 80828.156386
  19.181778, 80830.549846
  19.182388, 80834.651829
  19.182592, 80836.028694
  19.182627, 80836.266552
  19.182664, 80836.512879
  19.183030, 80838.976153
  19.186252, 80860.680503
  19.204628, 80984.457340
  19.260788, 81362.933912
  19.326063, 81803.175873
  19.391247, 82243.155577
  19.456328, 82682.795650
  19.521615, 83124.174370
  19.587058, 83566.945253
  19.652481, 84009.921819
  19.718105, 84454.590303
  19.783721, 84899.535147
  19.849488, 85345.824133
  19.915331, 85792.949796
  19.981202, 86240.573499
  20.047129, 86688.893524
  20.113097, 87137.787899
  20.179258, 87588.301458
  20.245458, 88039.370372
  20.311688, 88490.927028
  20.378014, 88943.428823
  20.444471, 89397.103600
  20.510968, 89851.323187
  20.577468, 90305.829927
  20.644186, 90762.094775
  20.711054, 91219.639987
  20.777855, 91676.983767
  20.844748, 92135.206403
  20.911727, 92594.267834
  20.978858, 93054.605835
  21.046008, 93515.309610
  21.113248, 93976.853266
  21.180441, 94438.305702
  21.247762, 94900.853355
  21.315162, 95364.160709
  21.382751, 95828.972322
  21.450409, 96294.463186
  21.518081, 96760.257023
  21.585792, 97226.508507
  21.653579, 97693.469794
  21.721439, 98161.115700
  21.789321, 98629.097226
  21.857288, 99097.837201
  21.925403, 99567.766923
  21.993633, 100038.651983
  22.061984, 100510.534406
  22.130342, 100982.616211
  22.198806, 101455.577185
  22.267172, 101928.003361
  22.335786, 102402.285299
  22.404448, 102877.031512
  22.473232, 103352.756777
  22.542042, 103828.775528
  22.610851, 104304.907508
  22.679893, 104782.765846
  22.748967, 105260.957620
  22.818074, 105739.472930
  22.887356, 106219.304273
  22.956541, 106698.554722
  23.025791, 107178.340196
  23.095313, 107660.098374
  23.164660, 108140.716196
  23.234274, 108623.258923
  23.304014, 109106.743865
  23.373743, 109590.218239
  23.443587, 110074.540071
  23.513363, 110558.445281
  23.583261, 111043.247081
  23.653353, 111529.428043
  23.723314, 112014.741397
  23.793589, 112502.266615
  23.863779, 112989.226495
  23.934074, 113476.936093
  23.968044, 113712.630552
  24.004621, 113966.414266
  24.075192, 115613.559508
  24.145625, 118340.139793
  24.216207, 121063.472449
  24.286838, 123791.840496
  24.357653, 126522.996430
  24.428434, 129259.421364
  24.499351, 131995.474595
  24.570341, 134735.912435
  24.641390, 137478.520785
  24.712465, 140222.457092
  24.783691, 142967.723696
  24.854983, 145717.291527
  24.926295, 148468.031001
  24.997611, 151218.337160
  25.069004, 153968.240685
  25.140384, 156719.055408
  25.211740, 159467.852370
  25.283289, 162216.186964
  25.354902, 164969.245185
  25.426419, 167721.530541
  25.498005, 170469.844268
  25.569673, 173219.059904
  25.641402, 175969.172362
  25.713177, 178719.378088
  25.784919, 181468.343969
  25.787793, 183526.807394
  25.787930, 183608.798560
  25.788020, 183613.539670
  25.788087, 183616.749539
  25.788127, 183619.021760
  25.788144, 183620.294532
  25.788160, 183620.929569
  25.788326, 183623.053976
  25.789987, 183644.298443
  25.800024, 183791.122956
  25.844615, 184518.651296
  25.918101, 186510.684280
  25.992378, 189327.059012
  26.066619, 192162.725141
  26.140992, 194995.904411
  26.215407, 197830.264014
  26.289751, 200661.985093
  26.364219, 203489.879930
  26.438608, 206317.080990
  26.512937, 209138.065913
  26.587368, 211955.033007
  26.661705, 214770.143515
  26.736178, 217580.545097
  26.810645, 220390.738164
  26.816516, 222421.556108
  26.822395, 222640.369180
  26.828280, 222859.405299
  26.834155, 223078.401758
  26.840043, 223297.239955
  26.845938, 223516.424898
  26.851789, 223735.211792
  26.857677, 223953.202499
  26.863568, 224172.119726
  26.869437, 224390.798894
  26.875356, 224609.391126
  26.881192, 224828.298934
  26.887111, 225045.891111
  26.893035, 225265.627776
  26.898971, 225485.548692
  26.904908, 225705.715225
  26.910791, 225925.243820
  26.916694, 226143.516074
  26.922647, 226362.758173
  26.928585, 226583.080196
  26.934536, 226803.083449
  26.940496, 227023.430702
  26.946454, 227243.920055
  26.952427, 227464.424432
  26.958376, 227684.976095
  26.964364, 227905.264624
  26.970329, 228126.210770
  26.976301, 228346.574697
  26.982257, 228566.859362
  26.988259, 228787.128417
  26.994236, 229008.254253
  27.000223, 229228.754965
  27.006252, 229449.874864
  27.012257, 229671.719028
  27.018260, 229892.844282
  27.024269, 230113.893023
  27.030290, 230335.147413
  27.036323, 230556.741865
  27.042337, 230778.344153
  27.048382, 230999.713463
  27.054439, 231221.893969
  27.060428, 231443.565298
  27.066518, 231664.510461
  27.072613, 231888.002231
  27.078703, 232111.452137
  27.084808, 232334.854946
  27.090918, 232558.599140
  27.097022, 232782.313159
  27.103130, 233005.796403
  27.109227, 233229.171791
  27.115344, 233452.378385
  27.121483, 233676.235089
  27.127607, 233900.370416
  27.133760, 234124.358018
  27.139880, 234348.591363
  27.146046, 234572.408173
  27.152219, 234797.362132
  27.158390, 235022.342035
  27.164569, 235247.251973
  27.170731, 235472.080440
  27.176896, 235696.391913
  27.183112, 235921.227823
  27.189272, 236146.641099
  27.195487, 236371.111048
  27.201718, 236597.029868
  27.207962, 236823.368879
  27.214209, 237049.966671
  27.220412, 237276.050405
  27.226673, 237501.534511
  27.232902, 237728.016115
  27.239126, 237953.491967
  27.245417, 238179.451504
  27.251695, 238406.832820
  27.258024, 238634.327631
  27.264324, 238862.685966
  27.270653, 239090.490067
  27.276937, 239318.393157
  27.283294, 239545.818238
  27.289634, 239774.785674
  27.295942, 240002.839939
  27.302283, 240230.302548
  27.308669, 240458.962716
  27.315041, 240688.480132
  27.321463, 240918.016826
  27.327840, 241148.186708
  27.334284, 241377.812248
  27.340714, 241608.838080
  27.347143, 241839.374237
  27.353604, 242070.057366
  27.360048, 242301.230557
  27.366505, 242531.951355
  27.372943, 242762.656146
  27.379402, 242992.952654
  27.385858, 243223.615573
  27.392390, 243292.753635
  27.398890, 243361.462843
  27.405415, 243430.338478
  27.411927, 243498.982426
  27.418477, 243567.926959
  27.425000, 243636.496103
  27.431541, 243705.152523
  27.438112, 243774.027925
  27.444697, 243842.958413
  27.451305, 243912.019834
  27.457894, 243980.793198
  27.464466, 244049.287782
  27.471056, 244117.873957
  27.477650, 244186.395129
  27.484242, 244254.805408
  27.490903, 244323.830596
  27.497572, 244392.823108
  27.504242, 244461.733210
  27.510912, 244530.539830
  27.517581, 244599.234194
  27.524266, 244667.991567
  27.530963, 244736.764507
  27.537667, 244805.515435
  27.544410, 244874.552407
  27.551138, 244943.330933
  27.557905, 245012.393575
  27.564634, 245080.972236
  27.571383, 245149.647608
  27.578145, 245218.345223
  27.584932, 245287.184700
  27.591681, 245355.536585
  27.598455, 245424.038730
  27.605246, 245492.599861
  27.612059, 245561.267479
  27.618853, 245629.640905
  27.625693, 245698.363505
  27.632538, 245767.028690
  27.639364, 245835.384731
  27.646227, 245904.009994
  27.653122, 245972.830508
  27.659978, 246041.158196
  27.666843, 246109.454480
  27.673797, 246178.521959
  27.680744, 246247.409783
  27.687729, 246316.554817
  27.694712, 246385.559169
  27.701707, 246454.560957
  27.708703, 246523.458247
  27.715665, 246591.903005
  27.722702, 246660.969682
  27.729750, 246730.024202
  27.736786, 246798.834876
  27.743870, 246867.988742
  27.750966, 246937.145983
  27.758007, 247005.633818
  27.765088, 247074.393952
  27.772203, 247143.364212
  27.779290, 247211.932583
  27.786405, 247280.652627
  27.793532, 247349.359414
  27.800692, 247418.261797
  27.807857, 247487.081773
  27.815010, 247555.657320
  27.822211, 247624.568741
  27.829367, 247692.913088
  27.836566, 247761.543902
  27.843769, 247830.084978
  27.850982, 247898.593874
  27.858246, 247967.454754
  27.865532, 248036.390324
  27.872802, 248105.035528
  27.880071, 248173.542458
  27.885858, 248227.988456
  27.887360, 248242.103564
  27.894645, 248310.491510
  27.901967, 248379.094641
  27.909307, 248447.723464
  27.916628, 248516.047085
  27.923981, 248584.523542
  27.931365, 248653.158375
  27.938774, 248721.874345
  27.946183, 248790.460725
  27.953577, 248858.760671
  27.960999, 248927.184029
  27.968478, 248995.988376
  27.975918, 249064.294990
  27.983422, 249133.036950
  27.990949, 249201.849077
  27.998425, 249270.048542
  28.005957, 249338.610637
  28.013503, 249407.146888
  28.021092, 249475.931788
  28.028666, 249544.436163
  28.036281, 249613.154426
  28.043919, 249681.927386
  28.051601, 249750.945308
  28.059271, 249819.701292
  28.066912, 249888.045939
  28.074613, 249956.765460
  28.082302, 250025.227176
  28.089987, 250093.498417
  28.097707, 250161.924588
  28.105470, 250230.569505
  28.113190, 250298.672527
  28.121042, 250367.786942
  28.128801, 250435.921752
  28.136630, 250504.502420
  28.144455, 250572.885732
  28.152330, 250641.544807
  28.160163, 250709.673511
  28.168029, 250777.920755
  28.175910, 250846.139198
  28.183777, 250914.068505
  28.191664, 250982.002792
  28.199571, 251049.937478
  28.207507, 251117.950563
  28.215430, 251185.691469
  28.223401, 251253.664713
  28.231366, 251321.418188
  28.239379, 251389.406374
  28.247367, 251457.011904
  28.255368, 251524.545148
  28.263389, 251592.083598
  28.271499, 251660.184841
  28.279568, 251727.762965
  28.287691, 251795.616849
  28.295852, 251863.607839
  28.304004, 251931.343312
  28.312156, 251998.892907
  28.320365, 252066.729244
  28.328546, 252134.157957
  28.336745, 252201.544950
  28.344976, 252269.001065
  28.353241, 252336.561825
  28.361486, 252403.760525
  28.369820, 252471.493823
  28.378098, 252538.585580
  28.386444, 252606.035437
  28.394761, 252673.052984
  28.403117, 252740.192480
  28.411456, 252807.009329
  28.419870, 252874.221444
  28.428249, 252940.958089
  28.436624, 253007.470484
  28.445079, 253074.412627
  28.453463, 253140.602446
  28.461935, 253207.281883
  28.470403, 253273.722002
  28.478862, 253339.902182
  28.487310, 253405.784186
  28.495804, 253471.828730
  28.504275, 253537.487995
  28.512858, 253603.804821
  28.521376, 253669.412333
  28.529916, 253734.988831
  28.538476, 253800.505172
  28.547088, 253866.215031
  28.555750, 253932.085419
  28.564376, 253997.474137
  28.573005, 254062.673099
  28.581608, 254127.460526
  28.590333, 254192.953892
  28.599012, 254257.879998
  28.607692, 254322.599061
  28.616509, 254388.116559
  28.625223, 254452.650758
  28.633950, 254517.062858
  28.642771, 254581.940888
  28.651581, 254646.516855
  28.660458, 254711.358667
  28.669300, 254775.710889
  28.678114, 254839.637566
  28.686972, 254903.656041
  28.695759, 254966.936272
  28.704631, 255030.598735
  28.713564, 255094.467728
  28.722602, 255158.848320
  28.731577, 255222.547175
  28.740604, 255286.377917
  28.749595, 255349.709049
  28.758586, 255412.813662
  28.767636, 255476.082572
  28.776653, 255538.890102
  28.785754, 255602.034934
  28.794724, 255664.026903
  28.803757, 255726.221009
  28.812760, 255787.966792
  28.821940, 255850.680257
  28.831106, 255913.049052
  28.840245, 255974.983905
  28.849374, 256036.608560
  28.858568, 256098.419883
  28.867813, 256160.314537
  28.877055, 256221.945330
  28.886291, 256283.272997
  28.895524, 256344.326163
  28.904799, 256405.404228
  28.914166, 256466.824785
  28.923434, 256527.336673
  28.932767, 256588.014480
  28.941987, 256647.702632
  28.951455, 256708.730859
  28.960754, 256768.400982
  28.970137, 256828.350070
  28.979586, 256888.455500
  28.988911, 256947.502039
  28.998306, 257006.729973
  29.007764, 257066.087887
  29.017208, 257125.085193
  29.026712, 257184.178474
  29.036095, 257242.256774
  29.045554, 257300.536074
  29.054995, 257358.428772
  29.064426, 257415.995104
  29.073974, 257473.995469
  29.083540, 257531.829074
  29.093167, 257589.746508
  29.102781, 257647.303043
  29.112383, 257704.505397
  29.122037, 257761.735339
  29.131526, 257817.707317
  29.141252, 257874.789086
  29.150897, 257931.115882
  29.160620, 257987.600305
  29.170276, 258043.414388
  29.179960, 258099.095547
  29.189652, 258154.535168
  29.199346, 258209.702014
  29.209080, 258264.796852
  29.218966, 258320.458675
  29.228642, 258374.638848
  29.238289, 258428.372579
  29.248133, 258482.908453
  29.257964, 258537.067986
  29.267847, 258591.212672
  29.277716, 258644.976806
  29.287524, 258698.114035
  29.297414, 258751.384960
  29.307258, 258804.108668
  29.317156, 258856.821130
  29.327069, 258909.302457
  29.336948, 258961.297738
  29.346890, 259013.317843
  29.356849, 259065.119291
  29.366720, 259116.151645
  29.376731, 259167.601920
  29.386598, 259217.999768
  29.396690, 259269.234630
  29.406793, 259320.200412
  29.416806, 259370.402291
  29.426851, 259420.442871
  29.436806, 259469.719473
  29.446817, 259518.962334
  29.456849, 259567.992524
  29.466921, 259616.895640
  29.476888, 259664.973470
  29.487000, 259713.432845
  29.497083, 259761.428485
  29.507081, 259808.700531
  29.517212, 259856.282357
  29.527366, 259903.645802
  29.537553, 259950.832688
  29.547606, 259997.075182
  29.557777, 260043.535364
  29.567919, 260089.536899
  29.578026, 260135.050583
  29.588233, 260180.688554
  29.598401, 260225.819093
  29.608477, 260270.220241
  29.618696, 260314.915170
  29.628874, 260359.104455
  29.639192, 260403.560522
  29.649510, 260447.678271
  29.659802, 260491.346870
  29.670110, 260534.742607
  29.680297, 260577.292271
  29.690618, 260620.066661
  29.700948, 260662.536339
  29.711179, 260704.260429
  29.721457, 260745.837901
  29.731711, 260786.979390
  29.742092, 260828.286011
  29.752510, 260869.395018
  29.762855, 260909.867586
  29.773143, 260949.777651
  29.783603, 260990.002779
  29.793985, 261029.582409
  29.804480, 261069.235814
  29.814942, 261108.413778
  29.825353, 261147.052022
  29.835722, 261185.186164
  29.846218, 261223.429921
  29.856703, 261261.280926
  29.867142, 261298.613625
  29.877523, 261335.386044
  29.888072, 261372.399346
  29.898500, 261408.632939
  29.909000, 261444.762183
  29.919462, 261480.403689
  29.929979, 261515.877606
  29.940502, 261551.008754
  29.950997, 261585.692747
  29.961446, 261619.867296
  29.971898, 261653.695568
  29.982374, 261687.246916
  29.992910, 261720.631347
  30.003407, 261753.532248
  30.013965, 261786.265675
  30.024538, 261818.679916
  30.035133, 261850.796928
  30.045715, 261882.507182
  30.056295, 261913.849310
  30.066989, 261945.159953
  30.077651, 261976.002654
  30.088249, 262006.295100
  30.098804, 262036.100150
  30.109400, 262065.655829
  30.120128, 262095.203023
  30.130776, 262124.163541
  30.141529, 262153.031287
  30.152224, 262181.367031
  30.162915, 262209.319676
  30.173601, 262236.888263
  30.184214, 262263.897017
  30.194871, 262290.646955
  30.205571, 262317.131620
  30.216229, 262343.140257
  30.226929, 262368.878219
  30.237666, 262394.328157
  30.248357, 262419.293334
  30.259095, 262443.991625
  30.269784, 262468.200712
  30.280534, 262492.172687
  30.291258, 262515.709428
  30.301982, 262538.868670
  30.312764, 262561.773316
  30.321915, 262580.913998
