Time, Vertical Forces
   0.000100,    0.000003
   0.000563,    0.000107
   0.002175,    0.001590
   0.007627,    0.019548
   0.018279,    0.112269
   0.043028,    0.621963
   0.074761,    1.877027
   0.106589,    3.814303
   0.138419,    6.430626
   0.170367,    9.738667
   0.202449,   13.747665
   0.234606,   18.456251
   0.266795,   23.860917
   0.298936,   29.947007
   0.331344,   36.780851
   0.364128,   44.405283
   0.396992,   52.766048
   0.430231,   61.952107
   0.463468,   71.871234
   0.497017,   82.626466
   0.530749,   94.192130
   0.564722,  106.601969
   0.598971,  119.885047
   0.633962,  134.255940
   0.668628,  149.290872
   0.703295,  165.117781
   0.738638,  182.068666
   0.773839,  199.768524
   0.809514,  218.537712
   0.845820,  238.496805
   0.882477,  259.525942
   0.919539,  281.682028
   0.956759,  304.837960
   0.994074,  328.961934
   1.031360,  353.975470
   1.069143,  380.248087
   1.107675,  407.999261
   1.146076,  436.617094
   1.184756,  466.412990
   1.224656,  498.166030
   1.264031,  530.513673
   1.304592,  564.886494
   1.345193,  600.358757
   1.385681,  636.793873
   1.427201,  675.256418
   1.468964,  715.066064
   1.511334,  756.601723
   1.553785,  799.374445
   1.596117,  843.180279
   1.639305,  889.056148
   1.682639,  936.289116
   1.726109,  984.876611
   1.769876, 1035.016136
   1.813591, 1086.316661
   1.857923, 1139.585643
   1.902586, 1194.517229
   1.948056, 1251.743076
   1.993212, 1309.873118
   2.039212, 1370.420024
   2.086002, 1433.378768
   2.132129, 1496.801179
   2.179480, 1563.304480
   2.226599, 1630.884041
   2.274107, 1700.435861
   2.322608, 1772.905253
   2.370983, 1846.658060
   2.419662, 1922.354051
   2.468385, 1999.603514
   2.517680, 2079.267551
   2.567397, 2161.151386
   2.617949, 2245.988280
   2.668443, 2332.315596
   2.719108, 2420.525240
   2.770340, 2511.340674
   2.821979, 2604.522398
   2.873739, 2699.577565
   2.925653, 2796.573863
   2.978478, 2896.977906
   3.031016, 2998.537786
   3.084059, 3102.795683
   3.137460, 3209.498200
   3.190999, 3318.227872
   3.244725, 3429.098793
   3.299622, 3544.204346
   3.353968, 3659.963946
   3.408985, 3778.979636
   3.464851, 3901.711733
   3.520715, 4026.330121
   3.577044, 4153.897600
   3.633149, 4282.862576
   3.690624, 4416.941749
   3.747547, 4551.691133
   3.804784, 4689.147379
   3.862238, 4829.096900
   3.919593, 4970.776746
   3.977980, 5117.022829
   4.036509, 5265.662827
   4.095383, 5417.237921
   4.154362, 5571.143156
   4.213627, 5727.873636
   4.225591, 5759.765534
   4.231550, 5775.681771
   4.235140, 5785.280144
   4.237473, 5791.521713
   4.245497, 5813.015236
   4.245545, 5813.143340
   4.245624, 5813.355582
   4.245657, 5813.445884
   4.245667, 5813.471556
   4.245672, 5813.483578
   4.245676, 5813.495817
   4.245722, 5813.618215
   4.246108, 5814.654429
   4.248483, 5821.024044
   4.257281, 5844.649325
   4.283310, 5914.806973
   4.334905, 6055.041104
   4.388402, 6202.078283
   4.442624, 6352.801200
   4.496760, 6504.980302
   4.551242, 6659.839211
   4.605903, 6816.926359
   4.660765, 6976.314752
   4.715778, 7137.872257
   4.771417, 7303.031140
   4.827290, 7470.661885
   4.883905, 7642.327565
   4.940491, 7815.725466
   4.997232, 7991.419278
   5.054250, 8169.801715
   5.111466, 8350.646788
   5.168656, 8533.248094
   5.226433, 8719.585577
   5.284476, 8908.664662
   5.342147, 9098.389463
   5.400677, 9292.838427
   5.458925, 9488.236957
   5.517536, 9686.747758
   5.576156, 9887.190748
   5.635518, 10092.099571
   5.694961, 10299.231441
   5.754496, 10508.622525
   5.814341, 10721.060231
   5.874378, 10936.141390
   5.934336, 11152.897042
   5.994787, 11373.407610
   6.055382, 11596.430714
   6.116305, 11822.658672
   6.177577, 12052.200035
   6.238877, 12283.860387
   6.300784, 12519.857607
   6.363159, 12759.710453
   6.425250, 13000.528507
   6.487380, 13243.547036
   6.550281, 13491.662731
   6.613184, 13741.878091
   6.676534, 13995.978721
   6.740024, 14252.754632
   6.803165, 14510.212382
   6.867067, 14772.897108
   6.930834, 15037.140255
   6.995340, 15306.601659
   7.059616, 15577.239710
   7.124514, 15852.662960
   7.189303, 16129.787414
   7.254312, 16410.018286
   7.319620, 16693.716359
   7.385219, 16980.871924
   7.451111, 17271.511269
   7.516637, 17562.722479
   7.582852, 17859.201326
   7.648821, 18156.778580
   7.715137, 18458.124806
   7.781862, 18763.552053
   7.848710, 19071.775891
   7.915549, 19382.185127
   7.983113, 19698.217635
   8.051030, 20018.178601
   8.118940, 20340.380936
   8.186825, 20664.736930
   8.254714, 20991.368137
   8.323430, 21324.277387
   8.392405, 21660.755797
   8.461157, 21998.446370
   8.530125, 22339.493491
   8.599211, 22683.431644
   8.668705, 23031.717080
   8.682592, 23101.592395
   8.690805, 23142.960787
   8.695537, 23166.814105
   8.699890, 23188.762924
   8.703292, 23205.921908
   8.706068, 23219.926991
   8.708076, 23230.060396
   8.710027, 23239.908079
   8.712253, 23251.146723
   8.712656, 23253.183507
   8.712758, 23253.701060
   8.712782, 23253.822139
   8.712795, 23253.886767
   8.712801, 23253.915185
   8.712808, 23253.949561
   8.712876, 23254.293326
   8.713557, 23257.731095
   8.718392, 23282.153258
   8.735729, 23369.812441
   8.795400, 23672.572495
   8.857640, 23990.101755
   8.919888, 24309.441723
   8.982560, 24632.731616
   9.045127, 24957.262348
   9.107881, 25284.531143
   9.170470, 25612.701762
   9.233838, 25946.749637
   9.297198, 26282.541505
   9.360602, 26620.352838
   9.423968, 26959.733010
   9.487829, 27303.562701
   9.551605, 27648.718526
   9.615567, 27996.667900
   9.679952, 28348.719067
   9.744304, 28702.383132
   9.808842, 29058.872863
   9.873501, 29417.822344
   9.938148, 29778.501639
  10.003079, 30142.558933
  10.068440, 30510.836843
  10.134092, 30882.576172
  10.199508, 31254.781444
  10.265284, 31630.854766
  10.331199, 32009.535283
  10.397235, 32390.724909
  10.463330, 32774.061167
  10.529581, 33160.121765
  10.596195, 33550.110613
  10.662914, 33942.534853
  10.729970, 34338.770353
  10.796962, 34736.452381
  10.863952, 35135.936573
  10.931306, 35539.413971
  10.999026, 35946.914743
  11.066634, 36355.568741
  11.134651, 36768.524036
  11.202549, 37182.578635
  11.270743, 37600.266419
  11.339155, 38021.128450
  11.407555, 38443.733829
  11.476041, 38868.696690
  11.544498, 39295.291575
  11.613515, 39727.200265
  11.682422, 40160.243123
  11.751561, 40596.558975
  11.820758, 41035.064172
  11.890236, 41477.168740
  11.959728, 41921.181178
  12.029462, 42368.558255
  12.099594, 42820.314905
  12.169840, 43274.637120
  12.240267, 43731.958597
  12.310696, 44191.113927
  12.381483, 44654.434224
  12.452094, 45118.411332
  12.523047, 45586.466115
  12.594051, 46056.671244
  12.665311, 46530.386694
  12.736830, 47007.649051
  12.808262, 47486.145700
  12.880237, 47970.099060
  12.952100, 48455.124030
  13.024065, 48942.644510
  13.096364, 49434.249146
  13.168726, 49928.089487
  13.241291, 50425.135728
  13.314175, 50926.180882
  13.386964, 51428.380918
  13.459845, 51933.022372
  13.474426, 52034.197554
  13.484159, 52101.775924
  13.514687, 52313.945676
  13.515287, 52318.117647
  13.515438, 52319.169015
  13.515681, 52320.853646
  13.515714, 52321.082485
  13.515732, 52321.212785
  13.515744, 52321.294381
  13.515755, 52321.369288
  13.515862, 52322.118362
  13.516805, 52328.672444
  13.521939, 52364.385566
  13.547688, 52543.628956
  13.611193, 52986.538411
  13.675096, 53433.441137
  13.739150, 53882.618731
  13.803268, 54333.446878
  13.867434, 54785.813741
  13.931586, 55239.287574
  13.995945, 55695.414825
  14.060451, 56153.775932
  14.125034, 56613.871344
  14.189756, 57076.137831
  14.254703, 57541.201505
  14.319783, 58008.401721
  14.385118, 58478.618808
  14.450605, 58951.104503
  14.515866, 59423.129514
  14.581550, 59899.388008
  14.647229, 60376.776943
  14.712979, 60855.843073
  14.779057, 61338.462116
  14.845199, 61822.701987
  14.911148, 62306.679150
  14.977270, 62793.064097
  15.043660, 63282.560480
  15.110304, 63775.077429
  15.177069, 64269.624049
  15.243949, 64766.154422
  15.310694, 65262.813923
  15.377691, 65762.472803
  15.444728, 66263.544666
  15.511905, 66766.775839
  15.579305, 67272.783669
  15.646876, 67781.194393
  15.714396, 68290.320026
  15.782218, 68802.822128
  15.849993, 69316.062406
  15.918091, 69832.837882
  15.986306, 70351.597683
  16.054407, 70870.568474
  16.122897, 71393.589221
  16.191331, 71917.249011
  16.259743, 72441.813864
  16.328243, 72968.105085
  16.396943, 73496.991664
  16.465782, 74027.995294
  16.534713, 74560.758182
  16.603872, 75096.330519
  16.673040, 75633.013067
  16.742434, 76172.482243
  16.811864, 76713.255736
  16.881573, 77257.235054
  16.951013, 77800.125564
  17.020725, 78346.164072
  17.090678, 78895.091270
  17.160676, 79445.374553
  17.230844, 79997.998882
  17.301083, 80552.178599
  17.371658, 81109.995365
  17.442018, 81667.104874
  17.512453, 82225.779807
  17.583229, 82788.133507
  17.654065, 83351.930558
  17.725022, 83917.654332
  17.796141, 84485.634077
  17.867328, 85055.104047
  17.938623, 85626.386399
  18.010105, 86200.113742
  18.081539, 86774.388651
  18.153278, 87352.051310
  18.225005, 87930.540532
  18.296936, 88511.598829
  18.369071, 89095.215943
  18.441217, 89679.843452
  18.513348, 90265.246219
  18.585732, 90853.595865
  18.658112, 91442.806866
  18.730787, 92035.316699
  18.803439, 92628.506617
  18.818024, 92747.698763
  18.828509, 92833.403290
  18.835714, 92892.315869
  18.842384, 92946.849093
  18.847961, 92992.457198
  18.848994, 93000.907210
  18.850175, 93010.567272
  18.850428, 93012.633357
  18.850678, 93014.678451
  18.850764, 93015.385553
  18.850797, 93015.655986
  18.850834, 93015.955625
  18.851200, 93018.952027
  18.854214, 93043.601092
  18.870526, 93177.042434
  18.931045, 93672.498603
  19.003471, 94266.213196
  19.076288, 94863.968276
  19.149273, 95463.937326
  19.222036, 96062.906228
  19.295059, 96664.838294
  19.368240, 97268.880675
  19.441642, 97875.568412
  19.515169, 98484.093795
  19.588577, 99092.430296
  19.662290, 99704.088816
  19.736163, 100317.853325
  19.809868, 100931.008482
  19.883680, 101545.825563
  19.957723, 102163.329972
  20.031827, 102782.104092
  20.106083, 103402.892608
  20.180476, 104025.585086
  20.255005, 104650.149821
  20.329509, 105275.245240
  20.404272, 105903.245219
  20.479145, 106532.887845
  20.553977, 107162.902857
  20.629021, 107795.409469
  20.704187, 108429.652252
  20.779423, 109065.172516
  20.854826, 109702.807278
  20.930414, 110342.679948
  21.006016, 110983.358167
  21.081806, 111626.298760
  21.157722, 112270.974278
  21.233619, 112916.146222
  21.309695, 113563.495265
  21.386047, 114213.830712
  21.462366, 114864.532834
  21.538800, 115516.845238
  21.615264, 116170.036449
  21.691979, 116825.995829
  21.768675, 117482.409322
  21.845458, 118140.159697
  21.922394, 118799.822004
  21.999406, 119460.730767
  22.076471, 120122.680377
  22.153695, 120786.562143
  22.231298, 121454.288735
  22.308798, 122121.680726
  22.386316, 122789.790475
  22.463976, 123459.671619
  22.541717, 124130.800710
  22.619838, 124805.743794
  22.697774, 125479.616335
  22.775989, 126156.424473
  22.781275, 126202.185083
  22.854265, 126834.276542
  22.932592, 129915.225745
  23.011104, 133178.119656
  23.089671, 136451.393225
  23.168688, 139734.248448
  23.247757, 143035.768447
  23.326843, 146342.445354
  23.406168, 149655.221465
  23.485656, 152980.312503
  23.565108, 156313.018498
  23.644881, 159650.549826
  23.724674, 163001.025735
  23.804475, 166354.428373
  23.884552, 169713.121260
  23.964416, 173079.992800
  24.044396, 176443.214087
  24.124445, 179812.329151
  24.204831, 183188.657153
  24.285085, 186574.939550
  24.365304, 189957.673100
  24.445603, 193341.039854
  24.525884, 196727.046277
  24.606149, 200112.535732
  24.686475, 203498.417207
  24.766695, 206884.737348
  24.847055, 210269.310691
  24.927300, 213655.747456
  24.943382, 216204.249860
  24.958277, 216862.922225
  24.963806, 217364.501617
  24.969337, 217595.470405
  24.970443, 217769.201853
  24.973628, 217842.302311
  24.973679, 217934.701591
  24.973750, 217937.078223
  24.973766, 217939.344496
  24.973771, 217939.859617
  24.973778, 217940.101023
  24.973820, 217940.828770
  24.974038, 217944.861216
  24.974897, 217962.258594
  24.977207, 218016.909569
  24.980974, 218132.202438
  24.986493, 218312.161704
  24.992019, 218542.639918
  24.997548, 218773.320134
  25.003090, 219004.233409
  25.008635, 219235.508556
  25.014182, 219466.858181
  25.019730, 219698.241416
  25.025283, 219929.698518
  25.030813, 220160.975238
  25.036345, 220391.553358
  25.041897, 220622.402240
  25.047457, 220853.911924
  25.053026, 221085.711615
  25.058597, 221317.755655
  25.064166, 221549.811463
  25.069746, 221781.895084
  25.075327, 222014.251450
  25.080901, 222246.509084
  25.086489, 222478.713980
  25.092082, 222711.346948
  25.097680, 222944.116520
  25.103281, 223177.024303
  25.108870, 223409.837806
  25.114473, 223642.419735
  25.120060, 223875.173809
  25.125675, 224107.771759
  25.131298, 224341.214582
  25.136924, 224574.879119
  25.142520, 224808.198024
  25.148154, 225041.090075
  25.153785, 225274.990340
  25.159405, 225508.612568
  25.165050, 225742.172510
  25.170696, 225976.410977
  25.176341, 226210.613250
  25.181995, 226444.854745
  25.187659, 226679.411613
  25.193326, 226914.225500
  25.198983, 227148.950540
  25.204650, 227383.470984
  25.210316, 227618.174805
  25.215973, 227852.698636
  25.221629, 228086.896868
  25.227325, 228321.489288
  25.233016, 228557.120315
  25.238720, 228792.709992
  25.244430, 229028.678120
  25.250120, 229264.490090
  25.255841, 229500.080742
  25.261560, 229736.454939
  25.267275, 229972.651150
  25.273010, 230208.933642
  25.278715, 230445.307378
  25.284435, 230680.983232
  25.290182, 230917.366468
  25.295934, 231154.484493
  25.301692, 231391.749904
  25.307422, 231628.748073
  25.313186, 231865.323390
  25.318964, 232102.986172
  25.324750, 232341.046876
  25.330546, 232579.395735
  25.336291, 232817.296002
  25.342090, 233054.386791
  25.347866, 233292.607307
  25.353671, 233530.492539
  25.359455, 233768.830857
  25.365279, 234007.013460
  25.371067, 234245.759013
  25.376885, 234483.819843
  25.382716, 234722.808746
  25.388553, 234962.169215
  25.394399, 235201.716825
  25.400261, 235441.637000
  25.406122, 235681.895725
  25.411970, 235921.882657
  25.417819, 236161.416106
  25.423710, 236401.434884
  25.429565, 236642.081930
  25.435456, 236882.103417
  25.441369, 237123.311951
  25.447279, 237364.994465
  25.453170, 237606.267236
  25.459077, 237847.114575
  25.464970, 238088.137480
  25.470897, 238329.098954
  25.476849, 238571.245015
  25.482770, 238813.584105
  25.488709, 239055.187958
  25.494590, 239296.452278
  25.500568, 239537.249224
  25.506503, 239780.094541
  25.512493, 239856.962873
  25.518476, 239933.683779
  25.524453, 240010.245718
  25.530448, 240086.979093
  25.536448, 240163.687571
  25.542450, 240240.367240
  25.548477, 240317.296538
  25.554526, 240394.422133
  25.560561, 240471.306796
  25.566593, 240548.081448
  25.572620, 240624.706042
  25.578660, 240701.445649
  25.584707, 240778.189112
  25.590790, 240855.309435
  25.596847, 240932.044924
  25.602949, 241009.260240
  25.609055, 241086.448702
  25.615151, 241163.447569
  25.621250, 241240.406728
  25.627341, 241317.189929
  25.633459, 241394.233842
  25.639585, 241471.296078
  25.645685, 241547.966822
  25.651819, 241624.979233
  25.657961, 241702.021914
  25.664089, 241778.809924
  25.670235, 241855.747306
  25.676382, 241932.615447
  25.682550, 242009.665130
  25.688725, 242086.732883
  25.694919, 242163.943726
  25.701099, 242240.910621
  25.707301, 242318.073111
  25.713498, 242395.092071
  25.719700, 242472.078056
  25.725937, 242549.431085
  25.732174, 242626.701073
  25.738405, 242703.812208
  25.744639, 242780.874241
  25.750865, 242857.756124
  25.757121, 242934.933141
  25.763345, 243011.626223
  25.769601, 243088.632461
  25.775877, 243165.794604
  25.782156, 243242.913950
  25.788488, 243320.599084
  25.794811, 243398.076295
  25.801123, 243475.342414
  25.807440, 243552.577255
  25.813764, 243629.824773
  25.820097, 243707.074874
  25.826475, 243784.796158
  25.832851, 243862.411427
  25.839212, 243939.737720
  25.845585, 244017.129972
  25.851949, 244094.324054
  25.858343, 244171.790997
  25.864735, 244249.150946
  25.871180, 244327.050693
  25.877627, 244404.878552
  25.884071, 244482.586158
  25.890498, 244559.987364
  25.896967, 244637.808536
  25.903447, 244715.665793
  25.909904, 244793.154666
  25.916359, 244870.517152
  25.922849, 244948.216122
  25.929391, 245026.428821
  25.935916, 245104.352599
  25.942437, 245182.121932
  25.948969, 245259.926252
  25.955533, 245338.017941
  25.962098, 245416.023429
  25.968667, 245493.976181
  25.975235, 245571.822115
  25.981782, 245649.311348
  25.988389, 245727.411293
  25.995015, 245805.642598
  26.001665, 245884.046127
  26.006503, 245941.021514
  26.008277, 245961.898149
  26.014923, 246040.058154
  26.021592, 246118.375729
  26.028254, 246196.508204
  26.034933, 246274.740863
  26.041614, 246352.892407
  26.048295, 246430.936376
  26.054948, 246508.536844
  26.061665, 246586.796478
  26.068346, 246664.518321
  26.075082, 246742.776839
  26.081831, 246821.074794
  26.088590, 246899.378269
  26.095335, 246977.416818
  26.102072, 247055.255963
  26.108800, 247132.874455
  26.115596, 247211.173200
  26.122392, 247289.353538
  26.129204, 247367.605332
  26.136029, 247445.895771
  26.142882, 247524.394680
  26.149722, 247602.634201
  26.156570, 247680.846929
  26.163419, 247758.963231
  26.170273, 247837.015147
  26.177139, 247915.093735
  26.184026, 247993.283921
  26.190935, 248071.614916
  26.197866, 248150.069881
  26.204818, 248228.657255
  26.211791, 248307.343288
  26.218749, 248385.752881
  26.225710, 248464.067851
  26.232725, 248542.874442
  26.239715, 248621.280625
  26.246750, 248700.057706
  26.253776, 248778.613733
  26.260792, 248856.940907
  26.267878, 248935.911880
  26.274956, 249014.670503
  26.282031, 249093.276769
  26.289122, 249171.927358
  26.296206, 249250.379021
  26.303329, 249329.131110
  26.310437, 249407.578934
  26.317615, 249486.675580
  26.324795, 249565.668220
  26.331937, 249644.096717
  26.339136, 249723.035438
  26.346285, 249801.289202
  26.353487, 249879.977482
  26.360674, 249958.384461
  26.367879, 250036.848766
  26.375088, 250115.216137
  26.382363, 250194.170448
  26.389652, 250273.130560
  26.396942, 250351.967549
  26.404243, 250430.779027
  26.411548, 250509.507614
  26.418861, 250588.166630
  26.426248, 250667.484552
  26.433621, 250746.519262
  26.440985, 250825.296842
  26.448367, 250904.130017
  26.455759, 250982.934409
  26.463154, 251061.611888
  26.470614, 251140.842490
  26.478027, 251219.427078
  26.485477, 251298.253914
  26.492874, 251376.366214
  26.500353, 251455.205176
  26.507857, 251534.151210
  26.515318, 251612.493876
  26.522833, 251691.257919
  26.530395, 251770.353050
  26.537931, 251849.024345
  26.545512, 251928.011413
  26.553075, 252006.655928
  26.560615, 252084.906408
  26.568226, 252163.732356
  26.575857, 252242.616297
  26.583504, 252321.497456
  26.591158, 252400.294156
  26.598834, 252479.154225
  26.606517, 252557.918086
  26.614183, 252636.351967
  26.621886, 252715.000094
  26.629611, 252793.708444
  26.637341, 252872.302847
  26.645092, 252950.942186
  26.652843, 253029.422975
  26.660628, 253108.067228
  26.668446, 253186.881670
  26.676289, 253265.771865
  26.684116, 253344.332126
  26.691922, 253422.513678
  26.699805, 253501.283321
  26.707679, 253579.799873
  26.715604, 253658.636090
  26.723495, 253736.967300
  26.731452, 253815.776144
  26.739378, 253894.092846
  26.747321, 253972.398644
  26.755316, 254051.036270
  26.763287, 254129.256350
  26.771283, 254207.543622
  26.779297, 254285.823198
  26.787288, 254363.688024
  26.795345, 254442.022883
  26.803403, 254520.165615
  26.811502, 254598.528171
  26.819560, 254676.303879
  26.827633, 254754.032041
  26.835749, 254831.983999
  26.843893, 254910.020416
  26.852015, 254987.647566
  26.860154, 255065.247356
  26.868348, 255143.174164
  26.876520, 255220.695794
  26.884724, 255298.332156
  26.892972, 255376.180416
  26.901181, 255453.462688
  26.909478, 255531.369360
  26.917707, 255608.437639
  26.926005, 255685.951924
  26.934340, 255763.609194
  26.942654, 255840.869391
  26.950998, 255918.196548
  26.959284, 255994.779561
  26.967656, 256071.946966
  26.975997, 256148.628825
  26.984426, 256225.908178
  26.992852, 256302.948482
  27.001310, 256380.062247
  27.009727, 256456.597236
  27.018162, 256533.073314
  27.026603, 256609.392692
  27.035088, 256685.891196
  27.043563, 256762.089538
  27.052080, 256838.446759
  27.060581, 256914.433426
  27.069078, 256990.174244
  27.077600, 257065.909559
  27.086191, 257142.038133
  27.094742, 257217.589697
  27.103367, 257293.568455
  27.111930, 257368.778984
  27.120514, 257443.943908
  27.129235, 257520.084491
  27.137848, 257595.048709
  27.146549, 257670.543335
  27.155177, 257745.177191
  27.163902, 257820.419439
  27.172637, 257895.510805
  27.181390, 257970.521903
  27.190155, 258045.392810
  27.198901, 258119.866243
  27.207731, 258194.818107
  27.216571, 258269.603629
  27.225358, 258343.703477
  27.234210, 258418.112683
  27.243098, 258492.571315
  27.251911, 258566.157809
  27.260819, 258640.298514
  27.269756, 258714.422027
  27.278648, 258787.927990
  27.287564, 258861.373486
  27.296494, 258934.689196
  27.305481, 259008.222649
  27.314430, 259081.187155
  27.323421, 259154.236608
  27.332486, 259227.626118
  27.341551, 259300.762633
  27.350565, 259373.220683
  27.359573, 259445.383080
  27.368695, 259518.186002
  27.377764, 259590.305115
  27.386823, 259662.077684
  27.395943, 259734.067877
  27.405158, 259806.548203
  27.414228, 259877.612290
  27.423413, 259949.306876
  27.432576, 260020.564942
  27.441762, 260091.727783
  27.450977, 260162.838352
  27.460195, 260233.700931
  27.469485, 260304.839764
  27.478729, 260375.345283
  27.488004, 260445.808757
  27.497328, 260516.366945
  27.506695, 260586.959801
  27.515993, 260656.753554
  27.525303, 260726.354825
  27.534606, 260795.617599
  27.543996, 260865.241972
  27.553278, 260933.783139
  27.562753, 261003.458305
  27.572186, 261072.528870
  27.581532, 261140.676629
  27.590965, 261209.167895
  27.600435, 261277.630991
  27.609872, 261345.561793
  27.619349, 261413.482192
  27.628694, 261480.165708
  27.638105, 261547.029953
  27.647565, 261613.949958
  27.657105, 261681.129589
  27.666633, 261747.921833
  27.676212, 261814.766758
  27.685832, 261881.594084
  27.695400, 261947.747492
  27.704920, 262013.271116
  27.714451, 262078.561723
  27.724032, 262143.896208
  27.733619, 262208.954206
  27.743324, 262274.504022
  27.752970, 262339.340159
  27.762610, 262403.828424
  27.772286, 262468.235618
  27.782008, 262532.632523
  27.791758, 262596.893894
  27.801448, 262660.444123
  27.811173, 262723.906916
  27.820906, 262787.091344
  27.830604, 262849.739529
  27.840231, 262911.607008
  27.849979, 262973.933088
  27.859813, 263036.481312
  27.869515, 263097.863629
  27.879334, 263159.662122
  27.889180, 263221.301778
  27.899027, 263282.618848
  27.908879, 263343.631812
  27.918720, 263404.240224
  27.928512, 263464.221375
  27.938422, 263524.593665
  27.948180, 263583.706735
  27.958150, 263643.766491
  27.967957, 263702.510276
  27.977892, 263761.682833
  27.987757, 263820.099645
  27.997642, 263878.302957
  28.007532, 263936.195362
  28.017459, 263993.964313
  28.027435, 264051.673575
  28.037411, 264109.034797
  28.047290, 264165.505862
  28.057309, 264222.427020
  28.067381, 264279.296796
  28.077390, 264335.458803
  28.087479, 264391.721029
  28.097518, 264447.348504
  28.107611, 264502.924348
  28.117705, 264558.152425
  28.127713, 264612.549549
  28.137753, 264666.778147
  28.147813, 264720.756769
  28.157759, 264773.773584
  28.167934, 264827.652789
  28.178073, 264880.978511
  28.188128, 264933.508923
  28.198201, 264985.777945
  28.208409, 265038.381388
  28.218600, 265090.528907
  28.228826, 265142.487914
  28.238957, 265193.603277
  28.249085, 265244.338212
  28.259278, 265295.033407
  28.269521, 265345.609257
  28.279716, 265395.577039
  28.290024, 265445.727042
  28.300347, 265495.571188
  28.310610, 265544.749782
  28.320958, 265593.958728
  28.331278, 265642.656172
  28.341431, 265690.196461
  28.351677, 265737.796847
  28.361961, 265785.201214
  28.372305, 265832.500254
  28.382583, 265879.118161
  28.392910, 265925.580606
  28.403171, 265971.367736
  28.413521, 266017.174911
  28.423829, 266062.411317
  28.434333, 266108.115525
  28.444671, 266152.713589
  28.455023, 266196.991696
  28.465499, 266241.406037
  28.475937, 266285.265827
  28.486289, 266328.380835
  28.496710, 266371.391806
  28.507080, 266413.806988
  28.517450, 266455.834066
  28.527905, 266497.813879
  28.538217, 266538.835107
  28.548738, 266580.290817
  28.559140, 266620.886614
  28.569678, 266661.612600
  28.579450, 266699.022228
