Time, Vertical Forces
   0.000100,    0.000000
   0.000563,    0.000000
   0.002175,    0.000000
   0.007627,    0.000000
   0.018279,    0.000000
   0.043028,    0.000000
   0.074761,    0.000000
   0.106589,    0.000000
   0.138419,    0.000000
   0.170367,    0.000000
   0.202449,    0.000000
   0.234606,    0.000000
   0.266795,    0.000000
   0.298936,    0.000000
   0.331344,    0.000000
   0.364128,    0.000000
   0.396992,    0.000000
   0.430231,    0.000000
   0.463468,    0.000000
   0.497017,    0.000000
   0.530749,    0.000000
   0.564722,    0.000000
   0.598971,    0.000000
   0.633962,    0.000000
   0.668628,    0.000000
   0.703295,    0.000000
   0.738638,    0.000000
   0.773839,    0.000000
   0.809514,    0.000000
   0.845820,    0.000000
   0.882477,    0.000000
   0.919539,    0.000000
   0.956759,    0.000000
   0.994074,    0.000000
   1.031360,    0.000000
   1.069143,    0.000000
   1.107675,    0.000000
   1.146076,    0.000000
   1.184756,    0.000000
   1.224656,    0.000000
   1.264031,    0.000000
   1.304592,    0.000000
   1.345193,    0.000000
   1.385681,    0.000000
   1.427201,    0.000000
   1.468964,    0.000000
   1.511334,    0.000000
   1.553785,    0.000000
   1.596117,    0.000000
   1.639305,    0.000000
   1.682639,    0.000000
   1.726109,    0.000000
   1.769876,    0.000000
   1.813591,    0.000000
   1.857923,    0.000000
   1.902586,    0.000000
   1.948056,    0.000000
   1.993212,    0.000000
   2.039212,    0.000000
   2.086002,    0.000000
   2.132129,    0.000000
   2.179480,    0.000000
   2.226599,    0.000000
   2.274107,    0.000000
   2.322608,    0.000000
   2.370983,    0.000000
   2.419662,    0.000000
   2.468385,    0.000000
   2.517680,    0.000000
   2.567397,    0.000000
   2.617949,    0.000000
   2.668443,    0.000000
   2.719108,    0.000000
   2.770340,    0.000000
   2.821979,    0.000000
   2.873739,    0.000000
   2.925653,    0.000000
   2.978478,    0.000000
   3.031016,    0.000000
   3.084059,    0.000000
   3.137460,    0.000000
   3.190999,    0.000000
   3.244725,    0.000000
   3.299622,    0.000000
   3.353968,    0.000000
   3.408985,    0.000000
   3.464851,    0.000000
   3.520715,    0.000000
   3.577044,    0.000000
   3.633149,    0.000000
   3.690624,    0.000000
   3.747547,    0.000000
   3.804784,    0.000000
   3.862238,    0.000000
   3.919593,    0.000000
   3.977980,    0.000000
   4.036509,    0.000000
   4.095383,    0.000000
   4.154362,    0.000000
   4.213627,    0.000000
   4.225591,    0.000000
   4.231550,    0.000000
   4.235140,    0.000000
   4.237473,    0.000000
   4.245497,    0.000000
   4.245545,    0.000000
   4.245624,    0.000000
   4.245657,    0.000000
   4.245667,    0.000000
   4.245672,    0.000000
   4.245676,    0.000000
   4.245722,    0.000000
   4.246108,    0.000000
   4.248483,    0.000000
   4.257281,    0.000000
   4.283310,    0.000000
   4.334905,    0.000000
   4.388402,    0.000000
   4.442624,    0.000000
   4.496760,    0.000000
   4.551242,    0.000000
   4.605903,    0.000000
   4.660765,    0.000000
   4.715778,    0.000000
   4.771417,    0.000000
   4.827290,    0.000000
   4.883905,    0.000000
   4.940491,    0.000000
   4.997232,    0.000000
   5.054250,    0.000000
   5.111466,    0.000000
   5.168656,    0.000000
   5.226433,    0.000000
   5.284476,    0.000000
   5.342147,    0.000000
   5.400677,    0.000000
   5.458925,    0.000000
   5.517536,    0.000000
   5.576156,    0.000000
   5.635518,    0.000000
   5.694961,    0.000000
   5.754496,    0.000000
   5.814341,    0.000000
   5.874378,    0.000000
   5.934336,    0.000000
   5.994787,    0.000000
   6.055382,    0.000000
   6.116305,    0.000000
   6.177577,    0.000000
   6.238877,    0.000000
   6.300784,    0.000000
   6.363159,    0.000000
   6.425250,    0.000000
   6.487380,    0.000000
   6.550281,    0.000000
   6.613184,    0.000000
   6.676534,    0.000000
   6.740024,    0.000000
   6.803165,    0.000000
   6.867067,    0.000000
   6.930834,    0.000000
   6.995340,    0.000000
   7.059616,    0.000000
   7.124514,    0.000000
   7.189303,    0.000000
   7.254312,    0.000000
   7.319620,    0.000000
   7.385219,    0.000000
   7.451111,    0.000000
   7.516637,    0.000000
   7.582852,    0.000000
   7.648821,    0.000000
   7.715137,    0.000000
   7.781862,    0.000000
   7.848710,    0.000000
   7.915549,    0.000000
   7.983113,    0.000000
   8.051030,    0.000000
   8.118940,    0.000000
   8.186825,    0.000000
   8.254714,    0.000000
   8.323430,    0.000000
   8.392405,    0.000000
   8.461157,    0.000000
   8.530125,    0.000000
   8.599211,    0.000000
   8.668705,    0.000000
   8.682592,    0.000000
   8.690805,    0.000000
   8.695537,    0.000000
   8.699890,    0.000000
   8.703292,    0.000000
   8.706068,    0.000000
   8.708076,    0.000000
   8.710027,    0.000000
   8.712253,    0.000000
   8.712656,    0.000000
   8.712758,    0.000000
   8.712782,    0.000000
   8.712795,    0.000000
   8.712801,    0.000000
   8.712808,    0.000000
   8.712876,    0.000000
   8.713557,    0.000000
   8.718392,    0.000000
   8.735729,    0.000000
   8.795400,    0.000000
   8.857640,    0.000000
   8.919888,    0.000000
   8.982560,    0.000000
   9.045127,    0.000000
   9.107881,    0.000000
   9.170470,    0.000000
   9.233838,    0.000000
   9.297198,    0.000000
   9.360602,    0.000000
   9.423968,    0.000000
   9.487829,    0.000000
   9.551605,    0.000000
   9.615567,    0.000000
   9.679952,    0.000000
   9.744304,    0.000000
   9.808842,    0.000000
   9.873501,    0.000000
   9.938148,    0.000000
  10.003079,    0.000000
  10.068440,    0.000000
  10.134092,    0.000000
  10.199508,    0.000000
  10.265284,    0.000000
  10.331199,    0.000000
  10.397235,    0.000000
  10.463330,    0.000000
  10.529581,    0.000000
  10.596195,    0.000000
  10.662914,    0.000000
  10.729970,    0.000000
  10.796962,    0.000000
  10.863952,    0.000000
  10.931306,    0.000000
  10.999026,    0.000000
  11.066634,    0.000000
  11.134651,    0.000000
  11.202549,    0.000000
  11.270743,    0.000000
  11.339155,    0.000000
  11.407555,    0.000000
  11.476041,    0.000000
  11.544498,    0.000000
  11.613515,    0.000000
  11.682422,    0.000000
  11.751561,    0.000000
  11.820758,    0.000000
  11.890236,    0.000000
  11.959728,    0.000000
  12.029462,    0.000000
  12.099594,    0.000000
  12.169840,    0.000000
  12.240267,    0.000000
  12.310696,    0.000000
  12.381483,    0.000000
  12.452094,    0.000000
  12.523047,    0.000000
  12.594051,    0.000000
  12.665311,    0.000000
  12.736830,    0.000000
  12.808262,    0.000000
  12.880237,    0.000000
  12.952100,    0.000000
  13.024065,    0.000000
  13.096364,    0.000000
  13.168726,    0.000000
  13.241291,    0.000000
  13.314175,    0.000000
  13.386964,    0.000000
  13.459845,    0.000000
  13.474426,    0.000000
  13.484159,    0.000000
  13.514687,    0.000000
  13.515287,    0.000000
  13.515438,    0.000000
  13.515681,    0.000000
  13.515714,    0.000000
  13.515732,    0.000000
  13.515744,    0.000000
  13.515755,    0.000000
  13.515862,    0.000000
  13.516805,    0.000000
  13.521939,    0.000000
  13.547688,    0.000000
  13.611193,    0.000000
  13.675096,    0.000000
  13.739150,    0.000000
  13.803268,    0.000000
  13.867434,    0.000000
  13.931586,    0.000000
  13.995945,    0.000000
  14.060451,    0.000000
  14.125034,    0.000000
  14.189756,    0.000000
  14.254703,    0.000000
  14.319783,    0.000000
  14.385118,    0.000000
  14.450605,    0.000000
  14.515866,    0.000000
  14.581550,    0.000000
  14.647229,    0.000000
  14.712979,    0.000000
  14.779057,    0.000000
  14.845199,    0.000000
  14.911148,    0.000000
  14.977270,    0.000000
  15.043660,    0.000000
  15.110304,    0.000000
  15.177069,    0.000000
  15.243949,    0.000000
  15.310694,    0.000000
  15.377691,    0.000000
  15.444728,    0.000000
  15.511905,    0.000000
  15.579305,    0.000000
  15.646876,    0.000000
  15.714396,    0.000000
  15.782218,    0.000000
  15.849993,    0.000000
  15.918091,    0.000000
  15.986306,    0.000000
  16.054407,    0.000000
  16.122897,    0.000000
  16.191331,    0.000000
  16.259743,    0.000000
  16.328243,    0.000000
  16.396943,    0.000000
  16.465782,    0.000000
  16.534713,    0.000000
  16.603872,    0.000000
  16.673040,    0.000000
  16.742434,    0.000000
  16.811864,    0.000000
  16.881573,    0.000000
  16.951013,    0.000000
  17.020725,    0.000000
  17.090678,    0.000000
  17.160676,    0.000000
  17.230844,    0.000000
  17.301083,    0.000000
  17.371658,    0.000000
  17.442018,    0.000000
  17.512453,    0.000000
  17.583229,    0.000000
  17.654065,    0.000000
  17.725022,    0.000000
  17.796141,    0.000000
  17.867328,    0.000000
  17.938623,    0.000000
  18.010105,    0.000000
  18.081539,    0.000000
  18.153278,    0.000000
  18.225005,    0.000000
  18.296936,    0.000000
  18.369071,    0.000000
  18.441217,    0.000000
  18.513348,    0.000000
  18.585732,    0.000000
  18.658112,    0.000000
  18.730787,    0.000000
  18.803439,    0.000000
  18.818024,    0.000000
  18.828509,    0.000000
  18.835714,    0.000000
  18.842384,    0.000000
  18.847961,    0.000000
  18.848994,    0.000000
  18.850175,    0.000000
  18.850428,    0.000000
  18.850678,    0.000000
  18.850764,    0.000000
  18.850797,    0.000000
  18.850834,    0.000000
  18.851200,    0.000000
  18.854214,    0.000000
  18.870526,    0.000000
  18.931045,    0.000000
  19.003471,    0.000000
  19.076288,    0.000000
  19.149273,    0.000000
  19.222036,    0.000000
  19.295059,    0.000000
  19.368240,    0.000000
  19.441642,    0.000000
  19.515169,    0.000000
  19.588577,    0.000000
  19.662290,    0.000000
  19.736163,    0.000000
  19.809868,    0.000000
  19.883680,    0.000000
  19.957723,    0.000000
  20.031827,    0.000000
  20.106083,    0.000000
  20.180476,    0.000000
  20.255005,    0.000000
  20.329509,    0.000000
  20.404272,    0.000000
  20.479145,    0.000000
  20.553977,    0.000000
  20.629021,    0.000000
  20.704187,    0.000000
  20.779423,    0.000000
  20.854826,    0.000000
  20.930414,    0.000000
  21.006016,    0.000000
  21.081806,    0.000000
  21.157722,    0.000000
  21.233619,    0.000000
  21.309695,    0.000000
  21.386047,    0.000000
  21.462366,    0.000000
  21.538800,    0.000000
  21.615264,    0.000000
  21.691979,    0.000000
  21.768675,    0.000000
  21.845458,    0.000000
  21.922394,    0.000000
  21.999406,    0.000000
  22.076471,    0.000000
  22.153695,    0.000000
  22.231298,    0.000000
  22.308798,    0.000000
  22.386316,    0.000000
  22.463976,    0.000000
  22.541717,    0.000000
  22.619838,    0.000000
  22.697774,    0.000000
  22.775989,    0.000000
  22.781275,    0.000000
  22.854265,    0.000000
  22.932592,  188.711008
  23.011104,  388.901434
  23.089671,  587.110324
  23.168688,  783.015102
  23.247757,  977.619767
  23.326843, 1169.933840
  23.406168, 1359.885886
  23.485656, 1548.035568
  23.565108, 1734.209147
  23.644881, 1917.940978
  23.724674, 2100.094332
  23.804475, 2279.977728
  23.884552, 2457.578693
  23.964416, 2633.540987
  24.044396, 2806.768705
  24.124445, 2978.027001
  24.204831, 3147.210630
  24.285085, 3314.942023
  24.365304, 3480.222583
  24.445603, 3643.277564
  24.525884, 3804.383258
  24.606149, 3963.353586
  24.686475, 4120.215269
  24.766695, 4275.157774
  24.847055, 4427.851642
  24.927300, 4578.830367
  24.943382, 4732.883241
  24.958277, 4762.474897
  24.963806, 4790.503458
  24.969337, 4800.599257
  24.970443, 4811.056353
  24.973628, 4812.901366
  24.973679, 4818.966498
  24.973750, 4819.056284
  24.973766, 4819.191732
  24.973771, 4819.220612
  24.973778, 4819.230675
  24.973820, 4819.239512
  24.974038, 4819.303108
  24.974897, 4819.652170
  24.977207, 4821.112462
  24.980974, 4825.222616
  24.986493, 4831.972206
  24.992019, 4842.049152
  24.997548, 4852.129481
  25.003090, 4862.207112
  25.008635, 4872.299370
  25.014182, 4882.388389
  25.019730, 4892.472029
  25.025283, 4902.548904
  25.030813, 4912.629567
  25.036345, 4922.656779
  25.041897, 4932.676124
  25.047457, 4942.725718
  25.053026, 4952.780216
  25.058597, 4962.841975
  25.064166, 4972.900588
  25.069746, 4982.945265
  25.075327, 4993.000751
  25.080901, 5003.050241
  25.086489, 5013.076849
  25.092082, 5023.121630
  25.097680, 5033.165408
  25.103281, 5043.208364
  25.108870, 5053.251811
  25.114473, 5063.260324
  25.120060, 5073.289695
  25.125675, 5083.277499
  25.131298, 5093.307656
  25.136924, 5103.343394
  25.142520, 5113.379569
  25.148154, 5123.346924
  25.153785, 5133.377037
  25.159405, 5143.394704
  25.165050, 5153.379589
  25.170696, 5163.402592
  25.176341, 5173.418627
  25.181995, 5183.424041
  25.187659, 5193.435957
  25.193326, 5203.456653
  25.198983, 5213.475031
  25.204650, 5223.467008
  25.210316, 5233.466486
  25.215973, 5243.456848
  25.221629, 5253.423871
  25.227325, 5263.373657
  25.233016, 5273.390832
  25.238720, 5283.388676
  25.244430, 5293.400977
  25.250120, 5303.416794
  25.255841, 5313.385018
  25.261560, 5323.401630
  25.267275, 5333.405313
  25.273010, 5343.392525
  25.278715, 5353.408255
  25.284435, 5363.360368
  25.290182, 5373.329718
  25.295934, 5383.337750
  25.301692, 5393.345332
  25.307422, 5403.357783
  25.313186, 5413.306533
  25.318964, 5423.309411
  25.324750, 5433.326262
  25.330546, 5443.348486
  25.336291, 5453.384134
  25.342090, 5463.315190
  25.347866, 5473.335404
  25.353671, 5483.304251
  25.359455, 5493.317385
  25.365279, 5503.281112
  25.371067, 5513.309411
  25.376885, 5523.263115
  25.382716, 5533.260284
  25.388553, 5543.272836
  25.394399, 5553.285469
  25.400261, 5563.304610
  25.406122, 5573.342359
  25.411970, 5583.371726
  25.417819, 5593.367828
  25.423710, 5603.353558
  25.429565, 5613.408632
  25.435456, 5623.388114
  25.441369, 5633.420990
  25.447279, 5643.483230
  25.453170, 5653.533946
  25.459077, 5663.539760
  25.464970, 5673.567181
  25.470897, 5683.556751
  25.476849, 5693.596657
  25.482770, 5703.674243
  25.488709, 5713.686100
  25.494590, 5723.725997
  25.500568, 5733.646185
  25.506503, 5743.733287
  25.512493, 5743.229589
  25.518476, 5742.726931
  25.524453, 5742.225391
  25.530448, 5741.722802
  25.536448, 5741.220451
  25.542450, 5740.718363
  25.548477, 5740.214716
  25.554526, 5739.709860
  25.560561, 5739.206655
  25.566593, 5738.704246
  25.572620, 5738.202893
  25.578660, 5737.700862
  25.584707, 5737.198880
  25.590790, 5736.694508
  25.596847, 5736.192727
  25.602949, 5735.687884
  25.609055, 5735.183291
  25.615151, 5734.680013
  25.621250, 5734.177068
  25.627341, 5733.675348
  25.633459, 5733.171999
  25.639585, 5732.668604
  25.645685, 5732.167841
  25.651819, 5731.664920
  25.657961, 5731.161876
  25.664089, 5730.660568
  25.670235, 5730.158359
  25.676382, 5729.656676
  25.682550, 5729.153882
  25.688725, 5728.651045
  25.694919, 5728.147347
  25.701099, 5727.645315
  25.707301, 5727.142081
  25.713498, 5726.639857
  25.719700, 5726.137921
  25.725937, 5725.633666
  25.732174, 5725.130027
  25.738405, 5724.627496
  25.744639, 5724.125359
  25.750865, 5723.624468
  25.757121, 5723.121729
  25.763345, 5722.622214
  25.769601, 5722.120733
  25.775877, 5721.618309
  25.782156, 5721.116237
  25.788488, 5720.610556
  25.794811, 5720.106301
  25.801123, 5719.603494
  25.807440, 5719.100963
  25.813764, 5718.598423
  25.820097, 5718.095939
  25.826475, 5717.590463
  25.832851, 5717.085751
  25.839212, 5716.582990
  25.845585, 5716.079874
  25.851949, 5715.578118
  25.858343, 5715.074661
  25.864735, 5714.571973
  25.871180, 5714.065850
  25.877627, 5713.560267
  25.884071, 5713.055539
  25.890498, 5712.552873
  25.896967, 5712.047553
  25.903447, 5711.542072
  25.909904, 5711.039055
  25.916359, 5710.536930
  25.922849, 5710.032694
  25.929391, 5709.525197
  25.935916, 5709.019647
  25.942437, 5708.515172
  25.948969, 5708.010543
  25.955533, 5707.504122
  25.962098, 5706.998334
  25.968667, 5706.492959
  25.975235, 5705.988350
  25.981782, 5705.486124
  25.988389, 5704.980012
  25.995015, 5704.473122
  26.001665, 5703.965188
  26.006503, 5703.596121
  26.008277, 5703.460900
  26.014923, 5702.954688
  26.021592, 5702.447529
  26.028254, 5701.941640
  26.034933, 5701.435175
  26.041614, 5700.929307
  26.048295, 5700.424207
  26.054948, 5699.922048
  26.061665, 5699.415695
  26.068346, 5698.912893
  26.075082, 5698.406690
  26.081831, 5697.900304
  26.088590, 5697.393954
  26.095335, 5696.889388
  26.102072, 5696.386183
  26.108800, 5695.884473
  26.115596, 5695.378438
  26.122392, 5694.873239
  26.129204, 5694.367649
  26.136029, 5693.861881
  26.142882, 5693.354837
  26.149722, 5692.849539
  26.156570, 5692.344485
  26.163419, 5691.840123
  26.170273, 5691.336248
  26.177139, 5690.832270
  26.184026, 5690.327643
  26.190935, 5689.822176
  26.197866, 5689.315980
  26.204818, 5688.809001
  26.211791, 5688.301455
  26.218749, 5687.795763
  26.225710, 5687.290750
  26.232725, 5686.782638
  26.239715, 5686.277178
  26.246750, 5685.769397
  26.253776, 5685.263110
  26.260792, 5684.758368
  26.267878, 5684.249547
  26.274956, 5683.742164
  26.282031, 5683.235833
  26.289122, 5682.729285
  26.296206, 5682.224088
  26.303329, 5681.717025
  26.310437, 5681.211991
  26.317615, 5680.702849
  26.324795, 5680.194446
  26.331937, 5679.689743
  26.339136, 5679.181825
  26.346285, 5678.678383
  26.353487, 5678.172214
  26.360674, 5677.667922
  26.367879, 5677.163330
  26.375088, 5676.659428
  26.382363, 5676.151821
  26.389652, 5675.644246
  26.396942, 5675.137530
  26.404243, 5674.631046
  26.411548, 5674.125162
  26.418861, 5673.619793
  26.426248, 5673.110259
  26.433621, 5672.602613
  26.440985, 5672.096685
  26.448367, 5671.590468
  26.455759, 5671.084502
  26.463154, 5670.579419
  26.470614, 5670.070852
  26.478027, 5669.566498
  26.485477, 5669.060657
  26.492874, 5668.559466
  26.500353, 5668.053679
  26.507857, 5667.547271
  26.515318, 5667.044800
  26.522833, 5666.539691
  26.530395, 5666.032526
  26.537931, 5665.528144
  26.545512, 5665.021803
  26.553075, 5664.517724
  26.560615, 5664.016235
  26.568226, 5663.511123
  26.575857, 5663.005704
  26.583504, 5662.500369
  26.591158, 5661.995639
  26.598834, 5661.490568
  26.606517, 5660.986178
  26.614183, 5660.483965
  26.621886, 5659.980444
  26.629611, 5659.476601
  26.637341, 5658.973552
  26.645092, 5658.470278
  26.652843, 5657.968082
  26.660628, 5657.464904
  26.668446, 5656.960699
  26.676289, 5656.456074
  26.684116, 5655.953622
  26.691922, 5655.453653
  26.699805, 5654.949987
  26.707679, 5654.448001
  26.715604, 5653.944033
  26.723495, 5653.443356
  26.731452, 5652.939687
  26.739378, 5652.439225
  26.747321, 5651.938894
  26.755316, 5651.436503
  26.763287, 5650.936841
  26.771283, 5650.436810
  26.779297, 5649.936888
  26.787288, 5649.439675
  26.795345, 5648.939520
  26.803403, 5648.440651
  26.811502, 5647.940438
  26.819560, 5647.444031
  26.827633, 5646.947985
  26.835749, 5646.450569
  26.843893, 5645.952672
  26.852015, 5645.457445
  26.860154, 5644.962449
  26.868348, 5644.465425
  26.876520, 5643.971042
  26.884724, 5643.475985
  26.892972, 5642.979633
  26.901181, 5642.486946
  26.909478, 5641.990334
  26.917707, 5641.499123
  26.926005, 5641.005124
  26.934340, 5640.510269
  26.942654, 5640.018000
  26.950998, 5639.525358
  26.959284, 5639.037512
  26.967656, 5638.545996
  26.975997, 5638.057627
  26.984426, 5637.565506
  26.992852, 5637.074960
  27.001310, 5636.584000
  27.009727, 5636.096777
  27.018162, 5635.609980
  27.026603, 5635.124233
  27.035088, 5634.637396
  27.043563, 5634.152521
  27.052080, 5633.666685
  27.060581, 5633.183257
  27.069078, 5632.701443
  27.077600, 5632.219712
  27.086191, 5631.735529
  27.094742, 5631.255065
  27.103367, 5630.771933
  27.111930, 5630.293733
  27.120514, 5629.815870
  27.129235, 5629.331852
  27.137848, 5628.855359
  27.146549, 5628.375541
  27.155177, 5627.901239
  27.163902, 5627.423117
  27.172637, 5626.945999
  27.181390, 5626.469435
  27.190155, 5625.993807
  27.198901, 5625.520748
  27.207731, 5625.044694
  27.216571, 5624.569739
  27.225358, 5624.099182
  27.234210, 5623.626703
  27.243098, 5623.153952
  27.251911, 5622.686780
  27.260819, 5622.216130
  27.269756, 5621.745630
  27.278648, 5621.279090
  27.287564, 5620.812973
  27.296494, 5620.347719
  27.305481, 5619.881122
  27.314430, 5619.418174
  27.323421, 5618.954724
  27.332486, 5618.489154
  27.341551, 5618.025226
  27.350565, 5617.565638
  27.359573, 5617.107960
  27.368695, 5616.646256
  27.377764, 5616.188923
  27.386823, 5615.733821
  27.395943, 5615.277374
  27.405158, 5614.817852
  27.414228, 5614.367341
  27.423413, 5613.912866
  27.432576, 5613.461189
  27.441762, 5613.010146
  27.450977, 5612.559465
  27.460195, 5612.110386
  27.469485, 5611.659586
  27.478729, 5611.212828
  27.488004, 5610.766364
  27.497328, 5610.319328
  27.506695, 5609.872100
  27.515993, 5609.429961
  27.525303, 5608.989067
  27.534606, 5608.550342
  27.543996, 5608.109351
  27.553278, 5607.675245
  27.562753, 5607.233981
  27.572186, 5606.796568
  27.581532, 5606.365022
  27.590965, 5605.931321
  27.600435, 5605.497820
  27.609872, 5605.067710
  27.619349, 5604.637685
  27.628694, 5604.215510
  27.638105, 5603.792208
  27.647565, 5603.368571
  27.657105, 5602.943307
  27.666633, 5602.520512
  27.676212, 5602.097399
  27.685832, 5601.674412
  27.695400, 5601.255706
  27.704920, 5600.840999
  27.714451, 5600.427779
  27.724032, 5600.014294
  27.733619, 5599.602569
  27.743324, 5599.187743
  27.752970, 5598.777444
  27.762610, 5598.369355
  27.772286, 5597.961788
  27.782008, 5597.554294
  27.791758, 5597.147664
  27.801448, 5596.745541
  27.811173, 5596.343977
  27.820906, 5595.944178
  27.830604, 5595.547777
  27.840231, 5595.156319
  27.849979, 5594.761962
  27.859813, 5594.366201
  27.869515, 5593.977817
  27.879334, 5593.586801
  27.889180, 5593.196789
  27.899027, 5592.808817
  27.908879, 5592.422767
  27.918720, 5592.039273
  27.928512, 5591.659745
  27.938422, 5591.277737
  27.948180, 5590.903691
  27.958150, 5590.523649
  27.967957, 5590.151926
  27.977892, 5589.777483
  27.987757, 5589.407813
  27.997642, 5589.039485
  28.007532, 5588.673113
  28.017459, 5588.307512
  28.027435, 5587.942276
  28.037411, 5587.579229
  28.047290, 5587.221803
  28.057309, 5586.861513
  28.067381, 5586.501532
  28.077390, 5586.146015
  28.087479, 5585.789845
  28.097518, 5585.437676
  28.107611, 5585.085813
  28.117705, 5584.736131
  28.127713, 5584.391690
  28.137753, 5584.048294
  28.147813, 5583.706457
  28.157759, 5583.370688
  28.167934, 5583.029432
  28.178073, 5582.691655
  28.188128, 5582.358889
  28.198201, 5582.027751
  28.208409, 5581.694466
  28.218600, 5581.364038
  28.228826, 5581.034774
  28.238957, 5580.710824
  28.249085, 5580.389252
  28.259278, 5580.067898
  28.269521, 5579.747265
  28.279716, 5579.430451
  28.290024, 5579.112443
  28.300347, 5578.796336
  28.310610, 5578.484410
  28.320958, 5578.172250
  28.331278, 5577.863293
  28.341431, 5577.561635
  28.351677, 5577.259552
  28.361961, 5576.958668
  28.372305, 5576.658407
  28.382583, 5576.362421
  28.392910, 5576.067375
  28.403171, 5575.776567
  28.413521, 5575.485581
  28.423829, 5575.198169
  28.434333, 5574.907730
  28.444671, 5574.624266
  28.455023, 5574.342780
  28.465499, 5574.060369
  28.475937, 5573.781426
  28.486289, 5573.507160
  28.496710, 5573.233495
  28.507080, 5572.963559
  28.517450, 5572.696029
  28.527905, 5572.428736
  28.538217, 5572.167480
  28.548738, 5571.903390
  28.559140, 5571.644708
  28.569678, 5571.385126
  28.579450, 5571.146617
