Time, Vertical Forces
   0.000100,    0.000000
   0.000597,    0.000000
   0.002118,    0.000000
   0.006000,    0.000000
   0.013409,    0.000000
   0.025776,    0.000000
   0.050478,    0.000000
   0.078860,    0.000000
   0.107231,    0.000000
   0.135754,    0.000000
   0.164285,    0.000000
   0.192786,    0.000000
   0.221427,    0.000000
   0.250002,    0.000000
   0.278792,    0.000000
   0.307720,    0.000000
   0.336801,    0.000000
   0.365999,    0.000000
   0.395324,    0.000000
   0.424752,    0.000000
   0.454334,    0.000000
   0.483922,    0.000000
   0.513902,    0.000000
   0.543998,    0.000000
   0.574132,    0.000000
   0.604589,    0.000000
   0.635202,    0.000000
   0.665680,    0.000000
   0.696805,    0.000000
   0.728105,    0.000000
   0.759386,    0.000000
   0.790805,    0.000000
   0.823009,    0.000000
   0.855112,    0.000000
   0.887601,    0.000000
   0.920021,    0.000000
   0.952657,    0.000000
   0.985716,    0.000000
   1.019144,    0.000000
   1.052681,    0.000000
   1.086312,    0.000000
   1.120768,    0.000000
   1.155376,    0.000000
   1.190329,    0.000000
   1.225051,    0.000000
   1.260463,    0.000000
   1.295730,    0.000000
   1.331831,    0.000000
   1.367713,    0.000000
   1.403564,    0.000000
   1.439859,    0.000000
   1.476690,    0.000000
   1.513168,    0.000000
   1.550329,    0.000000
   1.587555,    0.000000
   1.625520,    0.000000
   1.663335,    0.000000
   1.701359,    0.000000
   1.739975,    0.000000
   1.778616,    0.000000
   1.818149,    0.000000
   1.857714,    0.000000
   1.897315,    0.000000
   1.937493,    0.000000
   1.977233,    0.000000
   2.017468,    0.000000
   2.057621,    0.000000
   2.098892,    0.000000
   2.140367,    0.000000
   2.181313,    0.000000
   2.222727,    0.000000
   2.264752,    0.000000
   2.306943,    0.000000
   2.349666,    0.000000
   2.392480,    0.000000
   2.435325,    0.000000
   2.478412,    0.000000
   2.521890,    0.000000
   2.565666,    0.000000
   2.609548,    0.000000
   2.653538,    0.000000
   2.697987,    0.000000
   2.742758,    0.000000
   2.787783,    0.000000
   2.832751,    0.000000
   2.878364,    0.000000
   2.924142,    0.000000
   2.970033,    0.000000
   3.016121,    0.000000
   3.062908,    0.000000
   3.109176,    0.000000
   3.155950,    0.000000
   3.203176,    0.000000
   3.250564,    0.000000
   3.298182,    0.000000
   3.345500,    0.000000
   3.393585,    0.000000
   3.441717,    0.000000
   3.490411,    0.000000
   3.539407,    0.000000
   3.588110,    0.000000
   3.637471,    0.000000
   3.686899,    0.000000
   3.736685,    0.000000
   3.786223,    0.000000
   3.836643,    0.000000
   3.886872,    0.000000
   3.937877,    0.000000
   3.989209,    0.000000
   4.040325,    0.000000
   4.091267,    0.000000
   4.142668,    0.000000
   4.193968,    0.000000
   4.246300,    0.000000
   4.248393,    0.000000
   4.248869,    0.000000
   4.248974,    0.000000
   4.249123,    0.000000
   4.249175,    0.000000
   4.249275,    0.000000
   4.249316,    0.000000
   4.249320,    0.000000
   4.249324,    0.000000
   4.249364,    0.000000
   4.249766,    0.000000
   4.251923,    0.000000
   4.260001,    0.000000
   4.285765,    0.000000
   4.334340,    0.000000
   4.382405,    0.000000
   4.430454,    0.000000
   4.478753,    0.000000
   4.527143,    0.000000
   4.575592,    0.000000
   4.624658,    0.000000
   4.673806,    0.000000
   4.723125,    0.000000
   4.772612,    0.000000
   4.822316,    0.000000
   4.872217,    0.000000
   4.922507,    0.000000
   4.973108,    0.000000
   5.023738,    0.000000
   5.074108,    0.000000
   5.124756,    0.000000
   5.175556,    0.000000
   5.226723,    0.000000
   5.278219,    0.000000
   5.330175,    0.000000
   5.381689,    0.000000
   5.433555,    0.000000
   5.485692,    0.000000
   5.537972,    0.000000
   5.590382,    0.000000
   5.642837,    0.000000
   5.695399,    0.000000
   5.748291,    0.000000
   5.801419,    0.000000
   5.854678,    0.000000
   5.908203,    0.000000
   5.961203,    0.000000
   6.014767,    0.000000
   6.068625,    0.000000
   6.122578,    0.000000
   6.176799,    0.000000
   6.231116,    0.000000
   6.285440,    0.000000
   6.340042,    0.000000
   6.394772,    0.000000
   6.450166,    0.000000
   6.505531,    0.000000
   6.560856,    0.000000
   6.616344,    0.000000
   6.672373,    0.000000
   6.727766,    0.000000
   6.784048,    0.000000
   6.840168,    0.000000
   6.896461,    0.000000
   6.952964,    0.000000
   7.009604,    0.000000
   7.066298,    0.000000
   7.123010,    0.000000
   7.179721,    0.000000
   7.236718,    0.000000
   7.293922,    0.000000
   7.351312,    0.000000
   7.409361,    0.000000
   7.467271,    0.000000
   7.525191,    0.000000
   7.583316,    0.000000
   7.641609,    0.000000
   7.700113,    0.000000
   7.758616,    0.000000
   7.817439,    0.000000
   7.876215,    0.000000
   7.935129,    0.000000
   7.994180,    0.000000
   8.053264,    0.000000
   8.112483,    0.000000
   8.172226,    0.000000
   8.232014,    0.000000
   8.291963,    0.000000
   8.352085,    0.000000
   8.412656,    0.000000
   8.472889,    0.000000
   8.533217,    0.000000
   8.593887,    0.000000
   8.654559,    0.000000
   8.715533,    0.000000
   8.727746,    0.000000
   8.736018,    0.000000
   8.742617,    0.000000
   8.743599,    0.000000
   8.743833,    0.000000
   8.743905,    0.000000
   8.743939,    0.000000
   8.743946,    0.000000
   8.743954,    0.000000
   8.744031,    0.000000
   8.744724,    0.000000
   8.748743,    0.000000
   8.763093,    0.000000
   8.811984,    0.000000
   8.867623,    0.000000
   8.923520,    0.000000
   8.979573,    0.000000
   9.035881,    0.000000
   9.092404,    0.000000
   9.148720,    0.000000
   9.205512,    0.000000
   9.262126,    0.000000
   9.318660,    0.000000
   9.375511,    0.000000
   9.432481,    0.000000
   9.489629,    0.000000
   9.546727,    0.000000
   9.604263,    0.000000
   9.661821,    0.000000
   9.719218,    0.000000
   9.776764,    0.000000
   9.834634,    0.000000
   9.892602,    0.000000
   9.950469,    0.000000
  10.008520,    0.000000
  10.066906,    0.000000
  10.125242,    0.000000
  10.183644,    0.000000
  10.242354,    0.000000
  10.301234,    0.000000
  10.360008,    0.000000
  10.418895,    0.000000
  10.477722,    0.000000
  10.536972,    0.000000
  10.596207,    0.000000
  10.655393,    0.000000
  10.714881,    0.000000
  10.774554,    0.000000
  10.834559,    0.000000
  10.894432,    0.000000
  10.954355,    0.000000
  11.014374,    0.000000
  11.074565,    0.000000
  11.134861,    0.000000
  11.195128,    0.000000
  11.255503,    0.000000
  11.316177,    0.000000
  11.376900,    0.000000
  11.437915,    0.000000
  11.498965,    0.000000
  11.559984,    0.000000
  11.621290,    0.000000
  11.682601,    0.000000
  11.743915,    0.000000
  11.805463,    0.000000
  11.867069,    0.000000
  11.928781,    0.000000
  11.990563,    0.000000
  12.052456,    0.000000
  12.114489,    0.000000
  12.176490,    0.000000
  12.238494,    0.000000
  12.300810,    0.000000
  12.363436,    0.000000
  12.426286,    0.000000
  12.489304,    0.000000
  12.552133,    0.000000
  12.614921,    0.000000
  12.677848,    0.000000
  12.740675,    0.000000
  12.803771,    0.000000
  12.867135,    0.000000
  12.930653,    0.000000
  12.994164,    0.000000
  13.057722,    0.000000
  13.121378,    0.000000
  13.185269,    0.000000
  13.249443,    0.000000
  13.313645,    0.000000
  13.377613,    0.000000
  13.441981,    0.000000
  13.506369,    0.000000
  13.570793,    0.000000
  13.583718,    0.000000
  13.632699,    0.000000
  13.633215,    0.000000
  13.633362,    0.000000
  13.633600,    0.000000
  13.633678,    0.000000
  13.633832,    0.000000
  13.633852,    0.000000
  13.633863,    0.000000
  13.633873,    0.000000
  13.633882,    0.000000
  13.633974,    0.000000
  13.634887,    0.000000
  13.641271,    0.000000
  13.669796,    0.000000
  13.726223,    0.000000
  13.784283,    0.000000
  13.842305,    0.000000
  13.900518,    0.000000
  13.958825,    0.000000
  14.017140,    0.000000
  14.075459,    0.000000
  14.133968,    0.000000
  14.192534,    0.000000
  14.251115,    0.000000
  14.310013,    0.000000
  14.368785,    0.000000
  14.427570,    0.000000
  14.486516,    0.000000
  14.545512,    0.000000
  14.604755,    0.000000
  14.664056,    0.000000
  14.723339,    0.000000
  14.782810,    0.000000
  14.842262,    0.000000
  14.901854,    0.000000
  14.961589,    0.000000
  15.021263,    0.000000
  15.081189,    0.000000
  15.141002,    0.000000
  15.201095,    0.000000
  15.261217,    0.000000
  15.321506,    0.000000
  15.381845,    0.000000
  15.442218,    0.000000
  15.502652,    0.000000
  15.563200,    0.000000
  15.623815,    0.000000
  15.684519,    0.000000
  15.745140,    0.000000
  15.806020,    0.000000
  15.866801,    0.000000
  15.927864,    0.000000
  15.989006,    0.000000
  16.050203,    0.000000
  16.111474,    0.000000
  16.172956,    0.000000
  16.234510,    0.000000
  16.295991,    0.000000
  16.357633,    0.000000
  16.419417,    0.000000
  16.481199,    0.000000
  16.543123,    0.000000
  16.605086,    0.000000
  16.667231,    0.000000
  16.729337,    0.000000
  16.791521,    0.000000
  16.853902,    0.000000
  16.916218,    0.000000
  16.978579,    0.000000
  17.041098,    0.000000
  17.103618,    0.000000
  17.166373,    0.000000
  17.229173,    0.000000
  17.292014,    0.000000
  17.354772,    0.000000
  17.417879,    0.000000
  17.480932,    0.000000
  17.544131,    0.000000
  17.607450,    0.000000
  17.670939,    0.000000
  17.734490,    0.000000
  17.797970,    0.000000
  17.861371,    0.000000
  17.924916,    0.000000
  17.988668,    0.000000
  18.052596,    0.000000
  18.116486,    0.000000
  18.180529,    0.000000
  18.244675,    0.000000
  18.308912,    0.000000
  18.373012,    0.000000
  18.437370,    0.000000
  18.501788,    0.000000
  18.566283,    0.000000
  18.630786,    0.000000
  18.695282,    0.000000
  18.759920,    0.000000
  18.824800,    0.000000
  18.889688,    0.000000
  18.954630,    0.000000
  19.019543,    0.000000
  19.084698,    0.000000
  19.149841,    0.000000
  19.162902,    0.000000
  19.172900,    0.000000
  19.180257,    0.000000
  19.181423,    0.000000
  19.181778,    0.000000
  19.182388,    0.000000
  19.182592,    0.000000
  19.182627,    0.000000
  19.182664,    0.000000
  19.183030,    0.000000
  19.186252,    0.000000
  19.204628,    0.000000
  19.260788,    0.000000
  19.326063,    0.000000
  19.391247,    0.000000
  19.456328,    0.000000
  19.521615,    0.000000
  19.587058,    0.000000
  19.652481,    0.000000
  19.718105,    0.000000
  19.783721,    0.000000
  19.849488,    0.000000
  19.915331,    0.000000
  19.981202,    0.000000
  20.047129,    0.000000
  20.113097,    0.000000
  20.179258,    0.000000
  20.245458,    0.000000
  20.311688,    0.000000
  20.378014,    0.000000
  20.444471,    0.000000
  20.510968,    0.000000
  20.577468,    0.000000
  20.644186,    0.000000
  20.711054,    0.000000
  20.777855,    0.000000
  20.844748,    0.000000
  20.911727,    0.000000
  20.978858,    0.000000
  21.046008,    0.000000
  21.113248,    0.000000
  21.180441,    0.000000
  21.247762,    0.000000
  21.315162,    0.000000
  21.382751,    0.000000
  21.450409,    0.000000
  21.518081,    0.000000
  21.585792,    0.000000
  21.653579,    0.000000
  21.721439,    0.000000
  21.789321,    0.000000
  21.857288,    0.000000
  21.925403,    0.000000
  21.993633,    0.000000
  22.061984,    0.000000
  22.130342,    0.000000
  22.198806,    0.000000
  22.267172,    0.000000
  22.335786,    0.000000
  22.404448,    0.000000
  22.473232,    0.000000
  22.542042,    0.000000
  22.610851,    0.000000
  22.679893,    0.000000
  22.748967,    0.000000
  22.818074,    0.000000
  22.887356,    0.000000
  22.956541,    0.000000
  23.025791,    0.000000
  23.095313,    0.000000
  23.164660,    0.000000
  23.234274,    0.000000
  23.304014,    0.000000
  23.373743,    0.000000
  23.443587,    0.000000
  23.513363,    0.000000
  23.583261,    0.000000
  23.653353,    0.000000
  23.723314,    0.000000
  23.793589,    0.000000
  23.863779,    0.000000
  23.934074,    0.000000
  23.968044,    0.000000
  24.004621,    0.000000
  24.075192,   93.761164
  24.145625,  273.553761
  24.216207,  451.059359
  24.286838,  627.023089
  24.357653,  801.202056
  24.428434,  973.941966
  24.499351, 1144.713800
  24.570341, 1313.949195
  24.641390, 1481.503811
  24.712465, 1647.353492
  24.783691, 1811.435661
  24.854983, 1974.056147
  24.926295, 2135.023893
  24.997611, 2294.250506
  25.069004, 2451.712369
  25.140384, 2607.592019
  25.211740, 2761.703135
  25.283289, 2914.029199
  25.354902, 3065.064229
  25.426419, 3214.540810
  25.498005, 3362.127577
  25.569673, 3508.193082
  25.641402, 3652.772851
  25.713177, 3795.839380
  25.784919, 3937.377666
  25.787793, 4081.668698
  25.787930, 4087.396714
  25.788020, 4087.663849
  25.788087, 4087.840335
  25.788127, 4087.971456
  25.788144, 4088.049075
  25.788160, 4088.081471
  25.788326, 4088.104752
  25.789987, 4088.337555
  25.800024, 4091.055487
  25.844615, 4108.413400
  25.918101, 4192.706638
  25.992378, 4333.356562
  26.066619, 4473.939646
  26.140992, 4612.812423
  26.215407, 4750.319517
  26.289751, 4886.311000
  26.364219, 5020.572230
  26.438608, 5153.502144
  26.512937, 5284.736407
  26.587368, 5414.317366
  26.661705, 5542.570305
  26.736178, 5669.142350
  26.810645, 5794.468896
  26.816516, 5924.057827
  26.822395, 5933.733292
  26.828280, 5943.415207
  26.834155, 5953.097703
  26.840043, 5962.754642
  26.845938, 5972.425557
  26.851789, 5982.101493
  26.857677, 5991.690806
  26.863568, 6001.334894
  26.869437, 6010.977109
  26.875356, 6020.568969
  26.881192, 6030.245148
  26.887111, 6039.763471
  26.893035, 6049.415211
  26.898971, 6059.065678
  26.904908, 6068.727693
  26.910791, 6078.387312
  26.916694, 6087.945641
  26.922647, 6097.523094
  26.928585, 6107.179608
  26.934536, 6116.801848
  26.940496, 6126.435377
  26.946454, 6136.076949
  26.952427, 6145.704126
  26.958376, 6155.349854
  26.964364, 6164.944276
  26.970329, 6174.596679
  26.976301, 6184.201661
  26.982257, 6193.812360
  26.988259, 6203.381061
  26.994236, 6213.022825
  27.000223, 6222.612987
  27.006252, 6232.207340
  27.012257, 6241.864910
  27.018260, 6251.474499
  27.024269, 6261.071126
  27.030290, 6270.668983
  27.036323, 6280.277006
  27.042337, 6289.897391
  27.048382, 6299.476235
  27.054439, 6309.095138
  27.060428, 6318.732495
  27.066518, 6328.239464
  27.072613, 6337.906491
  27.078703, 6347.571835
  27.084808, 6357.220070
  27.090918, 6366.883648
  27.097022, 6376.548639
  27.103130, 6386.192813
  27.109227, 6395.836926
  27.115344, 6405.451689
  27.121483, 6415.090232
  27.127607, 6424.755427
  27.133760, 6434.387520
  27.139880, 6444.058817
  27.146046, 6453.664923
  27.152219, 6463.337996
  27.158390, 6473.012675
  27.164569, 6482.674467
  27.170731, 6492.343022
  27.176896, 6501.974093
  27.183112, 6511.597491
  27.189272, 6521.300698
  27.195487, 6530.898573
  27.201718, 6540.576570
  27.207962, 6550.269801
  27.214209, 6559.976126
  27.220412, 6569.682288
  27.226673, 6579.303385
  27.232902, 6589.013437
  27.239126, 6598.661145
  27.245417, 6608.287494
  27.251695, 6618.014062
  27.258024, 6627.707234
  27.264324, 6637.477486
  27.270653, 6647.189657
  27.276937, 6656.942405
  27.283294, 6666.607060
  27.289634, 6676.383442
  27.295942, 6686.125794
  27.302283, 6695.804093
  27.308669, 6705.523725
  27.315041, 6715.309360
  27.321463, 6725.058122
  27.327840, 6734.881292
  27.334284, 6744.618512
  27.340714, 6754.455119
  27.347143, 6764.262292
  27.353604, 6774.053952
  27.360048, 6783.890787
  27.366505, 6793.688762
  27.372943, 6803.500979
  27.379402, 6813.271002
  27.385858, 6823.067195
  27.392390, 6822.515153
  27.398890, 6821.966605
  27.405415, 6821.416797
  27.411927, 6820.868908
  27.418477, 6820.318689
  27.425000, 6819.771534
  27.431541, 6819.223751
  27.438112, 6818.674290
  27.444697, 6818.124458
  27.451305, 6817.573651
  27.457894, 6817.025210
  27.464466, 6816.479060
  27.471056, 6815.932248
  27.477650, 6815.386022
  27.484242, 6814.840747
  27.490903, 6814.290639
  27.497572, 6813.740860
  27.504242, 6813.191806
  27.510912, 6812.643645
  27.517581, 6812.096445
  27.524266, 6811.548811
  27.530963, 6811.001121
  27.537667, 6810.453673
  27.544410, 6809.904015
  27.551138, 6809.356483
  27.557905, 6808.806756
  27.564634, 6808.260949
  27.571383, 6807.714439
  27.578145, 6807.167818
  27.584932, 6806.620136
  27.591681, 6806.076399
  27.598455, 6805.531532
  27.605246, 6804.986263
  27.612059, 6804.440213
  27.618853, 6803.896568
  27.625693, 6803.350213
  27.632538, 6802.804381
  27.639364, 6802.261071
  27.646227, 6801.715687
  27.653122, 6801.168817
  27.659978, 6800.625929
  27.666843, 6800.083354
  27.673797, 6799.534719
  27.680744, 6798.987577
  27.687729, 6798.438458
  27.694712, 6797.890522
  27.701707, 6797.342672
  27.708703, 6796.795717
  27.715665, 6796.252420
  27.722702, 6795.704250
  27.729750, 6795.156243
  27.736786, 6794.610235
  27.743870, 6794.061570
  27.750966, 6793.512943
  27.758007, 6792.969690
  27.765088, 6792.424342
  27.772203, 6791.877391
  27.779290, 6791.333692
  27.786405, 6790.788854
  27.793532, 6790.244184
  27.800692, 6789.698028
  27.807857, 6789.152588
  27.815010, 6788.609149
  27.822211, 6788.063112
  27.829367, 6787.521631
  27.836566, 6786.977943
  27.843769, 6786.435029
  27.850982, 6785.892432
  27.858246, 6785.347110
  27.865532, 6784.801259
  27.872802, 6784.257771
  27.880071, 6783.715438
  27.885858, 6783.284463
  27.887360, 6783.172739
  27.894645, 6782.631472
  27.901967, 6782.088564
  27.909307, 6781.545514
  27.916628, 6781.004940
  27.923981, 6780.463218
  27.931365, 6779.920305
  27.938774, 6779.376810
  27.946183, 6778.834402
  27.953577, 6778.294319
  27.960999, 6777.753321
  27.968478, 6777.209372
  27.975918, 6776.669417
  27.983422, 6776.126081
  27.990949, 6775.582252
  27.998425, 6775.043323
  28.005957, 6774.501589
  28.013503, 6773.960119
  28.021092, 6773.416744
  28.028666, 6772.875645
  28.036281, 6772.332915
  28.043919, 6771.789813
  28.051601, 6771.244836
  28.059271, 6770.701987
  28.066912, 6770.162444
  28.074613, 6769.619999
  28.082302, 6769.079649
  28.089987, 6768.540859
  28.097707, 6768.000904
  28.105470, 6767.459281
  28.113190, 6766.921991
  28.121042, 6766.376780
  28.128801, 6765.839353
  28.136630, 6765.298466
  28.144455, 6764.759193
  28.152330, 6764.217802
  28.160163, 6763.680650
  28.168029, 6763.142619
  28.175910, 6762.604870
  28.183777, 6762.069456
  28.191664, 6761.534058
  28.199571, 6760.998711
  28.207507, 6760.462801
  28.215430, 6759.929090
  28.223401, 6759.393602
  28.231366, 6758.859900
  28.239379, 6758.324403
  28.247367, 6757.791973
  28.255368, 6757.260165
  28.263389, 6756.728369
  28.271499, 6756.192194
  28.279568, 6755.660191
  28.287691, 6755.126069
  28.295852, 6754.590920
  28.304004, 6754.057834
  28.312156, 6753.526263
  28.320365, 6752.992487
  28.328546, 6752.461969
  28.336745, 6751.931831
  28.344976, 6751.401198
  28.353241, 6750.869793
  28.361486, 6750.341286
  28.369820, 6749.808624
  28.378098, 6749.281056
  28.386444, 6748.750721
  28.394761, 6748.223835
  28.403117, 6747.696037
  28.411456, 6747.170824
  28.419870, 6746.642552
  28.428249, 6746.118064
  28.436624, 6745.595385
  28.445079, 6745.069376
  28.453463, 6744.549324
  28.461935, 6744.025470
  28.470403, 6743.503543
  28.478862, 6742.983702
  28.487310, 6742.466247
  28.495804, 6741.947560
  28.504275, 6741.431942
  28.512858, 6740.911204
  28.521376, 6740.396079
  28.529916, 6739.881239
  28.538476, 6739.366914
  28.547088, 6738.851111
  28.555750, 6738.334090
  28.564376, 6737.820891
  28.573005, 6737.309222
  28.581608, 6736.800822
  28.590333, 6736.286922
  28.599012, 6735.777512
  28.607692, 6735.269766
  28.616509, 6734.755794
  28.625223, 6734.249575
  28.633950, 6733.744350
  28.642771, 6733.235508
  28.651581, 6732.729073
  28.660458, 6732.220589
  28.669300, 6731.715980
  28.678114, 6731.214743
  28.686972, 6730.712821
  28.695759, 6730.216722
  28.704631, 6729.717659
  28.713564, 6729.217010
  28.722602, 6728.712385
  28.731577, 6728.213136
  28.740604, 6727.712886
  28.749595, 6727.216583
  28.758586, 6726.722086
  28.767636, 6726.226332
  28.776653, 6725.734224
  28.785754, 6725.239502
  28.794724, 6724.753840
  28.803757, 6724.266623
  28.812760, 6723.782946
  28.821940, 6723.291715
  28.831106, 6722.803212
  28.840245, 6722.318133
  28.849374, 6721.835509
  28.858568, 6721.351448
  28.867813, 6720.866759
  28.877055, 6720.384160
  28.886291, 6719.903959
  28.895524, 6719.425929
  28.904799, 6718.947726
  28.914166, 6718.466864
  28.923434, 6717.993136
  28.932767, 6717.518130
  28.941987, 6717.050890
  28.951455, 6716.573179
  28.960754, 6716.106118
  28.970137, 6715.636890
  28.979586, 6715.166456
  28.988911, 6714.704326
  28.998306, 6714.240792
  29.007764, 6713.776255
  29.017208, 6713.314556
  29.026712, 6712.852118
  29.036095, 6712.397637
  29.045554, 6711.941595
  29.054995, 6711.488589
  29.064426, 6711.038148
  29.073974, 6710.584321
  29.083540, 6710.131809
  29.093167, 6709.678649
  29.102781, 6709.228322
  29.112383, 6708.780773
  29.122037, 6708.333015
  29.131526, 6707.895104
  29.141252, 6707.448516
  29.150897, 6707.007840
  29.160620, 6706.565933
  29.170276, 6706.129274
  29.179960, 6705.693658
  29.189652, 6705.259932
  29.199346, 6704.828340
  29.209080, 6704.397312
  29.218966, 6703.961847
  29.228642, 6703.537972
  29.238289, 6703.117587
  29.248133, 6702.690922
  29.257964, 6702.267198
  29.267847, 6701.843585
  29.277716, 6701.422944
  29.287524, 6701.007200
  29.297414, 6700.590403
  29.307258, 6700.177878
  29.317156, 6699.765433
  29.327069, 6699.354786
  29.336948, 6698.947930
  29.346890, 6698.540869
  29.356849, 6698.135506
  29.366720, 6697.736148
  29.376731, 6697.333504
  29.386598, 6696.939081
  29.396690, 6696.538092
  29.406793, 6696.139190
  29.416806, 6695.746249
  29.426851, 6695.354551
  29.436806, 6694.968814
  29.446817, 6694.583319
  29.456849, 6694.199468
  29.466921, 6693.816588
  29.476888, 6693.440147
  29.487000, 6693.060693
  29.497083, 6692.684844
  29.507081, 6692.314635
  29.517212, 6691.941972
  29.527366, 6691.570991
  29.537553, 6691.201363
  29.547606, 6690.839101
  29.557777, 6690.475103
  29.567919, 6690.114665
  29.578026, 6689.758015
  29.588233, 6689.400357
  29.598401, 6689.046639
  29.608477, 6688.698602
  29.618696, 6688.348224
  29.628874, 6688.001771
  29.639192, 6687.653185
  29.649510, 6687.307210
  29.659802, 6686.964714
  29.670110, 6686.624314
  29.680297, 6686.290506
  29.690618, 6685.954889
  29.700948, 6685.621615
  29.711179, 6685.294144
  29.721457, 6684.967774
  29.731711, 6684.644776
  29.742092, 6684.320430
  29.752510, 6683.997582
  29.762855, 6683.679677
  29.773143, 6683.366135
  29.783603, 6683.050060
  29.793985, 6682.738999
  29.804480, 6682.427297
  29.814942, 6682.119271
  29.825353, 6681.815426
  29.835722, 6681.515481
  29.846218, 6681.214609
  29.856703, 6680.916760
  29.867142, 6680.622921
  29.877523, 6680.333423
  29.888072, 6680.041958
  29.898500, 6679.756561
  29.909000, 6679.471912
  29.919462, 6679.191031
  29.929979, 6678.911394
  29.940502, 6678.634381
  29.950997, 6678.360814
  29.961446, 6678.091185
  29.971898, 6677.824206
  29.982374, 6677.559330
  29.992910, 6677.295685
  30.003407, 6677.035772
  30.013965, 6676.777093
  30.024538, 6676.520845
  30.035133, 6676.266854
  30.045715, 6676.015985
  30.056295, 6675.767932
  30.066989, 6675.520029
  30.077651, 6675.275729
  30.088249, 6675.035685
  30.098804, 6674.799401
  30.109400, 6674.564989
  30.120128, 6674.330534
  30.130776, 6674.100624
  30.141529, 6673.871337
  30.152224, 6673.646160
  30.162915, 6673.423910
  30.173601, 6673.204594
  30.184214, 6672.989612
  30.194871, 6672.776568
  30.205571, 6672.565510
  30.216229, 6672.358119
  30.226929, 6672.152755
  30.237666, 6671.949556
  30.248357, 6671.750092
  30.259095, 6671.552621
  30.269784, 6671.358922
  30.280534, 6671.166975
  30.291258, 6670.978366
  30.301982, 6670.792633
  30.312764, 6670.608788
  30.321915, 6670.455032
