Time, Vertical Forces
   0.000100, 215309.219737
   0.000563, 215309.219737
   0.002175, 215309.219737
   0.007627, 215309.219737
   0.018279, 215309.219737
   0.043028, 215309.219737
   0.074761, 215309.219737
   0.106589, 215309.219737
   0.138419, 215309.219737
   0.170367, 215309.219737
   0.202449, 215309.219737
   0.234606, 215309.219737
   0.266795, 215309.219737
   0.298936, 215309.219737
   0.331344, 215309.219737
   0.364128, 215309.219737
   0.396992, 215309.219737
   0.430231, 215309.219737
   0.463468, 215309.219737
   0.497017, 215309.219737
   0.530749, 215309.219737
   0.564722, 215309.219737
   0.598971, 215309.219737
   0.633962, 215309.219737
   0.668628, 215309.219737
   0.703295, 215309.219737
   0.738638, 215309.219737
   0.773839, 215309.219737
   0.809514, 215309.219737
   0.845820, 215309.219737
   0.882477, 215309.219737
   0.919539, 215309.219737
   0.956759, 215309.219737
   0.994074, 215309.219737
   1.031360, 215309.219737
   1.069143, 215309.219737
   1.107675, 215309.219737
   1.146076, 215309.219737
   1.184756, 215309.219737
   1.224656, 215309.219737
   1.264031, 215309.219737
   1.304592, 215309.219737
   1.345193, 215309.219737
   1.385681, 215309.219737
   1.427201, 215309.219737
   1.468964, 215309.219737
   1.511334, 215309.219737
   1.553785, 215309.219737
   1.596117, 215309.219737
   1.639305, 215309.219737
   1.682639, 215309.219737
   1.726109, 215309.219737
   1.769876, 215309.219737
   1.813591, 215309.219737
   1.857923, 215309.219737
   1.902586, 215309.219737
   1.948056, 215309.219737
   1.993212, 215309.219737
   2.039212, 215309.219737
   2.086002, 215309.219737
   2.132129, 215309.219737
   2.179480, 215309.219737
   2.226599, 215309.219737
   2.274107, 215309.219737
   2.322608, 215309.219737
   2.370983, 215309.219737
   2.419662, 215309.219737
   2.468385, 215309.219737
   2.517680, 215309.219737
   2.567397, 215309.219737
   2.617949, 215309.219737
   2.668443, 215309.219737
   2.719108, 215309.219737
   2.770340, 215309.219737
   2.821979, 215309.219737
   2.873739, 215309.219737
   2.925653, 215309.219737
   2.978478, 215309.219737
   3.031016, 215309.219737
   3.084059, 215309.219737
   3.137460, 215309.219737
   3.190999, 215309.219737
   3.244725, 215309.219737
   3.299622, 215309.219737
   3.353968, 215309.219737
   3.408985, 215309.219737
   3.464851, 215309.219737
   3.520715, 215309.219737
   3.577044, 215309.219737
   3.633149, 215309.219737
   3.690624, 215309.219737
   3.747547, 215309.219737
   3.804784, 215309.219737
   3.862238, 215309.219737
   3.919593, 215309.219737
   3.977980, 215309.219737
   4.036509, 215309.219737
   4.095383, 215309.219737
   4.154362, 215309.219737
   4.213627, 215309.219737
   4.225591, 215309.219737
   4.231550, 215309.219737
   4.235140, 215309.219737
   4.237473, 215309.219737
   4.245497, 215309.219737
   4.245545, 215309.219737
   4.245624, 215309.219737
   4.245657, 215309.219737
   4.245667, 215309.219737
   4.245672, 215309.219737
   4.245676, 215309.219737
   4.245722, 215309.219737
   4.246108, 215309.219737
   4.248483, 215309.219737
   4.257281, 215309.219737
   4.283310, 215309.219737
   4.334905, 215309.219737
   4.388402, 215309.219737
   4.442624, 215309.219737
   4.496760, 215309.219737
   4.551242, 215309.219737
   4.605903, 215309.219737
   4.660765, 215309.219737
   4.715778, 215309.219737
   4.771417, 215309.219737
   4.827290, 215309.219737
   4.883905, 215309.219737
   4.940491, 215309.219737
   4.997232, 215309.219737
   5.054250, 215309.219737
   5.111466, 215309.219737
   5.168656, 215309.219737
   5.226433, 215309.219737
   5.284476, 215309.219737
   5.342147, 215309.219737
   5.400677, 215309.219737
   5.458925, 215309.219737
   5.517536, 215309.219737
   5.576156, 215309.219737
   5.635518, 215309.219737
   5.694961, 215309.219737
   5.754496, 215309.219737
   5.814341, 215309.219737
   5.874378, 215309.219737
   5.934336, 215309.219737
   5.994787, 215309.219737
   6.055382, 215309.219737
   6.116305, 215309.219737
   6.177577, 215309.219737
   6.238877, 215309.219737
   6.300784, 215309.219737
   6.363159, 215309.219737
   6.425250, 215309.219737
   6.487380, 215309.219737
   6.550281, 215309.219737
   6.613184, 215309.219737
   6.676534, 215309.219737
   6.740024, 215309.219737
   6.803165, 215309.219737
   6.867067, 215309.219737
   6.930834, 215309.219737
   6.995340, 215309.219737
   7.059616, 215309.219737
   7.124514, 215309.219737
   7.189303, 215309.219737
   7.254312, 215309.219737
   7.319620, 215309.219737
   7.385219, 215309.219737
   7.451111, 215309.219737
   7.516637, 215309.219737
   7.582852, 215309.219737
   7.648821, 215309.219737
   7.715137, 215309.219737
   7.781862, 215309.219737
   7.848710, 215309.219737
   7.915549, 215309.219737
   7.983113, 215309.219737
   8.051030, 215309.219737
   8.118940, 215309.219737
   8.186825, 215309.219737
   8.254714, 215309.219737
   8.323430, 215309.219737
   8.392405, 215309.219737
   8.461157, 215309.219737
   8.530125, 215309.219737
   8.599211, 215309.219737
   8.668705, 215309.219737
   8.682592, 215309.219737
   8.690805, 215309.219737
   8.695537, 215309.219737
   8.699890, 215309.219737
   8.703292, 215309.219737
   8.706068, 215309.219737
   8.708076, 215309.219737
   8.710027, 215309.219737
   8.712253, 215309.219737
   8.712656, 215309.219737
   8.712758, 215309.219737
   8.712782, 215309.219737
   8.712795, 215309.219737
   8.712801, 215309.219737
   8.712808, 215309.219737
   8.712876, 215309.219737
   8.713557, 215309.219737
   8.718392, 215309.219737
   8.735729, 215309.219737
   8.795400, 215309.219737
   8.857640, 215309.219737
   8.919888, 215309.219737
   8.982560, 215309.219737
   9.045127, 215309.219737
   9.107881, 215309.219737
   9.170470, 215309.219737
   9.233838, 215309.219737
   9.297198, 215309.219737
   9.360602, 215309.219737
   9.423968, 215309.219737
   9.487829, 215309.219737
   9.551605, 215309.219737
   9.615567, 215309.219737
   9.679952, 215309.219737
   9.744304, 215309.219737
   9.808842, 215309.219737
   9.873501, 215309.219737
   9.938148, 215309.219737
  10.003079, 215309.219737
  10.068440, 215309.219737
  10.134092, 215309.219737
  10.199508, 215309.219737
  10.265284, 215309.219737
  10.331199, 215309.219737
  10.397235, 215309.219737
  10.463330, 215309.219737
  10.529581, 215309.219737
  10.596195, 215309.219737
  10.662914, 215309.219737
  10.729970, 215309.219737
  10.796962, 215309.219737
  10.863952, 215309.219737
  10.931306, 215309.219737
  10.999026, 215309.219737
  11.066634, 215309.219737
  11.134651, 215309.219737
  11.202549, 215309.219737
  11.270743, 215309.219737
  11.339155, 215309.219737
  11.407555, 215309.219737
  11.476041, 215309.219737
  11.544498, 215309.219737
  11.613515, 215309.219737
  11.682422, 215309.219737
  11.751561, 215309.219737
  11.820758, 215309.219737
  11.890236, 215309.219737
  11.959728, 215309.219737
  12.029462, 215309.219737
  12.099594, 215309.219737
  12.169840, 215309.219737
  12.240267, 215309.219737
  12.310696, 215309.219737
  12.381483, 215309.219737
  12.452094, 215309.219737
  12.523047, 215309.219737
  12.594051, 215309.219737
  12.665311, 215309.219737
  12.736830, 215309.219737
  12.808262, 215309.219737
  12.880237, 215309.219737
  12.952100, 215309.219737
  13.024065, 215309.219737
  13.096364, 215309.219737
  13.168726, 215309.219737
  13.241291, 215309.219737
  13.314175, 215309.219737
  13.386964, 215309.219737
  13.459845, 215309.219737
  13.474426, 215309.219737
  13.484159, 215309.219737
  13.514687, 215309.219737
  13.515287, 215309.219737
  13.515438, 215309.219737
  13.515681, 215309.219737
  13.515714, 215309.219737
  13.515732, 215309.219737
  13.515744, 215309.219737
  13.515755, 215309.219737
  13.515862, 215309.219737
  13.516805, 215309.219737
  13.521939, 215309.219737
  13.547688, 215309.219737
  13.611193, 215309.219737
  13.675096, 215309.219737
  13.739150, 215309.219737
  13.803268, 215309.219737
  13.867434, 215309.219737
  13.931586, 215309.219737
  13.995945, 215309.219737
  14.060451, 215309.219737
  14.125034, 215309.219737
  14.189756, 215309.219737
  14.254703, 215309.219737
  14.319783, 215309.219737
  14.385118, 215309.219737
  14.450605, 215309.219737
  14.515866, 215309.219737
  14.581550, 215309.219737
  14.647229, 215309.219737
  14.712979, 215309.219737
  14.779057, 215309.219737
  14.845199, 215309.219737
  14.911148, 215309.219737
  14.977270, 215309.219737
  15.043660, 215309.219737
  15.110304, 215309.219737
  15.177069, 215309.219737
  15.243949, 215309.219737
  15.310694, 215309.219737
  15.377691, 215309.219737
  15.444728, 215309.219737
  15.511905, 215309.219737
  15.579305, 215309.219737
  15.646876, 215309.219737
  15.714396, 215309.219737
  15.782218, 215309.219737
  15.849993, 215309.219737
  15.918091, 215309.219737
  15.986306, 215309.219737
  16.054407, 215309.219737
  16.122897, 215309.219737
  16.191331, 215309.219737
  16.259743, 215309.219737
  16.328243, 215309.219737
  16.396943, 215309.219737
  16.465782, 215309.219737
  16.534713, 215309.219737
  16.603872, 215309.219737
  16.673040, 215309.219737
  16.742434, 215309.219737
  16.811864, 215309.219737
  16.881573, 215309.219737
  16.951013, 215309.219737
  17.020725, 215309.219737
  17.090678, 215309.219737
  17.160676, 215309.219737
  17.230844, 215309.219737
  17.301083, 215309.219737
  17.371658, 215309.219737
  17.442018, 215309.219737
  17.512453, 215309.219737
  17.583229, 215309.219737
  17.654065, 215309.219737
  17.725022, 215309.219737
  17.796141, 215309.219737
  17.867328, 215309.219737
  17.938623, 215309.219737
  18.010105, 215309.219737
  18.081539, 215309.219737
  18.153278, 215309.219737
  18.225005, 215309.219737
  18.296936, 215309.219737
  18.369071, 215309.219737
  18.441217, 215309.219737
  18.513348, 215309.219737
  18.585732, 215309.219737
  18.658112, 215309.219737
  18.730787, 215309.219737
  18.803439, 215309.219737
  18.818024, 215309.219737
  18.828509, 215309.219737
  18.835714, 215309.219737
  18.842384, 215309.219737
  18.847961, 215309.219737
  18.848994, 215309.219737
  18.850175, 215309.219737
  18.850428, 215309.219737
  18.850678, 215309.219737
  18.850764, 215309.219737
  18.850797, 215309.219737
  18.850834, 215309.219737
  18.851200, 215309.219737
  18.854214, 215309.219737
  18.870526, 215309.219737
  18.931045, 215309.219737
  19.003471, 215309.219737
  19.076288, 215309.219737
  19.149273, 215309.219737
  19.222036, 215309.219737
  19.295059, 215309.219737
  19.368240, 215309.219737
  19.441642, 215309.219737
  19.515169, 215309.219737
  19.588577, 215309.219737
  19.662290, 215309.219737
  19.736163, 215309.219737
  19.809868, 215309.219737
  19.883680, 215309.219737
  19.957723, 215309.219737
  20.031827, 215309.219737
  20.106083, 215309.219737
  20.180476, 215309.219737
  20.255005, 215309.219737
  20.329509, 215309.219737
  20.404272, 215309.219737
  20.479145, 215309.219737
  20.553977, 215309.219737
  20.629021, 215309.219737
  20.704187, 215309.219737
  20.779423, 215309.219737
  20.854826, 215309.219737
  20.930414, 215309.219737
  21.006016, 215309.219737
  21.081806, 215309.219737
  21.157722, 215309.219737
  21.233619, 215309.219737
  21.309695, 215309.219737
  21.386047, 215309.219737
  21.462366, 215309.219737
  21.538800, 215309.219737
  21.615264, 215309.219737
  21.691979, 215309.219737
  21.768675, 215309.219737
  21.845458, 215309.219737
  21.922394, 215309.219737
  21.999406, 215309.219737
  22.076471, 215309.219737
  22.153695, 215309.219737
  22.231298, 215309.219737
  22.308798, 215309.219737
  22.386316, 215309.219737
  22.463976, 215309.219737
  22.541717, 215309.219737
  22.619838, 215309.219737
  22.697774, 215309.219737
  22.775989, 215309.219737
  22.781275, 215309.219737
  22.854265, 215309.219737
  22.932592, 215309.219737
  23.011104, 215309.219737
  23.089671, 215309.219737
  23.168688, 215309.219737
  23.247757, 215309.219737
  23.326843, 215309.219737
  23.406168, 215309.219737
  23.485656, 215309.219737
  23.565108, 215309.219737
  23.644881, 215309.219737
  23.724674, 215309.219737
  23.804475, 215309.219737
  23.884552, 215309.219737
  23.964416, 215309.219737
  24.044396, 215309.219737
  24.124445, 215309.219737
  24.204831, 215309.219737
  24.285085, 215309.219737
  24.365304, 215309.219737
  24.445603, 215309.219737
  24.525884, 215309.219737
  24.606149, 215309.219737
  24.686475, 215309.219737
  24.766695, 215309.219737
  24.847055, 215309.219737
  24.927300, 215309.219737
  24.943382, 215309.219737
  24.958277, 215309.219737
  24.963806, 215309.219645
  24.969337, 215309.219356
  24.970443, 215309.219271
  24.973628, 215309.218979
  24.973679, 215309.218974
  24.973750, 215309.218967
  24.973766, 215309.218965
  24.973771, 215309.218964
  24.973778, 215309.218964
  24.973820, 215309.218959
  24.974038, 215309.218936
  24.974897, 215309.218841
  24.977207, 215309.218557
  24.980974, 215309.218001
  24.986493, 215309.216967
  24.992019, 215309.215648
  24.997548, 215309.214022
  25.003090, 215309.212060
  25.008635, 215309.209740
  25.014182, 215309.207037
  25.019730, 215309.203926
  25.025283, 215309.200376
  25.030813, 215309.196381
  25.036345, 215309.191898
  25.041897, 215309.186881
  25.047457, 215309.181308
  25.053026, 215309.175145
  25.058597, 215309.168366
  25.064166, 215309.160947
  25.069746, 215309.152836
  25.075327, 215309.144011
  25.080901, 215309.134453
  25.086489, 215309.124089
  25.092082, 215309.112899
  25.097680, 215309.100845
  25.103281, 215309.087888
  25.108870, 215309.074034
  25.114473, 215309.059173
  25.120060, 215309.043352
  25.125675, 215309.026402
  25.131298, 215309.008333
  25.136924, 215308.989114
  25.142520, 215308.968828
  25.148154, 215308.947181
  25.153785, 215308.924273
  25.159405, 215308.900105
  25.165050, 215308.874466
  25.170696, 215308.847412
  25.176341, 215308.818903
  25.181995, 215308.788843
  25.187659, 215308.757170
  25.193326, 215308.723866
  25.198983, 215308.688957
  25.204650, 215308.652281
  25.210316, 215308.613844
  25.215973, 215308.573648
  25.221629, 215308.531609
  25.227325, 215308.487331
  25.233016, 215308.441097
  25.238720, 215308.392703
  25.244430, 215308.342141
  25.250120, 215308.289588
  25.255841, 215308.234512
  25.261560, 215308.177158
  25.267275, 215308.117479
  25.273010, 215308.055173
  25.278715, 215307.990708
  25.284435, 215307.923528
  25.290182, 215307.853417
  25.295934, 215307.780548
  25.301692, 215307.704832
  25.307422, 215307.626675
  25.313186, 215307.545140
  25.318964, 215307.460437
  25.324750, 215307.372548
  25.330546, 215307.281364
  25.336291, 215307.187794
  25.342090, 215307.090086
  25.347866, 215306.989408
  25.353671, 215306.884800
  25.359455, 215306.777065
  25.365279, 215306.665004
  25.371067, 215306.549959
  25.376885, 215306.430578
  25.382716, 215306.307066
  25.388553, 215306.179503
  25.394399, 215306.047709
  25.400261, 215305.911444
  25.406122, 215305.770971
  25.411970, 215305.626539
  25.417819, 215305.477719
  25.423710, 215305.323340
  25.429565, 215305.165338
  25.435456, 215305.001706
  25.441369, 215304.832689
  25.447279, 215304.658849
  25.453170, 215304.480625
  25.459077, 215304.296851
  25.464970, 215304.108396
  25.470897, 215303.913578
  25.476849, 215303.712542
  25.482770, 215303.507082
  25.488709, 215303.295422
  25.494590, 215303.080222
  25.500568, 215302.855672
  25.506503, 215302.626866
  25.512493, 215302.391280
  25.518476, 215302.151232
  25.524453, 215301.906744
  25.530448, 215301.656718
  25.536448, 215301.401735
  25.542450, 215301.141771
  25.548477, 215300.875816
  25.554526, 215300.603964
  25.560561, 215300.327716
  25.566593, 215300.046593
  25.572620, 215299.760724
  25.578660, 215299.469076
  25.584707, 215299.172016
  25.590790, 215298.868012
  25.596847, 215298.560021
  25.602949, 215298.244515
  25.609055, 215297.923468
  25.615151, 215297.597532
  25.621250, 215297.266050
  25.627341, 215296.929584
  25.633459, 215296.586163
  25.639585, 215296.236786
  25.645685, 215295.883305
  25.651819, 215295.522295
  25.657961, 215295.155123
  25.664089, 215294.783123
  25.670235, 215294.404298
  25.676382, 215294.019665
  25.682550, 215293.627904
  25.688725, 215293.229769
  25.694919, 215292.824542
  25.701099, 215292.414214
  25.707301, 215291.996393
  25.713498, 215291.572857
  25.719700, 215291.142964
  25.725937, 215290.704385
  25.732174, 215290.259578
  25.738405, 215289.808957
  25.744639, 215289.351850
  25.750865, 215288.889010
  25.757121, 215288.417503
  25.763345, 215287.942058
  25.769601, 215287.457699
  25.775877, 215286.965293
  25.782156, 215286.466034
  25.788488, 215285.955850
  25.794811, 215285.439711
  25.801123, 215284.917639
  25.807440, 215284.388390
  25.813764, 215283.851607
  25.820097, 215283.307295
  25.826475, 215282.752020
  25.832851, 215282.189788
  25.839212, 215281.621922
  25.845585, 215281.045783
  25.851949, 215280.463293
  25.858343, 215279.870822
  25.864735, 215279.271185
  25.871180, 215278.659234
  25.877627, 215278.039633
  25.884071, 215277.412730
  25.890498, 215276.780027
  25.896967, 215276.135499
  25.903447, 215275.482182
  25.909904, 215274.823454
  25.916359, 215274.157270
  25.922849, 215273.479537
  25.929391, 215272.788496
  25.935916, 215272.091127
  25.942437, 215271.386228
  25.948969, 215270.672030
  25.955533, 215269.946084
  25.962098, 215269.211752
  25.968667, 215268.468669
  25.975235, 215267.717301
  25.981782, 215266.960066
  25.988389, 215266.187388
  25.995015, 215265.403793
  26.001665, 215264.608737
  26.006503, 215264.024813
  26.008277, 215263.809548
  26.014923, 215262.997368
  26.021592, 215262.173590
  26.028254, 215261.341739
  26.034933, 215260.498712
  26.041614, 215259.646374
  26.048295, 215258.784965
  26.054948, 215257.918218
  26.061665, 215257.033688
  26.068346, 215256.144791
  26.075082, 215255.239153
  26.081831, 215254.322321
  26.088590, 215253.394594
  26.095335, 215252.459137
  26.102072, 215251.515174
  26.108800, 215250.562958
  26.115596, 215249.591248
  26.122392, 215248.609742
  26.129204, 215247.615970
  26.136029, 215246.610231
  26.142882, 215245.590191
  26.149722, 215244.561843
  26.156570, 215243.522095
  26.163419, 215242.471802
  26.170273, 215241.410469
  26.177139, 215240.336767
  26.184026, 215239.249395
  26.190935, 215238.147783
  26.197866, 215237.032002
  26.204818, 215235.901764
  26.211791, 215234.757392
  26.218749, 215233.604276
  26.225710, 215232.439724
  26.232725, 215231.254809
  26.239715, 215230.062810
  26.246750, 215228.851896
  26.253776, 215227.631013
  26.260792, 215226.400283
  26.267878, 215225.145770
  26.274956, 215223.880845
  26.282031, 215222.604521
  26.289122, 215221.313514
  26.296206, 215220.011736
  26.303329, 215218.690751
  26.310437, 215217.360582
  26.317615, 215216.004847
  26.324795, 215214.636170
  26.331937, 215213.262585
  26.339136, 215211.865159
  26.346285, 215210.464971
  26.353487, 215209.041932
  26.360674, 215207.608809
  26.367879, 215206.159345
  26.375088, 215204.696267
  26.382363, 215203.206525
  26.389652, 215201.700768
  26.396942, 215200.181347
  26.404243, 215198.646286
  26.411548, 215197.096590
  26.418861, 215195.531899
  26.426248, 215193.937392
  26.433621, 215192.331736
  26.440985, 215190.714425
  26.448367, 215189.078950
  26.455759, 215187.426899
  26.463154, 215185.760227
  26.470614, 215184.064227
  26.478027, 215182.364442
  26.485477, 215180.641632
  26.492874, 215178.916710
  26.500353, 215177.157681
  26.507857, 215175.377918
  26.515318, 215173.593441
  26.522833, 215171.780805
  26.530395, 215169.941649
  26.537931, 215168.093385
  26.545512, 215166.218499
  26.553075, 215164.332451
  26.560615, 215162.436568
  26.568226, 215160.507112
  26.575857, 215158.556328
  26.583504, 215156.585512
  26.591158, 215154.596547
  26.598834, 215152.585520
  26.606517, 215150.556319
  26.614183, 215148.514941
  26.621886, 215146.447069
  26.629611, 215144.356444
  26.637341, 215142.247513
  26.645092, 215140.115836
  26.652843, 215137.966770
  26.660628, 215135.791285
  26.668446, 215133.588843
  26.676289, 215131.361762
  26.684116, 215129.121385
  26.691922, 215126.869192
  26.699805, 215124.577016
  26.707679, 215122.268965
  26.715604, 215119.927942
  26.723495, 215117.578289
  26.731452, 215115.190305
  26.739378, 215112.793148
  26.747321, 215110.372079
  26.755316, 215107.916110
  26.763287, 215105.448440
  26.771283, 215102.953695
  26.779297, 215100.433982
  26.787288, 215097.902356
  26.795345, 215095.329764
  26.803403, 215092.737558
  26.811502, 215090.111791
  26.819560, 215087.479413
  26.827633, 215084.822223
  26.835749, 215082.130585
  26.843893, 215079.408873
  26.852015, 215076.674198
  26.860154, 215073.913055
  26.868348, 215071.112387
  26.876520, 215068.298264
  26.884724, 215065.451675
  26.892972, 215062.568580
  26.901181, 215059.677684
  26.909478, 215056.734118
  26.917707, 215053.792965
  26.926005, 215050.805119
  26.934340, 215047.781602
  26.942654, 215044.743267
  26.950998, 215041.671732
  26.959284, 215038.599293
  26.967656, 215035.472412
  26.975997, 215032.334052
  26.984426, 215029.139474
  26.992852, 215025.922691
  27.001310, 215022.670404
  27.009727, 215019.410084
  27.018162, 215016.119634
  27.026603, 215012.803038
  27.035088, 215009.445321
  27.043563, 215006.067229
  27.052080, 215002.648126
  27.060581, 214999.211482
  27.069078, 214995.751687
  27.077600, 214992.257547
  27.086191, 214988.710001
  27.094742, 214985.153992
  27.103367, 214981.541952
  27.111930, 214977.930544
  27.120514, 214974.285240
  27.129235, 214970.555410
  27.137848, 214966.846196
  27.146549, 214963.073187
  27.155177, 214959.305724
  27.163902, 214955.469389
  27.172637, 214951.602094
  27.181390, 214947.699921
  27.190155, 214943.765694
  27.198901, 214939.812887
  27.207731, 214935.794466
  27.216571, 214931.744259
  27.225358, 214927.690598
  27.234210, 214923.578860
  27.243098, 214919.422605
  27.251911, 214915.273458
  27.260819, 214911.050746
  27.269756, 214906.786027
  27.278648, 214902.513862
  27.287564, 214898.201930
  27.296494, 214893.853928
  27.305481, 214889.448611
  27.314430, 214885.032868
  27.323421, 214880.567003
  27.332486, 214876.034443
  27.341551, 214871.471142
  27.350565, 214866.903937
  27.359573, 214862.309035
  27.368695, 214857.625879
  27.377764, 214852.939085
  27.386823, 214848.227132
  27.395943, 214843.452478
  27.405158, 214838.595681
  27.414228, 214833.784781
  27.423413, 214828.881371
  27.432576, 214823.957557
  27.441762, 214818.989637
  27.450977, 214813.974081
  27.460195, 214808.924320
  27.469485, 214803.802246
  27.478729, 214798.673024
  27.488004, 214793.493666
  27.497328, 214788.253311
  27.506695, 214782.955507
  27.515993, 214777.662951
  27.525303, 214772.330032
  27.534606, 214766.967791
  27.543996, 214761.521203
  27.553278, 214756.103371
  27.562753, 214750.538148
  27.572186, 214744.962905
  27.581532, 214739.404416
  27.590965, 214733.759278
  27.600435, 214728.056852
  27.609872, 214722.338979
  27.619349, 214716.561555
  27.628694, 214710.829682
  27.638105, 214705.022029
  27.647565, 214699.148221
  27.657105, 214693.188991
  27.666633, 214687.200955
  27.676212, 214681.144160
  27.685832, 214675.023924
  27.695400, 214668.900357
  27.704920, 214662.770285
  27.714451, 214656.596856
  27.724032, 214650.353143
  27.733619, 214644.069067
  27.743324, 214637.669002
  27.752970, 214631.269901
  27.762610, 214624.836237
  27.772286, 214618.340958
  27.782008, 214611.775929
  27.791758, 214605.152985
  27.801448, 214598.531688
  27.811173, 214591.847208
  27.820906, 214585.119071
  27.830604, 214578.374927
  27.840231, 214571.642175
  27.849979, 214564.785271
  27.859813, 214557.827720
  27.869515, 214550.924352
  27.879334, 214543.897301
  27.889180, 214536.810122
  27.899027, 214529.681183
  27.908879, 214522.508147
  27.918720, 214515.302798
  27.928512, 214508.092232
  27.938422, 214500.753042
  27.948180, 214493.486164
  27.958150, 214486.019559
  27.967957, 214478.633788
  27.977892, 214471.109820
  27.987757, 214463.597418
  27.997642, 214456.027374
  28.007532, 214448.411913
  28.017459, 214440.725717
  28.027435, 214432.959049
  28.037411, 214425.149955
  28.047290, 214417.373419
  28.057309, 214409.444171
  28.067381, 214401.429314
  28.077390, 214393.421386
  28.087479, 214385.304819
  28.097518, 214377.185103
  28.107611, 214368.976950
  28.117705, 214360.723174
  28.127713, 214352.497121
  28.137753, 214344.199285
  28.147813, 214335.841242
  28.157759, 214327.534498
  28.167934, 214318.991412
  28.178073, 214310.433463
  28.188128, 214301.901173
  28.198201, 214293.308704
  28.208409, 214284.555634
  28.218600, 214275.771525
  28.228826, 214266.910937
  28.238957, 214258.086424
  28.249085, 214249.219478
  28.259278, 214240.249453
  28.269521, 214231.188430
  28.279716, 214222.123823
  28.290024, 214212.911064
  28.300347, 214203.637532
  28.310610, 214194.370813
  28.320958, 214184.979230
  28.331278, 214175.565083
  28.341431, 214166.256489
  28.351677, 214156.816309
  28.361961, 214147.292905
  28.372305, 214137.666176
  28.382583, 214128.053329
  28.392910, 214118.346167
  28.403171, 214108.653504
  28.413521, 214098.827589
  28.423829, 214088.994161
  28.434333, 214078.924417
  28.444671, 214068.964444
  28.455023, 214058.941505
  28.465499, 214048.749503
  28.475937, 214038.545150
  28.486289, 214028.375097
  28.496710, 214018.088442
  28.507080, 214007.802320
  28.517450, 213997.467314
  28.527905, 213986.997729
  28.538217, 213976.621961
  28.548738, 213965.986138
  28.559140, 213955.420304
  28.569678, 213944.666297
  28.579450, 213934.647775
