Time, Vertical Forces
   0.000100, 217345.675961
   0.000632, 217345.675961
   0.002362, 217345.675961
   0.007810, 217345.675961
   0.019716, 217345.675961
   0.046627, 217345.675961
   0.078519, 217345.675961
   0.110456, 217345.675961
   0.142579, 217345.675961
   0.174618, 217345.675961
   0.206901, 217345.675961
   0.239426, 217345.675961
   0.271874, 217345.675961
   0.304701, 217345.675961
   0.337471, 217345.675961
   0.370188, 217345.675961
   0.403205, 217345.675961
   0.436638, 217345.675961
   0.469995, 217345.675961
   0.503508, 217345.675961
   0.537360, 217345.675961
   0.571740, 217345.675961
   0.606439, 217345.675961
   0.641421, 217345.675961
   0.676668, 217345.675961
   0.712038, 217345.675961
   0.747581, 217345.675961
   0.783587, 217345.675961
   0.819557, 217345.675961
   0.855929, 217345.675961
   0.892688, 217345.675961
   0.929852, 217345.675961
   0.967638, 217345.675961
   1.005564, 217345.675961
   1.043326, 217345.675961
   1.081385, 217345.675961
   1.120205, 217345.675961
   1.159634, 217345.675961
   1.199424, 217345.675961
   1.238704, 217345.675961
   1.278756, 217345.675961
   1.319481, 217345.675961
   1.360143, 217345.675961
   1.401969, 217345.675961
   1.443441, 217345.675961
   1.485379, 217345.675961
   1.527124, 217345.675961
   1.569387, 217345.675961
   1.612102, 217345.675961
   1.655462, 217345.675961
   1.699134, 217345.675961
   1.743123, 217345.675961
   1.787631, 217345.675961
   1.832473, 217345.675961
   1.877673, 217345.675961
   1.922654, 217345.675961
   1.968211, 217345.675961
   2.014195, 217345.675961
   2.060824, 217345.675961
   2.107702, 217345.675961
   2.154902, 217345.675961
   2.202426, 217345.675961
   2.250753, 217345.675961
   2.298893, 217345.675961
   2.347503, 217345.675961
   2.396556, 217345.675961
   2.445826, 217345.675961
   2.494925, 217345.675961
   2.544995, 217345.675961
   2.595247, 217345.675961
   2.646651, 217345.675961
   2.697573, 217345.675961
   2.748871, 217345.675961
   2.800237, 217345.675961
   2.852218, 217345.675961
   2.904484, 217345.675961
   2.957242, 217345.675961
   3.010278, 217345.675961
   3.063591, 217345.675961
   3.117987, 217345.675961
   3.172129, 217345.675961
   3.227036, 217345.675961
   3.281792, 217345.675961
   3.336819, 217345.675961
   3.392033, 217345.675961
   3.447674, 217345.675961
   3.502984, 217345.675961
   3.559863, 217345.675961
   3.616413, 217345.675961
   3.673662, 217345.675961
   3.730989, 217345.675961
   3.789110, 217345.675961
   3.847375, 217345.675961
   3.905527, 217345.675961
   3.963912, 217345.675961
   4.022601, 217345.675961
   4.081683, 217345.675961
   4.141194, 217345.675961
   4.200985, 217345.675961
   4.261499, 217345.675961
   4.273535, 217345.675961
   4.281406, 217345.675961
   4.286013, 217345.675961
   4.288837, 217345.675961
   4.289262, 217345.675961
   4.289738, 217345.675961
   4.289828, 217345.675961
   4.289984, 217345.675961
   4.290029, 217345.675961
   4.290108, 217345.675961
   4.290137, 217345.675961
   4.290164, 217345.675961
   4.290411, 217345.675961
   4.292430, 217345.675961
   4.300924, 217345.675961
   4.324907, 217345.675961
   4.373620, 217345.675961
   4.427574, 217345.675961
   4.482080, 217345.675961
   4.536699, 217345.675961
   4.592296, 217345.675961
   4.647904, 217345.675961
   4.703802, 217345.675961
   4.759625, 217345.675961
   4.815619, 217345.675961
   4.872083, 217345.675961
   4.928569, 217345.675961
   4.985721, 217345.675961
   5.043082, 217345.675961
   5.100469, 217345.675961
   5.158303, 217345.675961
   5.216162, 217345.675961
   5.273741, 217345.675961
   5.332018, 217345.675961
   5.390568, 217345.675961
   5.449400, 217345.675961
   5.508642, 217345.675961
   5.567588, 217345.675961
   5.627199, 217345.675961
   5.686956, 217345.675961
   5.746944, 217345.675961
   5.807394, 217345.675961
   5.867599, 217345.675961
   5.928402, 217345.675961
   5.989059, 217345.675961
   6.050190, 217345.675961
   6.111453, 217345.675961
   6.173025, 217345.675961
   6.234627, 217345.675961
   6.296890, 217345.675961
   6.359063, 217345.675961
   6.421499, 217345.675961
   6.484260, 217345.675961
   6.546583, 217345.675961
   6.609626, 217345.675961
   6.673339, 217345.675961
   6.736930, 217345.675961
   6.800860, 217345.675961
   6.865045, 217345.675961
   6.929200, 217345.675961
   6.993669, 217345.675961
   7.058575, 217345.675961
   7.123792, 217345.675961
   7.189284, 217345.675961
   7.255008, 217345.675961
   7.320662, 217345.675961
   7.386356, 217345.675961
   7.452832, 217345.675961
   7.519254, 217345.675961
   7.585275, 217345.675961
   7.652117, 217345.675961
   7.719488, 217345.675961
   7.786774, 217345.675961
   7.854018, 217345.675961
   7.921845, 217345.675961
   7.989615, 217345.675961
   8.057686, 217345.675961
   8.126200, 217345.675961
   8.194340, 217345.675961
   8.263142, 217345.675961
   8.331679, 217345.675961
   8.401126, 217345.675961
   8.470184, 217345.675961
   8.539703, 217345.675961
   8.609783, 217345.675961
   8.679447, 217345.675961
   8.749597, 217345.675961
   8.763737, 217345.675961
   8.774587, 217345.675961
   8.782581, 217345.675961
   8.788012, 217345.675961
   8.792073, 217345.675961
   8.795196, 217345.675961
   8.798286, 217345.675961
   8.800833, 217345.675961
   8.802797, 217345.675961
   8.803141, 217345.675961
   8.803529, 217345.675961
   8.804132, 217345.675961
   8.804171, 217345.675961
   8.804200, 217345.675961
   8.804218, 217345.675961
   8.804230, 217345.675961
   8.804238, 217345.675961
   8.804246, 217345.675961
   8.804325, 217345.675961
   8.805020, 217345.675961
   8.808549, 217345.675961
   8.821724, 217345.675961
   8.866421, 217345.675961
   8.928553, 217345.675961
   8.991871, 217345.675961
   9.054793, 217345.675961
   9.117844, 217345.675961
   9.180960, 217345.675961
   9.244496, 217345.675961
   9.307884, 217345.675961
   9.371768, 217345.675961
   9.435745, 217345.675961
   9.499891, 217345.675961
   9.564041, 217345.675961
   9.628402, 217345.675961
   9.693200, 217345.675961
   9.758346, 217345.675961
   9.823491, 217345.675961
   9.888576, 217345.675961
   9.953854, 217345.675961
  10.019276, 217345.675961
  10.085060, 217345.675961
  10.150762, 217345.675961
  10.216867, 217345.675961
  10.282919, 217345.675961
  10.349200, 217345.675961
  10.415624, 217345.675961
  10.482265, 217345.675961
  10.549194, 217345.675961
  10.616045, 217345.675961
  10.683371, 217345.675961
  10.750420, 217345.675961
  10.817613, 217345.675961
  10.885135, 217345.675961
  10.952872, 217345.675961
  11.020906, 217345.675961
  11.088637, 217345.675961
  11.156876, 217345.675961
  11.225308, 217345.675961
  11.293888, 217345.675961
  11.362717, 217345.675961
  11.431846, 217345.675961
  11.501033, 217345.675961
  11.570289, 217345.675961
  11.639591, 217345.675961
  11.709080, 217345.675961
  11.779020, 217345.675961
  11.848915, 217345.675961
  11.918971, 217345.675961
  11.989262, 217345.675961
  12.059539, 217345.675961
  12.130239, 217345.675961
  12.200687, 217345.675961
  12.271630, 217345.675961
  12.342622, 217345.675961
  12.413637, 217345.675961
  12.485215, 217345.675961
  12.556964, 217345.675961
  12.628759, 217345.675961
  12.700733, 217345.675961
  12.772823, 217345.675961
  12.845021, 217345.675961
  12.917255, 217345.675961
  12.989544, 217345.675961
  13.062263, 217345.675961
  13.134898, 217345.675961
  13.207543, 217345.675961
  13.280442, 217345.675961
  13.353508, 217345.675961
  13.426716, 217345.675961
  13.500046, 217345.675961
  13.573365, 217345.675961
  13.646985, 217345.675961
  13.649947, 217345.675961
  13.652406, 217345.675961
  13.654708, 217345.675961
  13.656955, 217345.675961
  13.657471, 217345.675961
  13.657594, 217345.675961
  13.657838, 217345.675961
  13.657903, 217345.675961
  13.657917, 217345.675961
  13.657926, 217345.675961
  13.657935, 217345.675961
  13.658024, 217345.675961
  13.658878, 217345.675961
  13.663460, 217345.675961
  13.682782, 217345.675961
  13.733349, 217345.675961
  13.798440, 217345.675961
  13.862966, 217345.675961
  13.927720, 217345.675961
  13.992571, 217345.675961
  14.057721, 217345.675961
  14.122851, 217345.675961
  14.187995, 217345.675961
  14.253111, 217345.675961
  14.318667, 217345.675961
  14.384148, 217345.675961
  14.449795, 217345.675961
  14.515704, 217345.675961
  14.581830, 217345.675961
  14.647938, 217345.675961
  14.714090, 217345.675961
  14.780360, 217345.675961
  14.846860, 217345.675961
  14.913405, 217345.675961
  14.980021, 217345.675961
  15.046797, 217345.675961
  15.113642, 217345.675961
  15.180865, 217345.675961
  15.248068, 217345.675961
  15.315504, 217345.675961
  15.382891, 217345.675961
  15.450354, 217345.675961
  15.518105, 217345.675961
  15.585817, 217345.675961
  15.653725, 217345.675961
  15.721710, 217345.675961
  15.789822, 217345.675961
  15.858050, 217345.675961
  15.926280, 217345.675961
  15.994739, 217345.675961
  16.063223, 217345.675961
  16.131940, 217345.675961
  16.200856, 217345.675961
  16.269740, 217345.675961
  16.338834, 217345.675961
  16.408031, 217345.675961
  16.477512, 217345.675961
  16.546847, 217345.675961
  16.616358, 217345.675961
  16.686073, 217345.675961
  16.755794, 217345.675961
  16.825644, 217345.675961
  16.895737, 217345.675961
  16.965827, 217345.675961
  17.036031, 217345.675961
  17.106409, 217345.675961
  17.176918, 217345.675961
  17.247563, 217345.675961
  17.318462, 217345.675961
  17.389277, 217345.675961
  17.460300, 217345.675961
  17.531368, 217345.675961
  17.602489, 217345.675961
  17.673791, 217345.675961
  17.745181, 217345.675961
  17.816968, 217345.675961
  17.888629, 217345.675961
  17.960487, 217345.675961
  18.032521, 217345.675961
  18.104737, 217345.675961
  18.176982, 217345.675961
  18.249403, 217345.675961
  18.321711, 217345.675961
  18.394256, 217345.675961
  18.467015, 217345.675961
  18.539839, 217345.675961
  18.612653, 217345.675961
  18.685686, 217345.675961
  18.758868, 217345.675961
  18.832026, 217345.675961
  18.905203, 217345.675961
  18.978674, 217345.675961
  18.993394, 217345.675961
  19.049434, 217345.675961
  19.049585, 217345.675961
  19.049694, 217345.675961
  19.049756, 217345.675961
  19.049835, 217345.675961
  19.050621, 217345.675961
  19.056018, 217345.675961
  19.084647, 217345.675961
  19.150699, 217345.675961
  19.224431, 217345.675961
  19.298042, 217345.675961
  19.371615, 217345.675961
  19.445451, 217345.675961
  19.519083, 217345.675961
  19.593016, 217345.675961
  19.667042, 217345.675961
  19.741175, 217345.675961
  19.815291, 217345.675961
  19.889756, 217345.675961
  19.964174, 217345.675961
  20.038740, 217345.675961
  20.113380, 217345.675961
  20.188124, 217345.675961
  20.263133, 217345.675961
  20.338239, 217345.675961
  20.413320, 217345.675961
  20.488688, 217345.675961
  20.564335, 217345.675961
  20.639985, 217345.675961
  20.715592, 217345.675961
  20.791262, 217345.675961
  20.867052, 217345.675961
  20.943177, 217345.675961
  21.019380, 217345.675961
  21.095590, 217345.675961
  21.171820, 217345.675961
  21.248344, 217345.675961
  21.324901, 217345.675961
  21.401621, 217345.675961
  21.478348, 217345.675961
  21.555309, 217345.675961
  21.632358, 217345.675961
  21.709609, 217345.675961
  21.786757, 217345.675961
  21.864157, 217345.675961
  21.941761, 217345.675961
  22.019264, 217345.675961
  22.096879, 217345.675961
  22.174677, 217345.675961
  22.252707, 217345.675961
  22.330725, 217345.675961
  22.408705, 217345.675961
  22.486792, 217345.675961
  22.565126, 217345.675961
  22.643530, 217345.675961
  22.722187, 217345.675961
  22.800961, 217345.675961
  22.879830, 217345.675961
  22.958817, 217345.675961
  23.037711, 217345.675961
  23.116741, 217345.675961
  23.196082, 217345.675961
  23.230583, 217345.675961
  23.275274, 217345.675961
  23.354846, 217345.675961
  23.434470, 217345.675961
  23.514291, 217345.675961
  23.594172, 217345.675961
  23.674409, 217345.675961
  23.754539, 217345.675961
  23.834918, 217345.675961
  23.915403, 217345.675961
  23.995970, 217345.675961
  24.076794, 217345.675961
  24.157505, 217345.675961
  24.238470, 217345.675961
  24.319265, 217345.675961
  24.400484, 217345.675961
  24.481738, 217345.675961
  24.562986, 217345.675961
  24.644217, 217345.675961
  24.725560, 217345.675961
  24.806840, 217345.675961
  24.888306, 217345.675961
  24.969716, 217345.675961
  25.051117, 217345.675961
  25.132524, 217345.675961
  25.213874, 217345.675961
  25.230130, 217345.675961
  25.233529, 217345.675961
  25.236982, 217345.675961
  25.237053, 217345.675961
  25.237114, 217345.675961
  25.237129, 217345.675961
  25.237143, 217345.675961
  25.237282, 217345.675961
  25.238584, 217345.675961
  25.247185, 217345.675961
  25.287020, 217345.675961
  25.371526, 217345.675961
  25.456179, 217345.675961
  25.540754, 217345.675961
  25.546377, 217345.675622
  25.551994, 217345.674582
  25.557624, 217345.672796
  25.563242, 217345.670234
  25.568840, 217345.666866
  25.574477, 217345.662611
  25.580095, 217345.657468
  25.585745, 217345.651344
  25.591398, 217345.644219
  25.597031, 217345.636082
  25.602690, 217345.626820
  25.608349, 217345.616424
  25.614013, 217345.604835
  25.619657, 217345.592063
  25.625312, 217345.577995
  25.630992, 217345.562532
  25.636669, 217345.545698
  25.642331, 217345.527480
  25.647995, 217345.507779
  25.653676, 217345.486486
  25.659369, 217345.463556
  25.665067, 217345.438951
  25.670752, 217345.412708
  25.676449, 217345.384650
  25.682151, 217345.354749
  25.687845, 217345.323020
  25.693545, 217345.289325
  25.699266, 217345.253510
  25.704988, 217345.215629
  25.710723, 217345.175535
  25.716469, 217345.133161
  25.722205, 217345.088612
  25.727931, 217345.041820
  25.733682, 217344.992444
  25.739450, 217344.940450
  25.745173, 217344.886368
  25.750917, 217344.829500
  25.756676, 217344.769830
  25.762461, 217344.707154
  25.768243, 217344.641694
  25.774027, 217344.573313
  25.779830, 217344.501743
  25.785636, 217344.427086
  25.791431, 217344.349457
  25.797223, 217344.268680
  25.803032, 217344.184407
  25.808848, 217344.096667
  25.814690, 217344.005095
  25.820515, 217343.910249
  25.826326, 217343.812063
  25.832162, 217343.709773
  25.838026, 217343.603203
  25.843897, 217343.492592
  25.849727, 217343.378852
  25.855587, 217343.260482
  25.861457, 217343.137758
  25.867337, 217343.010622
  25.873235, 217342.878734
  25.879141, 217342.742255
  25.885044, 217342.601282
  25.890942, 217342.455830
  25.896829, 217342.305953
  25.902729, 217342.150985
  25.908649, 217341.990558
  25.914573, 217341.825025
  25.920502, 217341.655285
  25.926419, 217341.481824
  25.932353, 217341.303746
  25.938301, 217341.121081
  25.944243, 217340.934414
  25.950188, 217340.743422
  25.956174, 217340.546824
  25.962111, 217340.347575
  25.968092, 217340.142505
  25.974081, 217339.932785
  25.980083, 217339.718167
  25.986075, 217339.499448
  25.992100, 217339.275018
  25.998118, 217339.046300
  26.004106, 217338.814199
  26.010108, 217338.576981
  26.016130, 217338.334333
  26.022157, 217338.086834
  26.028191, 217337.834346
  26.034256, 217337.575756
  26.040312, 217337.312793
  26.046362, 217337.045203
  26.052425, 217336.772246
  26.058485, 217336.494484
  26.064572, 217336.210567
  26.070655, 217335.921786
  26.076736, 217335.628131
  26.082829, 217335.328869
  26.088897, 217335.025730
  26.095002, 217334.715594
  26.101105, 217334.400420
  26.107234, 217334.078694
  26.113369, 217333.751345
  26.119490, 217333.419478
  26.125629, 217333.081292
  26.131775, 217332.737281
  26.137921, 217332.387899
  26.144075, 217332.032556
  26.150225, 217331.671995
  26.156384, 217331.305367
  26.162574, 217330.931293
  26.168764, 217330.551562
  26.174971, 217330.165064
  26.181165, 217329.773655
  26.187347, 217329.377229
  26.193574, 217328.972127
  26.199792, 217328.561737
  26.205985, 217328.147154
  26.212246, 217327.722060
  26.218506, 217327.290984
  26.224774, 217326.853223
  26.231059, 217326.408182
  26.237339, 217325.957316
  26.243604, 217325.501365
  26.249871, 217325.039060
  26.256176, 217324.567582
  26.262472, 217324.090450
  26.268768, 217323.607014
  26.275054, 217323.117900
  26.281378, 217322.619410
  26.287734, 217322.111803
  26.294075, 217321.598719
  26.300428, 217321.078103
  26.306802, 217320.549036
  26.313174, 217320.013307
  26.319562, 217319.469476
  26.325928, 217318.920718
  26.332313, 217318.363394
  26.338696, 217317.799338
  26.345049, 217317.231005
  26.351451, 217316.651287
  26.357891, 217316.061033
  26.364318, 217315.464790
  26.370769, 217314.859017
  26.377252, 217314.242946
  26.383725, 217313.620482
  26.390199, 217312.990560
  26.396680, 217312.352444
  26.403195, 217311.703382
  26.409695, 217311.048271
  26.414573, 217310.551656
  26.416192, 217310.385848
  26.422678, 217309.717009
  26.429218, 217309.034787
  26.435810, 217308.339247
  26.442354, 217307.640834
  26.448942, 217306.929817
  26.455533, 217306.210398
  26.462119, 217305.483386
  26.468747, 217304.743542
  26.475335, 217304.000133
  26.481921, 217303.248607
  26.488532, 217302.486015
  26.495163, 217301.712711
  26.501816, 217300.928400
  26.508453, 217300.137454
  26.515123, 217299.334139
  26.521804, 217298.520736
  26.528483, 217297.698902
  26.535178, 217296.866197
  26.541882, 217296.023764
  26.548615, 217295.168628
  26.555360, 217294.302924
  26.562113, 217293.427071
  26.568898, 217292.537901
  26.575704, 217291.636660
  26.582464, 217290.732260
  26.589293, 217289.809227
  26.596089, 217288.881237
  26.602939, 217287.936324
  26.609745, 217286.987860
  26.616595, 217286.023496
  26.623466, 217285.046601
  26.630310, 217284.063591
  26.637141, 217283.072766
  26.644042, 217282.061786
  26.650952, 217281.039282
  26.657867, 217280.006044
  26.664776, 217278.963626
  26.671731, 217277.903752
  26.678640, 217276.840765
  26.685565, 217275.764776
  26.692535, 217274.671539
  26.699550, 217273.560416
  26.706517, 217272.446230
  26.713545, 217271.311551
  26.720555, 217270.168972
  26.727583, 217269.012519
  26.734620, 217267.843503
  26.741653, 217266.664216
  26.748705, 217265.470689
  26.755778, 217264.262110
  26.762887, 217263.036139
  26.770002, 217261.797777
  26.777087, 217260.553031
  26.784264, 217259.280445
  26.791372, 217258.008422
  26.798543, 217256.713356
  26.805707, 217255.407590
  26.812873, 217254.089621
  26.820064, 217252.755003
  26.827301, 217251.399442
  26.834508, 217250.037486
  26.841744, 217248.657524
  26.848973, 217247.266571
  26.856216, 217245.860364
  26.863476, 217244.438371
  26.870742, 217243.002499
  26.878047, 217241.546202
  26.885355, 217240.076310
  26.892694, 217238.587047
  26.899966, 217237.098439
  26.907326, 217235.578822
  26.914708, 217234.041014
  26.922108, 217232.486262
  26.929544, 217230.910111
  26.937020, 217229.311546
  26.944430, 217227.713365
  26.951889, 217226.090888
  26.959345, 217224.454897
  26.966768, 217222.812447
  26.974236, 217221.145826
  26.981743, 217219.455991
  26.989242, 217217.753934
  26.996758, 217216.033395
  27.004305, 217214.291165
  27.011819, 217212.541827
  27.019360, 217210.771541
  27.026933, 217208.978957
  27.034564, 217207.157571
  27.042084, 217205.347413
  27.049753, 217203.486369
  27.057390, 217201.617718
  27.065046, 217199.728654
  27.072672, 217197.831535
  27.080354, 217195.905007
  27.088018, 217193.967017
  27.095678, 217192.014436
  27.103406, 217190.028342
  27.111121, 217188.029368
  27.118900, 217185.997695
  27.126712, 217183.940601
  27.134501, 217181.873044
  27.142312, 217179.782715
  27.150156, 217177.666851
  27.157977, 217175.540105
  27.165828, 217173.388355
  27.173676, 217171.219901
  27.181522, 217169.035226
  27.189393, 217166.825841
  27.197334, 217164.579198
  27.205259, 217162.319381
  27.213189, 217160.040479
  27.221093, 217157.751100
  27.229052, 217155.427674
  27.236971, 217153.098051
  27.244987, 217150.721397
  27.252953, 217148.341291
  27.261030, 217145.909490
  27.269146, 217143.446449
  27.277196, 217140.984779
  27.285264, 217138.498611
  27.293317, 217135.997756
  27.301394, 217133.470561
  27.309515, 217130.910156
  27.317650, 217128.325544
  27.325755, 217125.730934
  27.333912, 217123.099952
  27.342111, 217120.435576
  27.350307, 217117.751607
  27.358557, 217115.029830
  27.366811, 217112.286038
  27.375053, 217109.525578
  27.383278, 217106.750436
  27.391532, 217103.944477
  27.399801, 217101.112525
  27.408119, 217098.242995
  27.416487, 217095.334138
  27.424829, 217092.413161
  27.433182, 217089.466571
  27.441506, 217086.508615
  27.449929, 217083.493607
  27.458283, 217080.481231
  27.466650, 217077.442446
  27.475056, 217074.367163
  27.483473, 217071.265350
  27.491921, 217068.129540
  27.500436, 217064.945933
  27.508911, 217061.754259
  27.517456, 217058.513153
  27.525937, 217055.273348
  27.534507, 217051.975646
  27.543058, 217048.661703
  27.551624, 217045.318115
  27.560202, 217041.946333
  27.568820, 217038.534276
  27.577454, 217035.091785
  27.586063, 217031.635264
  27.594731, 217028.129967
  27.603389, 217024.604109
  27.612097, 217021.032857
  27.620802, 217017.437846
  27.629458, 217013.837962
  27.638154, 217010.196278
  27.646910, 217006.503970
  27.655633, 217002.800255
  27.664396, 216999.053574
  27.673098, 216995.307311
  27.681884, 216991.498853
  27.690771, 216987.619949
  27.699530, 216983.770960
  27.708400, 216979.846098
  27.717252, 216975.902865
  27.726139, 216971.916538
  27.735000, 216967.914992
  27.743846, 216963.893299
  27.752846, 216959.773411
  27.761733, 216955.678177
  27.770689, 216951.522979
  27.779699, 216947.314980
  27.788639, 216943.111440
  27.797687, 216938.828157
  27.806724, 216934.521729
  27.815837, 216930.150191
  27.824848, 216925.798417
  27.833802, 216921.445701
  27.842870, 216917.008158
  27.851975, 216912.523484
  27.861068, 216908.014931
  27.870218, 216903.448712
  27.879323, 216898.874604
  27.888407, 216894.281582
  27.897545, 216889.631094
  27.906611, 216884.987388
  27.915793, 216880.254003
  27.924944, 216875.506010
  27.934169, 216870.688922
  27.943403, 216865.836045
  27.952680, 216860.928639
  27.961920, 216856.009544
  27.971186, 216851.045517
  27.980447, 216846.051830
  27.989744, 216841.007380
  27.999051, 216835.925221
  28.008422, 216830.775434
  28.017754, 216825.614976
  28.027018, 216820.459575
  28.036342, 216815.238088
  28.045668, 216809.983478
  28.055177, 216804.591712
  28.064575, 216799.229689
  28.074000, 216793.818235
  28.083407, 216788.384345
  28.092851, 216782.894533
  28.102266, 216777.388401
  28.111799, 216771.778217
  28.121325, 216766.137999
  28.130821, 216760.480378
  28.140327, 216754.782678
  28.149852, 216749.038713
  28.159337, 216743.283989
  28.168995, 216737.388588
  28.178544, 216731.523720
  28.188172, 216725.575510
  28.197848, 216719.560442
  28.207518, 216713.512965
  28.217173, 216707.438657
  28.226815, 216701.336011
  28.236522, 216695.154962
  28.246208, 216688.950708
  28.255906, 216682.702082
  28.265552, 216676.449651
  28.275242, 216670.131950
  28.284921, 216663.784167
  28.294688, 216657.341001
  28.304365, 216650.919808
  28.314123, 216644.406508
  28.323906, 216637.839133
  28.333627, 216631.274831
  28.343445, 216624.607527
  28.353298, 216617.876474
  28.363082, 216611.154426
  28.372910, 216604.363100
  28.382707, 216597.554737
  28.392630, 216590.618652
  28.402506, 216583.676561
  28.412368, 216576.704223
  28.422394, 216569.575535
  28.432492, 216562.353841
  28.442541, 216555.126333
  28.452412, 216547.986341
  28.462284, 216540.805447
  28.472266, 216533.504293
  28.482104, 216526.268515
  28.492175, 216518.819728
  28.502251, 216511.324970
  28.512180, 216503.899319
  28.522263, 216496.315781
  28.532337, 216488.697592
  28.542392, 216481.051708
  28.552493, 216473.328574
  28.562497, 216465.636909
  28.572609, 216457.820401
  28.582644, 216450.021206
  28.592715, 216442.151630
  28.602872, 216434.171051
  28.613114, 216426.080660
  28.623136, 216418.120829
  28.633270, 216410.029255
  28.643385, 216401.909401
  28.653599, 216393.666266
  28.663728, 216385.448216
  28.673909, 216377.144616
  28.684039, 216368.837829
  28.694156, 216360.499081
  28.704441, 216351.977253
  28.714633, 216343.487007
  28.724859, 216334.924494
  28.735165, 216326.249872
  28.745327, 216317.651929
  28.755566, 216308.943569
  28.765941, 216300.074428
  28.776235, 216291.228216
  28.786548, 216282.319998
  28.796825, 216273.397572
  28.807121, 216264.413038
  28.817467, 216255.338823
  28.827857, 216246.179102
  28.838204, 216237.010648
  28.848596, 216227.755962
  28.858920, 216218.514661
  28.869243, 216209.228982
  28.879640, 216199.829150
  28.890000, 216190.416593
  28.900496, 216180.832394
  28.910910, 216171.275624
  28.921294, 216161.699229
  28.931773, 216151.987345
  28.942247, 216142.231778
  28.952663, 216132.482526
  28.962978, 216122.781547
  28.973483, 216112.853078
  28.984036, 216102.830309
  28.994517, 216092.828742
  29.004938, 216082.834888
  29.015347, 216072.805785
  29.025752, 216062.732087
  29.036290, 216052.481045
  29.046865, 216042.144587
  29.057476, 216031.723302
  29.067994, 216021.344098
  29.078571, 216010.858061
  29.089058, 216000.411572
  29.094341, 215995.129578
