Time, Vertical Forces
   0.000100, 215314.096506
   0.000597, 215314.096506
   0.002118, 215314.096506
   0.006000, 215314.096506
   0.013409, 215314.096506
   0.025776, 215314.096506
   0.050478, 215314.096506
   0.078860, 215314.096506
   0.107231, 215314.096506
   0.135754, 215314.096506
   0.164285, 215314.096506
   0.192786, 215314.096506
   0.221427, 215314.096506
   0.250002, 215314.096506
   0.278792, 215314.096506
   0.307720, 215314.096506
   0.336801, 215314.096506
   0.365999, 215314.096506
   0.395324, 215314.096506
   0.424752, 215314.096506
   0.454334, 215314.096506
   0.483922, 215314.096506
   0.513902, 215314.096506
   0.543998, 215314.096506
   0.574132, 215314.096506
   0.604589, 215314.096506
   0.635202, 215314.096506
   0.665680, 215314.096506
   0.696805, 215314.096506
   0.728105, 215314.096506
   0.759386, 215314.096506
   0.790805, 215314.096506
   0.823009, 215314.096506
   0.855112, 215314.096506
   0.887601, 215314.096506
   0.920021, 215314.096506
   0.952657, 215314.096506
   0.985716, 215314.096506
   1.019144, 215314.096506
   1.052681, 215314.096506
   1.086312, 215314.096506
   1.120768, 215314.096506
   1.155376, 215314.096506
   1.190329, 215314.096506
   1.225051, 215314.096506
   1.260463, 215314.096506
   1.295730, 215314.096506
   1.331831, 215314.096506
   1.367713, 215314.096506
   1.403564, 215314.096506
   1.439859, 215314.096506
   1.476690, 215314.096506
   1.513168, 215314.096506
   1.550329, 215314.096506
   1.587555, 215314.096506
   1.625520, 215314.096506
   1.663335, 215314.096506
   1.701359, 215314.096506
   1.739975, 215314.096506
   1.778616, 215314.096506
   1.818149, 215314.096506
   1.857714, 215314.096506
   1.897315, 215314.096506
   1.937493, 215314.096506
   1.977233, 215314.096506
   2.017468, 215314.096506
   2.057621, 215314.096506
   2.098892, 215314.096506
   2.140367, 215314.096506
   2.181313, 215314.096506
   2.222727, 215314.096506
   2.264752, 215314.096506
   2.306943, 215314.096506
   2.349666, 215314.096506
   2.392480, 215314.096506
   2.435325, 215314.096506
   2.478412, 215314.096506
   2.521890, 215314.096506
   2.565666, 215314.096506
   2.609548, 215314.096506
   2.653538, 215314.096506
   2.697987, 215314.096506
   2.742758, 215314.096506
   2.787783, 215314.096506
   2.832751, 215314.096506
   2.878364, 215314.096506
   2.924142, 215314.096506
   2.970033, 215314.096506
   3.016121, 215314.096506
   3.062908, 215314.096506
   3.109176, 215314.096506
   3.155950, 215314.096506
   3.203176, 215314.096506
   3.250564, 215314.096506
   3.298182, 215314.096506
   3.345500, 215314.096506
   3.393585, 215314.096506
   3.441717, 215314.096506
   3.490411, 215314.096506
   3.539407, 215314.096506
   3.588110, 215314.096506
   3.637471, 215314.096506
   3.686899, 215314.096506
   3.736685, 215314.096506
   3.786223, 215314.096506
   3.836643, 215314.096506
   3.886872, 215314.096506
   3.937877, 215314.096506
   3.989209, 215314.096506
   4.040325, 215314.096506
   4.091267, 215314.096506
   4.142668, 215314.096506
   4.193968, 215314.096506
   4.246300, 215314.096506
   4.248393, 215314.096506
   4.248869, 215314.096506
   4.248974, 215314.096506
   4.249123, 215314.096506
   4.249175, 215314.096506
   4.249275, 215314.096506
   4.249316, 215314.096506
   4.249320, 215314.096506
   4.249324, 215314.096506
   4.249364, 215314.096506
   4.249766, 215314.096506
   4.251923, 215314.096506
   4.260001, 215314.096506
   4.285765, 215314.096506
   4.334340, 215314.096506
   4.382405, 215314.096506
   4.430454, 215314.096506
   4.478753, 215314.096506
   4.527143, 215314.096506
   4.575592, 215314.096506
   4.624658, 215314.096506
   4.673806, 215314.096506
   4.723125, 215314.096506
   4.772612, 215314.096506
   4.822316, 215314.096506
   4.872217, 215314.096506
   4.922507, 215314.096506
   4.973108, 215314.096506
   5.023738, 215314.096506
   5.074108, 215314.096506
   5.124756, 215314.096506
   5.175556, 215314.096506
   5.226723, 215314.096506
   5.278219, 215314.096506
   5.330175, 215314.096506
   5.381689, 215314.096506
   5.433555, 215314.096506
   5.485692, 215314.096506
   5.537972, 215314.096506
   5.590382, 215314.096506
   5.642837, 215314.096506
   5.695399, 215314.096506
   5.748291, 215314.096506
   5.801419, 215314.096506
   5.854678, 215314.096506
   5.908203, 215314.096506
   5.961203, 215314.096506
   6.014767, 215314.096506
   6.068625, 215314.096506
   6.122578, 215314.096506
   6.176799, 215314.096506
   6.231116, 215314.096506
   6.285440, 215314.096506
   6.340042, 215314.096506
   6.394772, 215314.096506
   6.450166, 215314.096506
   6.505531, 215314.096506
   6.560856, 215314.096506
   6.616344, 215314.096506
   6.672373, 215314.096506
   6.727766, 215314.096506
   6.784048, 215314.096506
   6.840168, 215314.096506
   6.896461, 215314.096506
   6.952964, 215314.096506
   7.009604, 215314.096506
   7.066298, 215314.096506
   7.123010, 215314.096506
   7.179721, 215314.096506
   7.236718, 215314.096506
   7.293922, 215314.096506
   7.351312, 215314.096506
   7.409361, 215314.096506
   7.467271, 215314.096506
   7.525191, 215314.096506
   7.583316, 215314.096506
   7.641609, 215314.096506
   7.700113, 215314.096506
   7.758616, 215314.096506
   7.817439, 215314.096506
   7.876215, 215314.096506
   7.935129, 215314.096506
   7.994180, 215314.096506
   8.053264, 215314.096506
   8.112483, 215314.096506
   8.172226, 215314.096506
   8.232014, 215314.096506
   8.291963, 215314.096506
   8.352085, 215314.096506
   8.412656, 215314.096506
   8.472889, 215314.096506
   8.533217, 215314.096506
   8.593887, 215314.096506
   8.654559, 215314.096506
   8.715533, 215314.096506
   8.727746, 215314.096506
   8.736018, 215314.096506
   8.742617, 215314.096506
   8.743599, 215314.096506
   8.743833, 215314.096506
   8.743905, 215314.096506
   8.743939, 215314.096506
   8.743946, 215314.096506
   8.743954, 215314.096506
   8.744031, 215314.096506
   8.744724, 215314.096506
   8.748743, 215314.096506
   8.763093, 215314.096506
   8.811984, 215314.096506
   8.867623, 215314.096506
   8.923520, 215314.096506
   8.979573, 215314.096506
   9.035881, 215314.096506
   9.092404, 215314.096506
   9.148720, 215314.096506
   9.205512, 215314.096506
   9.262126, 215314.096506
   9.318660, 215314.096506
   9.375511, 215314.096506
   9.432481, 215314.096506
   9.489629, 215314.096506
   9.546727, 215314.096506
   9.604263, 215314.096506
   9.661821, 215314.096506
   9.719218, 215314.096506
   9.776764, 215314.096506
   9.834634, 215314.096506
   9.892602, 215314.096506
   9.950469, 215314.096506
  10.008520, 215314.096506
  10.066906, 215314.096506
  10.125242, 215314.096506
  10.183644, 215314.096506
  10.242354, 215314.096506
  10.301234, 215314.096506
  10.360008, 215314.096506
  10.418895, 215314.096506
  10.477722, 215314.096506
  10.536972, 215314.096506
  10.596207, 215314.096506
  10.655393, 215314.096506
  10.714881, 215314.096506
  10.774554, 215314.096506
  10.834559, 215314.096506
  10.894432, 215314.096506
  10.954355, 215314.096506
  11.014374, 215314.096506
  11.074565, 215314.096506
  11.134861, 215314.096506
  11.195128, 215314.096506
  11.255503, 215314.096506
  11.316177, 215314.096506
  11.376900, 215314.096506
  11.437915, 215314.096506
  11.498965, 215314.096506
  11.559984, 215314.096506
  11.621290, 215314.096506
  11.682601, 215314.096506
  11.743915, 215314.096506
  11.805463, 215314.096506
  11.867069, 215314.096506
  11.928781, 215314.096506
  11.990563, 215314.096506
  12.052456, 215314.096506
  12.114489, 215314.096506
  12.176490, 215314.096506
  12.238494, 215314.096506
  12.300810, 215314.096506
  12.363436, 215314.096506
  12.426286, 215314.096506
  12.489304, 215314.096506
  12.552133, 215314.096506
  12.614921, 215314.096506
  12.677848, 215314.096506
  12.740675, 215314.096506
  12.803771, 215314.096506
  12.867135, 215314.096506
  12.930653, 215314.096506
  12.994164, 215314.096506
  13.057722, 215314.096506
  13.121378, 215314.096506
  13.185269, 215314.096506
  13.249443, 215314.096506
  13.313645, 215314.096506
  13.377613, 215314.096506
  13.441981, 215314.096506
  13.506369, 215314.096506
  13.570793, 215314.096506
  13.583718, 215314.096506
  13.632699, 215314.096506
  13.633215, 215314.096506
  13.633362, 215314.096506
  13.633600, 215314.096506
  13.633678, 215314.096506
  13.633832, 215314.096506
  13.633852, 215314.096506
  13.633863, 215314.096506
  13.633873, 215314.096506
  13.633882, 215314.096506
  13.633974, 215314.096506
  13.634887, 215314.096506
  13.641271, 215314.096506
  13.669796, 215314.096506
  13.726223, 215314.096506
  13.784283, 215314.096506
  13.842305, 215314.096506
  13.900518, 215314.096506
  13.958825, 215314.096506
  14.017140, 215314.096506
  14.075459, 215314.096506
  14.133968, 215314.096506
  14.192534, 215314.096506
  14.251115, 215314.096506
  14.310013, 215314.096506
  14.368785, 215314.096506
  14.427570, 215314.096506
  14.486516, 215314.096506
  14.545512, 215314.096506
  14.604755, 215314.096506
  14.664056, 215314.096506
  14.723339, 215314.096506
  14.782810, 215314.096506
  14.842262, 215314.096506
  14.901854, 215314.096506
  14.961589, 215314.096506
  15.021263, 215314.096506
  15.081189, 215314.096506
  15.141002, 215314.096506
  15.201095, 215314.096506
  15.261217, 215314.096506
  15.321506, 215314.096506
  15.381845, 215314.096506
  15.442218, 215314.096506
  15.502652, 215314.096506
  15.563200, 215314.096506
  15.623815, 215314.096506
  15.684519, 215314.096506
  15.745140, 215314.096506
  15.806020, 215314.096506
  15.866801, 215314.096506
  15.927864, 215314.096506
  15.989006, 215314.096506
  16.050203, 215314.096506
  16.111474, 215314.096506
  16.172956, 215314.096506
  16.234510, 215314.096506
  16.295991, 215314.096506
  16.357633, 215314.096506
  16.419417, 215314.096506
  16.481199, 215314.096506
  16.543123, 215314.096506
  16.605086, 215314.096506
  16.667231, 215314.096506
  16.729337, 215314.096506
  16.791521, 215314.096506
  16.853902, 215314.096506
  16.916218, 215314.096506
  16.978579, 215314.096506
  17.041098, 215314.096506
  17.103618, 215314.096506
  17.166373, 215314.096506
  17.229173, 215314.096506
  17.292014, 215314.096506
  17.354772, 215314.096506
  17.417879, 215314.096506
  17.480932, 215314.096506
  17.544131, 215314.096506
  17.607450, 215314.096506
  17.670939, 215314.096506
  17.734490, 215314.096506
  17.797970, 215314.096506
  17.861371, 215314.096506
  17.924916, 215314.096506
  17.988668, 215314.096506
  18.052596, 215314.096506
  18.116486, 215314.096506
  18.180529, 215314.096506
  18.244675, 215314.096506
  18.308912, 215314.096506
  18.373012, 215314.096506
  18.437370, 215314.096506
  18.501788, 215314.096506
  18.566283, 215314.096506
  18.630786, 215314.096506
  18.695282, 215314.096506
  18.759920, 215314.096506
  18.824800, 215314.096506
  18.889688, 215314.096506
  18.954630, 215314.096506
  19.019543, 215314.096506
  19.084698, 215314.096506
  19.149841, 215314.096506
  19.162902, 215314.096506
  19.172900, 215314.096506
  19.180257, 215314.096506
  19.181423, 215314.096506
  19.181778, 215314.096506
  19.182388, 215314.096506
  19.182592, 215314.096506
  19.182627, 215314.096506
  19.182664, 215314.096506
  19.183030, 215314.096506
  19.186252, 215314.096506
  19.204628, 215314.096506
  19.260788, 215314.096506
  19.326063, 215314.096506
  19.391247, 215314.096506
  19.456328, 215314.096506
  19.521615, 215314.096506
  19.587058, 215314.096506
  19.652481, 215314.096506
  19.718105, 215314.096506
  19.783721, 215314.096506
  19.849488, 215314.096506
  19.915331, 215314.096506
  19.981202, 215314.096506
  20.047129, 215314.096506
  20.113097, 215314.096506
  20.179258, 215314.096506
  20.245458, 215314.096506
  20.311688, 215314.096506
  20.378014, 215314.096506
  20.444471, 215314.096506
  20.510968, 215314.096506
  20.577468, 215314.096506
  20.644186, 215314.096506
  20.711054, 215314.096506
  20.777855, 215314.096506
  20.844748, 215314.096506
  20.911727, 215314.096506
  20.978858, 215314.096506
  21.046008, 215314.096506
  21.113248, 215314.096506
  21.180441, 215314.096506
  21.247762, 215314.096506
  21.315162, 215314.096506
  21.382751, 215314.096506
  21.450409, 215314.096506
  21.518081, 215314.096506
  21.585792, 215314.096506
  21.653579, 215314.096506
  21.721439, 215314.096506
  21.789321, 215314.096506
  21.857288, 215314.096506
  21.925403, 215314.096506
  21.993633, 215314.096506
  22.061984, 215314.096506
  22.130342, 215314.096506
  22.198806, 215314.096506
  22.267172, 215314.096506
  22.335786, 215314.096506
  22.404448, 215314.096506
  22.473232, 215314.096506
  22.542042, 215314.096506
  22.610851, 215314.096506
  22.679893, 215314.096506
  22.748967, 215314.096506
  22.818074, 215314.096506
  22.887356, 215314.096506
  22.956541, 215314.096506
  23.025791, 215314.096506
  23.095313, 215314.096506
  23.164660, 215314.096506
  23.234274, 215314.096506
  23.304014, 215314.096506
  23.373743, 215314.096506
  23.443587, 215314.096506
  23.513363, 215314.096506
  23.583261, 215314.096506
  23.653353, 215314.096506
  23.723314, 215314.096506
  23.793589, 215314.096506
  23.863779, 215314.096506
  23.934074, 215314.096506
  23.968044, 215314.096506
  24.004621, 215314.096506
  24.075192, 215314.096506
  24.145625, 215314.096506
  24.216207, 215314.096506
  24.286838, 215314.096506
  24.357653, 215314.096506
  24.428434, 215314.096506
  24.499351, 215314.096506
  24.570341, 215314.096506
  24.641390, 215314.096506
  24.712465, 215314.096506
  24.783691, 215314.096506
  24.854983, 215314.096506
  24.926295, 215314.096506
  24.997611, 215314.096506
  25.069004, 215314.096506
  25.140384, 215314.096506
  25.211740, 215314.096506
  25.283289, 215314.096506
  25.354902, 215314.096506
  25.426419, 215314.096506
  25.498005, 215314.096506
  25.569673, 215314.096506
  25.641402, 215314.096506
  25.713177, 215314.096506
  25.784919, 215314.096506
  25.787793, 215314.096506
  25.787930, 215314.096506
  25.788020, 215314.096506
  25.788087, 215314.096506
  25.788127, 215314.096506
  25.788144, 215314.096506
  25.788160, 215314.096506
  25.788326, 215314.096506
  25.789987, 215314.096506
  25.800024, 215314.096506
  25.844615, 215314.096506
  25.918101, 215314.096506
  25.992378, 215314.096506
  26.066619, 215314.096506
  26.140992, 215314.096506
  26.215407, 215314.096506
  26.289751, 215314.096506
  26.364219, 215314.096506
  26.438608, 215314.096506
  26.512937, 215314.096506
  26.587368, 215314.096506
  26.661705, 215314.096506
  26.736178, 215314.096506
  26.810645, 215314.096506
  26.816516, 215314.096148
  26.822395, 215314.095046
  26.828280, 215314.093161
  26.834155, 215314.090460
  26.840043, 215314.086890
  26.845938, 215314.082412
  26.851789, 215314.077033
  26.857677, 215314.070637
  26.863568, 215314.063211
  26.869437, 215314.054747
  26.875356, 215314.045092
  26.881192, 215314.034426
  26.887111, 215314.022404
  26.893035, 215314.009110
  26.898971, 215313.994477
  26.904908, 215313.978479
  26.910791, 215313.961233
  26.916694, 215313.942493
  26.922647, 215313.922084
  26.928585, 215313.900162
  26.934536, 215313.876582
  26.940496, 215313.851291
  26.946454, 215313.824287
  26.952427, 215313.795431
  26.958376, 215313.764857
  26.964364, 215313.732189
  26.970329, 215313.697695
  26.976301, 215313.661151
  26.982257, 215313.622658
  26.988259, 215313.581730
  26.994236, 215313.538784
  27.000223, 215313.493523
  27.006252, 215313.445618
  27.012257, 215313.395512
  27.018260, 215313.342982
  27.024269, 215313.287887
  27.030290, 215313.230106
  27.036323, 215313.169561
  27.042337, 215313.106487
  27.048382, 215313.040314
  27.054439, 215312.971130
  27.060428, 215312.899822
  27.066518, 215312.824297
  27.072613, 215312.745607
  27.078703, 215312.663787
  27.084808, 215312.578504
  27.090918, 215312.489793
  27.097022, 215312.397769
  27.103130, 215312.302183
  27.109227, 215312.203217
  27.115344, 215312.100272
  27.121483, 215311.993232
  27.127607, 215311.882604
  27.133760, 215311.767566
  27.139880, 215311.649144
  27.146046, 215311.525744
  27.152219, 215311.398028
  27.158390, 215311.266080
  27.164569, 215311.129585
  27.170731, 215310.989037
  27.176896, 215310.843901
  27.183112, 215310.692913
  27.189272, 215310.538580
  27.195487, 215310.378050
  27.201718, 215310.212170
  27.207962, 215310.040864
  27.214209, 215309.864308
  27.220412, 215309.683775
  27.226673, 215309.496207
  27.232902, 215309.304197
  27.239126, 215309.106819
  27.245417, 215308.901669
  27.251695, 215308.691131
  27.258024, 215308.472924
  27.264324, 215308.249668
  27.270653, 215308.019257
  27.276937, 215307.784265
  27.283294, 215307.540136
  27.289634, 215307.290148
  27.295942, 215307.034871
  27.302283, 215306.771547
  27.308669, 215306.499441
  27.315041, 215306.220954
  27.321463, 215305.933129
  27.327840, 215305.640029
  27.334284, 215305.336426
  27.340714, 215305.025842
  27.347143, 215304.707685
  27.353604, 215304.380052
  27.360048, 215304.045360
  27.366505, 215303.701878
  27.372943, 215303.351252
  27.379402, 215302.991112
  27.385858, 215302.622682
  27.392390, 215302.243124
  27.398890, 215301.858559
  27.405415, 215301.465633
  27.411927, 215301.066564
  27.418477, 215300.658180
  27.425000, 215300.244432
  27.431541, 215299.822511
  27.438112, 215299.391488
  27.444697, 215298.952276
  27.451305, 215298.504289
  27.457894, 215298.050205
  27.464466, 215297.589991
  27.471056, 215297.121122
  27.477650, 215296.644594
  27.484242, 215296.160687
  27.490903, 215295.664104
  27.497572, 215295.159326
  27.504242, 215294.646665
  27.510912, 215294.126236
  27.517581, 215293.598073
  27.524266, 215293.060761
  27.530963, 215292.514580
  27.537667, 215291.959755
  27.544410, 215291.393669
  27.551138, 215290.820704
  27.557905, 215290.236255
  27.564634, 215289.646783
  27.571383, 215289.047293
  27.578145, 215288.438331
  27.584932, 215287.818721
  27.591681, 215287.194118
  27.598455, 215286.558679
  27.605246, 215285.913126
  27.612059, 215285.256891
  27.618853, 215284.593759
  27.625693, 215283.917392
  27.632538, 215283.231642
  27.639364, 215282.539015
  27.646227, 215281.833570
  27.653122, 215281.115877
  27.659978, 215280.393086
  27.666843, 215279.660344
  27.673797, 215278.908780
  27.680744, 215278.148510
  27.687729, 215277.374600
  27.694712, 215276.591377
  27.701707, 215275.797212
  27.708703, 215274.993203
  27.715665, 215274.183449
  27.722702, 215273.355096
  27.729750, 215272.515499
  27.736786, 215271.667435
  27.743870, 215270.803540
  27.750966, 215269.927867
  27.758007, 215269.048998
  27.765088, 215268.154846
  27.772203, 215267.245985
  27.779290, 215266.330423
  27.786405, 215265.400725
  27.793532, 215264.458976
  27.800692, 215263.502150
  27.807857, 215262.533966
  27.815010, 215261.556677
  27.822211, 215260.561872
  27.829367, 215259.562535
  27.836566, 215258.546146
  27.843769, 215257.518102
  27.850982, 215256.477457
  27.858246, 215255.418159
  27.865532, 215254.344228
  27.872802, 215253.261288
  27.880071, 215252.166942
  27.885858, 215251.287444
  27.887360, 215251.058014
  27.894645, 215249.938088
  27.901967, 215248.800663
  27.909307, 215247.648676
  27.916628, 215246.487635
  27.923981, 215245.309672
  27.931365, 215244.114456
  27.938774, 215242.903120
  27.946183, 215241.679255
  27.953577, 215240.445653
  27.960999, 215239.194824
  27.968478, 215237.921749
  27.975918, 215236.642581
  27.983422, 215235.339719
  27.990949, 215234.019763
  27.998425, 215232.695846
  28.005957, 215231.348969
  28.013503, 215229.986492
  28.021092, 215228.602722
  28.028666, 215227.208158
  28.036281, 215225.792596
  28.043919, 215224.359056
  28.051601, 215222.903292
  28.059271, 215221.435836
  28.066912, 215219.959958
  28.074613, 215218.458523
  28.082302, 215216.945137
  28.089987, 215215.418309
  28.097707, 215213.870153
  28.105470, 215212.298898
  28.113190, 215210.721902
  28.121042, 215209.102823
  28.128801, 215207.488102
  28.136630, 215205.843987
  28.144455, 215204.185604
  28.152330, 215202.501251
  28.160163, 215200.810617
  28.168029, 215199.097575
  28.175910, 215197.365585
  28.183777, 215195.621193
  28.191664, 215193.856767
  28.199571, 215192.072217
  28.207507, 215190.265250
  28.215430, 215188.445056
  28.223401, 215186.597884
  28.231366, 215184.735795
  28.239379, 215182.846072
  28.247367, 215180.945722
  28.255368, 215179.026012
  28.263389, 215177.084542
  28.271499, 215175.104779
  28.279568, 215173.118037
  28.287691, 215171.100711
  28.295852, 215169.056475
  28.304004, 215166.996945
  28.312156, 215164.919981
  28.320365, 215162.810746
  28.328546, 215160.690636
  28.336745, 215158.548125
  28.344976, 215156.379413
  28.353241, 215154.182998
  28.361486, 215151.973924
  28.369820, 215149.722344
  28.378098, 215147.467139
  28.386444, 215145.174582
  28.394761, 215142.871299
  28.403117, 215140.538128
  28.411456, 215138.190346
  28.419870, 215135.802387
  28.428249, 215133.404938
  28.436624, 215130.989088
  28.445079, 215128.530651
  28.453463, 215126.072928
  28.461935, 215123.569649
  28.470403, 215121.047708
  28.478862, 215118.507879
  28.487310, 215115.951657
  28.495804, 215113.360926
  28.504275, 215110.756987
  28.512858, 215108.097969
  28.521376, 215105.438369
  28.529916, 215102.750836
  28.538476, 215100.036278
  28.547088, 215097.283737
  28.555750, 215094.493988
  28.564376, 215091.694085
  28.573005, 215088.871628
  28.581608, 215086.036271
  28.590333, 215083.138516
  28.599012, 215080.234211
  28.607692, 215077.307418
  28.616509, 215074.311828
  28.625223, 215071.328640
  28.633950, 215068.318472
  28.642771, 215065.253168
  28.651581, 215062.168465
  28.660458, 215059.036831
  28.669300, 215055.894491
  28.678114, 215052.738614
  28.686972, 215049.543487
  28.695759, 215046.350619
  28.704631, 215043.103317
  28.713564, 215039.809595
  28.722602, 215036.452632
  28.731577, 215033.094313
  28.740604, 215029.691729
  28.749595, 215026.278369
  28.758586, 215022.839658
  28.767636, 215019.353849
  28.776653, 215015.855169
  28.785754, 215012.298718
  28.794724, 215008.768658
  28.803757, 215005.188190
  28.812760, 215001.594462
  28.821940, 214997.904017
  28.831106, 214994.192914
  28.840245, 214990.466663
  28.849374, 214986.717983
  28.858568, 214982.916193
  28.867813, 214979.066778
  28.877055, 214975.190910
  28.886291, 214971.291036
  28.895524, 214967.365327
  28.904799, 214963.394168
  28.914166, 214959.355866
  28.923434, 214955.332653
  28.932767, 214951.253246
  28.941987, 214947.195598
  28.951455, 214943.000250
  28.960754, 214938.852025
  28.970137, 214934.637671
  28.979586, 214930.364584
  28.988911, 214926.119520
  28.998306, 214921.813641
  29.007764, 214917.449571
  29.017208, 214913.062911
  29.026712, 214908.619279
  29.036095, 214904.202609
  29.045554, 214899.720694
  29.054995, 214895.218182
  29.064426, 214890.690526
  29.073974, 214886.076966
  29.083540, 214881.424102
  29.093167, 214876.711030
  29.102781, 214871.973454
  29.112383, 214867.210947
  29.122037, 214862.391294
  29.131526, 214857.623634
  29.141252, 214852.705581
  29.150897, 214847.796353
  29.160620, 214842.816349
  29.170276, 214837.838388
  29.179960, 214832.814798
  29.189652, 214827.754977
  29.199346, 214822.661587
  29.209080, 214817.515627
  29.218966, 214812.255552
  29.228642, 214807.075415
  29.238289, 214801.878384
  29.248133, 214796.542027
  29.257964, 214791.179828
  29.267847, 214785.755540
  29.277716, 214780.305341
  29.287524, 214774.854841
  29.297414, 214769.325733
  29.307258, 214763.788253
  29.317156, 214758.185929
  29.327069, 214752.541348
  29.336948, 214746.882043
  29.346890, 214741.152024
  29.356849, 214735.377189
  29.366720, 214729.619559
  29.376731, 214723.744575
  29.386598, 214717.920087
  29.396690, 214711.926778
  29.406793, 214705.891393
  29.416806, 214699.873303
  29.426851, 214693.800817
  29.436806, 214687.747641
  29.446817, 214681.624362
  29.456849, 214675.452269
  29.466921, 214669.219813
  29.476888, 214663.016643
  29.487000, 214656.686495
  29.497083, 214650.338353
  29.507081, 214644.007850
  29.517212, 214637.555941
  29.527366, 214631.052284
  29.537553, 214624.490376
  29.547606, 214617.978147
  29.557777, 214611.352055
  29.567919, 214604.707365
  29.578026, 214598.049019
  29.588233, 214591.286563
  29.598401, 214584.512739
  29.608477, 214577.762458
  29.618696, 214570.879432
  29.628874, 214563.985361
  29.639192, 214556.958340
  29.649510, 214549.892056
  29.659802, 214542.804523
  29.670110, 214535.667183
  29.680297, 214528.575688
  29.690618, 214521.351307
  29.700948, 214514.081362
  29.711179, 214506.842521
  29.721457, 214499.531535
  29.731711, 214492.198882
  29.742092, 214484.735850
  29.752510, 214477.205467
  29.762855, 214469.688575
  29.773143, 214462.173322
  29.783603, 214454.492636
  29.793985, 214446.828408
  29.804480, 214439.040736
  29.814942, 214431.236150
  29.825353, 214423.428695
  29.835722, 214415.612584
  29.846218, 214407.660593
  29.856703, 214399.675208
  29.867142, 214391.683772
  29.877523, 214383.696945
  29.888072, 214375.538787
  29.898500, 214367.433365
  29.909000, 214359.230376
  29.919462, 214351.016204
  29.929979, 214342.716691
  29.940502, 214334.371666
  29.950997, 214326.006253
  29.961446, 214317.636748
  29.971898, 214309.223934
  29.982374, 214300.749996
  29.992910, 214292.185486
  30.003407, 214283.611165
  30.013965, 214274.944164
  30.024538, 214266.223092
  30.035133, 214257.441254
  30.045715, 214248.628369
  30.056295, 214239.773943
  30.066989, 214230.780463
  30.077651, 214221.771523
  30.088249, 214212.773154
  30.098804, 214203.768909
  30.109400, 214194.686863
  30.120128, 214185.449147
  30.130776, 214176.235289
  30.141529, 214166.887504
  30.152224, 214157.546915
  30.162915, 214148.165844
  30.173601, 214138.744741
  30.184214, 214129.345490
  30.194871, 214119.864010
  30.205571, 214110.300393
  30.216229, 214100.730662
  30.226929, 214091.079197
  30.237666, 214081.350414
  30.248357, 214071.619721
  30.259095, 214061.802133
  30.269784, 214051.986049
  30.280534, 214042.068872
  30.291258, 214032.131517
  30.301982, 214022.150317
  30.312764, 214012.070592
  30.321915, 214003.480723
