Speed, Forces
 156.923721, 3364.461895
 157.975948, 3349.315887
 159.028174, 3334.509132
 160.080400, 3320.593638
 161.132626, 3307.375071
 162.184853, 3294.694953
 163.237079, 3282.969866
 164.289305, 3271.528587
 165.341532, 3261.198067
 166.393758, 3250.997687
 167.445984, 3241.958620
 168.498211, 3232.999802
 169.550437, 3225.144870
 170.602663, 3217.426872
 171.654889, 3210.644557
 172.707116, 3204.165240
 173.759342, 3198.339819
 174.811568, 3193.095641
 175.863795, 3188.107191
 176.916021, 3184.093209
 177.968247, 3180.054465
 179.020474, 3177.027475
 180.072700, 3174.220344
 181.124926, 3171.762366
 182.177152, 3170.178870
 183.229379, 3168.585897
 184.281605, 3167.786967
 185.333831, 3167.415544
 186.386058, 3167.041937
 187.438284, 3167.735070
 188.490510, 3168.579058
 189.542737, 3169.427922
 190.594963, 3171.437729
 191.647189, 3173.498367
 192.699415, 3175.570705
 193.751642, 3178.713393
 194.803868, 3181.989816
 195.856094, 3185.284532
 196.908321, 3189.367903
 197.960547, 3193.857146
 199.012773, 3198.371041
 200.064999, 3203.194491
 201.117226, 3208.891490
 202.169452, 3214.619264
 203.221678, 3220.377815
 204.273905, 3226.871372
 205.326131, 3233.805626
 206.378357, 3240.776547
 207.430584, 3247.784136
 208.482810, 3255.693944
 209.535036, 3263.867500
 210.587262, 3272.083383
 211.639489, 3280.341591
 212.691715, 3289.399783
 213.743941, 3298.811889
 214.796168, 3308.271745
 215.848394, 3317.779352
 216.900620, 3327.704057
 217.952847, 3338.351157
 219.005073, 3349.051198
 220.057299, 3359.804180
 221.109525, 3370.610104
 222.161752, 3382.175255
 223.213978, 3394.108891
 224.266204, 3406.100425
 225.318431, 3418.149859
 226.370657, 3430.257192
 227.422883, 3443.109561
 228.475110, 3456.330022
 229.527336, 3469.613107
 230.579562, 3482.958815
 231.631788, 3496.367146
 232.684015, 3510.132495
 233.736241, 3524.636570
 234.788467, 3539.207759
 235.840694, 3553.846063
 236.892920, 3568.551480
 237.945146, 3583.324011
 238.997373, 3598.615534
 240.049599, 3614.467880
 241.101825, 3630.391597
 242.154051, 3646.386686
 243.206278, 3662.453146
 244.258504, 3678.590977
 245.310730, 3694.941945
 246.362957, 3712.140394
 247.415183, 3729.414238
 248.467409, 3746.763477
 249.519636, 3764.188111
 250.571862, 3781.688141
 251.624088, 3799.263565
 252.676314, 3817.140591
 253.728541, 3835.757957
 254.780767, 3854.454509
 255.832993, 3873.230246
 256.885220, 3892.085169
 257.937446, 3911.019277
 258.989672, 3930.032570
 260.041899, 3949.125049
 261.094125, 3968.887425
