Speed, Forces
 136.946229, 3364.538101
 138.286004, 3342.559881
 139.625778, 3322.098175
 140.965553, 3303.067142
 142.305328, 3285.378000
 143.645102, 3268.939027
 144.984877, 3254.212020
 146.324651, 3240.766918
 147.664426, 3228.364944
 149.004200, 3217.196113
 150.343975, 3207.560350
 151.683750, 3198.742539
 153.023524, 3191.136945
 154.363299, 3184.831713
 155.703073, 3179.101128
 157.042848, 3175.046190
 158.382622, 3171.548579
 159.722397, 3169.248792
 161.062172, 3167.829669
 162.401946, 3167.290581
 163.741721, 3167.786641
 165.081495, 3169.010856
 166.421270, 3171.249974
 167.761044, 3174.237157
 169.100819, 3178.038385
 170.440593, 3182.785262
 171.780368, 3187.958830
 173.120143, 3194.459186
 174.459917, 3201.011285
 175.799692, 3209.051184
 177.139466, 3217.360463
 178.479241, 3226.341750
 179.819015, 3236.395622
 181.158790, 3246.526463
 182.498565, 3257.882555
 183.838339, 3269.754339
 185.178114, 3281.714968
 186.517888, 3295.169062
 187.857663, 3308.863064
 189.197437, 3322.657298
 190.537212, 3337.914950
 191.876987, 3353.431065
 193.216761, 3369.058309
 194.556536, 3385.807432
 195.896310, 3403.141147
 197.236085, 3420.596396
 198.575859, 3438.507260
 199.915634, 3457.649649
 201.255409, 3476.923489
 202.595183, 3496.328780
 203.934958, 3516.586451
 205.274732, 3537.665057
 206.614507, 3558.884539
 207.954281, 3580.244898
 209.294056, 3602.420102
 210.633831, 3625.435050
 211.973605, 3648.599811
 213.313380, 3671.914385
 214.653154, 3695.548444
 215.992929, 3720.493979
 217.332703, 3745.597775
 218.672478, 3770.859830
 220.012252, 3796.280144
 221.352027, 3822.329152
 222.691802, 3849.359857
 224.031576, 3876.556777
 225.371351, 3903.919914
 226.711125, 3931.449267
 228.050900, 3959.320435
 229.390674, 3988.433726
 230.730449, 4017.720699
 232.070224, 4047.181354
 233.409998, 4076.815691
 234.749773, 4106.623710
 236.089547, 4137.058073
 237.429322, 4168.424674
 238.769096, 4199.971933
 240.108871, 4231.699851
 241.448646, 4263.608426
 242.788420, 4295.697660
 244.128195, 4327.967552
 245.467969, 4361.545926
 246.807744, 4395.348668
 248.147518, 4429.338555
 249.487293, 4463.515586
 250.827068, 4497.879761
 252.166842, 4532.431081
 253.506617, 4567.169544
 254.846391, 4602.980161
 256.186166, 4639.217904
 257.525940, 4675.648786
 258.865715, 4712.272809
 260.205490, 4749.089972
 261.545264, 4786.100274
 262.885039, 4823.303717
 264.224813, 4860.700300
 265.564588, 4899.013790
 266.904362, 4937.873745
 268.244137, 4976.932346
 269.583911, 5016.189593
