Speed, Forces
 100.079745, 6527.864130
 101.875111, 6769.896308
 103.670477, 7016.334072
 105.465843, 7267.177422
 107.261209, 7522.426358
 109.056575, 7782.080880
 110.851941, 8046.140988
 112.647307, 8307.951164
 114.442673, 8396.595178
 116.238039, 7151.806634
 118.033405, 5710.058430
 119.828772, 5273.563190
 121.624138, 4994.673258
 123.419504, 4803.686605
 125.214870, 4657.154172
 127.010236, 4530.118934
 128.805602, 4417.473972
 130.600968, 4318.242060
 132.396334, 4217.979106
 134.191700, 4137.659625
 135.987066, 4056.238934
 137.782432, 3977.905703
 139.577799, 3913.666649
 141.373165, 3848.581650
 143.168531, 3783.695447
 144.963897, 3733.618667
 146.759263, 3682.907502
 148.554629, 3631.561953
 150.349995, 3587.295824
 152.145361, 3551.237313
 153.940727, 3514.744034
 155.736093, 3477.815988
 157.531459, 3446.218847
 159.326826, 3426.144615
 161.122192, 3405.839479
 162.917558, 3385.303438
 164.712924, 3364.536494
 166.508290, 3350.668595
 168.303656, 3344.382221
 170.099022, 3338.027470
 171.894388, 3331.604343
 173.689754, 3325.112839
 175.485120, 3318.552958
 177.280486, 3321.010879
 179.075853, 3327.330782
 180.871219, 3333.715214
 182.666585, 3340.164176
 184.461951, 3346.677668
 186.257317, 3353.255689
 188.052683, 3359.898241
 189.848049, 3374.704534
 191.643415, 3393.921327
 193.438781, 3413.321247
 195.234147, 3432.904292
 197.029513, 3452.670464
 198.824880, 3472.619761
 200.620246, 3492.752184
 202.415612, 3513.067734
 204.210978, 3533.566409
 206.006344, 3564.662681
 207.801710, 3598.807405
 209.597076, 3633.251809
 211.392442, 3667.995893
 213.187808, 3703.039655
 214.983174, 3738.383097
 216.778540, 3774.026218
 218.573907, 3809.969019
 220.369273, 3846.211498
 222.164639, 3882.753657
 223.960005, 3919.595495
 225.755371, 3958.434080
 227.550737, 4006.147463
 229.346103, 4054.242744
 231.141469, 4102.719923
 232.936835, 4151.579000
 234.732201, 4200.819975
 236.527567, 4250.442847
 238.322934, 4300.447617
 240.118300, 4350.834286
 241.913666, 4401.602851
 243.709032, 4452.753315
 245.504398, 4504.285677
 247.299764, 4556.199936
 249.095130, 4608.496093
 250.890496, 4661.174148
 252.685862, 4714.234101
 254.481228, 4767.675951
 256.276594, 4829.649042
 258.071961, 4892.299315
 259.867327, 4955.390981
 261.662693, 5018.924040
 263.458059, 5082.898492
 265.253425, 5147.314338
 267.048791, 5212.171576
 268.844157, 5277.470208
 270.639523, 5343.210233
 272.434889, 5409.391652
 274.230255, 5476.014463
 276.025621, 5543.078667
 277.820988, 5610.584265
