Speed, Forces
  70.450429, 14965.872127
  71.139677, 14868.108122
  71.828924, 14777.090132
  72.518172, 14692.436323
  73.207420, 14613.751779
  73.896667, 14540.628506
  74.585915, 14475.119436
  75.275162, 14415.313810
  75.964410, 14360.148500
  76.653658, 14310.466975
  77.342905, 14267.606653
  78.032153, 14228.385034
  78.721401, 14194.553586
  79.410648, 14166.508759
  80.099896, 14141.020364
  80.789144, 14122.983047
  81.478391, 14107.427713
  82.167639, 14097.197720
  82.856887, 14090.888275
  83.546134, 14088.490280
  84.235382, 14090.700314
  84.924629, 14096.145913
  85.613877, 14106.109776
  86.303125, 14119.397484
  86.992372, 14136.310288
  87.681620, 14157.425544
  88.370868, 14180.443161
  89.060115, 14209.358320
  89.749363, 14238.503656
  90.438611, 14274.271726
  91.127858, 14311.233434
  91.817106, 14351.189355
  92.506354, 14395.911453
  93.195601, 14440.975929
  93.884849, 14491.495909
  94.574096, 14544.304545
  95.263344, 14597.508390
  95.952592, 14657.361153
  96.641839, 14718.275488
  97.331087, 14779.635684
  98.020335, 14847.511478
  98.709582, 14916.531055
  99.398830, 14986.044964
 100.088078, 15060.555559
 100.777325, 15137.660299
 101.466573, 15215.305664
 102.155821, 15294.984353
 102.845068, 15380.134561
 103.534316, 15465.869504
 104.223563, 15552.189183
 104.912811, 15642.307463
 105.602059, 15736.070489
 106.291306, 15830.460181
 106.980554, 15925.476540
 107.669802, 16024.124904
 108.359049, 16126.501316
 109.048297, 16229.544146
 109.737545, 16333.253394
 110.426792, 16438.391538
 111.116040, 16549.355744
 111.805288, 16661.023940
 112.494535, 16773.396126
 113.183783, 16886.472302
 113.873030, 17002.353203
 114.562278, 17122.592834
 115.251526, 17243.571848
 115.940773, 17365.290243
 116.630021, 17487.748020
 117.319269, 17611.734824
 118.008516, 17741.238396
 118.697764, 17871.514561
 119.387012, 18002.563320
 120.076259, 18134.384672
 120.765507, 18266.978618
 121.454755, 18402.367661
 122.144002, 18541.894613
 122.833250, 18682.225191
 123.522497, 18823.359394
 124.211745, 18965.297223
 124.900993, 19108.038677
 125.590240, 19251.583756
 126.279488, 19400.958701
 126.968736, 19551.322331
 127.657983, 19702.518439
 128.347231, 19854.547025
 129.036479, 20007.408088
 129.725726, 20161.101628
 130.414974, 20315.627646
 131.104222, 20474.932726
 131.793469, 20636.127961
 132.482717, 20798.182345
 133.171964, 20961.095878
 133.861212, 21124.868561
 134.550460, 21289.500394
 135.239707, 21454.991376
 135.928955, 21621.341507
 136.618203, 21791.780584
 137.307450, 21964.640212
 137.996698, 22138.383480
 138.685946, 22313.010391
