Speed, Forces
  66.017828, 14966.211105
  66.773408, 14852.005382
  67.528988, 14747.297342
  68.284567, 14651.711276
  69.040147, 14564.829668
  69.795726, 14486.223178
  70.551306, 14415.444648
  71.306886, 14352.029095
  72.062465, 14295.493720
  72.818045, 14246.790584
  73.573625, 14205.994654
  74.329204, 14170.985735
  75.084784, 14141.218655
  75.840364, 14120.147678
  76.595943, 14104.266036
  77.351523, 14092.378623
  78.107103, 14089.589247
  78.862682, 14090.168395
  79.618262, 14096.520919
  80.373841, 14108.778906
  81.129421, 14124.322397
  81.885001, 14147.418041
  82.640580, 14172.183746
  83.396160, 14205.222404
  84.151740, 14239.223750
  84.907319, 14281.257315
  85.662899, 14324.489910
  86.418479, 14374.516817
  87.174058, 14426.958446
  87.929638, 14483.923666
  88.685218, 14545.534295
  89.440797, 14608.329341
  90.196377, 14679.051115
  90.951957, 14750.380359
  91.707536, 14826.271280
  92.463116, 14906.702034
  93.218695, 14987.806297
  93.974275, 15075.321681
  94.729855, 15165.494060
  95.485434, 15256.403019
  96.241014, 15353.964530
  96.996594, 15453.884448
  97.752173, 15554.601047
  98.507753, 15660.523426
  99.263333, 15770.170067
 100.018912, 15880.670519
 100.774492, 15993.161586
 101.530072, 16112.487405
 102.285651, 16232.721193
 103.041231, 16353.862952
 103.796810, 16478.812561
 104.552390, 16608.702439
 105.307970, 16739.551477
 106.063549, 16871.359676
 106.819129, 17006.403245
 107.574709, 17146.852615
 108.330288, 17288.309364
 109.085868, 17430.773494
 109.841448, 17574.245005
 110.597027, 17724.336889
 111.352607, 17876.358171
 112.108187, 18029.432083
 112.863766, 18183.558626
 113.619346, 18338.737799
 114.374926, 18500.776087
 115.130505, 18664.377992
 115.886085, 18829.074806
 116.641664, 18994.866531
 117.397244, 19161.753167
 118.152824, 19332.368642
 118.908403, 19507.515328
 119.663983, 19683.796234
 120.419563, 19861.211361
 121.175142, 20039.760706
 121.930722, 20219.444272
 122.686302, 20401.927922
 123.441881, 20589.709557
 124.197461, 20778.661751
 124.953041, 20968.784506
 125.708620, 21160.077820
 126.464200, 21352.541693
 127.219779, 21546.176126
 127.975359, 21742.840831
 128.730939, 21944.403140
 129.486518, 22147.169379
 130.242098, 22351.139546
 130.997678, 22556.313643
 131.753257, 22762.691669
 132.508837, 22970.273625
 133.264417, 23179.059509
 134.019996, 23391.099581
 134.775576, 23607.626027
 135.531156, 23825.386802
 136.286735, 24044.381905
 137.042315, 24264.611337
 137.797894, 24486.075098
 138.553474, 24708.773188
 139.309054, 24932.705606
 140.064633, 25157.872354
 140.820213, 25385.178515
