Speed, Forces
  61.981144, 14966.211105
  62.798743, 14836.319341
  63.616343, 14718.370838
  64.433942, 14611.963699
  65.251541, 14516.672442
  66.069140, 14432.047990
  66.886739, 14357.617678
  67.704339, 14292.885253
  68.521938, 14237.330868
  69.339537, 14191.930533
  70.157136, 14155.672646
  70.974735, 14127.420070
  71.792335, 14106.570396
  72.609934, 14092.797550
  73.427533, 14089.287281
  74.245132, 14091.802737
  75.062731, 14099.658946
  75.880330, 14117.454100
  76.697930, 14140.275864
  77.515529, 14168.712446
  78.333128, 14205.592886
  79.150727, 14245.308286
  79.968326, 14294.705617
  80.785926, 14346.526760
  81.603525, 14406.615303
  82.421124, 14469.442658
  83.238723, 14540.228831
  84.056322, 14612.892095
  84.873921, 14694.358726
  85.691521, 14776.629500
  86.509120, 14867.723156
  87.326719, 14960.721048
  88.144318, 15058.945926
  88.961917, 15162.602654
  89.779517, 15267.234436
  90.597116, 15380.780173
  91.414715, 15496.058476
  92.232314, 15613.665105
  93.049913, 15739.470533
  93.867513, 15866.406201
  94.685112, 15995.764154
  95.502711, 16133.155658
  96.320310, 16271.749096
  97.137909, 16411.544467
  97.955508, 16559.761891
  98.773108, 16709.978119
  99.590707, 16861.464044
 100.408306, 17017.003266
 101.225905, 17178.771920
 102.043504, 17341.874103
 102.861104, 17506.309814
 103.678703, 17675.596837
 104.496302, 17850.205596
 105.313901, 18026.207784
 106.131500, 18203.603401
 106.949099, 18383.677169
 107.766699, 18571.096836
 108.584298, 18759.965900
 109.401897, 18950.284361
 110.219496, 19142.052219
 111.037095, 19338.102116
 111.854695, 19539.757746
 112.672294, 19742.914810
 113.489893, 19947.573308
 114.307492, 20153.733240
 115.125091, 20361.815181
 115.942690, 20577.679427
 116.760290, 20795.093212
 117.577889, 21014.056536
 118.395488, 21234.569399
 119.213087, 21456.631801
 120.030686, 21680.371989
 120.848286, 21911.952240
 121.665885, 22145.126205
 122.483484, 22379.893881
 123.301083, 22616.255270
 124.118682, 22854.210371
 124.936282, 23093.759184
 125.753881, 23335.584726
 126.571480, 23584.450123
 127.389079, 23834.949475
 128.206678, 24087.082780
 129.024277, 24340.850040
 129.841877, 24596.251253
 130.659476, 24853.286421
 131.477075, 25111.955542
 132.294674, 25372.896708
 133.112273, 25640.654551
 133.929873, 25910.082658
 134.747472, 26181.181030
 135.565071, 26453.949665
 136.382670, 26728.388565
 137.200269, 27004.497729
 138.017868, 27282.277156
 138.835468, 27561.726848
 139.653067, 27842.846804
 140.470666, 28129.432517
 141.288265, 28419.407319
 142.105864, 28711.084764
 142.923464, 29004.464851
