Speed, Forces
  80.729451, 14966.211105
  81.270754, 14898.838654
  81.812056, 14832.974983
  82.353359, 14771.076123
  82.894662, 14712.276749
  83.435965, 14655.873109
  83.977267, 14603.716735
  84.518570, 14552.823709
  85.059873, 14506.870346
  85.601175, 14461.497101
  86.142478, 14421.288068
  86.683781, 14381.437538
  87.225084, 14346.495460
  87.766386, 14312.164349
  88.307689, 14281.993161
  88.848992, 14253.171942
  89.390295, 14227.256884
  89.931597, 14203.929801
  90.472900, 14181.737422
  91.014203, 14163.882486
  91.555506, 14145.917412
  92.096808, 14132.449634
  92.638111, 14119.963002
  93.179414, 14109.025961
  93.720717, 14101.982281
  94.262019, 14094.896453
  94.803322, 14091.338812
  95.344625, 14089.686654
  95.885928, 14088.024784
  96.427230, 14091.103755
  96.968533, 14094.857965
  97.509836, 14098.633861
  98.051138, 14107.569273
  98.592441, 14116.735351
  99.133744, 14125.953476
  99.675047, 14139.927771
 100.216349, 14154.501872
 100.757652, 14169.157341
 101.298955, 14187.315578
 101.840258, 14207.284510
 102.381560, 14227.363092
 102.922863, 14248.812945
 103.464166, 14274.154171
 104.005469, 14299.632290
 104.546771, 14325.247304
 105.088074, 14354.125682
 105.629377, 14384.970416
 106.170680, 14415.978251
 106.711982, 14447.149185
 107.253285, 14482.326877
 107.794588, 14518.684224
 108.335891, 14555.229839
 108.877193, 14591.963722
 109.418496, 14632.249206
 109.959799, 14674.115810
 110.501101, 14716.194810
 111.042404, 14758.486207
 111.583707, 14802.625657
 112.125010, 14849.985698
 112.666312, 14897.581226
 113.207615, 14945.412242
 113.748918, 14993.478745
 114.290221, 15044.914720
 114.831523, 15097.997458
 115.372826, 15151.337735
 115.914129, 15204.935551
 116.455432, 15258.790907
 116.996734, 15315.952183
 117.538037, 15374.758903
 118.079340, 15433.844176
 118.620643, 15493.208001
 119.161945, 15552.850380
 119.703248, 15614.072269
 120.244551, 15678.588680
 120.785854, 15743.403618
 121.327156, 15808.517085
 121.868459, 15873.929080
 122.409762, 15939.639602
 122.951064, 16007.649667
 123.492367, 16078.163364
 124.033670, 16148.994527
 124.574973, 16220.143153
 125.116275, 16291.609245
 125.657578, 16363.392801
 126.198881, 16436.114945
 126.740184, 16512.616280
 127.281486, 16589.452979
 127.822789, 16666.625040
 128.364092, 16744.132464
 128.905395, 16821.975251
 129.446697, 16900.153401
 129.988000, 16979.663164
 130.529303, 17062.476019
 131.070606, 17145.641096
 131.611908, 17229.158396
 132.153211, 17313.027919
 132.694514, 17397.249664
 133.235817, 17481.823632
 133.777119, 17566.749822
 134.318422, 17654.645366
