Speed, Forces
 106.597699, 6527.864130
 108.285931, 6741.550610
 109.974162, 6958.678453
 111.662393, 7179.247659
 113.350624, 7403.258228
 115.038856, 7630.710160
 116.727087, 7861.603455
 118.415318, 8095.938113
 120.103550, 8314.158344
 121.791781, 8392.519383
 123.480012, 8100.392849
 125.168243, 5879.952745
 126.856475, 5406.369904
 128.544706, 5107.469781
 130.232937, 4923.679696
 131.921169, 4754.086746
 133.609400, 4639.340392
 135.297631, 4526.929013
 136.985862, 4426.459791
 138.674094, 4338.941372
 140.362325, 4250.330251
 142.050556, 4173.119647
 143.738787, 4101.643063
 145.427019, 4029.306285
 147.115250, 3964.379497
 148.803481, 3907.488974
 150.491713, 3849.937653
 152.179944, 3791.725533
 153.868175, 3746.351270
 155.556406, 3701.706231
 157.244638, 3656.565651
 158.932869, 3610.929531
 160.621100, 3577.163708
 162.309331, 3545.208385
 163.997563, 3512.913450
 165.685794, 3480.278903
 167.374025, 3449.857704
 169.062257, 3432.164815
 170.750488, 3414.291558
 172.438719, 3396.237934
 174.126950, 3378.003942
 175.815182, 3359.589583
 177.503413, 3349.915314
 179.191644, 3344.355531
 180.879875, 3338.742336
 182.568107, 3333.075729
 184.256338, 3327.355712
 185.944569, 3321.582283
 187.632801, 3317.395644
 189.321032, 3322.945092
 191.009263, 3328.544946
 192.697494, 3334.195207
 194.385726, 3339.895875
 196.073957, 3345.646949
 197.762188, 3351.448430
 199.450420, 3357.300317
 201.138651, 3365.048162
 202.826882, 3381.941013
 204.515113, 3398.976910
 206.203345, 3416.155853
 207.891576, 3433.477843
 209.579807, 3450.942879
 211.268038, 3468.550962
 212.956270, 3486.302090
 214.644501, 3504.196265
 216.332732, 3522.233487
 218.020964, 3542.023077
 219.709195, 3572.008540
 221.397426, 3602.228094
 223.085657, 3632.681739
 224.773889, 3663.369474
 226.462120, 3694.291299
 228.150351, 3725.447214
 229.838582, 3756.837220
 231.526814, 3788.461316
 233.215045, 3820.319502
 234.903276, 3852.411779
 236.591508, 3884.738146
 238.279739, 3917.298603
 239.967970, 3950.093150
 241.656201, 3992.057656
 243.344433, 4034.446186
 245.032664, 4077.133031
 246.720895, 4120.118190
 248.409126, 4163.401663
 250.097358, 4206.983451
 251.785589, 4250.863553
 253.473820, 4295.041969
 255.162052, 4339.518699
 256.850283, 4384.293743
 258.538514, 4429.367102
 260.226745, 4474.738775
 261.914977, 4520.408762
 263.603208, 4566.377063
 265.291439, 4612.643679
 266.979670, 4659.208608
 268.667902, 4706.071852
 270.356133, 4753.233411
 272.044364, 4805.601221
 273.732596, 4860.799593
