Speed, Forces
  61.980442, 14965.872127
  62.798049, 14835.980933
  63.615655, 14718.033152
  64.433261, 14611.626898
  65.250867, 14516.336698
  66.068474, 14431.713485
  66.886080, 14357.284604
  67.703686, 14292.553808
  68.521293, 14237.001263
  69.338899, 14191.600966
  70.156505, 14155.345118
  70.974111, 14127.094810
  71.791718, 14106.247640
  72.609324, 14092.474795
  73.426930, 14088.967271
  74.244536, 14091.485726
  75.062143, 14099.345192
  75.879749, 14117.140359
  76.697355, 14139.965657
  77.514962, 14168.402270
  78.332568, 14205.286532
  79.150174, 14245.006034
  79.967780, 14294.403443
  80.785387, 14346.228997
  81.602993, 14406.317654
  82.420599, 14469.149738
  83.238206, 14539.936066
  84.055812, 14612.604386
  84.873418, 14694.071220
  85.691024, 14776.342210
  86.508631, 14867.441295
  87.326237, 14960.439457
  88.143843, 15058.670109
  88.961449, 15162.327165
  89.779056, 15266.959291
  90.596662, 15380.511199
  91.414268, 15495.789909
  92.231875, 15613.403064
  93.049481, 15739.208968
  93.867087, 15866.145130
  94.684693, 15995.510019
  95.502300, 16132.902089
  96.319906, 16271.496114
  97.137512, 16411.292092
  97.955118, 16559.516923
  98.772725, 16709.733835
  99.590331, 16861.220466
 100.407937, 17016.767516
 101.225544, 17178.536956
 102.043150, 17341.639947
 102.860756, 17506.076490
 103.678362, 17675.371824
 104.495969, 17849.981498
 105.313575, 18025.984625
 106.131181, 18203.381205
 106.948787, 18383.463768
 107.766394, 18570.884485
 108.584000, 18759.754623
 109.401606, 18950.074183
 110.219213, 19141.843165
 111.036819, 19337.902404
 111.854425, 19539.559249
 112.672031, 19742.717553
 113.489638, 19947.377316
 114.307244, 20153.538539
 115.124850, 20361.630366
 115.942457, 20577.495996
 116.760063, 20794.911191
 117.577669, 21013.875952
 118.395275, 21234.390278
 119.212882, 21456.454169
 120.030488, 21680.204846
 120.848094, 21911.786684
 121.665700, 22144.962260
 122.483307, 22379.731575
 123.300913, 22616.094630
 124.118519, 22854.051424
 124.936126, 23093.601957
 125.753732, 23335.438649
 126.571338, 23584.305865
 127.388944, 23834.807063
 128.206551, 24086.942242
 129.024157, 24340.711402
 129.841763, 24596.114545
 130.659369, 24853.151669
 131.476976, 25111.822774
 132.294582, 25372.775801
 133.112188, 25640.535729
 133.929795, 25909.965949
 134.747401, 26181.066461
 135.565007, 26453.837266
 136.382613, 26728.278363
 137.200220, 27004.389752
 138.017826, 27282.171433
 138.835432, 27561.623407
 139.653038, 27842.745673
 140.470645, 28129.344072
 141.288251, 28419.321287
 142.105857, 28711.001172
 142.923464, 29004.383729
