Speed, Forces
 121.640963, 6527.864130
 123.092793, 6689.087523
 124.544623, 6852.277628
 125.996452, 7017.434445
 127.448282, 7184.557976
 128.900112, 7353.648220
 130.351942, 7524.705176
 131.803771, 7697.728846
 133.255601, 7872.719228
 134.707431, 8049.676323
 136.159260, 8228.600131
 137.611090, 8338.774840
 139.062920, 8398.177204
 140.514750, 8315.980979
 141.966579, 6264.635252
 143.418409, 5696.503921
 144.870239, 5377.987597
 146.322069, 5152.108459
 147.773898, 4989.638995
 149.225728, 4862.298531
 150.677558, 4737.135336
 152.129387, 4653.246571
 153.581217, 4568.535175
 155.033047, 4483.001146
 156.484877, 4413.984742
 157.936706, 4347.805749
 159.388536, 4281.002285
 160.840366, 4214.801161
 162.292196, 4161.229139
 163.744025, 4107.165522
 165.195855, 4052.610311
 166.647685, 3997.563505
 168.099515, 3953.560045
 169.551344, 3910.517949
 171.003174, 3867.098212
 172.455004, 3823.300833
 173.906833, 3781.052089
 175.358663, 3747.641521
 176.810493, 3713.947755
 178.262323, 3679.970791
 179.714152, 3645.710629
 181.165982, 3611.167269
 182.617812, 3585.074439
 184.069642, 3561.012443
 185.521471, 3536.756361
 186.973301, 3512.306194
 188.425131, 3487.661941
 189.876960, 3462.823601
 191.328790, 3444.805064
 192.780620, 3431.407306
 194.232450, 3417.906469
 195.684279, 3404.302553
 197.136109, 3390.595558
 198.587939, 3376.785485
 200.039769, 3362.872334
 201.491598, 3352.243230
 202.943428, 3348.062143
 204.395258, 3343.850531
 205.847088, 3339.608396
 207.298917, 3335.335737
 208.750747, 3331.032553
 210.202577, 3326.698845
 211.654406, 3322.334612
 213.106236, 3317.939856
 214.558066, 3319.510447
 216.009896, 3323.715582
 217.461725, 3327.949525
 218.913555, 3332.212274
 220.365385, 3336.503831
 221.817215, 3340.824194
 223.269044, 3345.173365
 224.720874, 3349.551342
 226.172704, 3353.958127
 227.624533, 3358.393719
 229.076363, 3364.070540
 230.528193, 3376.821567
 231.980023, 3389.654345
 233.431852, 3402.568872
 234.883682, 3415.565149
 236.335512, 3428.643176
 237.787342, 3441.802953
 239.239171, 3455.044480
 240.691001, 3468.367757
 242.142831, 3481.772783
 243.594661, 3495.259560
 245.046490, 3508.828086
 246.498320, 3522.478363
 247.950150, 3536.210389
 249.401979, 3557.750179
 250.853809, 3580.489722
 252.305639, 3603.363046
 253.757469, 3626.370151
 255.209298, 3649.511036
 256.661128, 3672.785703
 258.112958, 3696.194150
 259.564788, 3719.736379
 261.016617, 3743.412388
 262.468447, 3767.222178
 263.920277, 3791.165749
 265.372106, 3815.243101
