Speed, Forces
 128.328392, 3364.538101
 129.797121, 3338.863633
 131.265851, 3315.324329
 132.734580, 3293.835726
 134.203309, 3274.303964
 135.672038, 3256.632522
 137.140768, 3240.720876
 138.609497, 3226.464492
 140.078226, 3213.754834
 141.546956, 3202.805934
 143.015685, 3193.634644
 144.484414, 3185.764326
 145.953144, 3179.072420
 147.421873, 3174.335476
 148.890602, 3170.765141
 150.359332, 3168.092744
 151.828061, 3167.465667
 153.296790, 3167.595865
 154.765520, 3169.023969
 156.234249, 3171.779674
 157.702978, 3175.273990
 159.171708, 3180.466097
 160.640437, 3186.033649
 162.109166, 3193.461035
 163.577896, 3201.104842
 165.046625, 3210.554363
 166.515354, 3220.273437
 167.984084, 3231.519933
 169.452813, 3243.309280
 170.921542, 3256.115571
 172.390272, 3269.966192
 173.859001, 3284.083080
 175.327730, 3299.981967
 176.796460, 3316.017419
 178.265189, 3333.078376
 179.733918, 3351.159929
 181.202648, 3369.392893
 182.671377, 3389.067134
 184.140106, 3409.338691
 185.608836, 3429.775838
 187.077565, 3451.708538
 188.546294, 3474.171430
 190.015024, 3496.813422
 191.483753, 3520.625720
 192.952482, 3545.275265
 194.421212, 3570.116755
 195.889941, 3595.405753
 197.358670, 3622.231264
 198.827400, 3649.260895
 200.296129, 3676.494646
 201.764858, 3704.584435
 203.233588, 3733.784842
 204.702317, 3763.200876
 206.171046, 3792.832537
 207.639776, 3823.191540
 209.108505, 3854.765814
 210.577234, 3886.566556
 212.045964, 3918.593767
 213.514693, 3950.847445
 214.983422, 3984.589443
 216.452152, 4018.765187
 217.920881, 4053.177571
 219.389610, 4087.826596
 220.858340, 4122.712262
 222.327069, 4159.139919
 223.795798, 4195.919090
 225.264528, 4232.944407
 226.733257, 4270.215869
 228.201986, 4307.733477
 229.670716, 4346.089362
 231.139445, 4385.463903
 232.608174, 4425.093428
 234.076904, 4464.977935
 235.545633, 4505.117424
 237.014362, 4545.511897
 238.483092, 4586.535853
 239.951821, 4628.750844
 241.420550, 4671.228987
 242.889280, 4713.970283
 244.358009, 4756.974731
 245.826738, 4800.242331
 247.295468, 4843.773083
 248.764197, 4887.985067
 250.232926, 4933.298077
 251.701656, 4978.881741
 253.170385, 5024.736058
 254.639114, 5070.861030
 256.107844, 5117.256656
 257.576573, 5163.922936
 259.045302, 5210.859870
 260.514032, 5258.528375
 261.982761, 5307.205456
 263.451490, 5356.160026
 264.920220, 5405.392084
 266.388949, 5454.901629
 267.857678, 5504.688663
 269.326408, 5554.753186
 270.795137, 5605.095196
 272.263866, 5655.714694
 273.732596, 5706.815152
