Speed, Forces
 120.481706, 3364.538101
 122.070992, 3335.337271
 123.660277, 3308.821392
 125.249563, 3284.900116
 126.838849, 3263.477789
 128.428134, 3244.453455
 130.017420, 3227.720856
 131.606706, 3213.168428
 133.195991, 3200.679305
 134.785277, 3190.472904
 136.374563, 3182.321806
 137.963848, 3175.970375
 139.553134, 3171.283181
 141.142420, 3168.186923
 142.731705, 3167.397783
 144.320991, 3167.963280
 145.910277, 3169.729426
 147.499562, 3173.729935
 149.088848, 3178.860472
 150.678134, 3185.253270
 152.267419, 3193.544323
 153.856705, 3202.472700
 155.445991, 3213.577662
 157.035276, 3225.227518
 158.624562, 3238.735960
 160.213848, 3252.860111
 161.803133, 3268.773476
 163.392419, 3285.108827
 164.981705, 3303.423255
 166.570990, 3321.918461
 168.160276, 3342.397129
 169.749562, 3363.303887
 171.338847, 3385.385718
 172.928133, 3408.688677
 174.517419, 3432.210838
 176.106705, 3457.736935
 177.695990, 3483.652528
 179.285276, 3510.091550
 180.874562, 3538.373736
 182.463847, 3566.910009
 184.053133, 3595.990834
 185.642419, 3626.877672
 187.231704, 3658.034717
 188.820990, 3689.461966
 190.410276, 3722.782569
 191.999561, 3756.552520
 193.588847, 3790.607911
 195.178133, 3825.574519
 196.767418, 3861.941559
 198.356704, 3898.608388
 199.945990, 3935.575007
 201.535275, 3973.632244
 203.124561, 4012.885854
 204.713847, 4052.452720
 206.303132, 4092.332841
 207.892418, 4132.815035
 209.481704, 4174.948652
 211.070989, 4217.408107
 212.660275, 4260.193399
 214.249561, 4303.304528
 215.838846, 4347.378298
 217.428132, 4392.712287
 219.017418, 4438.383812
 220.606703, 4484.392873
 222.195989, 4530.739469
 223.785275, 4577.518150
 225.374560, 4626.046363
 226.963846, 4674.922927
 228.553132, 4724.147840
 230.142417, 4773.721104
 231.731703, 4823.642718
 233.320989, 4873.941513
 234.910274, 4926.002824
 236.499560, 4978.422417
 238.088846, 5031.200290
 239.678131, 5084.336444
 241.267417, 5137.830879
 242.856703, 5191.683594
 244.445988, 5246.048139
 246.035274, 5301.995306
 247.624560, 5358.309800
 249.213845, 5414.991622
 250.803131, 5472.040772
 252.392417, 5529.457248
 253.981702, 5587.241053
 255.570988, 5645.392185
 257.160274, 5704.054092
 258.749559, 5764.248450
 260.338845, 5824.818298
 261.928131, 5885.763636
 263.517416, 5947.084465
 265.106702, 6008.780784
 266.695988, 6070.852593
 268.285274, 6133.299893
 269.874559, 6196.122683
 271.463845, 6259.320963
 273.053131, 6323.747994
 274.642416, 6388.936923
 276.231702, 6454.508621
 277.820988, 6520.463088
