Speed, Forces
 136.944678, 3364.461895
 138.284469, 3342.483673
 139.624259, 3322.022015
 140.964049, 3302.991081
 142.303839, 3285.302092
 143.643630, 3268.863326
 144.983420, 3254.136302
 146.323210, 3240.691462
 147.663000, 3228.289807
 149.002791, 3217.120956
 150.342581, 3207.485572
 151.682371, 3198.668201
 153.022161, 3191.062589
 154.361951, 3184.757861
 155.701742, 3179.027842
 157.041532, 3174.972892
 158.381322, 3171.475914
 159.721112, 3169.176120
 161.060903, 3167.757700
 162.400693, 3167.218610
 163.740483, 3167.715445
 165.080273, 3168.939664
 166.420064, 3171.179630
 167.759854, 3174.166826
 169.099644, 3177.968975
 170.439434, 3182.715873
 171.779224, 3187.890440
 173.119015, 3194.390826
 174.458805, 3200.942958
 175.798595, 3208.983940
 177.138385, 3217.293263
 178.478176, 3226.275711
 179.817966, 3236.329639
 181.157756, 3246.460536
 182.497546, 3257.817879
 183.837337, 3269.689733
 185.177127, 3281.650433
 186.516917, 3295.105869
 187.856707, 3308.799957
 189.196498, 3322.594278
 190.536288, 3337.853363
 191.876078, 3353.369581
 193.215868, 3368.996930
 194.555658, 3385.747578
 195.895449, 3403.081413
 197.235239, 3420.536785
 198.575029, 3438.449267
 199.914819, 3457.591795
 201.254610, 3476.865777
 202.594400, 3496.271213
 203.934190, 3516.530608
 205.273980, 3537.609375
 206.613771, 3558.829022
 207.953561, 3580.189549
 209.293351, 3602.366584
 210.633141, 3625.381717
 211.972931, 3648.546666
 213.312722, 3671.861433
 214.652512, 3695.497428
 215.992302, 3720.443174
 217.332092, 3745.547183
 218.671883, 3770.809455
 220.011673, 3796.229991
 221.351463, 3822.281054
 222.691253, 3849.311998
 224.031044, 3876.509162
 225.370834, 3903.872546
 226.710624, 3931.402150
 228.050414, 3959.275492
 229.390205, 3988.389053
 230.729995, 4017.676300
 232.069785, 4047.137233
 233.409575, 4076.771852
 234.749365, 4106.580157
 236.089156, 4137.016824
 237.428946, 4168.383731
 238.768736, 4199.931300
 240.108526, 4231.659531
 241.448317, 4263.568424
 242.788107, 4295.657980
 244.127897, 4327.928197
 245.467687, 4361.509021
 246.807478, 4395.312110
 248.147268, 4429.302347
 249.487058, 4463.479732
 250.826848, 4497.844266
 252.166638, 4532.395949
 253.506429, 4567.134779
 254.846219, 4602.947986
 256.186009, 4639.186117
 257.525799, 4675.617391
 258.865590, 4712.241811
 260.205380, 4749.059374
 261.545170, 4786.070083
 262.884960, 4823.273935
 264.224751, 4860.670933
 265.564541, 4898.987161
 266.904331, 4937.847552
 268.244121, 4976.906592
 269.583911, 5016.164283
