Speed, Forces
 146.436673, 3364.461895
 147.638041, 3345.992049
 148.839409, 3328.438964
 150.040777, 3311.722440
 151.242145, 3296.295876
 152.443513, 3281.913080
 153.644881, 3268.185335
 154.846249, 3255.803232
 156.047617, 3244.204987
 157.248985, 3233.298500
 158.450353, 3223.718516
 159.651721, 3214.487889
 160.853089, 3206.616965
 162.054457, 3199.171253
 163.255825, 3192.783058
 164.457193, 3186.994036
 165.658561, 3182.091199
 166.859929, 3177.824403
 168.061297, 3174.407472
 169.262665, 3171.522198
 170.464033, 3169.589644
 171.665401, 3167.938947
 172.866769, 3167.487159
 174.068137, 3167.032130
 175.269505, 3167.941145
 176.470873, 3168.971672
 177.672241, 3170.784406
 178.873609, 3173.292374
 180.074977, 3175.841431
 181.276345, 3179.816642
 182.477713, 3183.819014
 183.679081, 3188.358563
 184.880449, 3193.825344
 186.081817, 3199.328727
 187.283185, 3205.640392
 188.484553, 3212.602575
 189.685921, 3219.610454
 190.887289, 3227.463379
 192.088657, 3235.921676
 193.290025, 3244.434417
 194.491393, 3253.585268
 195.692761, 3263.537272
 196.894129, 3273.552122
 198.095497, 3283.745083
 199.296865, 3295.185267
 200.498233, 3306.696351
 201.699601, 3318.278335
 202.900969, 3330.582846
 204.102337, 3343.581171
 205.303706, 3356.658104
 206.505074, 3369.813645
 207.706442, 3383.901928
 208.907810, 3398.461350
 210.109178, 3413.106741
 211.310546, 3427.838101
 212.511914, 3443.361581
 213.713282, 3459.480895
 214.914650, 3475.693193
 216.116018, 3491.998475
 217.317386, 3508.587775
 218.518754, 3526.261618
 219.720122, 3544.035113
 220.921490, 3561.908259
 222.122858, 3579.881058
 223.324226, 3598.392055
 224.525594, 3617.716876
 225.726962, 3637.147669
 226.928330, 3656.684436
 228.129698, 3676.327176
 229.331066, 3696.289577
 230.532434, 3717.263641
 231.733802, 3738.349653
 232.935170, 3759.547613
 234.136538, 3780.857520
 235.337906, 3802.279374
 236.539274, 3824.386207
 237.740642, 3847.120156
 238.942010, 3869.971681
 240.143378, 3892.940781
 241.344746, 3916.027457
 242.546114, 3939.231709
 243.747482, 3962.886273
 244.948850, 3987.378536
 246.150218, 4011.993656
 247.351586, 4036.731632
 248.552954, 4061.592466
 249.754322, 4086.576156
 250.955690, 4111.682703
 252.157058, 4137.380841
 253.358426, 4163.751398
 254.559794, 4190.249747
 255.761162, 4216.875887
 256.962530, 4243.629819
 258.163898, 4270.511542
 259.365266, 4297.521057
 260.566634, 4324.658363
 261.768002, 4352.749828
 262.969370, 4381.126185
 264.170738, 4409.634921
 265.372106, 4438.276036
