Speed, Forces
  80.728537, 14965.872127
  81.269849, 14898.499326
  81.811161, 14832.635599
  82.352473, 14770.736394
  82.893784, 14711.937282
  83.435096, 14655.533306
  83.976408, 14603.377521
  84.517720, 14552.484174
  85.059032, 14506.531731
  85.600344, 14461.158184
  86.141656, 14420.950408
  86.682968, 14381.099600
  87.224280, 14346.159121
  87.765592, 14311.827759
  88.306904, 14281.658517
  88.848216, 14252.837078
  89.389528, 14226.924317
  89.930840, 14203.597048
  90.472152, 14181.407320
  91.013464, 14163.552236
  91.554776, 14145.587011
  92.096088, 14132.122285
  92.637400, 14119.635544
  93.178712, 14108.701916
  93.720024, 14101.658172
  94.261336, 14094.572279
  94.802648, 14091.018461
  95.343960, 14089.366287
  95.885272, 14087.704401
  96.426584, 14090.787611
  96.967896, 14094.541857
  97.509208, 14098.317791
  98.050520, 14107.257860
  98.591832, 14116.424032
  99.133144, 14125.642252
  99.674456, 14139.621625
 100.215768, 14154.195881
 100.757080, 14168.851507
 101.298392, 14187.015243
 101.839704, 14206.984394
 102.381016, 14227.063200
 102.922328, 14248.518973
 103.463639, 14273.860486
 104.004951, 14299.338897
 104.546263, 14324.954207
 105.087575, 14353.838988
 105.628887, 14384.684085
 106.170199, 14415.692288
 106.711511, 14446.863597
 107.252823, 14482.048173
 107.794135, 14518.405964
 108.335447, 14554.952030
 108.876759, 14591.686369
 109.418071, 14631.979218
 109.959383, 14673.846351
 110.500695, 14715.925887
 111.042007, 14758.217827
 111.583319, 14802.365118
 112.124631, 14849.725776
 112.665943, 14897.321930
 113.207255, 14945.153578
 113.748567, 14993.220722
 114.289879, 15044.665077
 114.831191, 15097.748532
 115.372503, 15151.089536
 115.913815, 15204.688087
 116.455127, 15258.544185
 116.996439, 15315.714373
 117.537751, 15374.521915
 118.079063, 15433.608019
 118.620375, 15492.972685
 119.161687, 15552.615913
 119.702999, 15613.847237
 120.244311, 15678.364578
 120.785623, 15743.180456
 121.326935, 15808.294873
 121.868247, 15873.707827
 122.409559, 15939.419318
 122.950871, 16007.439401
 123.492183, 16077.954150
 124.033494, 16148.786374
 124.574806, 16219.936074
 125.116118, 16291.403248
 125.657430, 16363.187897
 126.198742, 16435.920628
 126.740054, 16512.423140
 127.281366, 16589.261027
 127.822678, 16666.434287
 128.363990, 16743.942921
 128.905302, 16821.786929
 129.446614, 16899.966311
 129.987926, 16979.487284
 130.529238, 17062.301456
 131.070550, 17145.467862
 131.611862, 17228.986502
 132.153174, 17312.857377
 132.694486, 17397.080485
 133.235798, 17481.655828
 133.777110, 17566.583405
 134.318422, 17654.490834
