Speed, Forces
  51.485469, 29037.386326
  52.409085, 30113.999091
  53.332701, 31210.208879
  54.256317, 32326.015690
  55.179933, 33461.419524
  56.103549, 34616.420381
  57.027165, 35791.018261
  57.950781, 36955.607944
  58.874397, 37349.916163
  59.798014, 31812.820859
  60.721630, 25399.605332
  61.645246, 23457.977773
  62.568862, 22217.413548
  63.492478, 21367.862591
  64.416094, 20716.053852
  65.339710, 20150.972961
  66.263326, 19649.903205
  67.186942, 19208.497671
  68.110559, 18762.505833
  69.034175, 18405.226979
  69.957791, 18043.049704
  70.881407, 17694.606132
  71.805023, 17408.856584
  72.728639, 17119.344082
  73.652255, 16830.715874
  74.575871, 16607.963257
  75.499487, 16382.388758
  76.423104, 16153.992374
  77.346720, 15957.086827
  78.270336, 15796.690575
  79.193952, 15634.360384
  80.117568, 15470.096253
  81.041184, 15329.545168
  81.964800, 15240.250534
  82.888416, 15149.928787
  83.812032, 15058.579928
  84.735649, 14966.203957
  85.659265, 14904.516469
  86.582881, 14876.553284
  87.506497, 14848.285944
  88.430113, 14819.714451
  89.353729, 14790.838803
  90.277345, 14761.659001
  91.200961, 14772.592378
  92.124577, 14800.704704
  93.048194, 14829.104072
  93.971810, 14857.790485
  94.895426, 14886.763940
  95.819042, 14916.024439
  96.742658, 14945.571981
  97.666274, 15011.433653
  98.589890, 15096.914209
  99.513506, 15183.209350
 100.437122, 15270.319076
 101.360739, 15358.243387
 102.284355, 15446.982283
 103.207971, 15536.535763
 104.131587, 15626.903829
 105.055203, 15718.086479
 105.978819, 15856.409587
 106.902435, 16008.292890
 107.826051, 16161.509233
 108.749667, 16316.058615
 109.673284, 16471.941037
 110.596900, 16629.156499
 111.520516, 16787.705001
 112.444132, 16947.586543
 113.367748, 17108.801124
 114.291364, 17271.348745
 115.214980, 17435.229406
 116.138596, 17607.992035
 117.062212, 17820.231739
 117.985829, 18034.170208
 118.909445, 18249.807444
 119.833061, 18467.143446
 120.756677, 18686.178213
 121.680293, 18906.911747
 122.603909, 19129.344047
 123.527525, 19353.475113
 124.451141, 19579.304945
 125.374757, 19806.833544
 126.298374, 20036.060908
 127.221990, 20266.987038
 128.145606, 20499.611935
 129.069222, 20733.935598
 129.992838, 20969.958026
 130.916454, 21207.679221
 131.840070, 21483.349262
 132.763686, 21762.031560
 133.687302, 22042.677272
 134.610919, 22325.286399
 135.534535, 22609.858941
 136.458151, 22896.394898
 137.381767, 23184.894269
 138.305383, 23475.357054
 139.228999, 23767.783255
 140.152615, 24062.172870
 141.076231, 24358.525899
 141.999847, 24656.842343
 142.923464, 24957.122202
