Speed, Forces
 146.438331, 3364.538101
 147.639682, 3346.068296
 148.841033, 3328.515194
 150.042385, 3311.798594
 151.243736, 3296.372075
 152.445087, 3281.989140
 153.646439, 3268.261195
 154.847790, 3255.879135
 156.049141, 3244.280625
 157.250492, 3233.374179
 158.451844, 3223.793862
 159.653195, 3214.562836
 160.854546, 3206.691947
 162.055897, 3199.245767
 163.257249, 3192.857602
 164.458600, 3187.068039
 165.659951, 3182.165227
 166.861302, 3177.897817
 168.062654, 3174.480904
 169.264005, 3171.594941
 170.465356, 3169.662398
 171.666708, 3168.010936
 172.868059, 3167.559151
 174.069410, 3167.104124
 175.270761, 3168.012287
 176.472113, 3169.042808
 177.673464, 3170.854613
 178.874815, 3173.362563
 180.076166, 3175.910612
 181.277518, 3179.885795
 182.478869, 3183.888139
 183.680220, 3188.426590
 184.881572, 3193.893330
 186.082923, 3199.396671
 187.284274, 3205.707147
 188.485625, 3212.669275
 189.686977, 3219.677099
 190.888328, 3227.528743
 192.089679, 3235.986971
 193.291030, 3244.499642
 194.492382, 3253.649118
 195.693733, 3263.601037
 196.895084, 3273.615801
 198.096435, 3283.807295
 199.297787, 3295.247377
 200.499138, 3306.758358
 201.700489, 3318.340237
 202.901841, 3330.643175
 204.103192, 3343.641379
 205.304543, 3356.718189
 206.505894, 3369.873605
 207.707246, 3383.960208
 208.908597, 3398.519489
 210.109948, 3413.164736
 211.311299, 3427.895951
 212.512651, 3443.417643
 213.714002, 3459.536795
 214.915353, 3475.748928
 216.116704, 3492.054042
 217.318056, 3508.641450
 218.519407, 3526.315108
 219.720758, 3544.088415
 220.922110, 3561.961371
 222.123461, 3579.933975
 223.324812, 3598.442962
 224.526163, 3617.767571
 225.727515, 3637.198151
 226.928866, 3656.734701
 228.130217, 3676.377220
 229.331568, 3696.337493
 230.532920, 3717.311319
 231.734271, 3738.397090
 232.935622, 3759.594805
 234.136974, 3780.904464
 235.338325, 3802.326069
 236.539676, 3824.430642
 237.741027, 3847.164322
 238.942379, 3870.015574
 240.143730, 3892.984399
 241.345081, 3916.070796
 242.546432, 3939.274765
 243.747784, 3962.926942
 244.949135, 3987.418904
 246.150486, 4012.033719
 247.351837, 4036.771388
 248.553189, 4061.631910
 249.754540, 4086.615286
 250.955891, 4111.721515
 252.157243, 4137.417124
 253.358594, 4163.787344
 254.559945, 4190.285352
 255.761296, 4216.911148
 256.962648, 4243.664732
 258.163999, 4270.546104
 259.365350, 4297.555264
 260.566701, 4324.692212
 261.768053, 4352.780998
 262.969404, 4381.156976
 264.170755, 4409.665331
 265.372106, 4438.306061
