Speed, Forces
  54.838594, 24355.047766
  55.707095, 24175.670975
  56.575597, 23996.294184
  57.444098, 23816.917392
  58.312599, 23637.540601
  59.181100, 23462.033246
  60.049601, 23288.445104
  60.918103, 23114.856962
  61.786604, 22941.268820
  62.655105, 22767.680677
  63.523606, 22594.092535
  64.392107, 22420.504393
  65.260609, 22246.916251
  66.129110, 22073.328109
  66.997611, 21899.739967
  67.866112, 21726.151824
  68.734613, 21552.563682
  69.603115, 21378.975540
  70.471616, 21215.648058
  71.340117, 21063.284636
  72.208618, 20910.921214
  73.077119, 20758.557793
  73.945621, 20606.194371
  74.814122, 20453.830950
  75.682623, 20301.467528
  76.551124, 20149.104106
  77.419625, 19996.740685
  78.288127, 19844.377263
  79.156628, 19692.013841
  80.025129, 19539.650420
  80.893630, 19387.286998
  81.762131, 19240.253376
  82.630633, 19105.750457
  83.499134, 18971.247538
  84.367635, 18836.744619
  85.236136, 18702.241700
  86.104637, 18567.738781
  86.973139, 18433.235862
  87.841640, 18298.732943
  88.710141, 18164.230024
  89.578642, 18029.727105
  90.447143, 17895.224187
  91.315645, 17760.721268
  92.184146, 17626.218349
  93.052647, 17493.348153
  93.921148, 17373.244434
  94.789649, 17253.140715
  95.658151, 17133.036996
  96.526652, 17012.933277
  97.395153, 16892.829558
  98.263654, 16772.725839
  99.132155, 16652.622120
 100.000657, 16532.518401
 100.869158, 16412.414682
 101.737659, 16292.310964
 102.606160, 16172.207245
 103.474661, 16052.103526
 104.343163, 15931.999807
 105.211664, 15822.899569
 106.080165, 15714.648289
 106.948666, 15606.397009
 107.817167, 15498.145729
 108.685669, 15389.894449
 109.554170, 15281.643169
 110.422671, 15173.391889
 111.291172, 15065.140609
 112.159673, 14956.889329
 113.028175, 14848.638050
 113.896676, 14740.386770
 114.765177, 14632.135490
 115.633678, 14523.884210
 116.502179, 14426.286361
 117.370681, 14332.366841
 118.239182, 14238.447321
 119.107683, 14144.527801
 119.976184, 14050.608281
 120.844685, 13956.688761
 121.713187, 13862.769241
 122.581688, 13768.849721
 123.450189, 13674.930201
 124.318690, 13581.010680
 125.187191, 13487.091160
 126.055693, 13393.171640
 126.924194, 13299.252120
 127.792695, 13208.980759
 128.661196, 13121.595328
 129.529697, 13034.209896
 130.398199, 12946.824465
 131.266700, 12859.439033
 132.135201, 12772.053602
 133.003702, 12684.668170
 133.872203, 12597.282738
 134.740705, 12509.897307
 135.609206, 12422.511875
 136.477707, 12335.126444
 137.346208, 12247.741012
 138.214709, 12160.355580
 139.083211, 12073.891496
 139.951712, 11988.974186
 140.820213, 11904.056876
