Speed, Forces
  75.334386, 18228.294708
  75.952414, 18137.276146
  76.570443, 18046.257585
  77.188471, 17955.239023
  77.806500, 17864.220461
  78.424528, 17773.201900
  79.042557, 17682.183338
  79.660585, 17594.178788
  80.278614, 17516.413901
  80.896642, 17438.649014
  81.514671, 17360.884127
  82.132699, 17283.119239
  82.750728, 17205.354352
  83.368756, 17127.589465
  83.986785, 17049.824578
  84.604813, 16972.059691
  85.222842, 16894.294804
  85.840870, 16816.529917
  86.458899, 16738.765030
  87.076927, 16661.000143
  87.694956, 16583.235256
  88.312984, 16505.470369
  88.931012, 16427.705482
  89.549041, 16349.940595
  90.167069, 16272.175708
  90.785098, 16198.535916
  91.403126, 16130.525589
  92.021155, 16062.515262
  92.639183, 15994.504936
  93.257212, 15926.494609
  93.875240, 15858.484282
  94.493269, 15790.473956
  95.111297, 15722.463629
  95.729326, 15654.453302
  96.347354, 15586.442975
  96.965383, 15518.432649
  97.583411, 15450.422322
  98.201440, 15382.411995
  98.819468, 15314.401669
  99.437497, 15246.391342
 100.055525, 15178.381015
 100.673554, 15110.370689
 101.291582, 15042.360362
 101.909611, 14979.097311
 102.527639, 14918.763990
 103.145668, 14858.430669
 103.763696, 14798.097349
 104.381725, 14737.764028
 104.999753, 14677.430707
 105.617782, 14617.097386
 106.235810, 14556.764065
 106.853839, 14496.430744
 107.471867, 14436.097423
 108.089896, 14375.764102
 108.707924, 14315.430781
 109.325953, 14255.097461
 109.943981, 14194.764140
 110.562009, 14134.430819
 111.180038, 14074.097498
 111.798066, 14013.764177
 112.416095, 13953.430856
 113.034123, 13899.227513
 113.652152, 13846.426288
 114.270180, 13793.625062
 114.888209, 13740.823836
 115.506237, 13688.022611
 116.124266, 13635.221385
 116.742294, 13582.420159
 117.360323, 13529.618934
 117.978351, 13476.817708
 118.596380, 13424.016482
 119.214408, 13371.215257
 119.832437, 13318.414031
 120.450465, 13265.612805
 121.068494, 13212.811580
 121.686522, 13160.010354
 122.304551, 13107.209128
 122.922579, 13054.407903
 123.540608, 13001.657284
 124.158636, 12954.277437
 124.776665, 12906.897590
 125.394693, 12859.517743
 126.012722, 12812.137896
 126.630750, 12764.758049
 127.248779, 12717.378202
 127.866807, 12669.998354
 128.484836, 12622.618507
 129.102864, 12575.238660
 129.720893, 12527.858813
 130.338921, 12480.478966
 130.956950, 12433.099119
 131.574978, 12385.719272
 132.193006, 12338.339425
 132.811035, 12290.959577
 133.429063, 12243.579730
 134.047092, 12196.199883
 134.665120, 12149.573460
 135.283149, 12105.872326
 135.901177, 12062.171193
 136.519206, 12018.470059
