Speed, Forces
 128.328392, 4979.597307
 129.797121, 4945.522619
 131.265851, 4911.447931
 132.734580, 4877.373244
 134.203309, 4843.298556
 135.672038, 4809.223868
 137.140768, 4776.479116
 138.609497, 4746.570760
 140.078226, 4716.662403
 141.546956, 4686.754047
 143.015685, 4656.845691
 144.484414, 4626.937334
 145.953144, 4597.028978
 147.421873, 4567.120621
 148.890602, 4537.212265
 150.359332, 4507.303909
 151.828061, 4477.395552
 153.296790, 4447.487196
 154.765520, 4417.578840
 156.234249, 4387.670483
 157.702978, 4357.762127
 159.171708, 4328.621639
 160.640437, 4302.219231
 162.109166, 4275.816823
 163.577896, 4249.414415
 165.046625, 4223.012007
 166.515354, 4196.609599
 167.984084, 4170.207191
 169.452813, 4143.804783
 170.921542, 4117.402375
 172.390272, 4090.999967
 173.859001, 4064.597559
 175.327730, 4038.195151
 176.796460, 4011.792743
 178.265189, 3985.390335
 179.733918, 3958.987927
 181.202648, 3932.921367
 182.671377, 3909.345467
 184.140106, 3885.769567
 185.608836, 3862.193667
 187.077565, 3838.617766
 188.546294, 3815.041866
 190.015024, 3791.465966
 191.483753, 3767.890066
 192.952482, 3744.314165
 194.421212, 3720.738265
 195.889941, 3697.162365
 197.358670, 3673.586465
 198.827400, 3650.010565
 200.296129, 3626.434664
 201.764858, 3602.858764
 203.233588, 3579.326207
 204.702317, 3558.076896
 206.171046, 3536.827584
 207.639776, 3515.578272
 209.108505, 3494.328960
 210.577234, 3473.079648
 212.045964, 3451.830336
 213.514693, 3430.581025
 214.983422, 3409.331713
 216.452152, 3388.082401
 217.920881, 3366.833089
 219.389610, 3345.583777
 220.858340, 3324.334465
 222.327069, 3303.085154
 223.795798, 3281.835842
 225.264528, 3260.586530
 226.733257, 3241.920996
 228.201986, 3223.484954
 229.670716, 3205.048911
 231.139445, 3186.612869
 232.608174, 3168.176827
 234.076904, 3149.740785
 235.545633, 3131.304742
 237.014362, 3112.868700
 238.483092, 3094.432658
 239.951821, 3075.996616
 241.420550, 3057.560574
 242.889280, 3039.124531
 244.358009, 3020.688489
 245.826738, 3002.252447
 247.295468, 2983.816405
 248.764197, 2966.429843
 250.232926, 2949.276417
 251.701656, 2932.122991
 253.170385, 2914.969566
 254.639114, 2897.816140
 256.107844, 2880.662714
 257.576573, 2863.509289
 259.045302, 2846.355863
 260.514032, 2829.202437
 261.982761, 2812.049012
 263.451490, 2794.895586
 264.920220, 2777.742160
 266.388949, 2760.588735
 267.857678, 2743.435309
 269.326408, 2726.281883
 270.795137, 2709.476331
 272.263866, 2692.807388
 273.732596, 2676.138445
