Speed, Forces
  66.017828, 22150.352376
  66.773408, 21998.780613
  67.528988, 21847.208850
  68.284567, 21695.637088
  69.040147, 21544.065325
  69.795726, 21392.493563
  70.551306, 21246.837649
  71.306886, 21113.798651
  72.062465, 20980.759654
  72.818045, 20847.720657
  73.573625, 20714.681660
  74.329204, 20581.642662
  75.084784, 20448.603665
  75.840364, 20315.564668
  76.595943, 20182.525671
  77.351523, 20049.486673
  78.107103, 19916.447676
  78.862682, 19783.408679
  79.618262, 19650.369682
  80.373841, 19517.330685
  81.129421, 19384.291687
  81.885001, 19254.668341
  82.640580, 19137.224579
  83.396160, 19019.780817
  84.151740, 18902.337054
  84.907319, 18784.893292
  85.662899, 18667.449530
  86.418479, 18550.005768
  87.174058, 18432.562006
  87.929638, 18315.118243
  88.685218, 18197.674481
  89.440797, 18080.230719
  90.196377, 17962.786957
  90.951957, 17845.343195
  91.707536, 17727.899432
  92.463116, 17610.455670
  93.218695, 17494.505837
  93.974275, 17389.635008
  94.729855, 17284.764179
  95.485434, 17179.893350
  96.241014, 17075.022521
  96.996594, 16970.151692
  97.752173, 16865.280863
  98.507753, 16760.410034
  99.263333, 16655.539205
 100.018912, 16550.668376
 100.774492, 16445.797547
 101.530072, 16340.926718
 102.285651, 16236.055889
 103.041231, 16131.185060
 103.796810, 16026.314231
 104.552390, 15921.636204
 105.307970, 15827.114556
 106.063549, 15732.592907
 106.819129, 15638.071259
 107.574709, 15543.549611
 108.330288, 15449.027963
 109.085868, 15354.506315
 109.841448, 15259.984666
 110.597027, 15165.463018
 111.352607, 15070.941370
 112.108187, 14976.419722
 112.863766, 14881.898074
 113.619346, 14787.376425
 114.374926, 14692.854777
 115.130505, 14598.333129
 115.886085, 14503.811481
 116.641664, 14420.783049
 117.397244, 14338.775447
 118.152824, 14256.767846
 118.908403, 14174.760244
 119.663983, 14092.752643
 120.419563, 14010.745041
 121.175142, 13928.737439
 121.930722, 13846.729838
 122.686302, 13764.722236
 123.441881, 13682.714635
 124.197461, 13600.707033
 124.953041, 13518.699431
 125.708620, 13436.691830
 126.464200, 13354.684228
 127.219779, 13272.676627
 127.975359, 13195.337346
 128.730939, 13119.035107
 129.486518, 13042.732869
 130.242098, 12966.430630
 130.997678, 12890.128391
 131.753257, 12813.826152
 132.508837, 12737.523913
 133.264417, 12661.221674
 134.019996, 12584.919435
 134.775576, 12508.617197
 135.531156, 12432.314958
 136.286735, 12356.012719
 137.042315, 12279.710480
 137.797894, 12203.408241
 138.553474, 12127.106002
 139.309054, 12052.351179
 140.064633, 11978.204028
 140.820213, 11904.056876
