Speed, Forces
 120.481706, 5274.315337
 122.070992, 5233.931203
 123.660277, 5193.547069
 125.249563, 5153.162935
 126.838849, 5112.778801
 128.428134, 5072.394667
 130.017420, 5032.010534
 131.606706, 4991.626400
 133.195991, 4951.242266
 134.785277, 4910.858132
 136.374563, 4870.473998
 137.963848, 4830.089864
 139.553134, 4794.109073
 141.142420, 4760.188519
 142.731705, 4726.267964
 144.320991, 4692.347409
 145.910277, 4658.426855
 147.499562, 4624.506300
 149.088848, 4590.585745
 150.678134, 4556.665191
 152.267419, 4522.744636
 153.856705, 4488.824081
 155.445991, 4454.903526
 157.035276, 4420.982972
 158.624562, 4387.062417
 160.213848, 4353.141862
 161.803133, 4321.488828
 163.392419, 4292.164410
 164.981705, 4262.839992
 166.570990, 4233.515574
 168.160276, 4204.191156
 169.749562, 4174.866738
 171.338847, 4145.542320
 172.928133, 4116.217902
 174.517419, 4086.893484
 176.106705, 4057.569066
 177.695990, 4028.244648
 179.285276, 3998.920230
 180.874562, 3969.595812
 182.463847, 3940.271394
 184.053133, 3911.952417
 185.642419, 3885.919710
 187.231704, 3859.887003
 188.820990, 3833.854296
 190.410276, 3807.821589
 191.999561, 3781.788882
 193.588847, 3755.756175
 195.178133, 3729.723468
 196.767418, 3703.690761
 198.356704, 3677.658055
 199.945990, 3651.625348
 201.535275, 3625.592641
 203.124561, 3599.559934
 204.713847, 3573.527227
 206.303132, 3547.776404
 207.892418, 3524.141784
 209.481704, 3500.507165
 211.070989, 3476.872545
 212.660275, 3453.237926
 214.249561, 3429.603306
 215.838846, 3405.968687
 217.428132, 3382.334067
 219.017418, 3358.699448
 220.606703, 3335.064828
 222.195989, 3311.430209
 223.785275, 3287.795589
 225.374560, 3264.160970
 226.963846, 3240.526350
 228.553132, 3216.891731
 230.142417, 3196.093072
 231.731703, 3175.509079
 233.320989, 3154.925087
 234.910274, 3134.341094
 236.499560, 3113.757101
 238.088846, 3093.173109
 239.678131, 3072.589116
 241.267417, 3052.005124
 242.856703, 3031.421131
 244.445988, 3010.837138
 246.035274, 2990.253146
 247.624560, 2969.669153
 249.213845, 2949.085161
 250.803131, 2928.501168
 252.392417, 2908.716122
 253.981702, 2889.209266
 255.570988, 2869.702411
 257.160274, 2850.195556
 258.749559, 2830.688701
 260.338845, 2811.181846
 261.928131, 2791.674991
 263.517416, 2772.168135
 265.106702, 2752.661280
 266.695988, 2733.154425
 268.285274, 2713.647570
 269.874559, 2694.140715
 271.463845, 2674.633859
 273.053131, 2655.127004
 274.642416, 2635.695070
 276.231702, 2616.323495
 277.820988, 2596.951920
