Speed, Forces
 121.640963, 4528.103481
 123.092793, 4500.575758
 124.544623, 4473.048035
 125.996452, 4445.520312
 127.448282, 4417.992588
 128.900112, 4390.464865
 130.351942, 4362.937142
 131.803771, 4335.409419
 133.255601, 4309.562742
 134.707431, 4284.975973
 136.159260, 4260.389204
 137.611090, 4235.802436
 139.062920, 4211.215667
 140.514750, 4186.628898
 141.966579, 4162.042130
 143.418409, 4137.455361
 144.870239, 4112.868592
 146.322069, 4088.281824
 147.773898, 4063.695055
 149.225728, 4039.108286
 150.677558, 4014.521518
 152.129387, 3989.934749
 153.581217, 3965.347980
 155.033047, 3943.461374
 156.484877, 3922.454810
 157.936706, 3901.448245
 159.388536, 3880.441680
 160.840366, 3859.435116
 162.292196, 3838.428551
 163.744025, 3817.421987
 165.195855, 3796.415422
 166.647685, 3775.408858
 168.099515, 3754.402293
 169.551344, 3733.395729
 171.003174, 3712.389164
 172.455004, 3691.382599
 173.906833, 3670.376035
 175.358663, 3649.369470
 176.810493, 3630.831312
 178.262323, 3612.459739
 179.714152, 3594.088165
 181.165982, 3575.716592
 182.617812, 3557.345019
 184.069642, 3538.973446
 185.521471, 3520.601872
 186.973301, 3502.230299
 188.425131, 3483.858726
 189.876960, 3465.487153
 191.328790, 3447.115579
 192.780620, 3428.744006
 194.232450, 3410.372433
 195.684279, 3392.000860
 197.136109, 3373.876840
 198.587939, 3357.579050
 200.039769, 3341.281260
 201.491598, 3324.983470
 202.943428, 3308.685680
 204.395258, 3292.387890
 205.847088, 3276.090100
 207.298917, 3259.792310
 208.750747, 3243.494520
 210.202577, 3227.196730
 211.654406, 3210.898940
 213.106236, 3194.601150
 214.558066, 3178.303360
 216.009896, 3162.005570
 217.461725, 3145.707780
 218.913555, 3130.024357
 220.365385, 3115.761206
 221.817215, 3101.498054
 223.269044, 3087.234903
 224.720874, 3072.971752
 226.172704, 3058.708600
 227.624533, 3044.445449
 229.076363, 3030.182298
 230.528193, 3015.919146
 231.980023, 3001.655995
 233.431852, 2987.392843
 234.883682, 2973.129692
 236.335512, 2958.866541
 237.787342, 2944.603389
 239.239171, 2930.340238
 240.691001, 2916.786693
 242.142831, 2903.988014
 243.594661, 2891.189335
 245.046490, 2878.390656
 246.498320, 2865.591978
 247.950150, 2852.793299
 249.401979, 2839.994620
 250.853809, 2827.195941
 252.305639, 2814.397262
 253.757469, 2801.598583
 255.209298, 2788.799904
 256.661128, 2776.001225
 258.112958, 2763.202547
 259.564788, 2750.403868
 261.016617, 2737.605189
 262.468447, 2725.469454
 263.920277, 2713.664503
 265.372106, 2701.859552
