Speed, Forces
  70.450429, 20757.149104
  71.139677, 20648.088298
  71.828924, 20539.027491
  72.518172, 20429.966684
  73.207420, 20320.905878
  73.896667, 20211.845071
  74.585915, 20102.784265
  75.275162, 19993.723458
  75.964410, 19884.662651
  76.653658, 19775.601845
  77.342905, 19666.541038
  78.032153, 19557.480232
  78.721401, 19448.419425
  79.410648, 19339.358618
  80.099896, 19230.297812
  80.789144, 19123.221301
  81.478391, 19021.829971
  82.167639, 18920.438640
  82.856887, 18819.047310
  83.546134, 18717.655980
  84.235382, 18616.264649
  84.924629, 18514.873319
  85.613877, 18413.481989
  86.303125, 18312.090659
  86.992372, 18210.699328
  87.681620, 18109.307998
  88.370868, 18007.916668
  89.060115, 17906.525338
  89.749363, 17805.134007
  90.438611, 17703.742677
  91.127858, 17602.351347
  91.817106, 17500.960016
  92.506354, 17408.535578
  93.195601, 17316.178338
  93.884849, 17223.821098
  94.574096, 17131.463858
  95.263344, 17039.106617
  95.952592, 16946.749377
  96.641839, 16854.392137
  97.331087, 16762.034897
  98.020335, 16669.677657
  98.709582, 16577.320417
  99.398830, 16484.963176
 100.088078, 16392.605936
 100.777325, 16300.248696
 101.466573, 16207.891456
 102.155821, 16115.534216
 102.845068, 16023.176976
 103.534316, 15937.941290
 104.223563, 15855.387896
 104.912811, 15772.834503
 105.602059, 15690.281110
 106.291306, 15607.727717
 106.980554, 15525.174324
 107.669802, 15442.620930
 108.359049, 15360.067537
 109.048297, 15277.514144
 109.737545, 15194.960751
 110.426792, 15112.407358
 111.116040, 15029.853964
 111.805288, 14947.300571
 112.494535, 14864.747178
 113.183783, 14782.193785
 113.873030, 14699.640391
 114.562278, 14621.347960
 115.251526, 14548.052850
 115.940773, 14474.757739
 116.630021, 14401.462629
 117.319269, 14328.167519
 118.008516, 14254.872409
 118.697764, 14181.577299
 119.387012, 14108.282189
 120.076259, 14034.987079
 120.765507, 13961.691968
 121.454755, 13888.396858
 122.144002, 13815.101748
 122.833250, 13741.806638
 123.522497, 13668.511528
 124.211745, 13595.216418
 124.900993, 13521.921307
 125.590240, 13449.810595
 126.279488, 13382.618274
 126.968736, 13315.425954
 127.657983, 13248.233634
 128.347231, 13181.041314
 129.036479, 13113.848994
 129.725726, 13046.656674
 130.414974, 12979.464353
 131.104222, 12912.272033
 131.793469, 12845.079713
 132.482717, 12777.887393
 133.171964, 12710.695073
 133.861212, 12643.502752
 134.550460, 12576.310432
 135.239707, 12509.118112
 135.928955, 12441.925792
 136.618203, 12374.733472
 137.307450, 12311.092297
 137.996698, 12247.727041
 138.685946, 12184.361786
