Speed, Forces
 136.944678, 4666.392752
 138.284469, 4641.874907
 139.624259, 4617.357063
 140.964049, 4592.839218
 142.303839, 4568.321373
 143.643630, 4543.803529
 144.983420, 4519.285684
 146.323210, 4494.767839
 147.663000, 4470.249995
 149.002791, 4445.732150
 150.342581, 4421.214305
 151.682371, 4396.696461
 153.022161, 4372.178616
 154.361951, 4347.660771
 155.701742, 4323.142927
 157.041532, 4299.071169
 158.381322, 4276.277491
 159.721112, 4253.483814
 161.060903, 4230.690136
 162.400693, 4207.896458
 163.740483, 4185.102780
 165.080273, 4162.309103
 166.420064, 4139.515425
 167.759854, 4116.721747
 169.099644, 4093.928069
 170.439434, 4071.134391
 171.779224, 4048.340714
 173.119015, 4025.547036
 174.458805, 4002.753358
 175.798595, 3979.959680
 177.138385, 3957.166002
 178.478176, 3934.372325
 179.817966, 3913.594484
 181.157756, 3892.831751
 182.497546, 3872.069017
 183.837337, 3851.306284
 185.177127, 3830.543550
 186.516917, 3809.780816
 187.856707, 3789.018083
 189.196498, 3768.255349
 190.536288, 3747.492616
 191.876078, 3726.729882
 193.215868, 3705.967149
 194.555658, 3685.204415
 195.895449, 3664.441682
 197.235239, 3643.678948
 198.575029, 3622.916215
 199.914819, 3602.153481
 201.254610, 3582.991737
 202.594400, 3564.432995
 203.934190, 3545.874254
 205.273980, 3527.315513
 206.613771, 3508.756772
 207.953561, 3490.198031
 209.293351, 3471.639290
 210.633141, 3453.080549
 211.972931, 3434.521808
 213.312722, 3415.963067
 214.652512, 3397.404326
 215.992302, 3378.845585
 217.332092, 3360.286844
 218.671883, 3341.728103
 220.011673, 3323.169361
 221.351463, 3304.610620
 222.691253, 3287.009782
 224.031044, 3270.532385
 225.370834, 3254.054989
 226.710624, 3237.577593
 228.050414, 3221.100197
 229.390205, 3204.622800
 230.729995, 3188.145404
 232.069785, 3171.668008
 233.409575, 3155.190612
 234.749365, 3138.713215
 236.089156, 3122.235819
 237.428946, 3105.758423
 238.768736, 3089.281027
 240.108526, 3072.803630
 241.448317, 3056.326234
 242.788107, 3039.848838
 244.127897, 3023.637705
 245.467687, 3008.532270
 246.807478, 2993.426836
 248.147268, 2978.321401
 249.487058, 2963.215967
 250.826848, 2948.110532
 252.166638, 2933.005098
 253.506429, 2917.899663
 254.846219, 2902.794229
 256.186009, 2887.688794
 257.525799, 2872.583360
 258.865590, 2857.477925
 260.205380, 2842.372491
 261.545170, 2827.267056
 262.884960, 2812.161622
 264.224751, 2797.056187
 265.564541, 2781.950753
 266.904331, 2767.643648
 268.244121, 2753.398572
 269.583911, 2739.153496
