Speed, Forces
  61.980442, 23461.473640
  62.798049, 23281.834546
  63.615655, 23102.195452
  64.433261, 22922.556359
  65.250867, 22742.917265
  66.068474, 22563.278171
  66.886080, 22383.639077
  67.703686, 22203.999983
  68.521293, 22024.360890
  69.338899, 21844.721796
  70.156505, 21665.082702
  70.974111, 21485.443608
  71.791718, 21325.370440
  72.609324, 21174.483021
  73.426930, 21023.595603
  74.244536, 20872.708184
  75.062143, 20721.820766
  75.879749, 20570.933347
  76.697355, 20420.045929
  77.514962, 20269.158510
  78.332568, 20118.271092
  79.150174, 19967.383673
  79.967780, 19816.496255
  80.785387, 19665.608836
  81.602993, 19514.721418
  82.420599, 19363.833999
  83.238206, 19223.020412
  84.055812, 19092.577801
  84.873418, 18962.135189
  85.691024, 18831.692578
  86.508631, 18701.249967
  87.326237, 18570.807356
  88.143843, 18440.364744
  88.961449, 18309.922133
  89.779056, 18179.479522
  90.596662, 18049.036911
  91.414268, 17918.594299
  92.231875, 17788.151688
  93.049481, 17657.709077
  93.867087, 17527.266466
  94.684693, 17401.288985
  95.502300, 17285.488757
  96.319906, 17169.688530
  97.137512, 17053.888302
  97.955118, 16938.088075
  98.772725, 16822.287847
  99.590331, 16706.487620
 100.407937, 16590.687392
 101.225544, 16474.887165
 102.043150, 16359.086937
 102.860756, 16243.286710
 103.678362, 16127.486482
 104.495969, 16011.686255
 105.313575, 15895.886027
 106.131181, 15781.335628
 106.948787, 15676.202715
 107.766394, 15571.069803
 108.584000, 15465.936890
 109.401606, 15360.803977
 110.219213, 15255.671064
 111.036819, 15150.538151
 111.854425, 15045.405239
 112.672031, 14940.272326
 113.489638, 14835.139413
 114.307244, 14730.006500
 115.124850, 14624.873587
 115.942457, 14519.740674
 116.760063, 14414.607762
 117.577669, 14309.474849
 118.395275, 14216.953478
 119.212882, 14125.390544
 120.030488, 14033.827610
 120.848094, 13942.264677
 121.665700, 13850.701743
 122.483307, 13759.138809
 123.300913, 13667.575875
 124.118519, 13576.012942
 124.936126, 13484.450008
 125.753732, 13392.887074
 126.571338, 13301.324140
 127.388944, 13209.761206
 128.206551, 13118.198273
 129.024157, 13026.635339
 129.841763, 12938.625647
 130.659369, 12851.854099
 131.476976, 12765.082552
 132.294582, 12678.311005
 133.112188, 12591.539457
 133.929795, 12504.767910
 134.747401, 12417.996362
 135.565007, 12331.224815
 136.382613, 12244.453267
 137.200220, 12157.681720
 138.017826, 12070.910172
 138.835432, 11984.138625
 139.653038, 11897.367077
 140.470645, 11810.595530
 141.288251, 11724.157235
 142.105857, 11637.987450
 142.923464, 11551.817664
