Speed, Forces
 113.756222, 5137.963882
 115.330239, 5104.685868
 116.904256, 5071.407853
 118.478273, 5038.129839
 120.052290, 5004.851824
 121.626307, 4971.573809
 123.200324, 4938.295795
 124.774341, 4905.017780
 126.348358, 4871.739766
 127.922375, 4838.461751
 129.496392, 4805.183737
 131.070409, 4771.905722
 132.644426, 4738.627708
 134.218444, 4705.349693
 135.792461, 4676.458004
 137.366478, 4647.783512
 138.940495, 4619.109019
 140.514512, 4590.434526
 142.088529, 4561.760034
 143.662546, 4533.085541
 145.236563, 4504.411048
 146.810580, 4475.736556
 148.384597, 4447.062063
 149.958614, 4418.387570
 151.532631, 4389.713078
 153.106648, 4361.038585
 154.680665, 4332.364093
 156.254683, 4303.779536
 157.828700, 4277.121517
 159.402717, 4250.463499
 160.976734, 4223.805481
 162.550751, 4197.147463
 164.124768, 4170.489445
 165.698785, 4143.831427
 167.272802, 4117.173409
 168.846819, 4090.515391
 170.420836, 4063.857373
 171.994853, 4037.199355
 173.568870, 4010.541337
 175.142887, 3983.883319
 176.716904, 3957.225301
 178.290921, 3930.891210
 179.864939, 3906.608453
 181.438956, 3882.325697
 183.012973, 3858.042940
 184.586990, 3833.760184
 186.161007, 3809.477427
 187.735024, 3785.194671
 189.309041, 3760.911915
 190.883058, 3736.629158
 192.457075, 3712.346402
 194.031092, 3688.063645
 195.605109, 3663.780889
 197.179126, 3639.498132
 198.753143, 3615.215376
 200.327160, 3591.520726
 201.901178, 3569.815617
 203.475195, 3548.110508
 205.049212, 3526.405400
 206.623229, 3504.700291
 208.197246, 3482.995182
 209.771263, 3461.290073
 211.345280, 3439.584965
 212.919297, 3417.879856
 214.493314, 3396.174747
 216.067331, 3374.469639
 217.641348, 3352.764530
 219.215365, 3331.059421
 220.789382, 3309.354312
 222.363399, 3288.427967
 223.937416, 3269.157066
 225.511434, 3249.886164
 227.085451, 3230.615262
 228.659468, 3211.344360
 230.233485, 3192.073458
 231.807502, 3172.802557
 233.381519, 3153.531655
 234.955536, 3134.260753
 236.529553, 3114.989851
 238.103570, 3095.718949
 239.677587, 3076.448047
 241.251604, 3057.177146
 242.825621, 3037.906244
 244.399638, 3019.295948
 245.973655, 3001.629605
 247.547673, 2983.963261
 249.121690, 2966.296917
 250.695707, 2948.630574
 252.269724, 2930.964230
 253.843741, 2913.297886
 255.417758, 2895.631542
 256.991775, 2877.965199
 258.565792, 2860.298855
 260.139809, 2842.632511
 261.713826, 2824.966168
 263.287843, 2807.299824
 264.861860, 2789.633480
 266.435877, 2772.473743
 268.009894, 2755.813619
 269.583911, 2739.153496
