Speed, Forces
  61.981144, 23461.323486
  62.798743, 23281.685909
  63.616343, 23102.048332
  64.433942, 22922.410755
  65.251541, 22742.773178
  66.069140, 22563.135601
  66.886739, 22383.498023
  67.704339, 22203.860446
  68.521938, 22024.222869
  69.339537, 21844.585292
  70.157136, 21664.947715
  70.974735, 21485.310138
  71.792335, 21325.259606
  72.609934, 21174.373461
  73.427533, 21023.487317
  74.245132, 20872.601172
  75.062731, 20721.715028
  75.880330, 20570.828883
  76.697930, 20419.942739
  77.515529, 20269.056594
  78.333128, 20118.170449
  79.150727, 19967.284305
  79.968326, 19816.398160
  80.785926, 19665.512016
  81.603525, 19514.625871
  82.421124, 19363.739727
  83.238723, 19222.940014
  84.056322, 19092.498504
  84.873921, 18962.056995
  85.691521, 18831.615485
  86.509120, 18701.173975
  87.326719, 18570.732465
  88.144318, 18440.290955
  88.961917, 18309.849445
  89.779517, 18179.407935
  90.597116, 18048.966425
  91.414715, 17918.524915
  92.232314, 17788.083405
  93.049913, 17657.641895
  93.867513, 17527.200385
  94.685112, 17401.231300
  95.502711, 17285.432050
  96.320310, 17169.632800
  97.137909, 17053.833550
  97.955508, 16938.034301
  98.773108, 16822.235051
  99.590707, 16706.435801
 100.408306, 16590.636551
 101.225905, 16474.837301
 102.043504, 16359.038052
 102.861104, 16243.238802
 103.678703, 16127.439552
 104.496302, 16011.640302
 105.313901, 15895.841052
 106.131500, 15781.295684
 106.949099, 15676.163659
 107.766699, 15571.031634
 108.584298, 15465.899609
 109.401897, 15360.767584
 110.219496, 15255.635558
 111.037095, 15150.503533
 111.854695, 15045.371508
 112.672294, 14940.239483
 113.489893, 14835.107458
 114.307492, 14729.975432
 115.125091, 14624.843407
 115.942690, 14519.711382
 116.760290, 14414.579357
 117.577889, 14309.447332
 118.395488, 14216.930286
 119.213087, 14125.368125
 120.030686, 14033.805964
 120.848286, 13942.243804
 121.665885, 13850.681643
 122.483484, 13759.119482
 123.301083, 13667.557322
 124.118682, 13575.995161
 124.936282, 13484.433000
 125.753881, 13392.870839
 126.571480, 13301.308679
 127.389079, 13209.746518
 128.206678, 13118.184357
 129.024277, 13026.622197
 129.841877, 12938.613925
 130.659476, 12851.843110
 131.477075, 12765.072295
 132.294674, 12678.301480
 133.112273, 12591.530666
 133.929873, 12504.759851
 134.747472, 12417.989036
 135.565071, 12331.218221
 136.382670, 12244.447406
 137.200269, 12157.676591
 138.017868, 12070.905776
 138.835468, 11984.134962
 139.653067, 11897.364147
 140.470666, 11810.593332
 141.288265, 11724.155780
 142.105864, 11637.986722
 142.923464, 11551.817664
