Speed, Forces
  67.059001, 17000.352574
  67.738389, 16907.413753
  68.417777, 16815.529011
  69.097165, 16723.644268
  69.776553, 16631.759525
  70.455941, 16539.874782
  71.135329, 16447.990039
  71.814717, 16356.105297
  72.494106, 16264.220554
  73.173494, 16172.335811
  73.852882, 16080.451068
  74.532270, 15988.566326
  75.211658, 15896.681583
  75.891046, 15804.796840
  76.570434, 15712.912097
  77.249822, 15621.027354
  77.929210, 15529.142612
  78.608598, 15452.242108
  79.287986, 15378.341120
  79.967375, 15304.440132
  80.646763, 15230.539144
  81.326151, 15156.638156
  82.005539, 15082.737168
  82.684927, 15008.836180
  83.364315, 14934.935192
  84.043703, 14861.034204
  84.723091, 14787.133216
  85.402479, 14713.232228
  86.081867, 14639.331240
  86.761256, 14565.430252
  87.440644, 14491.529264
  88.120032, 14417.628276
  88.799420, 14343.727288
  89.478808, 14280.776683
  90.158196, 14219.877173
  90.837584, 14158.977664
  91.516972, 14098.078154
  92.196360, 14037.178645
  92.875748, 13976.279136
  93.555136, 13915.379626
  94.234525, 13854.480117
  94.913913, 13793.580607
  95.593301, 13732.681098
  96.272689, 13671.781589
  96.952077, 13610.882079
  97.631465, 13549.982570
  98.310853, 13489.083060
  98.990241, 13428.183551
  99.669629, 13367.284041
 100.349017, 13314.462474
 101.028405, 13263.052138
 101.707794, 13211.641802
 102.387182, 13160.231466
 103.066570, 13108.821130
 103.745958, 13057.410794
 104.425346, 13006.000458
 105.104734, 12954.590122
 105.784122, 12903.179786
 106.463510, 12851.769450
 107.142898, 12800.359114
 107.822286, 12748.948778
 108.501674, 12697.538442
 109.181063, 12646.128106
 109.860451, 12594.717770
 110.539839, 12543.307434
 111.219227, 12498.628965
 111.898615, 12455.043610
 112.578003, 12411.458255
 113.257391, 12367.872900
 113.936779, 12324.287545
 114.616167, 12280.702190
 115.295555, 12237.116835
 115.974943, 12193.531480
 116.654332, 12149.946125
 117.333720, 12106.360770
 118.013108, 12062.775415
 118.692496, 12019.190060
 119.371884, 11975.604705
 120.051272, 11932.019350
 120.730660, 11888.433994
 121.410048, 11844.848639
 122.089436, 11805.826129
 122.768824, 11767.489387
 123.448213, 11729.152644
 124.127601, 11690.815902
 124.806989, 11652.479159
 125.486377, 11614.142416
 126.165765, 11575.805674
 126.845153, 11537.468931
 127.524541, 11499.132189
 128.203929, 11460.795446
 128.883317, 11422.458703
 129.562705, 11384.121961
 130.242093, 11345.785218
 130.921482, 11307.448476
 131.600870, 11269.111733
 132.280258, 11230.774990
 132.959646, 11195.450412
 133.639034, 11160.542944
 134.318422, 11125.635476
