Speed, Forces
 136.946229, 4666.365229
 138.286004, 4641.847663
 139.625778, 4617.330096
 140.965553, 4592.812529
 142.305328, 4568.294963
 143.645102, 4543.777396
 144.984877, 4519.259829
 146.324651, 4494.742263
 147.664426, 4470.224696
 149.004200, 4445.707129
 150.343975, 4421.189563
 151.683750, 4396.671996
 153.023524, 4372.154429
 154.363299, 4347.636863
 155.703073, 4323.119296
 157.042848, 4299.049459
 158.382622, 4276.256040
 159.722397, 4253.462620
 161.062172, 4230.669201
 162.401946, 4207.875782
 163.741721, 4185.082362
 165.081495, 4162.288943
 166.421270, 4139.495524
 167.761044, 4116.702104
 169.100819, 4093.908685
 170.440593, 4071.115266
 171.780368, 4048.321846
 173.120143, 4025.528427
 174.459917, 4002.735008
 175.799692, 3979.941588
 177.139466, 3957.148169
 178.479241, 3934.354750
 179.819015, 3913.578711
 181.158790, 3892.816212
 182.498565, 3872.053714
 183.838339, 3851.291216
 185.178114, 3830.528718
 186.517888, 3809.766220
 187.857663, 3789.003722
 189.197437, 3768.241224
 190.537212, 3747.478726
 191.876987, 3726.716228
 193.216761, 3705.953729
 194.556536, 3685.191231
 195.896310, 3664.428733
 197.236085, 3643.666235
 198.575859, 3622.903737
 199.915634, 3602.141239
 201.255409, 3582.981004
 202.595183, 3564.422474
 203.934958, 3545.863943
 205.274732, 3527.305412
 206.614507, 3508.746882
 207.954281, 3490.188351
 209.294056, 3471.629820
 210.633831, 3453.071290
 211.973605, 3434.512759
 213.313380, 3415.954229
 214.653154, 3397.395698
 215.992929, 3378.837167
 217.332703, 3360.278637
 218.672478, 3341.720106
 220.012252, 3323.161575
 221.352027, 3304.603045
 222.691802, 3287.003242
 224.031576, 3270.526033
 225.371351, 3254.048823
 226.711125, 3237.571614
 228.050900, 3221.094405
 229.390674, 3204.617195
 230.730449, 3188.139986
 232.070224, 3171.662776
 233.409998, 3155.185567
 234.749773, 3138.708358
 236.089547, 3122.231148
 237.429322, 3105.753939
 238.769096, 3089.276729
 240.108871, 3072.799520
 241.448646, 3056.322311
 242.788420, 3039.845101
 244.128195, 3023.634450
 245.467969, 3008.529187
 246.807744, 2993.423924
 248.147518, 2978.318661
 249.487293, 2963.213398
 250.827068, 2948.108134
 252.166842, 2933.002871
 253.506617, 2917.897608
 254.846391, 2902.792345
 256.186166, 2887.687082
 257.525940, 2872.581818
 258.865715, 2857.476555
 260.205490, 2842.371292
 261.545264, 2827.266029
 262.885039, 2812.160765
 264.224813, 2797.055502
 265.564588, 2781.950239
 266.904362, 2767.643325
 268.244137, 2753.398410
 269.583911, 2739.153496
