Speed, Forces
  80.728537, 15265.857998
  81.269849, 15206.529747
  81.811161, 15147.201495
  82.352473, 15087.873244
  82.893784, 15028.544992
  83.435096, 14969.216741
  83.976408, 14909.888489
  84.517720, 14850.560238
  85.059032, 14791.231986
  85.600344, 14731.903735
  86.141656, 14672.575483
  86.682968, 14613.247232
  87.224280, 14553.918980
  87.765592, 14494.590728
  88.306904, 14435.262477
  88.848216, 14375.934225
  89.389528, 14319.326359
  89.930840, 14270.435789
  90.472152, 14221.545219
  91.013464, 14172.654649
  91.554776, 14123.764080
  92.096088, 14074.873510
  92.637400, 14025.982940
  93.178712, 13977.092370
  93.720024, 13928.201800
  94.261336, 13879.311230
  94.802648, 13830.420660
  95.343960, 13781.530091
  95.885272, 13732.639521
  96.426584, 13683.748951
  96.967896, 13634.858381
  97.509208, 13585.967811
  98.050520, 13537.077241
  98.591832, 13488.186671
  99.133144, 13439.296102
  99.674456, 13390.405532
 100.215768, 13344.118989
 100.757080, 13302.846397
 101.298392, 13261.573804
 101.839704, 13220.301212
 102.381016, 13179.028620
 102.922328, 13137.756028
 103.463639, 13096.483435
 104.004951, 13055.210843
 104.546263, 13013.938251
 105.087575, 12972.665658
 105.628887, 12931.393066
 106.170199, 12890.120474
 106.711511, 12848.847882
 107.252823, 12807.575289
 107.794135, 12766.302697
 108.335447, 12725.030105
 108.876759, 12683.757512
 109.418071, 12642.484920
 109.959383, 12601.212328
 110.500695, 12559.939736
 111.042007, 12521.324439
 111.583319, 12486.333798
 112.124631, 12451.343157
 112.665943, 12416.352517
 113.207255, 12381.361876
 113.748567, 12346.371236
 114.289879, 12311.380595
 114.831191, 12276.389954
 115.372503, 12241.399314
 115.913815, 12206.408673
 116.455127, 12171.418033
 116.996439, 12136.427392
 117.537751, 12101.436752
 118.079063, 12066.446111
 118.620375, 12031.455470
 119.161687, 11996.464830
 119.702999, 11961.474189
 120.244311, 11926.483549
 120.785623, 11891.492908
 121.326935, 11856.502267
 121.868247, 11823.636137
 122.409559, 11792.859120
 122.950871, 11762.082104
 123.492183, 11731.305088
 124.033494, 11700.528072
 124.574806, 11669.751055
 125.116118, 11638.974039
 125.657430, 11608.197023
 126.198742, 11577.420007
 126.740054, 11546.642990
 127.281366, 11515.865974
 127.822678, 11485.088958
 128.363990, 11454.311942
 128.905302, 11423.534925
 129.446614, 11392.757909
 129.987926, 11361.980893
 130.529238, 11331.203877
 131.070550, 11300.426860
 131.611862, 11269.649844
 132.153174, 11238.872828
 132.694486, 11209.707385
 133.235798, 11181.683416
 133.777110, 11153.659446
 134.318422, 11125.635476
