Speed, Forces
  58.521256, 22854.801999
  59.331001, 22706.774015
  60.140745, 22558.746032
  60.950489, 22410.718048
  61.760234, 22262.690065
  62.569978, 22114.662081
  63.379722, 21966.634098
  64.189467, 21818.606114
  64.999211, 21670.578130
  65.808955, 21522.550147
  66.618700, 21374.522163
  67.428444, 21226.494180
  68.238188, 21078.466196
  69.047933, 20930.438213
  69.857677, 20801.921577
  70.667421, 20674.371079
  71.477166, 20546.820581
  72.286910, 20419.270083
  73.096654, 20291.719585
  73.906399, 20164.169087
  74.716143, 20036.618590
  75.525887, 19909.068092
  76.335632, 19781.517594
  77.145376, 19653.967096
  77.955120, 19526.416598
  78.764865, 19398.866100
  79.574609, 19271.315602
  80.384353, 19144.165157
  81.194098, 19025.584385
  82.003842, 18907.003613
  82.813586, 18788.422841
  83.623331, 18669.842068
  84.433075, 18551.261296
  85.242819, 18432.680524
  86.052564, 18314.099752
  86.862308, 18195.518980
  87.672052, 18076.938207
  88.481797, 17958.357435
  89.291541, 17839.776663
  90.101285, 17721.195891
  90.911030, 17602.615119
  91.720774, 17485.475246
  92.530518, 17377.460164
  93.340263, 17269.445082
  94.150007, 17161.430000
  94.959751, 17053.414918
  95.769496, 16945.399835
  96.579240, 16837.384753
  97.388984, 16729.369671
  98.198729, 16621.354589
  99.008473, 16513.339507
  99.818217, 16405.324425
 100.627962, 16297.309343
 101.437706, 16189.294261
 102.247450, 16081.279179
 103.057195, 15975.880124
 103.866939, 15879.330991
 104.676683, 15782.781857
 105.486428, 15686.232723
 106.296172, 15589.683589
 107.105916, 15493.134455
 107.915661, 15396.585321
 108.725405, 15300.036188
 109.535149, 15203.487054
 110.344894, 15106.937920
 111.154638, 15010.388786
 111.964382, 14913.839652
 112.774127, 14817.290518
 113.583871, 14720.741385
 114.393615, 14627.656365
 115.203360, 14541.935123
 116.013104, 14456.213881
 116.822848, 14370.492639
 117.632593, 14284.771397
 118.442337, 14199.050155
 119.252081, 14113.328913
 120.061826, 14027.607671
 120.871570, 13941.886429
 121.681315, 13856.165187
 122.491059, 13770.443945
 123.300803, 13684.722703
 124.110548, 13599.001461
 124.920292, 13513.280219
 125.730036, 13430.497500
 126.539781, 13351.913688
 127.349525, 13273.329876
 128.159269, 13194.746064
 128.969014, 13116.162253
 129.778758, 13037.578441
 130.588502, 12958.994629
 131.398247, 12880.410817
 132.207991, 12801.827005
 133.017735, 12723.243194
 133.827480, 12644.659382
 134.637224, 12566.075570
 135.446968, 12487.491758
 136.256713, 12408.907946
 137.066457, 12332.577632
 137.876201, 12258.469709
 138.685946, 12184.361786
