Speed, Forces
 128.326939, 4979.630077
 129.795683, 4945.555058
 131.264427, 4911.480039
 132.733171, 4877.405021
 134.201915, 4843.330002
 135.670659, 4809.254983
 137.139403, 4776.506136
 138.608147, 4746.597489
 140.076891, 4716.688842
 141.545635, 4686.780195
 143.014379, 4656.871548
 144.483123, 4626.962901
 145.951867, 4597.054255
 147.420611, 4567.145608
 148.889355, 4537.236961
 150.358099, 4507.328314
 151.826843, 4477.419667
 153.295587, 4447.511020
 154.764331, 4417.602373
 156.233075, 4387.693726
 157.701819, 4357.785079
 159.170563, 4328.641645
 160.639307, 4302.238980
 162.108051, 4275.836316
 163.576795, 4249.433651
 165.045539, 4223.030987
 166.514283, 4196.628322
 167.983027, 4170.225658
 169.451771, 4143.822993
 170.920515, 4117.420329
 172.389259, 4091.017664
 173.858003, 4064.615000
 175.326747, 4038.212335
 176.795491, 4011.809670
 178.264235, 3985.407006
 179.732979, 3959.004341
 181.201723, 3932.935796
 182.670467, 3909.359666
 184.139211, 3885.783537
 185.607955, 3862.207408
 187.076699, 3838.631279
 188.545443, 3815.055149
 190.014187, 3791.479020
 191.482931, 3767.902891
 192.951675, 3744.326762
 194.420419, 3720.750632
 195.889163, 3697.174503
 197.357907, 3673.598374
 198.826651, 3650.022245
 200.295395, 3626.446115
 201.764139, 3602.869986
 203.232883, 3579.336116
 204.701627, 3558.086597
 206.170371, 3536.837079
 207.639115, 3515.587561
 209.107859, 3494.338043
 210.576603, 3473.088524
 212.045347, 3451.839006
 213.514091, 3430.589488
 214.982835, 3409.339970
 216.451579, 3388.090451
 217.920323, 3366.840933
 219.389067, 3345.591415
 220.857811, 3324.341897
 222.326555, 3303.092378
 223.795299, 3281.842860
 225.264043, 3260.593342
 226.732787, 3241.926727
 228.201531, 3223.490506
 229.670275, 3205.054284
 231.139019, 3186.618063
 232.607763, 3168.181842
 234.076507, 3149.745620
 235.545251, 3131.309399
 237.013995, 3112.873178
 238.482739, 3094.436956
 239.951483, 3076.000735
 241.420227, 3057.564514
 242.888971, 3039.128292
 244.357715, 3020.692071
 245.826459, 3002.255850
 247.295203, 2983.819628
 248.763947, 2966.432675
 250.232691, 2949.279083
 251.701435, 2932.125491
 253.170179, 2914.971899
 254.638923, 2897.818306
 256.107667, 2880.664714
 257.576411, 2863.511122
 259.045155, 2846.357529
 260.513900, 2829.203937
 261.982644, 2812.050345
 263.451388, 2794.896752
 264.920132, 2777.743160
 266.388876, 2760.589568
 267.857620, 2743.435975
 269.326364, 2726.282383
 270.795108, 2709.476654
 272.263852, 2692.807550
 273.732596, 2676.138445
