Time, Acceleration
   0.000000, 33063.679743
   0.100000, 33030.930080
   0.200000, 32997.631833
   0.300000, 32964.269992
   0.400000, 32930.908151
   0.500000, 32897.546311
   0.600000, 32864.184470
   0.700000, 32830.822629
   0.800000, 32797.460789
   0.900000, 32764.098948
   1.000000, 32730.737107
   1.100000, 32697.375267
   1.200000, 32663.119948
   1.300000, 32628.753070
   1.400000, 32594.386192
   1.500000, 32560.019313
   1.600000, 32525.652435
   1.700000, 32491.285557
   1.800000, 32456.918679
   1.900000, 32422.551801
   2.000000, 32388.184923
   2.100000, 32353.818045
   2.200000, 32318.604642
   2.300000, 32283.285543
   2.400000, 32247.966444
   2.500000, 32212.647346
   2.600000, 32177.328247
   2.700000, 32142.009148
   2.800000, 32106.690049
   2.900000, 32071.370950
   3.000000, 32036.051851
   3.100000, 32000.732752
   3.200000, 31964.614558
   3.300000, 31928.396589
   3.400000, 31892.178620
   3.500000, 31855.960651
   3.600000, 31819.742682
   3.700000, 31783.524713
   3.800000, 31747.306744
   3.900000, 31711.088775
   4.000000, 31674.870806
   4.100000, 31638.652837
   4.200000, 31601.683535
   4.300000, 31564.620423
   4.400000, 31527.557311
   4.500000, 31490.494199
   4.600000, 31453.431086
   4.700000, 31416.367974
   4.800000, 31379.304862
   4.900000, 31342.241750
   5.000000, 31305.178637
   5.100000, 31268.115525
   5.200000, 31230.349044
   5.300000, 31192.494740
   5.400000, 31154.640436
   5.500000, 31116.786132
   5.600000, 31078.931828
   5.700000, 31041.077524
   5.800000, 31003.223220
   5.900000, 30965.368916
   6.000000, 30927.514612
   6.100000, 30889.660308
   6.200000, 30842.010689
   6.300000, 30793.138034
   6.400000, 30744.265378
   6.500000, 30695.392722
   6.600000, 30646.520066
   6.700000, 30597.647410
   6.800000, 30548.774754
   6.900000, 30499.902098
   7.000000, 30451.029442
   7.100000, 30402.156786
   7.200000, 30348.668344
   7.300000, 30294.603577
   7.400000, 30240.538810
   7.500000, 30186.474043
   7.600000, 30132.409276
   7.700000, 30078.344509
   7.800000, 30024.279742
   7.900000, 29970.214976
   8.000000, 29916.150209
   8.100000, 29862.085442
   8.200000, 29808.943702
   8.300000, 29755.917212
   8.400000, 29702.890721
   8.500000, 29649.864230
   8.600000, 29596.837739
   8.700000, 29543.811249
   8.800000, 29490.784758
   8.900000, 29437.758267
   9.000000, 29384.731776
   9.100000, 29331.705286
   9.200000, 29278.563106
   9.300000, 29225.406481
   9.400000, 29172.249856
   9.500000, 29119.093232
   9.600000, 29065.936607
   9.700000, 29012.779982
   9.800000, 28959.623357
   9.900000, 28906.466733
  10.000000, 28853.310108
  10.100000, 28800.153483
  10.200000, 28746.935022
  10.300000, 28693.708839
  10.400000, 28640.482657
  10.500000, 28587.256475
  10.600000, 28534.030292
  10.700000, 28480.804110
  10.800000, 28427.577927
  10.900000, 28374.351745
  11.000000, 28321.125563
  11.100000, 28267.899380
  11.200000, 28214.663373
  11.300000, 28161.426139
  11.400000, 28108.188906
  11.500000, 28054.951672
  11.600000, 28001.714438
  11.700000, 27948.477204
  11.800000, 27895.239971
  11.900000, 27842.002737
  12.000000, 27788.765503
  12.100000, 27735.528269
  12.200000, 27682.331321
  12.300000, 27629.139402
  12.400000, 27575.947484
  12.500000, 27522.755566
  12.600000, 27469.563647
  12.700000, 27416.371729
  12.800000, 27363.179811
  12.900000, 27309.987892
  13.000000, 27256.795974
  13.100000, 27203.604056
  13.200000, 27138.446240
  13.300000, 27071.794369
  13.400000, 27005.142498
  13.500000, 26938.490628
  13.600000, 26871.838757
  13.700000, 26805.186886
  13.800000, 26738.535016
  13.900000, 26671.883145
  14.000000, 26605.231274
  14.100000, 26538.579404
  14.200000, 26469.536113
  14.300000, 26400.194232
  14.400000, 26330.852350
  14.500000, 26261.510468
  14.600000, 26192.168587
  14.700000, 26122.826705
  14.800000, 26053.484823
  14.900000, 25984.142942
  15.000000, 25914.801060
  15.100000, 25845.459179
  15.200000, 25777.748155
  15.300000, 25710.240759
  15.400000, 25642.733364
  15.500000, 25575.225968
  15.600000, 25507.718572
  15.700000, 25440.211177
  15.800000, 25372.703781
  15.900000, 25305.196385
  16.000000, 25237.688989
  16.100000, 25170.181594
  16.200000, 25103.546217
  16.300000, 25037.019721
  16.400000, 24970.493224
  16.500000, 24903.966728
  16.600000, 24837.440231
  16.700000, 24770.913735
  16.800000, 24704.387238
  16.900000, 24637.860741
  17.000000, 24571.334245
  17.100000, 24504.807748
  17.200000, 24439.185357
  17.300000, 24373.675853
  17.400000, 24308.166348
  17.500000, 24242.656843
  17.600000, 24177.147338
  17.700000, 24111.637833
  17.800000, 24046.128329
  17.900000, 23980.618824
  18.000000, 23915.109319
  18.100000, 23849.599814
  18.200000, 23785.023090
  18.300000, 23720.562833
  18.400000, 23656.102575
  18.500000, 23591.642318
  18.600000, 23527.182060
  18.700000, 23462.721802
  18.800000, 23398.261545
  18.900000, 23333.801287
  19.000000, 23269.341030
  19.100000, 23204.880772
  19.200000, 23141.378682
  19.300000, 23077.996227
  19.400000, 23014.613773
  19.500000, 22951.231319
  19.600000, 22887.848865
  19.700000, 22824.466410
  19.800000, 22761.083956
  19.900000, 22697.701502
  20.000000, 22634.319047
  20.100000, 22570.936593
  20.200000, 22508.534531
  20.300000, 22446.254880
  20.400000, 22383.975229
  20.500000, 22321.695578
  20.600000, 22259.415927
  20.700000, 22197.136275
  20.800000, 22134.856624
  20.900000, 22072.576973
  21.000000, 22010.297322
  21.100000, 21948.017671
  21.200000, 21887.131801
  21.300000, 21826.419959
  21.400000, 21765.708116
  21.500000, 21704.996273
  21.600000, 21644.284430
  21.700000, 21583.572587
  21.800000, 21522.860745
  21.900000, 21462.148902
  22.000000, 21401.437059
  22.100000, 21340.725216
  22.200000, 21281.349452
  22.300000, 21222.140509
  22.400000, 21162.931567
  22.500000, 21103.722624
  22.600000, 21044.513681
  22.700000, 20985.304739
  22.800000, 20926.095796
  22.900000, 20866.886854
  23.000000, 20807.677911
  23.100000, 20748.468968
  23.200000, 20690.197626
  23.300000, 20632.043351
  23.400000, 20573.889076
  23.500000, 20515.734801
  23.600000, 20457.580527
  23.700000, 20399.426252
  23.800000, 20341.271977
  23.900000, 20283.117703
  24.000000, 20224.963428
  24.100000, 20166.809153
  24.200000, 20109.658278
  24.300000, 20052.632686
  24.400000, 19995.607095
  24.500000, 19938.581503
  24.600000, 19881.555911
  24.700000, 19824.530320
  24.800000, 19767.504728
  24.900000, 19710.479137
  25.000000, 19653.453545
  25.100000, 19596.427953
  25.200000, 19539.960172
  25.215579, 19531.173973
  25.315579, 19475.347391
  25.415579, 19419.520808
  25.515579, 19363.694226
  25.615579, 19307.867643
  25.715579, 19252.041061
  25.815579, 19196.214478
  25.915579, 19140.387896
  26.015579, 19084.561314
  26.115579, 19027.408330
  26.215579, 18941.967188
  26.315579, 18856.526047
  26.415579, 18771.084906
  26.515579, 18685.643764
  26.615579, 18600.202623
  26.715579, 18514.761482
  26.815579, 18429.320340
  26.915579, 18343.879199
  27.015579, 18258.438058
  27.115579, 18171.893211
  27.215579, 18061.809649
  27.315579, 17951.726087
  27.415579, 17841.642525
  27.515579, 17731.558962
  27.615579, 17621.475400
  27.715579, 17511.391838
  27.815579, 17401.308275
  27.915579, 17291.224713
  28.015579, 17181.141151
  28.115579, 17070.442566
  28.215579, 16946.627402
  28.315579, 16822.812238
  28.415579, 16698.997074
  28.515579, 16575.181910
  28.615579, 16451.366745
  28.715579, 16327.551581
  28.815579, 16203.736417
  28.915579, 16079.921253
  29.015579, 15956.106089
  29.111100, 15837.836461
  29.211100, 14595.524555
  29.311100, 13353.212650
  29.411100, 12110.900745
  29.511100, 10868.588839
  29.611100, 9626.276934
  29.711100, 8383.965028
  29.811100, 7141.653123
  29.911100, 5899.341218
  30.011100, 4657.029312
  30.111100, 3414.717407
  30.211100, 2713.086751
  30.311100, 2011.456095
  30.411100, 1309.825440
  30.511100,  608.194784
  30.611100,  -93.435872
  30.711100, -701.465840
  30.811100, -1309.495807
  30.911100, -1917.525775
  31.011100, -2525.555743
  31.111100, -3133.585711
  31.211100, -3717.399078
  31.311100, -4301.212444
  31.411100, -4885.025811
  31.511100, -5468.839177
  31.611100, -6052.652544
