Time, Horizontal Forces
   0.000000,    0.000000
   0.000000,    0.000001
   0.000007,    0.000016
   0.000082,    0.000197
   0.000471,    0.001134
   0.002611,    0.006280
   0.007883,    0.018953
   0.016021,    0.038515
   0.027016,    0.064934
   0.040922,    0.098337
   0.057780,    0.138818
   0.077586,    0.186364
   0.100326,    0.240938
   0.125942,    0.302393
   0.154713,    0.371398
   0.186823,    0.448387
   0.222045,    0.532811
   0.260756,    0.625568
   0.302570,    0.725727
   0.347923,    0.834329
   0.396709,    0.951115
   0.449072,    1.076424
   0.505139,    1.210552
   0.565818,    1.355663
   0.629321,    1.507480
   0.696192,    1.667294
   0.767836,    1.838457
   0.842671,    2.017183
   0.922055,    2.206707
   1.006500,    2.408246
   1.095504,    2.620590
   1.189311,    2.844314
   1.287386,    3.078133
   1.389598,    3.321727
   1.495618,    3.574304
   1.607014,    3.839595
   1.724723,    4.119815
   1.846153,    4.408787
   1.972630,    4.709654
   2.107465,    5.030283
   2.244878,    5.356917
   2.390951,    5.704000
   2.541755,    6.062185
   2.696714,    6.430092
   2.860361,    6.818472
   3.029808,    7.220454
   3.206675,    7.639865
   3.388884,    8.071767
   3.575572,    8.514101
   3.771163,    8.977337
   3.972625,    9.454277
   4.179952,    9.944894
   4.393994,   10.451183
   4.613086,   10.969195
   4.840682,   11.507085
   5.075485,   12.061762
   5.320203,   12.639606
   5.568898,   13.226580
   5.828049,   13.837959
   6.097646,   14.473691
   6.369353,   15.114106
   6.654390,   15.785630
   6.944175,   16.468021
   7.242556,   17.170328
   7.553601,   17.902095
   7.870306,   18.646822
   8.195511,   19.411170
   8.527551,   20.191204
   8.870135,   20.995620
   9.222438,   21.822451
   9.587628,   22.679100
   9.959421,   23.550799
  10.339511,   24.441505
  10.731027,   25.358524
  11.132951,   26.299436
  11.543166,   27.259265
  11.961975,   28.238695
  12.395725,   29.252536
  12.834698,   30.278047
  13.285572,   31.330802
  13.747262,   32.408242
  14.217976,   33.506151
  14.698218,   34.625682
  15.197074,   35.787972
  15.699039,   36.956867
  16.215408,   38.158640
  16.748197,   39.397940
  17.289480,   40.656287
  17.843884,   41.944413
  18.404680,   43.246650
  18.988049,   44.600529
  19.574672,   45.961175
  20.173425,   47.349153
  20.783393,   48.762308
  21.401260,   50.192935
  22.039416,   51.669670
  22.688402,   53.170578
  23.350597,   54.701123
  24.023375,   56.255197
  24.708915,   57.837800
  24.848461,   58.159831
  24.918110,   58.320547
  24.960115,   58.417468
  24.987430,   58.480493
  25.081498,   58.697526
  25.082059,   58.698819
  25.082987,   58.700963
  25.083383,   58.701874
  25.083495,   58.702134
  25.083548,   58.702255
  25.083601,   58.702379
  25.084137,   58.703614
  25.088672,   58.714078
  25.116551,   58.778396
  25.219963,   59.016954
  25.527125,   59.725378
  26.141405,   61.141407
  26.785931,   62.626130
  27.447079,   64.148071
  28.115090,   65.684715
  28.795350,   67.248419
  29.485894,   68.834623
  30.187059,   70.444064
  30.898280,   72.075407
  31.625886,   73.743116
  32.364925,   75.435785
  33.122314,   77.169197
  33.887918,   78.920101
  34.664240,   80.694187
  35.453035,   82.495422
  36.253324,   84.321524
  37.061997,   86.165360
  37.887845,   88.046922
  38.726487,   89.956168
  39.568639,   91.871934
  40.432427,   93.835402
  41.301106,   95.808459
  42.184307,   97.812943
  43.076800,   99.836937
  43.989895,  101.906025
  44.913626,  103.997561
  45.848172,  106.111909
  46.797072,  108.257021
  47.758548,  110.428825
  48.728286,  112.617538
  49.715617,  114.844166
  50.715006,  117.096165
  51.729581,  119.380525
  52.759859,  121.698343
  53.800502,  124.037558
  54.861502,  126.420564
  55.940737,  128.842503
  57.025220,  131.274189
  58.120526,  133.728093
  59.239747,  136.233467
  60.369394,  138.760043
  61.517558,  141.325851
  62.678802,  143.918672
  63.844125,  146.518378
  65.034125,  149.170865
  66.232218,  151.839087
  67.455031,  154.560002
  68.684252,  157.292798
  69.936302,  160.073913
  71.197192,  162.872206
  72.473338,  165.701866
  73.766415,  168.566537
  75.076415,  171.466120
  76.403491,  174.400881
  77.734368,  177.341417
  79.090532,  180.335143
  80.452946,  183.339960
  81.833859,  186.382835
  83.234743,  189.466918
  84.649742,  192.579240
  86.076075,  195.713630
  87.529580,  198.904801
  89.002517,  202.135640
  90.487151,  205.389112
  91.983098,  208.664330
  93.490940,  211.962523
  95.029204,  215.324108
  96.585428,  218.721734
  98.148737,  222.131600
  99.729079,  225.575359
 101.324331,  229.048310
 102.941287,  232.565158
 103.265878,  233.270732
 103.458075,  233.688453
 103.568907,  233.929315
 103.670897,  234.150945
 103.750633,  234.324210
 103.815717,  234.465627
 103.862810,  234.567951
 103.908576,  234.667389
 103.960808,  234.780872
 103.970275,  234.801439
 103.972680,  234.806665
 103.973243,  234.807887
 103.973543,  234.808540
 103.973675,  234.808827
 103.973835,  234.809174
 103.975433,  234.812645
 103.991410,  234.847358
 104.104923,  235.093964
 104.512434,  235.979111
 105.920854,  239.036262
 107.399548,  242.242547
 108.888289,  245.467116
 110.397087,  248.731569
 111.913332,  252.008552
 113.444042,  255.313183
 114.980652,  258.626920
 116.546503,  262.000003
 118.122274,  265.390696
 119.709281,  268.801781
 121.305428,  272.228708
 122.924303,  275.700564
 124.551241,  279.185811
 126.193184,  282.699266
 127.856354,  286.254139
 129.529032,  289.825298
 131.216982,  293.424991
 132.918510,  297.049520
 134.630181,  300.691517
 136.359853,  304.367623
 138.111584,  308.086348
 139.881820,  311.840024
 141.656321,  315.598406
 143.451338,  319.395845
 145.260899,  323.219611
 147.084571,  327.068713
 148.920652,  330.939491
 150.771945,  334.837778
 152.644271,  338.775731
 154.530512,  342.738275
 156.437327,  346.739305
 158.353374,  350.754940
 160.280389,  354.788773
 162.228984,  358.862928
 164.199367,  362.977710
 166.177699,  367.104136
 168.179261,  371.273995
 170.188575,  375.454954
 172.217971,  379.672600
 174.265273,  383.922298
 176.323559,  388.189600
 178.395849,  392.480707
 180.478634,  396.788293
 182.589947,  401.149536
 184.709407,  405.522231
 186.847517,  409.927976
 188.999008,  414.355828
 191.170846,  418.820025
 193.354765,  423.303486
 195.557972,  427.820923
 197.785531,  432.382583
 200.028555,  436.970148
 202.289230,  441.588000
 204.561836,  446.224368
 206.857959,  450.902793
 209.160254,  455.587850
 211.485733,  460.314082
 213.824874,  465.062027
 216.184489,  469.845418
 218.564823,  474.664625
 220.954382,  479.496294
 223.374309,  484.383064
 225.802736,  489.280654
 228.246820,  494.203443
 230.714584,  499.167471
 233.196805,  504.154076
 235.698407,  509.173052
 238.223447,  514.232407
 240.757637,  519.303424
 243.307499,  524.399094
 243.819123,  525.420721
 244.160930,  526.103101
 245.234459,  528.245507
 245.255574,  528.287634
 245.260895,  528.298250
 245.269421,  528.315261
 245.270580,  528.317571
 245.271239,  528.318887
 245.271652,  528.319711
 245.272031,  528.320467
 245.275823,  528.328031
 245.308995,  528.394212
 245.489763,  528.754829
 246.397362,  530.564757
 248.642360,  535.037082
 250.910951,  539.549728
 253.194482,  544.085346
 255.489820,  548.637630
 257.796429,  553.205451
 260.112136,  557.784451
 262.444877,  562.390243
 264.792560,  567.018592
 267.152670,  571.664453
 269.527490,  576.332237
 271.920292,  581.028266
 274.327732,  585.745869
 276.754404,  590.493935
 279.196508,  595.264908
 281.639954,  600.031230
 284.109086,  604.840299
 286.587877,  609.660784
 289.079199,  614.498204
 291.592865,  619.371500
 294.118875,  624.261162
 296.647416,  629.148172
 299.192465,  634.059495
 301.757769,  639.002235
 304.342926,  643.975476
 306.942795,  648.969212
 309.557182,  653.982979
 312.176347,  658.998050
 314.815464,  664.043408
 317.466208,  669.103033
 320.132569,  674.184462
 322.817880,  679.293929
 325.520222,  684.427659
 328.230660,  689.568608
 330.963415,  694.743651
 333.704471,  699.926148
 336.468821,  705.144342
 339.248237,  710.382574
 342.033247,  715.622935
 344.844506,  720.904191
 347.663742,  726.191901
 350.492407,  731.488749
 353.334963,  736.803029
 356.196160,  742.143516
 359.073472,  747.505381
 361.965013,  752.885009
 364.876543,  758.293007
 367.798876,  763.712215
 370.741193,  769.159561
 373.695465,  774.620077
 376.672141,  780.112965
 379.647749,  785.594858
 382.645542,  791.108539
 385.664177,  796.651388
 388.695286,  802.207931
 391.744345,  807.788113
 394.807075,  813.384000
 397.895053,  819.016613
 400.984272,  824.642084
 404.087347,  830.283362
 407.216091,  835.961787
 410.358140,  841.654787
 413.516237,  847.367241
 416.692282,  853.102476
 419.882047,  858.852758
 423.087385,  864.621341
 426.311910,  870.414613
 429.545002,  876.213413
 432.802710,  882.046422
 436.070654,  887.887777
 439.358729,  893.755074
 442.666954,  899.648208
 445.986607,  905.551545
 449.316383,  911.462710
 452.668690,  917.403632
 456.031707,  923.353252
 459.419409,  929.336181
 462.816887,  935.325978
 463.500268,  936.529533
 463.991797,  937.394944
 464.329741,  937.989819
 464.642615,  938.540474
 464.904321,  939.001007
 464.952813,  939.086332
 465.008249,  939.183875
 465.020106,  939.204738
 465.031843,  939.225388
 465.035901,  939.232528
 465.037453,  939.235259
 465.039173,  939.238285
 465.056369,  939.268541
 465.197834,  939.517438
 465.963858,  940.864876
 468.810677,  945.867796
 472.227554,  951.862891
 475.673722,  957.898785
 479.138752,  963.957035
 482.604102,  970.005185
 486.092738,  976.083257
 489.599800,  982.182638
 493.128471,  988.308730
 496.674129,  994.453379
 500.224997, 1000.596120
 503.801621, 1006.772405
 507.396981, 1012.969956
 510.995201, 1019.161354
 514.609631, 1025.369533
 518.246373, 1031.604848
 521.897149, 1037.852984
 525.566409, 1044.121461
 529.253570, 1050.409163
 532.958511, 1056.715770
 536.673319, 1063.027736
 540.412163, 1069.369032
 544.167612, 1075.726913
 547.932129, 1082.088556
 551.718431, 1088.475357
 555.522072, 1094.879689
 559.340358, 1101.296921
 563.178382, 1107.735505
 567.036967, 1114.196685
 570.907534, 1120.666000
 574.798944, 1127.158160
 578.708079, 1133.667838
 582.627476, 1140.182529
 586.567398, 1146.719203
 590.532868, 1153.286033
 594.507978, 1159.856565
 598.500367, 1166.443357
 602.505612, 1173.039024
 606.535368, 1179.662642
 610.575486, 1186.290845
 614.631440, 1192.932548
 618.706842, 1199.593557
 622.797647, 1206.267152
 626.902631, 1212.951257
 631.027386, 1219.654872
 635.183907, 1226.397311
 639.346251, 1233.136371
 643.521000, 1239.882678
 647.714792, 1246.646873
 651.924416, 1253.423669
 656.166071, 1260.238977
 660.409120, 1267.043475
 664.678835, 1273.877615
 664.967817, 1274.339688
 668.963366, 1280.722297
 673.262209, 1300.287923
 677.582682, 1320.827675
 681.917670, 1341.428344
 686.289143, 1363.735932
 690.675101, 1386.604283
 695.073570, 1409.507067
 699.497039, 1432.457708
 703.941253, 1457.288679
 708.395109, 1482.674704
 712.878676, 1508.103904
 717.375034, 1533.625530
 721.883566, 1560.855484
 726.419429, 1589.024307
 730.954866, 1617.256117
 735.508572, 1645.460522
 740.077775, 1674.582517
 744.677960, 1705.178362
 749.282291, 1735.862942
 753.896152, 1766.515529
 758.526265, 1797.174082
 763.166859, 1829.869372
 767.818097, 1862.667743
 772.484386, 1895.469772
 777.155953, 1928.277033
 781.847123, 1962.372796
 786.542973, 1999.153394
 787.485451, 2028.066535
 788.358760, 2035.240826
 788.683032, 2040.866878
 789.007469, 2043.375354
 789.072387, 2045.346357
 789.259250, 2046.100787
 789.262199, 2047.163896
 789.266411, 2047.189299
 789.267314, 2047.214984
 789.267639, 2047.220766
 789.268011, 2047.223373
 789.270482, 2047.230597
 789.283259, 2047.271056
 789.333685, 2047.447817
 789.469207, 2048.013833
 789.690292, 2049.238357
 790.014201, 2051.159712
 790.338547, 2053.662963
 790.663164, 2056.168509
 790.988565, 2058.676469
 791.314197, 2061.188589
 791.639991, 2063.701588
 791.965915, 2066.215014
 792.292226, 2068.729210
 792.617206, 2071.242050
 792.942316, 2073.746883
 793.268711, 2076.254340
 793.595606, 2078.769280
 793.923061, 2081.287406
 794.250741, 2083.808349
 794.578340, 2086.329573
 794.906607, 2088.850915
 795.234999, 2091.375451
 795.563038, 2093.899124
 795.891986, 2096.421879
 796.221244, 2098.949536
 796.550817, 2101.478734
 796.880702, 2104.009495
 797.209856, 2106.539624
 797.539956, 2109.066764
 797.869143, 2111.596426
 798.200018, 2114.123630
 798.531410, 2116.660450
 798.863071, 2119.249274
 799.192981, 2121.895894
 799.525204, 2124.536055
 799.857335, 2127.188748
 800.188822, 2129.838610
 800.521856, 2132.486940
 800.855000, 2135.143658
 801.188162, 2137.800097
 801.521890, 2140.456847
 801.856241, 2143.117245
 802.190830, 2145.780816
 802.524934, 2148.443776
 802.859611, 2151.104072
 803.194311, 2153.766777
 803.528590, 2156.427722
 803.862758, 2159.084944
 804.199411, 2161.745666
 804.535815, 2164.419406
 804.873037, 2167.092339
 805.210660, 2169.769845
 805.547169, 2172.446307
 805.885571, 2175.119126
 806.223888, 2177.801760
 806.562061, 2180.482505
 806.901421, 2183.163793
 807.239101, 2185.847402
 807.577748, 2188.522116
 807.918003, 2191.204710
 808.258604, 2193.896275
 808.599629, 2196.589596
 808.939017, 2199.280838
 809.280545, 2201.965857
 809.622895, 2204.663877
 809.965792, 2207.366647
 810.309339, 2210.072767
 810.649953, 2212.775366
 810.993768, 2215.466409
 811.336323, 2218.172210
 811.680620, 2220.873113
 812.023747, 2223.580462
 812.369246, 2226.284740
 812.712720, 2228.997311
 813.058009, 2231.700686
 813.404167, 2234.415113
 813.750703, 2237.134090
 814.097846, 2239.855232
 814.445955, 2242.580597
 814.794100, 2245.310314
 815.141499, 2248.037391
 815.489020, 2250.759104
 815.839095, 2253.485500
 816.187112, 2256.221010
 816.537315, 2258.947863
 816.888845, 2261.688690
 817.240292, 2264.435606
 817.590644, 2267.178409
 817.942030, 2269.915677
 818.292602, 2272.655816
 818.645283, 2275.394250
 818.999495, 2278.146528
 819.351915, 2280.902458
 819.705468, 2283.649028
 820.055631, 2286.393663
 820.411636, 2289.129516
 820.765108, 2291.892096
 821.121913, 2292.626827
 821.478414, 2293.360149
 821.834556, 2294.091952
 822.191878, 2294.825393
 822.549467, 2295.558596
 822.907309, 2296.291524
 823.266705, 2297.026838
 823.627411, 2297.764028
 823.987385, 2298.498916
 824.347238, 2299.232751
 824.706783, 2299.965153
 825.067265, 2300.698654
 825.428164, 2301.432191
 825.791241, 2302.169331
 826.152910, 2302.902793
 826.517250, 2303.640841
 826.881875, 2304.378632
 827.246017, 2305.114611
 827.610386, 2305.850210
 827.974336, 2306.584127
 828.339939, 2307.320537
 828.706051, 2308.057122
 829.070723, 2308.789964
 829.437443, 2309.526073
 829.804734, 2310.262470
 830.171239, 2310.996434
 830.538886, 2311.731825
 830.906634, 2312.466554
 831.275686, 2313.203019
 831.645262, 2313.939656
 832.015966, 2314.677661
 832.385941, 2315.413335
 832.757302, 2316.150878
 833.128418, 2316.887049
 833.499824, 2317.622904
 833.873455, 2318.362268
 834.247141, 2319.100839
 834.620515, 2319.837891
 834.994111, 2320.574474
 835.367293, 2321.309334
 835.742370, 2322.047016
 836.115558, 2322.780072
 836.490737, 2323.516122
 836.867146, 2324.253661
 837.243819, 2324.990792
 837.623738, 2325.733330
 838.003123, 2326.473881
 838.381957, 2327.212415
 838.761124, 2327.950649
 839.140840, 2328.689005
 839.521059, 2329.427385
 839.904094, 2330.170269
 840.287107, 2330.912140
 840.669194, 2331.651248
 841.052109, 2332.390987
 841.434547, 2333.128832
 841.818844, 2333.869285
 842.203121, 2334.608715
 842.590598, 2335.353305
 842.978239, 2336.097208
 843.365805, 2336.839961
 843.752366, 2337.579785
 844.141553, 2338.323624
 844.531453, 2339.067808
 844.920042, 2339.808470
 845.308530, 2340.547925
 845.699247, 2341.290596
 846.093096, 2342.038177
 846.486041, 2342.782996
 846.878757, 2343.526340
 847.272204, 2344.270017
 847.667664, 2345.016442
 848.063251, 2345.762042
 848.459136, 2346.507139
 848.855046, 2347.251214
 849.249708, 2347.991880
 849.648055, 2348.738383
 850.047655, 2349.486142
 850.448721, 2350.235547
 850.740545, 2350.780136
 850.847552, 2350.979681
 851.248550, 2351.726759
 851.650954, 2352.475342
 852.053005, 2353.222156
 852.456173, 2353.969928
 852.859529, 2354.716925
 853.262937, 2355.462893
 853.664658, 2356.204622
 854.070406, 2356.952652
 854.473980, 2357.695541
 854.880962, 2358.443560
 855.288779, 2359.191956
 855.697257, 2359.940405
 856.104986, 2360.686322
 856.512307, 2361.430332
 856.919107, 2362.172234
 857.330117, 2362.920637
 857.741155, 2363.667909
 858.153223, 2364.415864
 858.566155, 2365.164188
 858.980851, 2365.914505
 859.394845, 2366.662342
 859.809368, 2367.409924
 860.224052, 2368.156583
 860.639071, 2368.902628
 861.054911, 2369.648927
 861.472031, 2370.396293
 861.890595, 2371.145005
 862.310521, 2371.894901
 862.731861, 2372.646064
 863.154442, 2373.398169
 863.576251, 2374.147632
 863.998267, 2374.896191
 864.423658, 2375.649449
 864.847615, 2376.398879
 865.274313, 2377.151855
 865.700553, 2377.902717
 866.126290, 2378.651393
 866.556278, 2379.406222
 866.985867, 2380.159021
 867.415383, 2380.910364
 867.845905, 2381.662130
 868.276104, 2382.411996
 868.708725, 2383.164732
 869.140451, 2383.914561
 869.576537, 2384.670591
 870.012846, 2385.425627
 870.446832, 2386.175271
 870.884445, 2386.929791
 871.319061, 2387.677765
 871.756899, 2388.429892
 872.193985, 2389.179330
 872.632207, 2389.929316
 873.070710, 2390.678375
 873.513333, 2391.433045
 873.956834, 2392.187770
 874.400492, 2392.941318
 874.844860, 2393.694623
 875.289620, 2394.447135
 875.734848, 2395.198982
 876.184686, 2395.957127
 876.633802, 2396.712565
 877.082341, 2397.465546
 877.532087, 2398.219058
 877.982566, 2398.972294
 878.433219, 2399.724318
 878.887957, 2400.481628
 879.339902, 2401.232764
 879.794161, 2401.986215
 880.245220, 2402.732837
 880.701407, 2403.486404
 881.159159, 2404.240994
 881.614355, 2404.989818
 882.072952, 2405.742669
 882.534446, 2406.498684
 882.994437, 2407.250649
 883.457255, 2408.005632
 883.919050, 2408.757340
 884.379512, 2409.505282
 884.844358, 2410.258725
 885.310555, 2411.012722
 885.777754, 2411.766693
 886.245476, 2412.519856
 886.714606, 2413.273625
 887.184203, 2414.026474
 887.652873, 2414.776169
 888.123872, 2415.527912
 888.596293, 2416.280231
 889.069097, 2417.031460
 889.543247, 2417.783120
 890.017522, 2418.533263
 890.493877, 2419.284969
 890.972369, 2420.038302
 891.452438, 2420.792359
 891.931618, 2421.543262
 892.409608, 2422.290545
 892.892330, 2423.043450
 893.374647, 2423.793935
 893.860088, 2424.547476
 894.343580, 2425.296190
 894.831197, 2426.049469
 895.316950, 2426.798044
 895.803820, 2427.546515
 896.293957, 2428.298158
 896.782697, 2429.045810
 897.273072, 2429.794104
 897.764624, 2430.542324
 898.254797, 2431.286580
 898.749174, 2432.035329
 899.243593, 2432.782241
 899.740672, 2433.531255
 900.235296, 2434.274659
 900.730890, 2435.017608
 901.229199, 2435.762697
 901.729354, 2436.508593
 902.228191, 2437.250578
 902.728166, 2437.992300
 903.231582, 2438.737149
 903.733718, 2439.478125
 904.237947, 2440.220197
 904.744920, 2440.964295
 905.249575, 2441.702982
 905.759700, 2442.447638
 906.265723, 2443.184281
 906.776079, 2443.925186
 907.288803, 2444.667458
 907.800335, 2445.405935
 908.313752, 2446.145052
 908.823663, 2446.877056
 909.338923, 2447.614646
 909.852405, 2448.347595
 910.371377, 2449.086255
 910.890248, 2449.822630
 911.411131, 2450.559707
 911.929621, 2451.291252
 912.449235, 2452.022234
 912.969317, 2452.751718
 913.492172, 2453.482914
 914.014535, 2454.211241
 914.539564, 2454.941087
 915.063629, 2455.667391
 915.587586, 2456.391345
 916.113105, 2457.115247
 916.642982, 2457.842907
 917.170475, 2458.565052
 917.702607, 2459.291281
 918.231010, 2460.010166
 918.760753, 2460.728616
 919.299081, 2461.456391
 919.830790, 2462.172922
 920.367982, 2462.894523
 920.900765, 2463.607896
 921.439635, 2464.327085
 921.979190, 2465.044831
 922.519948, 2465.761811
 923.061489, 2466.477450
 923.601951, 2467.189290
 924.147714, 2467.905703
 924.694114, 2468.620526
 925.237346, 2469.328795
 925.784711, 2470.040021
 926.334331, 2470.751720
 926.879394, 2471.455082
 927.430473, 2472.163742
 927.983365, 2472.872237
 928.533587, 2473.574830
 929.085306, 2474.276845
 929.638016, 2474.977619
 930.194363, 2475.680474
 930.748403, 2476.377892
 931.305107, 2477.076121
 931.866458, 2477.777600
 932.427950, 2478.476662
 932.986301, 2479.169238
 933.544443, 2479.858989
 934.109659, 2480.554861
 934.671689, 2481.244198
 935.233143, 2481.930222
 935.798453, 2482.618327
 936.369820, 2483.311116
 936.932199, 2483.990369
 937.501779, 2484.675648
 938.070120, 2485.356754
 938.639947, 2486.036951
 939.211626, 2486.716647
 939.783597, 2487.393974
 940.360123, 2488.073941
 940.933846, 2488.747854
 941.509572, 2489.421366
 942.088454, 2490.095783
 942.670036, 2490.770531
 943.247443, 2491.437641
 943.825673, 2492.102912
 944.403519, 2492.764947
 944.986854, 2493.430438
 945.563568, 2494.085575
 946.152355, 2494.751552
 946.738586, 2495.411750
 947.319510, 2496.063127
 947.905926, 2496.717788
 948.494704, 2497.372179
 949.081513, 2498.021483
 949.670868, 2498.670687
 950.252091, 2499.308069
 950.837512, 2499.947178
 951.426090, 2500.586820
 952.019675, 2501.228943
 952.612582, 2501.867364
 953.208737, 2502.506289
 953.807557, 2503.145045
 954.403160, 2503.777359
 954.995900, 2504.403654
 955.589353, 2505.027722
 956.186068, 2505.652209
 956.783145, 2506.274054
 957.387695, 2506.900599
 957.988632, 2507.520323
 958.589317, 2508.136722
 959.192254, 2508.752345
 959.798146, 2509.367871
 960.405852, 2509.982101
 961.009918, 2510.589534
 961.616263, 2511.196131
 962.223086, 2511.800067
 962.827901, 2512.398878
 963.428300, 2512.990226
 964.036335, 2513.585958
 964.649807, 2514.183813
 965.255081, 2514.770524
 965.867752, 2515.361213
 966.482198, 2515.950384
 967.096803, 2516.536472
 967.711758, 2517.119652
 968.326052, 2517.698966
 968.937397, 2518.272285
 969.556214, 2518.849341
 970.165572, 2519.414362
 970.788245, 2519.988432
 971.400805, 2520.549923
 972.021428, 2521.115513
 972.637726, 2521.673879
 973.255395, 2522.230204
 973.873419, 2522.783557
 974.493826, 2523.335731
 975.117351, 2523.887334
 975.740910, 2524.435610
 976.358558, 2524.975378
 976.984981, 2525.519448
 977.614777, 2526.063027
 978.240673, 2526.599841
 978.871688, 2527.137612
 979.499599, 2527.669317
 980.130994, 2528.200528
 980.762547, 2528.728415
 981.388682, 2529.248359
 982.016994, 2529.766693
 982.646575, 2530.282637
 983.269067, 2530.789388
 983.905965, 2531.304382
 984.540656, 2531.814086
 985.170190, 2532.316188
 985.800926, 2532.815791
 986.440157, 2533.318591
 987.078359, 2533.817033
 987.718820, 2534.313674
 988.353429, 2534.802250
 988.987872, 2535.287190
 989.626455, 2535.771751
 990.268259, 2536.255170
 990.907085, 2536.732778
 991.553088, 2537.212127
 992.200075, 2537.688553
 992.843347, 2538.158617
 993.492028, 2538.628971
 994.139021, 2539.094436
 994.775608, 2539.548841
 995.418036, 2540.003820
 996.062950, 2540.456926
 996.711661, 2540.909024
 997.356270, 2541.354613
 998.004036, 2541.798715
 998.647701, 2542.236363
 999.297063, 2542.674202
 999.943786, 2543.106585
1000.602845, 2543.543440
1001.251571, 2543.969722
1001.901280, 2544.392946
1002.558782, 2544.817472
1003.213927, 2545.236697
1003.863771, 2545.648804
1004.517961, 2546.059916
1005.169035, 2546.465333
1005.820142, 2546.867041
1006.476638, 2547.268297
1007.124224, 2547.660391
1007.784955, 2548.056637
1008.438285, 2548.444664
1009.100166, 2548.833936
1009.714017, 2549.191509
