Time, Horizontal Forces
   0.000000,    0.000000
   0.000001,    0.000001
   0.000008,    0.000019
   0.000085,    0.000202
   0.000543,    0.001290
   0.003035,    0.007213
   0.008605,    0.020448
   0.017027,    0.040452
   0.028368,    0.067382
   0.042545,    0.101036
   0.059724,    0.141805
   0.079970,    0.189835
   0.103103,    0.244700
   0.129491,    0.307264
   0.158826,    0.376793
   0.191095,    0.453254
   0.226678,    0.537542
   0.265799,    0.630181
   0.307931,    0.729916
   0.353373,    0.837454
   0.402443,    0.953541
   0.455538,    1.079109
   0.512453,    1.213667
   0.573216,    1.357274
   0.637873,    1.510033
   0.706223,    1.671463
   0.778401,    1.841876
   0.855089,    2.022877
   0.935289,    2.212102
   1.020031,    2.411974
   1.109395,    2.622674
   1.203550,    2.844591
   1.303199,    3.079371
   1.407188,    3.324291
   1.514678,    3.577364
   1.627005,    3.841727
   1.745700,    4.120976
   1.870521,    4.414528
   2.000834,    4.720879
   2.133768,    5.033271
   2.273696,    5.361975
   2.420510,    5.706720
   2.571663,    6.061516
   2.731894,    6.437471
   2.895533,    6.821267
   3.065821,    7.220498
   3.240139,    7.629012
   3.421501,    8.053859
   3.609797,    8.494771
   3.806069,    8.954165
   4.008971,    9.428881
   4.218648,    9.919237
   4.436204,   10.427802
   4.660889,   10.952804
   4.892956,   11.494817
   5.129459,   12.046949
   5.374645,   12.619101
   5.627893,   13.209803
   5.890608,   13.822310
   6.160723,   14.451783
   6.438773,   15.099452
   6.724886,   15.765593
   7.022169,   16.457416
   7.324638,   17.160977
   7.636490,   17.886021
   7.957718,   18.632505
   8.286979,   19.397289
   8.621683,   20.174341
   8.969777,   20.982086
   9.326003,   21.808295
   9.697506,   22.669505
  10.072618,   23.538645
  10.457639,   24.430295
  10.850334,   25.339258
  11.255033,   26.275529
  11.669350,   27.233558
  12.095084,   28.217475
  12.530679,   29.223657
  12.976238,   30.252316
  13.438790,   31.319635
  13.907145,   32.399762
  14.390212,   33.513219
  14.880089,   34.641758
  15.380551,   35.794053
  15.890951,   36.968586
  16.413626,   38.170704
  16.941474,   39.384047
  17.492912,   40.650908
  18.049814,   41.929599
  18.622370,   43.243486
  19.204568,   44.578735
  19.803849,   45.952370
  20.413755,   47.349545
  21.031570,   48.764013
  21.661013,   50.204260
  22.302960,   51.672257
  22.958545,   53.170554
  23.628370,   54.700484
  24.310903,   56.258505
  25.011444,   57.856661
  25.151941,   58.177063
  25.244034,   58.387060
  25.298016,   58.510145
  25.331131,   58.585648
  25.336123,   58.597029
  25.341706,   58.609758
  25.342762,   58.612167
  25.344595,   58.616345
  25.345117,   58.617535
  25.346042,   58.619644
  25.346385,   58.620426
  25.346706,   58.621159
  25.349603,   58.627763
  25.373300,   58.681791
  25.473118,   58.909353
  25.756008,   59.554142
  26.335332,   60.873968
  26.984387,   62.351671
  27.647984,   63.861415
  28.320925,   65.391333
  29.014078,   66.966071
  29.715630,   68.558738
  30.429133,   70.177359
  31.149998,   71.811490
  31.881400,   73.468298
  32.627384,   75.156898
  33.382127,   76.864064
  34.154394,   78.609572
  34.938206,   80.379847
  35.731106,   82.169302
  36.539000,   83.991222
  37.356124,   85.832559
  38.178072,   87.683366
  39.018910,   89.575267
  39.872719,   91.494882
  40.739745,   93.442708
  41.622054,   95.423331
  42.509123,   97.413089
  43.415510,   99.444593
  44.333504,  101.500494
  45.264490,  103.583846
  46.212208,  105.702957
  47.165610,  107.833078
  48.138151,  110.004223
  49.117998,  112.189923
  50.115250,  114.412656
  51.124475,  116.660253
  52.148655,  118.939300
  53.183272,  121.239692
  54.239034,  123.585169
  55.303378,  125.947760
  56.382353,  128.340846
  57.477169,  130.767047
  58.574483,  133.196759
  59.694759,  135.675247
  60.837406,  138.201092
  61.988398,  140.743227
  63.156071,  143.320011
  64.339061,  145.928362
  65.532160,  148.556750
  66.741814,  151.219317
  67.970516,  153.921471
  69.216061,  156.658280
  70.477910,  159.428485
  71.755337,  162.230425
  73.042509,  165.051252
  74.341551,  167.895581
  75.667354,  170.795930
  77.003418,  173.716115
  78.342644,  176.640603
  79.709884,  179.623595
  81.099533,  182.652739
  82.499030,  185.700578
  83.909217,  188.768915
  85.343321,  191.886442
  86.787946,  195.023968
  88.250783,  198.198128
  89.735056,  201.415826
  91.223066,  204.638639
  92.737523,  207.915694
  94.258092,  211.202906
  95.811012,  214.556916
  97.367374,  217.915198
  98.946308,  221.318979
 100.550367,  224.773638
 102.157216,  228.231017
 103.787647,  231.735797
 104.117795,  232.445076
 104.371482,  232.989997
 104.558574,  233.391819
 104.685758,  233.664952
 104.780914,  233.869288
 104.854139,  234.026524
 104.926580,  234.182069
 104.986336,  234.310372
 105.032408,  234.409290
 105.040490,  234.426643
 105.049596,  234.446194
 105.063736,  234.476551
 105.064668,  234.478552
 105.065346,  234.480009
 105.065758,  234.480893
 105.066053,  234.481525
 105.066240,  234.481928
 105.066426,  234.482326
 105.068280,  234.486308
 105.084581,  234.521306
 105.167418,  234.699147
 105.476980,  235.363644
 106.530458,  237.623882
 108.003205,  240.780751
 109.514056,  244.015795
 111.025431,  247.248434
 112.549878,  250.505487
 114.085887,  253.783666
 115.642192,  257.101528
 117.204949,  260.429486
 118.790106,  263.801429
 120.387749,  267.196173
 121.999894,  270.617931
 123.622366,  274.057777
 125.260489,  277.526940
 126.920135,  281.037743
 128.599179,  284.585577
 130.288736,  288.151586
 131.987252,  291.732448
 133.701326,  295.342015
 135.429733,  298.977629
 137.178381,  302.651620
 138.935489,  306.339160
 140.714111,  310.067564
 142.502035,  313.811153
 144.306939,  317.585933
 146.126567,  321.387101
 147.963002,  325.218925
 149.818335,  329.085663
 151.682443,  332.966148
 153.570817,  336.892536
 155.462407,  340.820991
 157.369084,  344.776124
 159.296143,  348.768822
 161.240515,  352.792617
 163.204593,  356.852357
 165.171094,  360.912266
 167.163577,  365.020907
 169.173025,  369.159560
 171.198185,  373.325553
 173.242093,  377.525036
 175.306428,  381.761343
 177.384017,  386.019660
 179.475199,  390.300617
 181.579313,  394.602790
 183.700674,  398.934923
 185.847484,  403.313637
 188.004616,  407.707977
 190.178461,  412.130892
 192.371337,  416.587000
 194.575604,  421.060691
 196.804972,  425.579688
 199.038238,  430.100936
 201.299108,  434.672338
 203.573504,  439.265312
 205.860577,  443.878075
 208.177869,  448.545879
 210.512853,  453.243343
 212.861510,  457.962294
 215.228214,  462.711437
 217.610951,  467.486633
 220.009537,  472.287428
 222.421567,  477.108931
 224.847668,  481.952324
 227.300555,  486.842872
 229.762977,  491.746074
 232.238070,  496.668126
 234.734186,  501.625542
 237.248478,  506.612555
 239.780101,  511.627387
 242.328431,  516.668709
 244.888867,  521.727340
 247.472358,  526.824816
 247.576573,  527.030301
 247.663087,  527.200878
 247.744089,  527.360578
 247.823179,  527.516502
 247.841340,  527.552305
 247.845672,  527.560846
 247.854268,  527.577792
 247.856560,  527.582311
 247.857053,  527.583284
 247.857357,  527.583882
 247.857670,  527.584500
 247.860805,  527.590680
 247.890870,  527.649949
 248.052201,  527.967975
 248.733079,  529.309798
 250.519037,  532.826598
 252.826695,  537.364661
 255.123957,  541.875550
 257.438960,  546.414518
 259.767134,  550.972508
 262.115750,  555.563640
 264.473375,  560.165472
 266.841262,  564.780402
 269.217778,  569.405202
 271.620188,  574.073353
 274.029603,  578.748045
 276.454934,  583.446503
 278.899772,  588.175563
 281.362607,  592.932177
 283.834668,  597.699322
 286.318271,  602.481411
 288.816223,  607.283771
 291.332805,  612.114524
 293.861066,  616.960232
 296.401973,  621.822679
 298.959004,  626.708430
 301.528724,  631.610835
 304.123014,  636.552431
 306.726655,  641.504120
 309.349425,  646.484408
 311.980440,  651.472545
 314.624537,  656.477648
 317.290111,  661.515492
 319.964296,  666.561668
 322.656444,  671.633745
 325.361839,  676.722735
 328.082547,  681.832442
 330.818119,  686.961925
 333.564005,  692.102582
 336.329382,  697.271502
 339.106092,  702.453337
 341.902517,  707.663631
 344.717459,  712.900025
 347.541434,  718.144793
 350.384424,  723.416390
 353.242031,  728.706552
 356.121833,  734.029183
 359.006064,  739.351372
 361.908019,  744.697594
 364.829026,  750.070170
 367.760755,  755.453690
 370.708421,  760.857655
 373.676852,  766.290790
 376.655768,  771.734183
 379.650040,  777.196661
 382.662365,  782.683040
 385.690893,  788.189838
 388.735897,  793.717446
 391.802527,  799.275090
 394.876217,  804.836281
 397.969627,  810.423851
 401.075680,  816.024913
 404.194782,  821.640129
 407.332508,  827.279439
 410.484859,  832.935549
 413.665580,  838.632968
 416.851505,  844.330098
 420.057001,  850.052564
 423.281249,  855.798774
 426.524504,  861.569056
 429.779950,  867.351189
 433.054237,  873.156892
 436.334324,  878.962972
 439.636074,  884.797435
 442.958512,  890.658407
 446.294935,  896.533957
 449.641790,  902.417764
 453.009764,  908.328517
 456.395553,  914.260290
 459.791287,  920.199216
 463.198882,  926.148595
 466.631235,  932.130825
 467.320214,  933.330392
 469.947310,  937.900551
 469.954431,  937.912930
 469.959511,  937.921761
 469.962431,  937.926837
 469.966123,  937.933255
 470.003042,  937.997437
 470.256397,  938.437848
 471.601360,  940.774860
 474.710822,  946.171762
 478.192264,  952.204199
 481.679087,  958.235325
 485.175064,  964.271648
 488.694551,  970.337857
 492.215300,  976.395538
 495.761471,  982.486187
 499.323123,  988.592595
 502.900993,  994.715926
 506.489073, 1000.845831
 510.105122, 1007.012521
 513.729980, 1013.183203
 517.373162, 1019.374003
 521.031038, 1025.578648
 524.705129, 1031.799629
 528.403384, 1038.050272
 532.117634, 1044.316635
 535.841792, 1050.588382
 539.591390, 1056.891559
 543.366160, 1063.225534
 547.152306, 1069.567042
 550.947547, 1075.912220
 554.757184, 1082.269876
 558.584143, 1088.644798
 562.439263, 1095.054885
 566.309698, 1101.478632
 570.191784, 1107.909887
 574.086171, 1114.349666
 578.006924, 1120.821106
 581.940686, 1127.302031
 585.894267, 1133.803566
 589.859474, 1140.312144
 593.848217, 1146.847206
 597.852964, 1153.396286
 601.879575, 1159.968847
 605.912263, 1166.539046
 609.969531, 1173.136942
 614.049015, 1179.758530
 618.134583, 1186.377551
 622.237548, 1193.012278
 626.361603, 1199.668564
 630.509510, 1206.350712
 634.668245, 1213.037643
 638.836454, 1219.727136
 643.021900, 1226.431584
 647.232030, 1233.162783
 651.457517, 1239.905688
 655.708116, 1246.675739
 659.976685, 1253.461422
 664.261985, 1260.260660
 668.565343, 1267.075457
 672.875125, 1273.887335
 677.203973, 1280.716214
 681.561447, 1287.577015
 683.459948, 1290.562049
 685.922373, 1294.430013
 690.315840, 1309.353112
 694.723863, 1330.685023
 699.154493, 1352.065379
 703.600140, 1373.507524
 708.077360, 1395.824907
 712.560391, 1420.193012
 717.069141, 1444.580499
 721.595615, 1469.048924
 726.138517, 1493.564752
 730.707678, 1520.581262
 735.282321, 1547.926974
 739.883183, 1575.284574
 744.486140, 1602.698816
 749.125145, 1631.018325
 753.777967, 1661.097530
 758.442259, 1691.193336
 763.117370, 1721.292426
 767.810693, 1751.404546
 772.512142, 1783.136271
 777.236063, 1815.820631
 781.968472, 1848.552649
 786.712022, 1881.265252
 791.467584, 1913.972417
 796.231453, 1949.015039
 797.184745, 1977.429984
 797.384141, 1983.079914
 797.586763, 1984.583093
 797.590886, 1985.704468
 797.594509, 1985.734396
 797.595369, 1985.756022
 797.596183, 1985.762384
 797.604323, 1985.783229
 797.680764, 1985.981725
 798.185434, 1987.416973
 800.524700, 1994.899126
 805.496324, 2017.809768
 810.489053, 2055.288402
 815.489611, 2092.790527
 815.822494, 2122.209934
 816.155094, 2124.899068
 816.488498, 2127.587235
 816.821238, 2130.277939
 817.152915, 2132.961527
 817.486897, 2135.642540
 817.819822, 2138.334280
 818.154690, 2141.022721
 818.489782, 2143.722326
 818.823765, 2146.420021
 819.159332, 2149.113355
 819.494957, 2151.815324
 819.830930, 2154.517363
 820.165793, 2157.218201
 820.501322, 2159.912769
 820.838428, 2162.613565
 821.175353, 2165.322398
 821.511471, 2168.027458
 821.847791, 2170.727089
 822.185143, 2173.429021
 822.523261, 2176.137649
 822.861778, 2178.850613
 823.199501, 2181.563254
 823.538015, 2184.271732
 823.876904, 2186.984621
 824.215354, 2189.697753
 824.554252, 2192.408109
 824.894433, 2195.122687
 825.234704, 2197.843965
 825.575795, 2200.566360
 825.917637, 2203.294041
 826.258876, 2206.023805
 826.599645, 2208.747885
 826.941924, 2211.471153
 827.285299, 2214.204465
 827.625969, 2216.937532
 827.968027, 2219.656292
 828.311022, 2222.384017
 828.655581, 2225.119322
 829.000011, 2227.862406
 829.344677, 2230.604006
 829.690497, 2233.348159
 830.036541, 2236.098357
 830.381978, 2238.847398
 830.727321, 2241.591428
 831.073691, 2244.335770
 831.420584, 2247.085985
 831.769027, 2249.841195
 832.116576, 2252.602406
 832.463283, 2255.355348
 832.811554, 2258.105276
 833.161545, 2260.866617
 833.512081, 2263.637851
 833.860121, 2266.405836
 834.210056, 2269.161757
 834.560692, 2271.928880
 834.911900, 2274.699936
 835.264301, 2277.475421
 835.617155, 2280.257440
 835.969969, 2283.040642
 836.322503, 2285.821648
 836.674459, 2288.598438
 837.027191, 2291.372044
 837.381240, 2294.151456
 837.735552, 2296.937665
 838.090234, 2297.662267
 838.444227, 2298.384734
 838.799299, 2299.108670
 839.155272, 2299.833707
 839.510936, 2300.557379
 839.866864, 2301.280845
 840.225301, 2302.008665
 840.580829, 2302.729835
 840.939064, 2303.455745
 841.297818, 2304.181951
 841.657427, 2304.909127
 842.016502, 2305.634465
 842.377600, 2306.363120
 842.738339, 2307.090280
 843.097316, 2307.813124
 843.457194, 2308.537016
 843.818350, 2309.262705
 844.179837, 2309.988281
 844.541794, 2310.714022
 844.905714, 2311.442909
 845.269086, 2312.169910
 845.632245, 2312.895695
 845.996146, 2313.622170
 846.359986, 2314.347729
 846.725458, 2315.075739
 847.090823, 2315.802734
 847.456069, 2316.528686
 847.822057, 2317.255305
 848.186654, 2317.978358
 848.553558, 2318.705172
 848.920366, 2319.430979
 849.288769, 2320.159120
 849.657624, 2320.887328
 850.025664, 2321.613098
 850.394846, 2322.340292
 850.764562, 2323.067702
 851.134283, 2323.794285
 851.504588, 2324.521176
 851.874667, 2325.246782
 852.245353, 2325.972736
 852.617956, 2326.701590
 852.990621, 2327.429710
 853.364384, 2328.159113
 853.737415, 2328.886226
 854.109816, 2329.611253
 854.484953, 2330.340735
 854.859613, 2331.068419
 855.232812, 2331.792397
 855.610154, 2332.523529
 855.987506, 2333.253794
 856.365445, 2333.984303
 856.744425, 2334.715928
 857.123166, 2335.446193
 857.501044, 2336.173896
 857.879099, 2336.901043
 858.259561, 2337.631912
 858.639528, 2338.360919
 859.019503, 2339.089032
 859.398980, 2339.815281
 859.780769, 2340.545035
 860.164566, 2341.277696
 860.547572, 2342.007915
 860.931298, 2342.738574
 861.316361, 2343.470836
 861.701410, 2344.202129
 862.087440, 2344.934335
 862.472182, 2345.663150
 862.858164, 2346.393364
 863.244074, 2347.122489
 863.628245, 2347.847378
 864.015436, 2348.577007
 864.404962, 2349.310064
 864.793774, 2350.040802
 865.184145, 2350.773489
 865.576484, 2351.508880
 865.968260, 2352.242223
 866.360133, 2352.974751
 866.752526, 2353.707256
 867.147066, 2354.442762
 867.540736, 2355.175636
 867.836200, 2355.725023
 867.934290, 2355.907287
 868.327190, 2356.636714
 868.723463, 2357.371383
 869.122940, 2358.110955
 869.519596, 2358.844271
 869.918943, 2359.581518
 870.318549, 2360.318198
 870.717946, 2361.053446
 871.119954, 2361.792439
 871.519516, 2362.525882
 871.919099, 2363.258311
 872.320228, 2363.992513
 872.722652, 2364.728016
 873.126464, 2365.464979
 873.529387, 2366.199240
 873.934305, 2366.936054
 874.340008, 2367.673203
 874.745640, 2368.409126
 875.152371, 2369.145944
 875.559600, 2369.882559
 875.968712, 2370.621463
 876.378625, 2371.360692
 876.789103, 2372.099812
 877.201574, 2372.841383
 877.615391, 2373.584225
 878.026466, 2374.321007
 878.441793, 2375.064253
 878.855166, 2375.802849
 879.271878, 2376.546244
 879.686004, 2377.283863
 880.102916, 2378.025272
 880.521081, 2378.767727
 880.937739, 2379.506329
 881.353630, 2380.242393
 881.773864, 2380.984949
 882.194763, 2381.727477
 882.615973, 2382.469344
 883.036844, 2383.209405
 883.460664, 2383.953428
 883.881680, 2384.691312
 884.303816, 2385.429942
 884.728670, 2386.172091
 885.156392, 2386.918000
 885.581262, 2387.657691
 886.009898, 2388.402678
 886.437488, 2389.144587
 886.866252, 2389.887265
 887.295662, 2390.629792
 887.724857, 2391.370670
 888.155251, 2392.112338
 888.587086, 2392.855199
 889.021134, 2393.600562
 889.455572, 2394.345284
 889.888297, 2395.085764
 890.326698, 2395.834629
 890.760957, 2396.575094
 891.199119, 2397.320882
 891.636947, 2398.064760
 892.074932, 2398.807563
 892.514514, 2399.551723
 892.957033, 2400.299486
 893.397710, 2401.042769
 893.840287, 2401.787883
 894.282480, 2402.530974
 894.725623, 2403.274278
 895.169843, 2404.017999
 895.614511, 2404.761073
 896.061602, 2405.506787
 896.508971, 2406.251547
 896.958332, 2406.998195
 897.403655, 2407.736722
 897.854382, 2408.482775
 898.306609, 2409.229858
 898.759921, 2409.977273
 899.215562, 2410.727051
 899.673747, 2411.479521
 900.127947, 2412.223967
 900.585175, 2412.971884
 901.042341, 2413.718205
 901.497488, 2414.459740
 901.955499, 2415.204440
 902.416031, 2415.951720
 902.876051, 2416.696646
 903.337229, 2417.441916
 903.800373, 2418.188822
 904.261594, 2418.931087
 904.724530, 2419.674566
 905.189475, 2420.419713
 905.658035, 2421.169069
 906.119937, 2421.906218
 906.590986, 2422.656373
 907.060129, 2423.401887
 907.530574, 2424.147865
 907.999237, 2424.889415
 908.471362, 2425.634823
 908.942507, 2426.377062
 909.413435, 2427.117341
 909.888650, 2427.862713
 910.363159, 2428.605329
 910.841616, 2429.352452
 911.322222, 2430.101241
 911.801461, 2430.846211
 912.282172, 2431.591773
 912.764937, 2432.338809
 913.246392, 2433.082108
 913.729714, 2433.826571
 914.213007, 2434.569264
 914.696154, 2435.310005
 915.181000, 2436.051617
 915.670218, 2436.798152
 916.158511, 2437.541506
 916.647152, 2438.283618
 917.134296, 2439.021691
 917.624924, 2439.763259
 918.113133, 2440.499390
 918.607425, 2441.242886
 919.098691, 2441.980023
 919.596833, 2442.725639
 920.097542, 2443.473227
 920.594195, 2444.212905
 921.092030, 2444.952490
 921.589068, 2445.689038
 922.087607, 2446.425946
 922.588941, 2447.165104
 923.091255, 2447.903810
 923.591785, 2448.638004
 924.095591, 2449.375098
 924.602027, 2450.114108
 925.108429, 2450.851134
 925.618186, 2451.591085
 926.128289, 2452.329570
 926.637736, 2453.065138
 927.146167, 2453.797279
 927.656519, 2454.530213
 928.167871, 2455.262600
 928.682260, 2455.997331
 929.199921, 2456.734702
 929.715983, 2457.467764
 930.232827, 2458.199902
 930.747955, 2458.927581
 931.269264, 2459.661927
 931.786403, 2460.388346
 932.304381, 2461.113892
 932.824874, 2461.840890
 933.346148, 2462.566898
 933.869418, 2463.293588
 934.396912, 2464.024015
 934.922016, 2464.749008
 935.451505, 2465.477905
 935.977075, 2466.199273
 936.508301, 2466.926239
 937.038415, 2467.649513
 937.569553, 2468.372005
 938.101455, 2469.093351
 938.635981, 2469.816051
 939.171542, 2470.537930
 939.705581, 2471.255544
 940.243433, 2471.976044
 940.780725, 2472.693550
 941.321204, 2473.413049
 941.861555, 2474.130105
 942.398962, 2474.840998
 942.938930, 2475.553013
 943.482695, 2476.267735
 944.024452, 2476.977522
 944.568804, 2477.688399
 945.109448, 2478.392139
 945.655396, 2479.100461
 946.207702, 2479.814657
 946.752085, 2480.516264
 947.303504, 2481.224571
 947.853814, 2481.929070
 948.406443, 2482.634142
 948.957511, 2483.334829
 949.507710, 2484.032026
 950.067622, 2484.739081
 950.620515, 2485.434846
 951.177831, 2486.133733
 951.738523, 2486.834378
 952.294960, 2487.527248
 952.858256, 2488.226161
 953.420896, 2488.921753
 953.988314, 2489.620709
 954.549499, 2490.309476
 955.107208, 2490.991497
 955.672143, 2491.679835
 956.239404, 2492.368455
 956.806027, 2493.053742
 957.376220, 2493.740764
 957.943751, 2494.422005
 958.510016, 2495.099166
 959.079740, 2495.777879
 959.645053, 2496.448773
 960.217662, 2497.125720
 960.788426, 2497.797875
 961.363860, 2498.472888
 961.939928, 2499.145985
 962.518813, 2499.819693
 963.095449, 2500.488109
 963.673731, 2501.155749
 964.251857, 2501.820522
 964.832242, 2502.485188
 965.413351, 2503.147965
 965.998551, 2503.812658
 966.581346, 2504.471876
 967.160013, 2505.123712
 967.742532, 2505.777156
 968.325183, 2506.428004
 968.919385, 2507.088929
 969.506696, 2507.739380
 970.095827, 2508.389040
 970.683825, 2509.034646
 971.274294, 2509.680144
 971.862961, 2510.320855
 972.459148, 2510.966882
 973.054917, 2511.609570
 973.648945, 2512.247507
 974.243617, 2512.883259
 974.839555, 2513.517475
 975.433078, 2514.146243
 976.037502, 2514.783608
 976.635230, 2515.410981
 977.237876, 2516.040562
 977.843693, 2516.670464
 978.449177, 2517.297023
 979.053776, 2517.919671
 979.657646, 2518.538582
 980.265704, 2519.158766
 980.872489, 2519.774631
 981.480067, 2520.388274
 982.084509, 2520.995743
 982.691753, 2521.603007
 983.298391, 2522.206639
 983.910616, 2522.812762
 984.517269, 2523.410326
 985.129126, 2524.009946
 985.742549, 2524.608006
 986.352214, 2525.199328
 986.967947, 2525.793424
 987.586045, 2526.386654
 988.199837, 2526.972630
 988.816479, 2527.558191
 989.431212, 2528.138811
 990.053974, 2528.723826
 990.673788, 2529.302885
 991.292843, 2529.878058
 991.922250, 2530.459594
 992.556283, 2531.042084
 993.187270, 2531.618463
 993.807174, 2532.181501
 994.427230, 2532.741483
 995.054226, 2533.304485
 995.672232, 2533.856216
 996.304973, 2534.417810
 996.938131, 2534.976437
 997.562049, 2535.523648
 998.195792, 2536.076154
 998.828979, 2536.624833
 999.461042, 2537.169203
1000.096057, 2537.712757
1000.725104, 2538.247884
1001.360955, 2538.785440
1001.992026, 2539.315614
1002.625426, 2539.844396
1003.264359, 2540.374397
1003.908636, 2540.905372
1004.539179, 2541.421662
1005.176814, 2541.940371
1005.813335, 2542.454776
1006.456145, 2542.970816
1007.093663, 2543.479183
1007.734481, 2543.986744
1008.372238, 2544.488457
1009.009168, 2544.986110
1009.656735, 2545.488578
1010.298583, 2545.983129
1010.942588, 2546.475860
1011.591685, 2546.968955
1012.231776, 2547.451734
1012.876814, 2547.934755
1013.530424, 2548.420618
1014.179036, 2548.899207
1014.828903, 2549.375163
1015.476540, 2549.845942
1016.125429, 2550.314081
1016.777524, 2550.780951
1017.432475, 2551.246251
1018.084788, 2551.706075
1018.739971, 2552.164302
1019.390978, 2552.616012
1020.041907, 2553.064085
1020.697610, 2553.511819
1021.350992, 2553.954347
1022.013032, 2554.399053
1022.669952, 2554.836650
1023.325034, 2555.269380
1023.986168, 2555.702421
1024.647060, 2556.131599
1025.304349, 2556.554762
1025.955273, 2556.970215
1026.618293, 2557.389691
1027.284401, 2557.807362
1027.945930, 2558.218432
1028.603828, 2558.623559
1029.260951, 2559.024536
1029.917916, 2559.421748
1030.583319, 2559.820320
1031.251114, 2560.216539
1031.921228, 2560.610319
1032.585521, 2560.996907
1033.253538, 2561.381874
1033.915962, 2561.759865
1034.249745, 2561.948912
