Time, Horizontal Forces
   0.000000, 15377.592469
   0.000001, 15377.526618
   0.000006, 15377.325180
   0.000051, 15376.811136
   0.000254, 15375.830027
   0.000937, 15374.192569
   0.003594, 15370.922434
   0.008770, 15367.166109
   0.016215, 15363.412239
   0.025986, 15359.639255
   0.038053, 15355.866235
   0.052396, 15352.098331
   0.069115, 15348.312783
   0.088096, 15344.537190
   0.109545, 15340.734049
   0.133445, 15336.913820
   0.159844, 15333.074427
   0.188742, 15329.220762
   0.220179, 15325.351315
   0.254154, 15321.469545
   0.290762, 15317.568385
   0.329834, 15313.667699
   0.371933, 15309.716351
   0.416730, 15305.751057
   0.464133, 15301.781809
   0.514632, 15297.771198
   0.568012, 15293.741193
   0.623767, 15289.730220
   0.683393, 15285.635302
   0.746091, 15281.518741
   0.811495, 15277.405782
   0.879944, 15273.276067
   0.952973, 15269.044446
   1.028661, 15264.827470
   1.108195, 15260.561147
   1.190503, 15256.305221
   1.276329, 15252.022308
   1.366302, 15247.685322
   1.460383, 15243.301427
   1.557910, 15238.904630
   1.658864, 15234.496968
   1.765569, 15229.982719
   1.876077, 15225.450260
   1.991080, 15220.874107
   2.108697, 15216.329731
   2.232114, 15211.696704
   2.358495, 15207.084363
   2.491456, 15202.364599
   2.627207, 15197.675142
   2.766419, 15192.991482
   2.910997, 15188.251555
   3.061458, 15183.443369
   3.214194, 15178.683075
   3.373591, 15173.835529
   3.537116, 15168.981270
   3.707854, 15164.032446
   3.881891, 15159.105259
   4.060893, 15154.152674
   4.246787, 15149.124992
   4.436942, 15144.095996
   4.635771, 15138.952959
   4.839095, 15133.807884
   5.046944, 15128.660291
   5.262260, 15123.439817
   5.479624, 15118.278367
   5.704145, 15113.054825
   5.932675, 15107.844009
   6.172206, 15102.490541
   6.417668, 15097.112776
   6.664659, 15091.805896
   6.919177, 15086.440745
   7.182286, 15080.998855
   7.451337, 15075.537848
   7.728786, 15070.010326
   8.011867, 15064.473633
   8.300203, 15058.935513
   8.595273, 15053.368470
   8.898197, 15047.753517
   9.208447, 15042.102770
   9.524740, 15036.440910
   9.847117, 15030.767855
  10.178260, 15025.038254
  10.517285, 15019.269894
  10.863781, 15013.471601
  11.215388, 15007.683434
  11.577699, 15001.815135
  11.947059, 14995.928413
  12.323083, 14990.030198
  12.706533, 14984.109467
  13.101735, 14978.102064
  13.498441, 14972.164290
  13.905442, 14966.164484
  14.322436, 14960.109844
  14.746977, 14954.037638
  15.179755, 14947.939065
  15.615931, 14941.882106
  16.065427, 14935.730221
  16.521679, 14929.575468
  16.989674, 14923.352236
  17.467086, 14917.093762
  17.948124, 14910.875972
  18.442233, 14904.577686
  18.943653, 14898.274250
  19.455403, 14891.928756
  19.971291, 14885.618264
  20.503197, 14879.199022
  21.039939, 14872.807736
  21.591975, 14866.321319
  22.154661, 14859.797086
  22.722075, 14853.303950
  23.294581, 14846.836740
  23.879363, 14840.314955
  24.470105, 14833.809863
  25.080064, 14827.177683
  25.104614, 14826.912494
  25.110192, 14826.852263
  25.111427, 14826.838926
  25.113175, 14826.820061
  25.113784, 14826.813480
  25.114962, 14826.800760
  25.115436, 14826.795642
  25.115489, 14826.794959
  25.115536, 14826.794294
  25.116007, 14826.787642
  25.120721, 14826.721124
  25.146034, 14826.364027
  25.240975, 14825.026342
  25.544938, 14820.761209
  26.122884, 14812.724211
  26.701027, 14804.777023
  27.285207, 14796.837830
  27.878682, 14788.862939
  28.479559, 14780.878691
  29.087489, 14772.890085
  29.709576, 14764.805569
  30.339197, 14756.713066
  30.977515, 14748.598288
  31.624560, 14740.461686
  32.281037, 14732.295374
  32.946776, 14724.102524
  33.624452, 14715.851701
  34.313136, 14707.556016
  35.009054, 14699.261746
  35.708189, 14691.016134
  36.418015, 14682.731003
  37.136818, 14674.427412
  37.867779, 14666.069874
  38.610465, 14657.665014
  39.366949, 14649.191335
  40.124054, 14640.796401
  40.893463, 14632.350392
  41.674081, 14623.866816
  42.464088, 14615.366384
  43.263317, 14606.851530
  44.070501, 14598.336084
  44.886655, 14589.809665
  45.715278, 14581.236697
  46.555057, 14572.632034
  47.404370, 14564.013121
  48.265463, 14555.358016
  49.125549, 14546.794607
  50.002292, 14538.147042
  50.891462, 14529.458954
  51.789845, 14520.762570
  52.700389, 14512.030113
  53.620266, 14503.289459
  54.548014, 14494.554686
  55.488294, 14485.782485
  56.438610, 14476.996976
  57.408434, 14468.112267
  58.385766, 14459.239627
  59.370371, 14450.380986
  60.365913, 14441.503576
  61.379289, 14432.547365
  62.389213, 14423.700208
  63.423505, 14414.718871
  64.463035, 14405.770961
  65.513995, 14396.803134
  66.577116, 14387.809884
  67.651149, 14378.802454
  68.734516, 14369.794405
  69.826554, 14360.791337
  70.926902, 14351.796215
  72.041160, 14342.763782
  73.167900, 14333.706525
  74.306773, 14324.627997
  75.467376, 14315.453296
  76.633843, 14306.308833
  77.809141, 14297.171033
  78.997253, 14288.009303
  80.197519, 14278.829379
  81.410899, 14269.624607
  82.633034, 14260.428407
  83.870672, 14251.190549
  85.116192, 14241.968383
  86.373469, 14232.733331
  87.642578, 14223.485301
  88.921294, 14214.240768
  90.211860, 14204.983781
  91.522913, 14195.653545
  92.844013, 14186.325345
  94.177813, 14176.980769
  95.524629, 14167.618161
  96.890774, 14158.194703
  98.258511, 14148.832897
  99.637602, 14139.465424
 101.033815, 14130.053829
 102.439374, 14120.651077
 103.861289, 14111.210767
 104.147219, 14109.321034
 104.341094, 14108.041319
 104.495880, 14107.020560
 104.518932, 14106.868613
 104.524426, 14106.832397
 104.526123, 14106.821214
 104.526910, 14106.816028
 104.527083, 14106.814842
 104.527264, 14106.813303
 104.529071, 14106.797917
 104.545335, 14106.659422
 104.639691, 14105.856164
 104.976903, 14102.988824
 106.129664, 14093.226018
 107.448863, 14082.127090
 108.782020, 14070.988971
 110.126774, 14059.832175
 111.485587, 14048.637048
 112.857579, 14037.411763
 114.232498, 14026.240125
 115.627087, 14014.986588
 117.025299, 14003.781165
 118.429538, 13992.604005
 119.849673, 13981.376957
 121.280854, 13970.139161
 122.724636, 13958.878944
 124.175236, 13947.641583
 125.645137, 13936.331074
 127.123819, 13925.029210
 128.606536, 13913.771917
 130.101253, 13902.498622
 131.612673, 13891.174708
 133.134895, 13879.845131
 134.662743, 13868.548346
 136.203744, 13857.228776
 137.761978, 13845.857383
 139.327242, 13834.509082
 140.902608, 13823.161577
 142.494729, 13811.767567
 144.099947, 13800.354064
 145.710691, 13788.974958
 147.333012, 13777.587422
 148.962100, 13766.225260
 150.611414, 13754.795200
 152.268878, 13743.381603
 153.933457, 13731.991409
 155.615091, 13720.556998
 157.310570, 13709.100996
 159.024199, 13697.595202
 160.742691, 13686.129105
 162.471318, 13674.667307
 164.211370, 13663.201450
 165.965139, 13651.716831
 167.730713, 13640.226397
 169.504136, 13628.755948
 171.289475, 13617.279255
 173.092475, 13605.760020
 174.905755, 13594.245932
 176.736613, 13582.691181
 178.577433, 13571.144326
 180.426186, 13559.618023
 182.292552, 13548.052284
 184.168049, 13536.500110
 186.052534, 13524.962320
 187.953189, 13513.395265
 189.864605, 13501.832289
 191.788346, 13490.264134
 193.723244, 13478.698049
 195.670670, 13467.126065
 197.631588, 13455.542795
 199.600492, 13443.980881
 201.578585, 13432.433126
 203.575679, 13420.842700
 205.591905, 13409.209791
 207.624545, 13397.550877
 209.671944, 13385.876021
 211.722398, 13374.251858
 213.780715, 13362.650676
 215.852799, 13351.039287
 217.930789, 13339.461729
 220.026908, 13327.850110
 222.141208, 13316.204910
 224.269987, 13304.547111
 226.407867, 13292.906337
 228.556658, 13281.272714
 230.718107, 13269.636936
 232.896905, 13257.974193
 235.094814, 13246.275798
 237.303170, 13234.588259
 239.512888, 13222.959278
 241.745851, 13211.273868
 243.989033, 13199.600769
 246.242947, 13187.937323
 246.696259, 13185.599395
 248.417686, 13176.744986
 248.435820, 13176.651912
 248.441007, 13176.625286
 248.449399, 13176.582216
 248.452117, 13176.568268
 248.457552, 13176.540372
 248.458257, 13176.536756
 248.458628, 13176.534850
 248.458984, 13176.532505
 248.459308, 13176.530310
 248.462550, 13176.508361
 248.494704, 13176.290670
 248.719489, 13174.769295
 249.725066, 13167.974272
 251.719700, 13154.547952
 253.779585, 13140.754363
 255.845816, 13126.990826
 257.926492, 13113.203589
 260.018203, 13099.415671
 262.117889, 13085.647343
 264.225392, 13071.899572
 266.347479, 13058.128469
 268.479330, 13044.365672
 270.619404, 13030.621166
 272.778841, 13016.823914
 274.941400, 13003.077934
 277.112158, 12989.350656
 279.296599, 12975.607623
 281.490633, 12961.874848
 283.701626, 12948.106652
 285.922600, 12934.346952
 288.150724, 12920.613252
 290.393710, 12906.858223
 292.643781, 12893.129766
 294.906961, 12879.391237
 297.183446, 12865.641850
 299.465437, 12851.928757
 301.764926, 12838.180130
 304.067928, 12824.479729
 306.389604, 12810.737566
 308.720301, 12797.011203
 311.065369, 12783.269379
 313.420332, 12769.538595
 315.784519, 12755.822813
 318.159011, 12742.115829
 320.545962, 12728.405408
 322.943466, 12714.702710
 325.352425, 12701.002744
 327.766033, 12687.344127
 330.197939, 12673.649829
 332.633831, 12660.000603
 335.088965, 12646.311176
 337.555321, 12632.626771
 340.031860, 12618.953270
 342.519440, 12605.286063
 345.023622, 12591.594963
 347.538764, 12577.911180
 350.058976, 12564.266667
 352.593858, 12550.609496
 355.142610, 12536.944375
 357.699338, 12523.303024
 360.270044, 12509.653555
 362.850448, 12496.018886
 365.446561, 12482.367518
 368.049100, 12468.748388
 370.663009, 12455.135597
 373.293354, 12441.503096
 375.929053, 12427.908438
 378.574729, 12414.327642
 381.235283, 12400.735785
 383.903976, 12387.167439
 386.590827, 12373.571935
 389.287783, 12359.990362
 391.994667, 12346.423649
 394.706064, 12332.898772
 397.440764, 12319.322323
 400.181286, 12305.781436
 402.936323, 12292.233205
 405.704811, 12278.683176
 408.488933, 12265.121005
 411.284026, 12251.569660
 414.084220, 12238.057494
 416.889096, 12224.586205
 419.708533, 12211.108349
 422.545376, 12197.610755
 425.398278, 12184.100301
 428.257758, 12170.621998
 431.132352, 12157.135684
 434.019837, 12143.652079
 436.919663, 12130.173929
 439.821595, 12116.748647
 442.743417, 12103.294034
 445.676320, 12089.851029
 448.620964, 12076.416705
 451.574264, 12063.005165
 454.535505, 12049.619561
 457.511524, 12036.229087
 460.507034, 12022.812989
 463.511220, 12009.419968
 466.526193, 11996.040603
 469.548137, 11982.691772
 472.589684, 11969.317879
 475.638948, 11955.971412
 476.251346, 11953.298333
 476.720335, 11951.252884
 477.065547, 11949.748192
 477.120290, 11949.509652
 477.136970, 11949.436973
 477.165558, 11949.312416
 477.175153, 11949.270608
 477.176811, 11949.263368
 477.178528, 11949.255801
 477.195695, 11949.180129
 477.346967, 11948.513414
 478.209917, 11944.712946
 480.851419, 11933.110111
 483.929371, 11919.647654
 487.011271, 11906.229362
 490.096576, 11892.857230
 493.199907, 11879.467930
 496.318901, 11866.072068
 499.445243, 11852.705448
 502.589472, 11839.323172
 505.741627, 11825.967795
 508.909317, 11812.607182
 512.088997, 11799.256507
 515.278295, 11785.925763
 518.478661, 11772.608914
 521.689262, 11759.309460
 524.917627, 11745.996433
 528.156191, 11732.701251
 531.404500, 11719.425765
 534.665889, 11706.156426
 537.942055, 11692.886532
 541.228510, 11679.634392
 544.523422, 11666.407360
 547.837509, 11653.162601
 551.167379, 11639.914063
 554.502284, 11626.704522
 557.850130, 11613.502598
 561.210674, 11600.309387
 564.587181, 11587.112287
 567.973018, 11573.937344
 571.371712, 11560.770883
 574.776435, 11547.639308
 578.195979, 11534.508723
 581.627918, 11521.388611
 585.077831, 11508.257889
 588.539660, 11495.139854
 592.010643, 11482.044980
 595.491964, 11468.968767
 598.985547, 11455.904035
 602.491253, 11442.851405
 606.006502, 11429.820494
 609.534511, 11416.799419
 613.078588, 11403.776169
 616.637030, 11390.757235
 620.210215, 11377.741427
 623.792146, 11364.750657
 627.388022, 11351.766108
 630.987118, 11338.826421
 634.607694, 11325.866033
 638.239199, 11312.922982
 641.885623, 11299.983160
 645.541759, 11287.065129
 649.206249, 11274.173615
 652.891571, 11261.264909
 656.587050, 11248.376627
 660.292644, 11235.508898
 664.016097, 11222.634982
 667.742726, 11209.805644
 671.481226, 11196.990812
 675.242879, 11184.152118
 679.003419, 11171.372405
 682.786868, 11158.570047
 686.585612, 11145.771179
 690.392208, 11133.000916
 694.213453, 11120.236481
 698.039404, 11107.511041
 701.880478, 11094.789919
 705.740575, 11082.060465
 709.601892, 11069.381368
 713.488985, 11056.672110
 717.379775, 11044.005050
 721.284794, 11031.345817
 723.174928, 11025.237766
 725.212289, 11018.668002
 729.149558, 11005.991820
 733.087521, 10993.234918
 737.042221, 10980.333231
 741.008085, 10967.308068
 744.992700, 10954.140189
 748.983789, 10940.870730
 752.991009, 10927.476063
 757.010780, 10913.969113
 761.042227, 10900.357270
 765.083601, 10886.650117
 769.142019, 10872.829754
 773.212553, 10858.913209
 777.292638, 10844.913199
 781.381331, 10830.837078
 785.482819, 10816.676512
 789.591904, 10802.448489
 793.707916, 10788.160964
 797.843449, 10773.780264
 801.990962, 10759.325463
 806.141231, 10744.831132
 810.303845, 10730.277002
 814.479445, 10715.658877
 818.666912, 10700.983132
 822.865317, 10686.255707
 827.070061, 10671.493157
 827.238674, 10668.265970
 827.246700, 10668.131957
 827.252017, 10668.111434
 827.255947, 10668.096667
 827.258260, 10668.087448
 827.259242, 10668.083168
 827.260216, 10668.079947
 827.269963, 10668.053565
 827.367426, 10667.789747
 827.956406, 10666.170600
 830.575043, 10658.879828
 834.897452, 10645.783884
 839.275145, 10631.406492
 843.659444, 10616.968606
 848.060213, 10602.480229
 852.472241, 10587.950615
 856.888696, 10573.403948
 861.321198, 10558.817983
 865.757644, 10544.217341
 870.199087, 10529.611231
 874.655158, 10514.976920
 879.114212, 10500.338300
 883.589951, 10485.673231
 888.073867, 10470.993867
 888.427707, 10466.461410
 888.782141, 10465.316802
 889.136923, 10464.171541
 889.491206, 10463.027871
 889.846349, 10461.883232
 890.201897, 10460.737607
 890.554873, 10459.598507
 890.910129, 10458.456772
 891.265611, 10457.313327
 891.619823, 10456.173441
 891.977112, 10455.027989
 892.329444, 10453.892535
 892.686839, 10452.749862
 893.044582, 10451.602915
 893.403094, 10450.454611
 893.761724, 10449.306155
 894.117184, 10448.165879
 894.473824, 10447.026212
 894.833578, 10445.878982
 895.192512, 10444.731888
 895.552234, 10443.584416
 895.912595, 10442.435591
 896.272848, 10441.287302
 896.634052, 10440.137688
 896.993903, 10438.991284
 897.356115, 10437.841313
 897.717019, 10436.693273
 898.078435, 10435.545979
 898.438850, 10434.401447
 898.802166, 10433.251849
 899.164024, 10432.104085
 899.526519, 10430.956941
 899.891576, 10429.804198
 900.255267, 10428.653370
 900.618874, 10427.504787
 900.982924, 10426.356157
 901.347740, 10425.206303
 901.713311, 10424.054984
 902.077837, 10422.906370
 902.444214, 10421.755316
 902.811420, 10420.601750
 903.174576, 10419.457738
 903.543911, 10418.303950
 903.913543, 10417.145243
 904.282970, 10415.987749
 904.653344, 10414.829273
 905.024120, 10413.670091
 905.394524, 10412.512435
 905.765262, 10411.355362
 906.135364, 10410.200482
 906.506769, 10409.044227
 906.879481, 10407.884958
 907.251440, 10406.727340
 907.625111, 10405.567570
 907.996907, 10404.411639
 908.371556, 10403.251973
 908.746634, 10402.090008
 909.121642, 10400.928940
 909.497222, 10399.767765
 909.871806, 10398.609446
 910.246643, 10397.452539
 910.624630, 10396.289534
 910.999272, 10395.132418
 911.377305, 10393.971786
 911.756325, 10392.807225
 912.136224, 10391.641056
 912.516362, 10390.474794
 912.893904, 10389.315250
 913.275030, 10388.151238
 913.654205, 10386.989648
 914.033172, 10385.831405
 914.416222, 10384.665618
 914.798573, 10383.499088
 915.184103, 10382.327477
 915.567938, 10381.158093
 915.953538, 10379.987606
 916.336457, 10378.822706
 916.723902, 10377.651593
 917.110359, 10376.480022
 917.494901, 10375.314755
 917.881533, 10374.147953
 918.270998, 10372.974584
 918.659624, 10371.801923
 919.051314, 10370.624784
 919.440364, 10369.452024
 919.833531, 10368.274144
 920.225975, 10367.095642
 920.618335, 10365.919363
 921.012752, 10364.740210
 921.406136, 10363.562898
 921.800399, 10362.386067
 922.193525, 10361.212326
 922.588037, 10360.038107
 922.982420, 10358.864418
 923.381475, 10358.026302
 923.778656, 10357.193489
 924.177406, 10356.358764
 924.575422, 10355.526952
 924.975795, 10354.691602
 925.374602, 10353.860905
 925.774533, 10353.029254
 926.176363, 10352.195055
 926.579144, 10351.360294
 926.983324, 10350.524052
 927.386454, 10349.691402
 927.788583, 10348.862231
 928.191887, 10348.032054
 928.595450, 10347.202767
 928.999001, 10346.374924
 929.406835, 10345.539743
 929.815136, 10344.705062
 930.223612, 10343.871482
 930.632141, 10343.039256
 931.040670, 10342.208491
 931.450245, 10341.377066
 931.860590, 10340.545556
 932.271483, 10339.714414
 932.684773, 10338.879917
 933.097207, 10338.048647
 933.512041, 10337.214045
 933.924664, 10336.385393
 934.338568, 10335.555675
 934.753310, 10334.725789
 935.169618, 10333.894291
 935.583686, 10333.068782
 935.999377, 10332.241560
 936.416144, 10331.413725
 936.834283, 10330.584705
 937.251356, 10329.759337
 937.671294, 10328.929854
 938.091619, 10328.101164
 938.510792, 10327.276305
 938.932361, 10326.448296
 939.355886, 10325.618032
 939.777131, 10324.793812
 940.198938, 10323.970069
 940.626280, 10323.137125
 941.053290, 10322.306447
 941.482681, 10321.472767
 941.911990, 10320.640884
 942.342080, 10319.809132
 942.772317, 10318.978738
 943.200525, 10318.153897
 943.633433, 10317.321659
 944.067084, 10316.489668
 944.500022, 10315.660712
 944.935950, 10314.827722
 945.372737, 10313.994789
 945.806127, 10313.170017
 946.242078, 10312.342062
 946.680209, 10311.511675
 947.116636, 10310.686224
 947.554883, 10309.859044
 947.993907, 10309.032120
 948.435051, 10308.202938
 948.876543, 10307.374846
 949.317345, 10306.549790
 949.761195, 10305.720790
 950.202277, 10304.898707
 950.646102, 10304.073273
 951.090247, 10303.249014
 951.535089, 10302.425236
 951.983135, 10301.597322
 952.432596, 10300.768605
 952.881094, 10299.943473
 953.329621, 10299.120098
 953.686757, 10298.465786
 953.779441, 10298.296166
 954.229069, 10297.474408
 954.681064, 10296.650157
 955.134190, 10295.825692
 955.586263, 10295.004986
 956.040319, 10294.182537
 956.496407, 10293.358279
 956.954028, 10292.533139
 957.411783, 10291.709648
 957.868624, 10290.889688
 958.327298, 10290.068338
 958.789548, 10289.242507
 959.249478, 10288.422742
 959.713375, 10287.597843
 960.178795, 10286.772194
 960.641116, 10285.953986
 961.106951, 10285.131519
 961.573676, 10284.309452
 962.043175, 10283.484494
 962.511843, 10282.662990
 962.983070, 10281.839011
 963.455779, 10281.014467
 963.931294, 10280.187076
 964.406131, 10279.362916
 964.879252, 10278.543775
 965.356106, 10277.720229
 965.832316, 10276.899862
 966.308348, 10276.081865
 966.786619, 10275.262099
 967.267595, 10274.439800
 967.745946, 10273.624080
 968.232605, 10272.796333
 968.713563, 10271.980405
 969.198879, 10271.159225
 969.684018, 10270.340494
 970.172349, 10269.518548
 970.658142, 10268.703036
 971.146022, 10267.886190
 971.634951, 10267.069774
 972.123064, 10266.256901
 972.612477, 10265.444053
 973.103168, 10264.631283
 973.595715, 10263.817658
 974.087584, 10263.007371
 974.582448, 10262.194388
 975.077029, 10261.384115
 975.574655, 10260.571116
 976.070816, 10259.762774
 976.567788, 10258.955377
 977.066151, 10258.147997
 977.570050, 10257.333970
 978.071462, 10256.526276
 978.576321, 10255.715366
 979.083620, 10254.902896
 979.590440, 10254.093559
 980.097302, 10253.286521
 980.607767, 10252.476136
 981.116621, 10251.670697
 981.626624, 10250.865834
 982.138630, 10250.060222
 982.652928, 10249.253436
 983.165971, 10248.451049
 983.684627, 10247.642355
 984.199899, 10246.841395
 984.719470, 10246.036235
 985.237264, 10245.236309
 985.757568, 10244.435001
 986.276946, 10243.637616
 986.800995, 10242.835586
 987.322940, 10242.039302
 987.844736, 10241.245765
 988.371539, 10240.447171
 988.894049, 10239.657621
 989.422079, 10238.862301
 989.949881, 10238.069904
 990.477291, 10237.280675
 991.004000, 10236.495070
 991.533703, 10235.707592
 992.062016, 10234.924775
 992.597359, 10234.134184
 993.128712, 10233.352114
 993.661560, 10232.570479
 994.195679, 10231.789623
 994.733163, 10231.006526
 995.273775, 10230.221578
 995.812252, 10229.442433
 996.350989, 10228.665610
 996.888147, 10227.893750
 997.433025, 10227.113541
 997.975057, 10226.340150
 998.517238, 10225.569283
 999.068037, 10224.788965
 999.612490, 10224.020416
1000.157834, 10223.253378
1000.709086, 10222.480848
1001.259750, 10221.711971
1001.814690, 10220.939984
1002.367454, 10220.173881
1002.918572, 10219.412898
1003.472512, 10218.650874
1004.022085, 10217.897689
1004.577029, 10217.140006
1005.135866, 10216.379915
1005.701325, 10215.613787
1006.262943, 10214.855821
1006.827892, 10214.096335
1007.390590, 10213.342842
1007.953454, 10212.592091
1008.519992, 10211.839431
1009.084614, 10211.092305
1009.654522, 10210.341212
1010.216249, 10209.603875
1010.782052, 10208.864177
1011.346028, 10208.129852
1011.921168, 10207.384059
1012.495500, 10206.642407
1013.068191, 10205.905954
1013.640371, 10205.173229
1014.216679, 10204.438322
1014.796198, 10203.702461
1015.375700, 10202.969774
1015.954813, 10202.240726
1016.533807, 10201.514975
1017.115540, 10200.788962
1017.703092, 10200.058910
1018.284496, 10199.339691
1018.870064, 10198.618531
1019.448627, 10197.909162
1020.042827, 10197.183895
1020.626428, 10196.474797
1021.215407, 10195.762410
1021.808628, 10195.048191
1022.394072, 10194.346580
1022.984017, 10193.642836
1023.578012, 10192.937571
1024.171170, 10192.236613
1024.768105, 10191.534535
1025.357569, 10190.844536
1025.951888, 10190.152167
1026.545096, 10189.464408
1027.137802, 10188.780543
1027.737886, 10188.091538
1028.339196, 10187.404528
1028.944378, 10186.716535
1029.548808, 10186.032842
1030.152550, 10185.353368
1030.759652, 10184.673576
1031.356428, 10184.008735
1031.968159, 10183.330720
1032.574940, 10182.661679
1033.186602, 10181.990772
1033.794188, 10181.327831
1034.403532, 10180.666472
1035.013464, 10180.007984
1035.623649, 10179.352736
1036.236332, 10178.698344
1036.858720, 10178.037216
1037.467878, 10177.393683
1038.075324, 10176.755449
1038.695264, 10176.107683
1039.314400, 10175.464379
1039.936889, 10174.821245
1040.558548, 10174.182622
1041.176493, 10173.551434
1041.799582, 10172.918648
1042.419872, 10172.292348
1043.043677, 10171.666168
1043.668437, 10171.042719
1044.291108, 10170.425026
1044.917826, 10169.807021
1045.545708, 10169.191593
1046.168044, 10168.585283
1046.799341, 10167.973984
1047.421559, 10167.375167
1048.058075, 10166.766379
1048.695292, 10166.160762
1049.326978, 10165.564194
1049.960683, 10164.969514
1050.588742, 10164.383882
1051.220444, 10163.798620
1051.853545, 10163.215852
1052.489190, 10162.634559
1053.118265, 10162.063041
1053.756590, 10161.486949
1054.393106, 10160.916331
1055.024297, 10160.354276
1055.663995, 10159.788495
1056.305204, 10159.225266
1056.948529, 10158.664092
1057.583438, 10158.114102
1058.225878, 10157.561475
1058.866560, 10157.014253
1059.505036, 10156.472784
1060.149941, 10155.929783
1060.792393, 10155.392765
1061.429143, 10154.864370
1062.074903, 10154.332422
1062.718199, 10153.806432
1063.370348, 10153.277205
1064.022579, 10152.751941
1064.673238, 10152.231959
1065.324947, 10151.715160
1065.969021, 10151.208368
1066.621680, 10150.698830
1067.274960, 10150.192850
1067.922012, 10149.695679
1068.572086, 10149.200181
1069.220679, 10148.709802
1069.877350, 10148.217376
1070.536469, 10147.727223
1071.190971, 10147.244576
1071.841950, 10146.768552
1072.503817, 10146.288684
1073.160848, 10145.816427
1073.825014, 10145.343198
1074.487188, 10144.875549
1075.146213, 10144.414247
1075.802621, 10143.958868
1076.467050, 10143.502080
1077.130879, 10143.049881
1077.791858, 10142.603772
1078.449150, 10142.164253
1079.117181, 10141.721747
1079.777576, 10141.288454
1080.442601, 10140.856296
1081.105233, 10140.429859
1081.771444, 10140.005311
1082.438004, 10139.584746
1083.102915, 10139.169413
1083.764911, 10138.760059
1084.427113, 10138.354728
1085.090907, 10137.952590
1085.758559, 10137.552321
1086.423760, 10137.157718
1087.092926, 10136.764989
1087.763038, 10136.375950
1088.434593, 10135.990338
1089.105311, 10135.609465
1089.775995, 10135.232868
1090.453977, 10134.856498
1091.129901, 10134.485599
1091.801855, 10134.121162
1092.471112, 10133.762432
1093.143017, 10133.406545
1093.823253, 10133.050593
1094.498574, 10132.701541
1095.180531, 10132.353434
1095.858806, 10132.011567
1096.536888, 10131.674145
1097.214745, 10131.341177
1097.887957, 10131.014789
1098.563990, 10130.691342
1099.242797, 10130.370912
1099.918982, 10130.056048
1100.597884, 10129.744262
1101.279158, 10129.435763
1101.957527, 10129.132934
1102.638912, 10128.833131
1103.317180, 10128.539054
1103.999411, 10128.247638
1104.680024, 10127.961290
1105.360650, 10127.679308
1106.044991, 10127.400192
1106.625829, 10127.166757
