Time, Horizontal Forces
   0.000000, 15377.592469
   0.000001, 15377.522032
   0.000010, 15377.253763
   0.000165, 15376.173706
   0.000906, 15374.250562
   0.003878, 15370.662867
   0.009197, 15366.914945
   0.016801, 15363.157877
   0.026649, 15359.411253
   0.038817, 15355.648962
   0.053367, 15351.862974
   0.070270, 15348.068785
   0.089427, 15344.287991
   0.111137, 15340.466756
   0.135183, 15336.649408
   0.161653, 15332.822830
   0.190899, 15328.944776
   0.222436, 15325.083827
   0.256730, 15321.185427
   0.293710, 15317.264437
   0.332874, 15313.373348
   0.374826, 15309.452376
   0.420181, 15305.453788
   0.468295, 15301.442227
   0.519009, 15297.432087
   0.573030, 15293.371306
   0.629770, 15289.308187
   0.689907, 15285.197874
   0.752710, 15281.093285
   0.819295, 15276.925344
   0.888689, 15272.758975
   0.961195, 15268.577054
   1.037710, 15264.332487
   1.117281, 15260.082207
   1.200804, 15255.781672
   1.288183, 15251.440713
   1.379665, 15247.051932
   1.473406, 15242.704281
   1.570169, 15238.360131
   1.671274, 15233.962776
   1.776728, 15229.516832
   1.887692, 15224.979881
   2.002431, 15220.427780
   2.121006, 15215.859627
   2.244075, 15211.252545
   2.371810, 15206.603656
   2.504607, 15201.902560
   2.640912, 15197.206337
   2.782805, 15192.445783
   2.928371, 15187.687681
   3.078173, 15182.914240
   3.235231, 15178.033985
   3.397406, 15173.118750
   3.562111, 15168.246757
   3.732541, 15163.323869
   3.907539, 15158.385915
   4.091574, 15153.312181
   4.278486, 15148.275996
   4.470909, 15143.206315
   4.667243, 15138.146200
   4.870426, 15133.021843
   5.079616, 15127.857870
   5.294193, 15122.671693
   5.514990, 15117.445222
   5.740566, 15112.214084
   5.971629, 15106.962663
   6.208607, 15101.682839
   6.456622, 15096.265490
   6.706495, 15090.913379
   6.963874, 15085.505327
   7.226829, 15080.083972
   7.496465, 15074.627975
   7.774878, 15069.098040
   8.059158, 15063.554540
   8.349294, 15057.998448
   8.649138, 15052.358712
   8.952195, 15046.758788
   9.261746, 15041.137645
   9.582220, 15035.418060
   9.907815, 15029.706042
  10.239774, 15023.980050
  10.583311, 15018.153126
  10.928569, 15012.393420
  11.281768, 15006.596520
  11.642269, 15000.774532
  12.010671, 14994.919268
  12.389360, 14988.995352
  12.771389, 14983.112223
  13.161104, 14977.202700
  13.567929, 14971.128408
  13.977958, 14965.099850
  14.393994, 14959.074762
  14.821963, 14952.969189
  15.256141, 14946.866619
  15.698965, 14940.733497
  16.150205, 14934.574380
  16.612735, 14928.352064
  17.082660, 14922.120619
  17.557448, 14915.913400
  18.043880, 14909.642709
  18.534084, 14903.410619
  19.035959, 14897.117289
  19.545728, 14890.811696
  20.066775, 14884.453403
  20.593832, 14878.107610
  21.131081, 14871.724576
  21.681736, 14865.268399
  22.244016, 14858.762515
  22.811716, 14852.279343
  23.386520, 14845.799268
  23.973538, 14839.265753
  24.577856, 14832.625379
  24.698939, 14831.305072
  24.798636, 14830.220459
  25.103839, 14826.914069
  25.108509, 14826.863635
  25.112574, 14826.819744
  25.113470, 14826.810071
  25.113910, 14826.805321
  25.114706, 14826.796721
  25.114810, 14826.795605
  25.114870, 14826.794797
  25.114926, 14826.794016
  25.115479, 14826.786208
  25.120447, 14826.716097
  25.152281, 14826.267023
  25.279337, 14824.477651
  25.673277, 14818.959372
  26.264771, 14810.756281
  26.844688, 14802.807078
  27.429127, 14794.886330
  28.028125, 14786.859459
  28.629911, 14778.885241
  29.245352, 14770.820451
  29.870629, 14762.717401
  30.503840, 14754.601735
  31.146934, 14746.449428
  31.800066, 14738.259860
  32.458399, 14730.094020
  33.123687, 14721.929906
  33.801557, 14713.699626
  34.488694, 14705.444993
  35.186614, 14697.148996
  35.893623, 14688.832886
  36.614023, 14680.447578
  37.335990, 14672.130877
  38.071039, 14663.750181
  38.814894, 14655.355601
  39.565626, 14646.969129
  40.327566, 14638.542988
  41.102904, 14630.054645
  41.887439, 14621.551405
  42.675608, 14613.093242
  43.478260, 14604.564258
  44.292672, 14595.995167
  45.113610, 14587.441538
  45.941456, 14578.899150
  46.785475, 14570.273581
  47.638233, 14561.642236
  48.501588, 14552.986869
  49.372286, 14544.340467
  50.254449, 14535.662557
  51.142663, 14527.006675
  52.046696, 14518.278481
  52.962047, 14509.522950
  53.880411, 14500.819341
  54.809296, 14492.096174
  55.751913, 14483.324391
  56.705841, 14474.527656
  57.671234, 14465.705380
  58.650170, 14456.839654
  59.633674, 14448.011967
  60.632449, 14439.126673
  61.644203, 14430.205544
  62.669200, 14421.247382
  63.702929, 14412.292182
  64.749582, 14403.304198
  65.804696, 14394.322239
  66.866533, 14385.360902
  67.944999, 14376.337265
  69.025887, 14367.370429
  70.124255, 14358.335754
  71.232793, 14349.294472
  72.352021, 14340.242689
  73.487722, 14331.134645
  74.634906, 14322.011393
  75.790774, 14312.895443
  76.959483, 14303.754390
  78.144415, 14294.562863
  79.341050, 14285.356882
  80.543252, 14276.183581
  81.756680, 14266.999643
  82.983465, 14257.789556
  84.219771, 14248.582542
  85.468472, 14239.357520
  86.731270, 14230.102643
  88.011320, 14220.795930
  89.305378, 14211.462045
  90.606500, 14202.151292
  91.914189, 14192.866788
  93.232949, 14183.576464
  94.573382, 14174.206776
  95.917871, 14164.881435
  97.278426, 14155.517224
  98.652852, 14146.130121
 100.033656, 14136.771385
 101.432892, 14127.359750
 102.847364, 14117.917825
 104.274395, 14108.464101
 104.331804, 14108.085278
 104.380892, 14107.761448
 104.428592, 14107.446856
 104.486914, 14107.062316
 104.499953, 14106.976367
 104.515657, 14106.872851
 104.518984, 14106.850920
 104.520606, 14106.840227
 104.523851, 14106.818842
 104.524217, 14106.816429
 104.524429, 14106.815032
 104.526549, 14106.796974
 104.529199, 14106.774409
 104.555698, 14106.548757
 104.704837, 14105.279384
 105.233085, 14100.791490
 106.462419, 14090.396482
 107.789108, 14079.254318
 109.127921, 14068.088907
 110.475074, 14056.932152
 111.833982, 14045.756075
 113.196882, 14034.624450
 114.578508, 14023.417430
 115.970095, 14012.207114
 117.373348, 14000.980168
 118.784784, 13989.764692
 120.209030, 13978.524248
 121.639144, 13967.313753
 123.084385, 13956.060951
 124.538332, 13944.816360
 126.008637, 13933.521421
 127.486492, 13922.244312
 128.971896, 13910.984862
 130.473043, 13899.681423
 131.982619, 13888.389570
 133.501065, 13877.106004
 135.035527, 13865.778164
 136.577192, 13854.471518
 138.130599, 13843.152879
 139.702251, 13831.775751
 141.282079, 13820.413629
 142.877756, 13809.011757
 144.477184, 13797.656714
 146.086367, 13786.305563
 147.715595, 13774.886530
 149.357840, 13763.449885
 151.004513, 13752.055397
 152.673304, 13740.581211
 154.347321, 13729.144069
 156.035869, 13717.680489
 157.733772, 13706.225964
 159.438942, 13694.794477
 161.152497, 13683.378355
 162.887646, 13671.890320
 164.631627, 13660.415611
 166.389627, 13648.920353
 168.158128, 13637.427914
 169.936827, 13625.940371
 171.736138, 13614.391200
 173.543857, 13602.859330
 175.364172, 13591.318172
 177.188453, 13579.822292
 179.026379, 13568.310635
 180.883758, 13556.747615
 182.752174, 13545.186284
 184.631112, 13533.629958
 186.523413, 13522.061421
 188.423758, 13510.513312
 190.341490, 13498.929187
 192.268390, 13487.359095
 194.209932, 13475.770393
 196.159725, 13464.201423
 198.119644, 13452.640988
 200.095890, 13441.052889
 202.085889, 13429.452762
 204.089450, 13417.842107
 206.106731, 13406.220407
 208.129991, 13394.632249
 210.162001, 13383.061514
 212.219772, 13371.412069
 214.282762, 13359.800751
 216.360272, 13348.175200
 218.450477, 13336.545988
 220.557152, 13324.892538
 222.678209, 13313.226922
 224.805358, 13301.594744
 226.940994, 13289.982643
 229.097799, 13278.322106
 231.264882, 13266.672526
 233.449089, 13254.997432
 235.642525, 13243.339288
 237.845081, 13231.698577
 240.064474, 13220.034770
 242.293771, 13208.384569
 244.541948, 13196.701435
 246.797286, 13185.046501
 247.252305, 13182.702954
 247.562373, 13181.107477
 247.808821, 13179.840221
 247.981100, 13178.954813
 248.110404, 13178.290510
 248.241242, 13177.618540
 248.351365, 13177.053130
 248.383122, 13176.890107
 248.430524, 13176.646794
 248.440558, 13176.595292
 248.444489, 13176.575118
 248.452350, 13176.534771
 248.452899, 13176.531097
 248.453403, 13176.527686
 248.458440, 13176.493575
 248.500332, 13176.209949
 248.758821, 13174.460552
 250.153645, 13165.040868
 252.204596, 13151.251551
 254.270186, 13137.436865
 256.341197, 13123.658605
 258.419400, 13109.904753
 260.509832, 13096.142102
 262.613448, 13082.364777
 264.723772, 13068.615334
 266.851357, 13054.825352
 268.987117, 13041.054145
 271.126858, 13027.328483
 273.278840, 13013.595338
 275.443959, 12999.849378
 277.624700, 12986.075391
 279.809237, 12972.348166
 282.010702, 12958.585339
 284.224647, 12944.815291
 286.448340, 12931.055233
 288.676772, 12917.336008
 290.923271, 12903.575814
 293.173828, 12889.860665
 295.438680, 12876.128199
 297.712689, 12862.409849
 299.999486, 12848.683891
 302.292198, 12834.991627
 304.606753, 12821.238382
 306.923663, 12807.540236
 309.255724, 12793.821523
 311.602002, 12780.088243
 313.952601, 12766.398344
 316.316523, 12752.699383
 318.696169, 12738.977921
 321.083803, 12725.278820
 323.482354, 12711.585295
 325.888734, 12697.915011
 328.309719, 12684.229650
 330.744686, 12670.533179
 333.189919, 12656.846748
 335.645561, 12643.169648
 338.111985, 12629.499931
 340.591004, 12615.827749
 343.077154, 12602.183297
 345.570726, 12588.564828
 348.092666, 12574.858633
 350.620576, 12561.187082
 353.147025, 12547.589805
 355.694196, 12533.947446
 358.251667, 12520.316312
 360.822329, 12506.681180
 363.398601, 12493.082276
 365.995311, 12479.441610
 368.597746, 12465.836763
 371.208284, 12452.255108
 373.833227, 12438.664006
 376.480886, 12425.021116
 379.135406, 12411.408525
 381.799935, 12397.810027
 384.471215, 12384.242163
 387.154927, 12370.676092
 389.853790, 12357.098378
 392.562241, 12343.537226
 395.285251, 12329.967922
 398.019833, 12316.405610
 400.770798, 12302.826738
 403.520237, 12289.319558
 406.280813, 12275.821531
 409.065213, 12262.271168
 411.863278, 12248.718548
 414.668473, 12235.195369
 417.473846, 12221.734740
 420.303825, 12208.219638
 423.148627, 12194.697470
 426.000860, 12181.203455
 428.861878, 12167.731090
 431.733089, 12154.273732
 434.622482, 12140.794228
 437.516588, 12127.355526
 440.428837, 12113.895378
 443.347736, 12100.467066
 446.279462, 12087.042181
 449.227657, 12073.604354
 452.189871, 12060.165094
 455.155432, 12046.772750
 458.135311, 12033.377712
 461.128275, 12019.985766
 464.134975, 12006.594217
 467.155423, 11993.203252
 470.191050, 11979.806804
 473.231749, 11966.449492
 476.281594, 11953.113251
 476.895619, 11950.435630
 476.995303, 11950.001162
 477.104647, 11949.524667
 477.129210, 11949.417637
 477.145985, 11949.344547
 477.154379, 11949.307974
 477.160371, 11949.281866
 477.163906, 11949.266465
 477.166098, 11949.256819
 477.168109, 11949.247953
 477.188223, 11949.159291
 477.350871, 11948.442431
 478.348376, 11944.049816
 481.049664, 11932.187257
 484.130598, 11918.715656
 487.208604, 11905.318162
 490.305057, 11891.901613
 493.410502, 11878.507203
 496.531215, 11865.107983
 499.664893, 11851.714091
 502.808467, 11838.338730
 505.962954, 11824.977596
 509.127187, 11811.635648
 512.306183, 11798.291868
 515.498674, 11784.951806
 518.698441, 11771.641471
 521.908129, 11758.349782
 525.128021, 11745.075568
 528.363034, 11731.798705
 531.615135, 11718.511451
 534.872782, 11705.261036
 538.149246, 11691.993593
 541.433415, 11678.754284
 544.734366, 11665.506640
 548.044498, 11652.281317
 551.372469, 11639.043895
 554.706441, 11625.841559
 558.055257, 11612.639302
 561.412990, 11599.460581
 564.784452, 11586.286569
 568.169678, 11573.117309
 571.570894, 11559.944382
 574.975521, 11546.816477
 578.402491, 11533.660728
 581.835930, 11520.538286
 585.279553, 11507.434850
 588.734200, 11494.347244
 592.198809, 11481.279495
 595.687748, 11468.177751
 599.177868, 11455.129064
 602.686368, 11442.069103
 606.203454, 11429.034476
 609.734365, 11416.005808
 613.279536, 11402.981672
 616.837040, 11389.969286
 620.408984, 11376.961086
 623.987563, 11363.985502
 627.583953, 11351.002091
 631.188732, 11338.044994
 634.806796, 11325.096629
 638.434691, 11312.169414
 642.085185, 11299.218111
 645.742487, 11286.298943
 649.412652, 11273.390487
 653.093048, 11260.502045
 656.787535, 11247.620173
 660.501703, 11234.725666
 664.218514, 11221.877704
 667.942299, 11209.061052
 671.684810, 11196.235364
 675.442890, 11183.411754
 679.203805, 11170.633610
 682.986262, 11157.837439
 686.775558, 11145.073136
 690.585319, 11132.294935
 694.399464, 11119.556851
 698.238649, 11106.790063
 702.077842, 11094.077901
 705.929615, 11081.378544
 709.795180, 11068.688100
 713.678758, 11055.992936
 717.574157, 11043.313460
 721.482926, 11030.644713
 723.135691, 11025.304156
 725.400682, 11018.000913
 729.338670, 11005.320082
 733.283323, 10992.535746
 737.242115, 10979.614722
 741.216677, 10966.555923
 745.199791, 10953.386020
 749.190050, 10940.114127
 753.197218, 10926.714777
 757.219131, 10913.196407
 761.256429, 10899.561378
 765.301057, 10885.838136
 769.350576, 10872.039883
 773.420338, 10858.125020
 777.496243, 10844.134470
 781.586386, 10830.052407
 785.682760, 10815.903602
 789.788378, 10801.685481
 793.914038, 10787.368288
 798.046655, 10772.989071
 802.194756, 10758.531836
 806.351941, 10744.014867
 810.517342, 10729.446886
 814.699502, 10714.806428
 818.891333, 10700.112651
 823.085526, 10685.393371
 823.926993, 10680.296939
 826.892482, 10671.232348
 827.060721, 10668.811577
 827.113261, 10668.550275
 827.181026, 10668.321434
 827.197118, 10668.230691
 827.227893, 10668.131879
 827.235189, 10668.090696
 827.237378, 10668.079615
 827.239674, 10668.071922
 827.241874, 10668.064599
 827.263873, 10668.005046
 827.415840, 10667.589224
 828.260068, 10665.260663
 831.958842, 10654.962217
 836.332353, 10641.015982
 840.709690, 10626.602215
 845.099718, 10612.147867
 849.495139, 10597.668196
 853.900543, 10583.159519
 858.316265, 10568.620453
 862.750858, 10554.031395
 867.192798, 10539.417946
 871.641970, 10524.791566
 876.091085, 10510.172660
 880.559256, 10495.521947
 885.031210, 10480.864613
 885.382975, 10476.367776
 885.734928, 10475.227822
 886.087516, 10474.086783
 886.440210, 10472.945584
 886.792984, 10471.804727
 887.146018, 10470.663805
 887.497997, 10469.525846
 887.851438, 10468.385867
 888.205480, 10467.243894
 888.558821, 10466.103774
 888.913006, 10464.962868
 889.266662, 10463.823207
 889.620808, 10462.683486
 889.975362, 10461.543069
 890.331203, 10460.399932
 890.686244, 10459.258346
 891.041647, 10458.117263
 891.398286, 10456.973648
 891.754132, 10455.831621
 892.111508, 10454.687342
 892.469453, 10453.541184
 892.827223, 10452.395715
 893.185319, 10451.250372
 893.543068, 10450.106335
 893.901864, 10448.960880
 894.258693, 10447.819969
 894.618256, 10446.675019
 894.975826, 10445.533275
 895.335682, 10444.388604
 895.695000, 10443.244092
 896.055368, 10442.098370
 896.416451, 10440.950912
 896.777956, 10439.802695
 897.140012, 10438.653669
 897.502386, 10437.504284
 897.864320, 10436.356505
 898.227948, 10435.206004
 898.592304, 10434.053258
 898.956059, 10432.902172
 899.320102, 10431.751802
 899.684215, 10430.601915
 900.048312, 10429.452898
 900.413972, 10428.301184
 900.779741, 10427.148814
 901.144334, 10425.999983
 901.511417, 10424.847330
 901.875651, 10423.700063
 902.242637, 10422.549813
 902.608999, 10421.399621
 902.976333, 10420.248688
 903.343890, 10419.097392
 903.712252, 10417.945046
 904.080933, 10416.792276
 904.451014, 10415.637044
 904.822677, 10414.478037
 905.193692, 10413.320179
 905.564663, 10412.163996
 905.935061, 10411.010176
 906.305737, 10409.857249
 906.678574, 10408.700251
 907.051435, 10407.542418
 907.425063, 10406.383905
 907.798709, 10405.225773
 908.172831, 10404.067639
 908.548632, 10402.906433
 908.924829, 10401.744014
 909.300901, 10400.582649
 909.678708, 10399.418647
 910.056997, 10398.253224
 910.434494, 10397.090295
 910.811336, 10395.930643
 911.191724, 10394.764853
 911.571609, 10393.598310
 911.950983, 10392.434507
 912.328403, 10391.276631
 912.707270, 10390.118428
 913.089500, 10388.952789
 913.470657, 10387.787832
 913.853447, 10386.621444
 914.235807, 10385.455826
 914.619333, 10384.289275
 915.005114, 10383.118063
 915.389265, 10381.949725
 915.776099, 10380.778243
 916.163651, 10379.604183
 916.548446, 10378.436767
 916.935766, 10377.267581
 917.323290, 10376.097089
 917.712165, 10374.924840
 918.102244, 10373.750183
 918.492705, 10372.575029
 918.883291, 10371.400643
 919.274574, 10370.226040
 919.665129, 10369.053773
 920.059263, 10367.875918
 920.452256, 10366.698799
 920.845525, 10365.523506
 921.239356, 10364.348214
 921.632306, 10363.175733
 922.026988, 10362.001811
 922.423547, 10360.823895
 922.823887, 10359.637894
 923.220950, 10358.805920
 923.622199, 10357.966557
 924.023055, 10357.129406
 924.422595, 10356.296389
 924.820672, 10355.467798
 925.222130, 10354.633558
 925.624258, 10353.799327
 926.026180, 10352.966926
 926.426575, 10352.139082
 926.827869, 10351.310776
 927.234061, 10350.473782
 927.640966, 10349.636760
 928.047527, 10348.801885
 928.453233, 10347.970200
 928.859082, 10347.139655
 929.268269, 10346.303732
 929.677613, 10345.468950
 930.086949, 10344.635646
 930.497804, 10343.800720
 930.909741, 10342.965074
 931.319848, 10342.134616
 931.730557, 10341.304411
 932.143880, 10340.470413
 932.556376, 10339.639576
 932.970388, 10338.807183
 933.383697, 10337.977701
 933.800193, 10337.143338
 934.214868, 10336.314134
 934.631377, 10335.482784
 935.049715, 10334.649317
 935.469179, 10333.815149
 935.888284, 10332.983240
 936.306764, 10332.154115
 936.726151, 10331.324738
 937.148173, 10330.491713
 937.571890, 10329.656923
 937.992508, 10328.829802
 938.414339, 10328.001864
 938.839923, 10327.168150
 939.264870, 10326.337280
 939.689227, 10325.509155
 940.115893, 10324.678129
 940.544653, 10323.844647
 940.969296, 10323.020771
 941.398984, 10322.188732
 941.829097, 10321.357505
 942.257882, 10320.530479
 942.687766, 10319.702969
 943.120788, 10318.871076
 943.552383, 10318.043580
 943.987011, 10317.211938
 944.422546, 10316.380246
 944.856569, 10315.553119
 945.288499, 10314.731643
 945.726969, 10313.899427
 946.164535, 10313.070632
 946.602116, 10312.243515
 947.041247, 10311.415182
 947.478189, 10310.592685
 947.917362, 10309.767703
 948.356909, 10308.943743
 948.798742, 10308.117236
 949.242603, 10307.288692
 949.686649, 10306.461562
 950.133432, 10305.631114
 950.578494, 10304.805639
 951.025990, 10303.977438
 951.473031, 10303.151871
 951.919768, 10302.328650
 952.368315, 10301.503895
 952.819941, 10300.675301
 953.271706, 10299.848282
 953.524438, 10299.386419
 953.727514, 10299.015718
 954.182145, 10298.187161
 954.637582, 10297.358999
 955.092103, 10296.534359
 955.548638, 10295.707936
 956.004721, 10294.884202
 956.462338, 10294.059581
 956.920968, 10293.235024
 957.380237, 10292.411218
 957.843052, 10291.582972
 958.303260, 10290.761309
 958.766595, 10289.935992
 959.228236, 10289.115619
 959.690822, 10288.295494
 960.155377, 10287.473826
 960.618620, 10286.656419
 961.088124, 10285.829944
 961.557577, 10285.005552
 962.026095, 10284.184789
 962.500044, 10283.356534
 962.971205, 10282.535167
 963.445403, 10281.710537
 963.919821, 10280.887563
 964.394314, 10280.066499
 964.871809, 10279.242303
 965.347278, 10278.423659
 965.823798, 10277.605266
 966.302648, 10276.784948
 966.782245, 10275.965439
 967.263326, 10275.145494
 967.744603, 10274.327321
 968.227736, 10273.508113
 968.710925, 10272.690933
 969.194119, 10271.875871
 969.678291, 10271.061292
 970.161248, 10270.250885
 970.648572, 10269.435305
 971.134714, 10268.623862
 971.627640, 10267.803297
 972.116010, 10266.992502
 972.608697, 10266.176746
 973.102515, 10265.361343
 973.594845, 10264.550615
 974.089951, 10263.737550
 974.582293, 10262.931247
 975.075403, 10262.125908
 975.571624, 10261.317735
 976.071937, 10260.505179
 976.574038, 10259.692025
 977.079582, 10258.875628
 977.579245, 10258.071029
 978.083584, 10257.261223
 978.585216, 10256.458077
 979.089508, 10255.652999
 979.595175, 10254.848070
 980.101907, 10254.043802
 980.611848, 10253.236821
 981.118567, 10252.437305
 981.627539, 10251.636611
 982.141779, 10250.830047
 982.655040, 10250.027446
 983.170482, 10249.223873
 983.683488, 10248.426526
 984.200523, 10247.625369
 984.718742, 10246.824848
 985.239885, 10246.022307
 985.757756, 10245.227283
 986.278289, 10244.430664
 986.800057, 10243.634664
 987.322001, 10242.840910
 987.849432, 10242.041365
 988.374636, 10241.247747
 988.900430, 10240.455791
 989.427797, 10239.664031
 989.953853, 10238.876801
 990.482243, 10238.088652
 991.015238, 10237.296251
 991.544838, 10236.511501
 992.075666, 10235.727535
 992.611684, 10234.938552
 993.148883, 10234.150499
 993.689478, 10233.360163
 994.227523, 10232.576245
 994.767430, 10231.792309
 995.303465, 10231.016671
 995.845183, 10230.235517
 996.386413, 10229.457784
 996.929848, 10228.679618
 997.471647, 10227.906525
 998.020612, 10227.125984
 998.565144, 10226.354515
 999.112900, 10225.581255
 999.661856, 10224.809100
1000.208714, 10224.042681
1000.759761, 10223.273204
1001.313540, 10222.502757
1001.868666, 10221.733300
1002.424235, 10220.966102
1002.980455, 10220.200882
1003.533060, 10219.443487
1004.088805, 10218.684659
1004.649842, 10217.921524
1005.207678, 10217.165650
1005.768767, 10216.408296
1006.326902, 10215.657841
1006.888165, 10214.906110
1007.452275, 10214.153527
1008.018297, 10213.401377
1008.588999, 10212.646036
1009.158490, 10211.895330
1009.720698, 10211.157195
1010.290278, 10210.412391
1010.858968, 10209.671776
1011.431925, 10208.928659
1012.008248, 10208.184273
1012.579086, 10207.450033
1013.153461, 10206.714319
1013.730980, 10205.977689
1014.307830, 10205.245028
1014.892661, 10204.505409
1015.471873, 10203.776051
1016.051067, 10203.049858
1016.636051, 10202.319594
1017.217322, 10201.597139
1017.800367, 10200.875661
1018.379390, 10200.162311
1018.961969, 10199.447752
1019.545026, 10198.735792
1020.130744, 10198.023792
1020.720570, 10197.310050
1021.307312, 10196.603278
1021.898985, 10195.893837
1022.482998, 10195.196802
1023.069764, 10194.499706
1023.668615, 10193.791584
1024.262975, 10193.092102
1024.855853, 10192.397670
1025.457008, 10191.696914
1026.053012, 10191.005514
1026.653453, 10190.312341
1027.257236, 10189.618729
1027.858660, 10188.931231
1028.455746, 10188.252056
1029.065125, 10187.562356
1029.667687, 10186.883804
1030.267345, 10186.211913
1030.869962, 10185.540114
1031.477548, 10184.866234
1032.082187, 10184.199073
1032.687601, 10183.534503
1033.293039, 10182.873357
1033.902759, 10182.211024
1034.507059, 10181.558031
1035.118803, 10180.900498
1035.730158, 10180.246904
1036.343261, 10179.594977
1036.954032, 10178.949051
1037.571160, 10178.299972
1038.181185, 10177.661891
1038.795372, 10177.022999
1039.410357, 10176.386840
1040.024924, 10175.754676
1040.645978, 10175.119456
1041.270659, 10174.484196
1041.892976, 10173.854998
1042.518762, 10173.225975
1043.138471, 10172.606703
1043.765734, 10171.983569
1044.389487, 10171.367605
1045.013560, 10170.754998
1045.641868, 10170.141946
1046.267677, 10169.535035
1046.893941, 10168.931384
1047.522112, 10168.329615
1048.145684, 10167.735934
1048.775224, 10167.140295
1049.403937, 10166.549174
1050.031429, 10165.962921
1050.667550, 10165.372402
1051.302842, 10164.786465
1051.936359, 10164.205962
1052.576158, 10163.623550
1053.207783, 10163.052372
1053.844866, 10162.480075
1054.482191, 10161.911397
1055.123874, 10161.342706
1055.761225, 10160.781706
1056.399647, 10160.223611
1057.039354, 10159.668256
1057.681542, 10159.114636
1058.330652, 10158.559008
1058.979476, 10158.007605
1059.621174, 10157.466171
1060.261545, 10156.929736
1060.898809, 10156.399751
1061.542046, 10155.868690
1062.185850, 10155.341077
1062.832241, 10154.815286
1063.473955, 10154.297206
1064.117347, 10153.781678
1064.777735, 10153.256601
1065.425962, 10152.745202
1066.074781, 10152.237315
1066.721570, 10151.734976
1067.361845, 10151.241592
1068.014643, 10150.742547
1068.669154, 10150.246237
1069.318204, 10149.758067
1069.967005, 10149.274063
1070.614101, 10148.795295
1071.265765, 10148.317148
1071.919116, 10147.841792
1072.571253, 10147.371344
1073.226133, 10146.902961
1073.883209, 10146.437082
1074.539762, 10145.975650
1075.197762, 10145.517289
1075.854768, 10145.063702
1076.524852, 10144.605289
1077.186055, 10144.157112
1077.844731, 10143.714755
1078.506853, 10143.274215
1079.167812, 10142.838581
1079.830883, 10142.405703
1080.494101, 10141.976885
1081.153608, 10141.554587
1081.816698, 10141.134138
1082.482005, 10140.716457
1083.149362, 10140.301690
1083.819105, 10139.889670
1084.491158, 10139.480487
1085.160898, 10139.076956
1085.829751, 10138.678188
1086.498370, 10138.283782
1087.164990, 10137.894756
1087.830779, 10137.510405
1088.505777, 10137.125009
1089.175761, 10136.746729
1089.849606, 10136.370543
1090.524022, 10135.998329
1091.196602, 10135.631405
1091.873113, 10135.266642
1092.545727, 10134.908262
1093.216408, 10134.555161
1093.884577, 10134.207603
1094.561603, 10133.859733
1095.236610, 10133.517205
1095.915447, 10133.177067
1096.594686, 10132.841077
1097.270418, 10132.511138
1097.950084, 10132.183621
1098.628788, 10131.860913
1099.305485, 10131.543482
1099.984266, 10131.229408
1100.659262, 10130.921392
1101.341178, 10130.614576
1102.024600, 10130.311478
1102.709918, 10130.011957
1103.396141, 10129.716472
1104.078284, 10129.427139
1104.763842, 10129.140772
1105.449136, 10128.858936
1105.895417, 10128.677774
