Time, Horizontal Forces
   0.000000, 13925.456435
   0.000001, 13925.390583
   0.000006, 13925.189132
   0.000051, 13924.674992
   0.000254, 13923.693443
   0.000937, 13922.054504
   0.003594, 13918.778615
   0.008770, 13915.011079
   0.016215, 13911.241093
   0.025986, 13907.446961
   0.038053, 13903.647830
   0.052396, 13899.848898
   0.069115, 13896.027193
   0.088096, 13892.210563
   0.109545, 13888.361062
   0.133445, 13884.489188
   0.159844, 13880.592766
   0.188742, 13876.676693
   0.220179, 13872.739373
   0.254154, 13868.784271
   0.290762, 13864.804120
   0.329834, 13860.819148
   0.371933, 13856.777013
   0.416730, 13852.715140
   0.464133, 13848.643726
   0.514632, 13844.524308
   0.568012, 13840.379321
   0.623767, 13836.248288
   0.683393, 13832.025012
   0.746091, 13827.773523
   0.811495, 13823.519856
   0.879944, 13819.242925
   0.952973, 13814.854289
   1.028661, 13810.474633
   1.108195, 13806.037417
   1.190503, 13801.604694
   1.276329, 13797.137488
   1.366302, 13792.607366
   1.460383, 13788.021583
   1.557910, 13783.415576
   1.658864, 13778.791422
   1.765569, 13774.048427
   1.876077, 13769.279152
   1.991080, 13764.456635
   2.108697, 13759.660382
   2.232114, 13754.763154
   2.358495, 13749.880359
   2.491456, 13744.876165
   2.627207, 13739.896414
   2.766419, 13734.915169
   2.910997, 13729.866295
   3.061458, 13724.736713
   3.214194, 13719.650284
   3.373591, 13714.462508
   3.537116, 13709.259340
   3.707854, 13703.946354
   3.881891, 13698.648117
   4.060893, 13693.314040
   4.246787, 13687.890336
   4.436942, 13682.456399
   4.635771, 13676.890122
   4.839095, 13671.312413
   5.046944, 13665.722739
   5.262260, 13660.044492
   5.479624, 13654.421105
   5.704145, 13648.720613
   5.932675, 13643.024533
   6.172206, 13637.162660
   6.417668, 13631.264125
   6.664659, 13625.433455
   6.919177, 13619.528783
   7.182286, 13613.529407
   7.451337, 13607.498576
   7.728786, 13601.383704
   8.011867, 13595.248009
   8.300203, 13589.100044
   8.595273, 13582.909194
   8.898197, 13576.654124
   9.208447, 13570.348084
   9.524740, 13564.018478
   9.847117, 13557.665150
  10.178260, 13551.237107
  10.517285, 13544.754022
  10.863781, 13538.225605
  11.215388, 13531.696901
  11.577699, 13525.065890
  11.947059, 13518.402001
  12.323083, 13511.712987
  12.706533, 13504.986241
  13.101735, 13498.148535
  13.498441, 13491.377721
  13.905442, 13484.523688
  14.322436, 13477.594293
  14.746977, 13470.631960
  15.179755, 13463.626458
  15.615931, 13456.655926
  16.065427, 13449.563060
  16.521679, 13442.453686
  16.989674, 13435.251785
  17.467086, 13427.995486
  17.948124, 13420.772835
  18.442233, 13413.442941
  18.943653, 13406.093209
  19.455403, 13398.680448
  19.971291, 13391.294656
  20.503197, 13383.767341
  21.039939, 13376.258538
  21.591975, 13368.623411
  22.154661, 13360.928977
  22.722075, 13353.256485
  23.294581, 13345.600020
  23.879363, 13337.864179
  24.470105, 13330.133370
  25.080064, 13322.236340
  25.104614, 13321.920258
  25.110192, 13321.848464
  25.111427, 13321.832566
  25.113175, 13321.810079
  25.113784, 13321.802235
  25.114962, 13321.787072
  25.115436, 13321.780971
  25.115489, 13321.780180
  25.115536, 13321.779417
  25.116007, 13321.771789
  25.120721, 13321.695499
  25.146034, 13321.285930
  25.240975, 13319.751453
  25.544938, 13314.856423
  26.122884, 13305.622393
  26.701027, 13296.478592
  27.285207, 13287.331123
  27.878682, 13278.129578
  28.479559, 13268.904237
  29.087489, 13259.660846
  29.709576, 13250.293223
  30.339197, 13240.902992
  30.977515, 13231.473498
  31.624560, 13222.005155
  32.281037, 13212.488659
  32.946776, 13202.927565
  33.624452, 13193.284975
  34.313136, 13183.575955
  35.009054, 13173.854553
  35.708189, 13164.176270
  36.418015, 13154.437631
  37.136818, 13144.663240
  37.867779, 13134.811144
  38.610465, 13124.888892
  39.366949, 13114.870806
  40.124054, 13104.931372
  40.893463, 13094.916956
  41.674081, 13084.843346
  42.464088, 13074.734994
  43.263317, 13064.594712
  44.070501, 13054.438932
  44.886655, 13044.255242
  45.715278, 13034.001002
  46.555057, 13023.693775
  47.404370, 13013.354333
  48.265463, 13002.956225
  49.125549, 12992.653237
  50.002292, 12982.233815
  50.891462, 12971.750202
  51.789845, 12961.241159
  52.700389, 12950.672996
  53.620266, 12940.079335
  54.548014, 12929.477231
  55.488294, 12918.814031
  56.438610, 12908.118919
  57.408434, 12897.287029
  58.385766, 12886.453783
  59.370371, 12875.621604
  60.365913, 12864.750415
  61.379289, 12853.766434
  62.389213, 12842.900130
  63.423505, 12831.852689
  64.463035, 12820.829999
  65.513995, 12809.766384
  66.577116, 12798.654928
  67.651149, 12787.509413
  68.734516, 12776.346576
  69.826554, 12765.173371
  70.926902, 12753.993513
  72.041160, 12742.750671
  73.167900, 12731.460216
  74.306773, 12720.126451
  75.467376, 12708.655537
  76.633843, 12697.205342
  77.809141, 12685.746449
  78.997253, 12674.240444
  80.197519, 12662.694414
  81.410899, 12651.099869
  82.633034, 12639.498860
  83.870672, 12627.827928
  85.116192, 12616.159454
  86.373469, 12604.457289
  87.642578, 12592.721241
  88.921294, 12580.972193
  90.211860, 12569.189846
  91.522913, 12557.296576
  92.844013, 12545.388147
  94.177813, 12533.441012
  95.524629, 12521.452958
  96.890774, 12509.368930
  98.258511, 12497.346022
  99.637602, 12485.297938
 101.033815, 12473.175077
 102.439374, 12461.045561
 103.861289, 12448.849450
 104.147219, 12446.405885
 104.341094, 12444.750704
 104.495880, 12443.430217
 104.518932, 12443.233635
 104.524426, 12443.186780
 104.526123, 12443.172311
 104.526910, 12443.165603
 104.527083, 12443.164079
 104.527264, 12443.162191
 104.529071, 12443.143306
 104.545335, 12442.973322
 104.639691, 12441.987375
 104.976903, 12438.467258
 106.129664, 12426.474328
 107.448863, 12412.825917
 108.782020, 12399.114178
 110.126774, 12385.364248
 111.485587, 12371.551788
 112.857579, 12357.686743
 114.232498, 12343.872670
 115.627087, 12329.941908
 117.025299, 12316.055331
 118.429538, 12302.188491
 119.849673, 12288.244390
 121.280854, 12274.271515
 122.724636, 12260.255282
 124.175236, 12246.252053
 125.645137, 12232.142088
 127.123819, 12218.027292
 128.606536, 12203.952646
 130.101253, 12189.842472
 131.612673, 12175.653305
 133.134895, 12161.441361
 134.662743, 12147.254933
 136.203744, 12133.024251
 137.761978, 12118.712650
 139.327242, 12104.414360
 140.902608, 12090.101336
 142.494729, 12075.713821
 144.099947, 12061.285787
 145.710691, 12046.885386
 147.333012, 12032.458477
 148.962100, 12018.047920
 150.611414, 12003.535330
 152.268878, 11989.027713
 153.933457, 11974.533972
 155.615091, 11959.968018
 157.310570, 11945.358539
 159.024199, 11930.669419
 160.742691, 11916.014884
 162.471318, 11901.349787
 164.211370, 11886.663434
 165.965139, 11871.936943
 167.730713, 11857.186866
 169.504136, 11842.446351
 171.289475, 11827.681720
 173.092475, 11812.846174
 174.905755, 11798.001052
 176.736613, 11783.087216
 178.577433, 11768.167273
 180.426186, 11753.257636
 182.292552, 11738.280668
 184.168049, 11723.304948
 186.052534, 11708.331597
 187.953189, 11693.303937
 189.864605, 11678.265234
 191.788346, 11663.203447
 193.723244, 11648.128005
 195.670670, 11633.028514
 197.631588, 11617.897908
 199.600492, 11602.778847
 201.578585, 11587.661996
 203.575679, 11572.472900
 205.591905, 11557.211623
 207.624545, 11541.899637
 209.671944, 11526.550069
 211.722398, 11511.250601
 213.780715, 11495.964917
 215.852799, 11480.649317
 217.930789, 11465.361935
 220.026908, 11450.013125
 222.141208, 11434.603379
 224.269987, 11419.160362
 226.407867, 11403.723326
 228.556658, 11388.279228
 230.718107, 11372.815726
 232.896905, 11357.299787
 235.094814, 11341.719717
 237.303170, 11326.137404
 239.512888, 11310.616598
 241.745851, 11295.003830
 243.989033, 11279.390851
 246.242947, 11263.774152
 246.696259, 11260.641797
 248.417686, 11248.772610
 248.435820, 11248.647796
 248.441007, 11248.612088
 248.449399, 11248.554330
 248.452117, 11248.535625
 248.457552, 11248.498216
 248.458257, 11248.493366
 248.458628, 11248.490811
 248.458984, 11248.487841
 248.459308, 11248.485079
 248.462550, 11248.457456
 248.494704, 11248.183485
 248.719489, 11246.268700
 249.725066, 11237.714574
 251.719700, 11220.802902
 253.779585, 11203.415440
 255.845816, 11186.052544
 257.926492, 11168.646416
 260.018203, 11151.226078
 262.117889, 11133.817172
 264.225392, 11116.420979
 266.347479, 11098.981957
 268.479330, 11081.540149
 270.619404, 11064.108248
 272.778841, 11046.596110
 274.941400, 11029.135757
 277.112158, 11011.685918
 279.296599, 10994.202800
 281.490633, 10976.719482
 283.701626, 10959.177779
 285.922600, 10941.633600
 288.150724, 10924.109318
 290.393710, 10906.544544
 292.643781, 10889.000456
 294.906961, 10871.430249
 297.183446, 10853.832888
 299.465437, 10836.268755
 301.764926, 10818.645855
 304.067928, 10801.071568
 306.389604, 10783.430471
 308.720301, 10765.796418
 311.065369, 10748.129252
 313.420332, 10730.463037
 315.784519, 10712.802907
 318.159011, 10695.140909
 320.545962, 10677.461284
 322.943466, 10659.778431
 325.352425, 10642.085924
 327.766033, 10624.433697
 330.197939, 10606.722205
 332.633831, 10589.055905
 335.088965, 10571.324434
 337.555321, 10553.586315
 340.031860, 10535.849199
 342.519440, 10518.107127
 345.023622, 10500.320890
 347.538764, 10482.531006
 350.058976, 10464.779086
 352.593858, 10446.997607
 355.142610, 10429.192669
 357.699338, 10411.405624
 360.270044, 10393.594917
 362.850448, 10375.790462
 365.446561, 10357.951124
 368.049100, 10340.140874
 370.663009, 10322.325900
 373.293354, 10304.472091
 375.929053, 10286.654849
 378.574729, 10268.842817
 381.235283, 10251.003313
 383.903976, 10233.181728
 386.590827, 10215.311509
 389.287783, 10197.446640
 391.994667, 10179.588388
 394.706064, 10161.772342
 397.440764, 10143.875445
 400.181286, 10126.012534
 402.936323, 10108.127051
 405.704811, 10090.226303
 408.488933, 10072.296607
 411.284026, 10054.368322
 414.084220, 10036.479032
 416.889096, 10018.631100
 419.708533, 10000.761715
 422.545376, 9982.853379
 425.398278, 9964.915170
 428.257758, 9947.006877
 431.132352, 9929.075174
 434.019837, 9911.134305
 436.919663, 9893.187937
 439.821595, 9875.299284
 442.743417, 9857.358851
 445.676320, 9839.421202
 448.620964, 9821.482459
 451.574264, 9803.561500
 454.535505, 9785.662605
 457.511524, 9767.744609
 460.507034, 9749.779699
 463.511220, 9731.833085
 466.526193, 9713.892195
 469.548137, 9695.979724
 472.589684, 9678.021076
 475.638948, 9660.086734
 476.251346, 9656.493276
 476.720335, 9653.743210
 477.065547, 9651.719996
 477.120290, 9651.399239
 477.136970, 9651.301509
 477.165558, 9651.134019
 477.175153, 9651.077801
 477.176811, 9651.068071
 477.178528, 9651.057926
 477.195695, 9650.956472
 477.346967, 9650.062593
 478.209917, 9644.966635
 480.851419, 9629.402538
 483.929371, 9611.332362
 487.011271, 9593.309096
 490.096576, 9575.335545
 493.199907, 9557.326629
 496.318901, 9539.296579
 499.445243, 9521.293619
 502.589472, 9503.257294
 505.741627, 9485.244977
 508.909317, 9467.213355
 512.088997, 9449.182913
 515.278295, 9431.167191
 518.478661, 9413.158075
 521.689262, 9395.160344
 524.917627, 9377.132092
 528.156191, 9359.115873
 531.404500, 9341.114244
 534.665889, 9323.108871
 537.942055, 9305.090666
 541.228510, 9287.084513
 544.523422, 9269.100462
 547.837509, 9251.080283
 551.167379, 9233.042925
 554.502284, 9215.046671
 557.850130, 9197.048837
 561.210674, 9179.050936
 564.587181, 9161.035786
 567.973018, 9143.038963
 571.371712, 9125.041833
 574.776435, 9107.080543
 578.195979, 9089.108781
 581.627918, 9071.139540
 585.077831, 9053.143944
 588.539660, 9035.153927
 592.010643, 9017.183900
 595.491964, 8999.227744
 598.985547, 8981.275640
 602.491253, 8963.328472
 606.006502, 8945.399511
 609.534511, 8927.472447
 613.078588, 8909.530757
 616.637030, 8891.583382
 620.210215, 8873.628696
 623.792146, 8855.696960
 627.388022, 8837.762245
 630.987118, 8819.877988
 634.607694, 8801.953608
 638.239199, 8784.041704
 641.885623, 8766.122784
 645.541759, 8748.222583
 649.206249, 8730.347713
 652.891571, 8712.437582
 656.587050, 8694.544386
 660.292644, 8676.668356
 664.016097, 8658.772366
 667.742726, 8640.927033
 671.481226, 8623.090607
 675.242879, 8605.209671
 679.003419, 8587.399653
 682.786868, 8569.546842
 686.585612, 8551.687660
 690.392208, 8533.857193
 694.213453, 8516.023685
 698.039404, 8498.233531
 701.880478, 8480.438312
 705.740575, 8462.620327
 709.601892, 8444.861779
 713.488985, 8427.049920
 717.379775, 8409.286175
 721.284794, 8391.522412
 723.174928, 8382.947503
 725.212289, 8373.721555
 729.149558, 8356.460047
 733.087521, 8339.036170
 737.042221, 8321.388343
 741.008085, 8303.304228
 744.992700, 8284.718201
 748.983789, 8266.031271
 752.991009, 8246.560749
 757.010780, 8226.971810
 761.042227, 8206.960859
 765.083601, 8186.520629
 769.142019, 8165.957375
 773.212553, 8144.703487
 777.292638, 8123.313579
 781.381331, 8101.657120
 785.482819, 8079.472652
 789.591904, 8057.222485
 793.707916, 8034.523834
 797.843449, 8011.492531
 801.990962, 7988.378329
 806.141231, 7964.676152
 810.303845, 7940.857941
 814.479445, 7916.907293
 818.666912, 7892.348898
 822.865317, 7867.739289
 827.070061, 7842.950579
 827.238674, 7834.427793
 827.246700, 7834.081730
 827.252017, 7834.044797
 827.255947, 7834.018637
 827.258260, 7834.001754
 827.259242, 7833.993450
 827.260216, 7833.987807
 827.269963, 7833.947776
 827.367426, 7833.547473
 827.956406, 7831.057480
 830.575043, 7819.709831
 834.897452, 7797.945421
 839.275145, 7772.693802
 843.659444, 7746.826497
 848.060213, 7720.912808
 852.472241, 7694.789914
 856.888696, 7668.219872
 861.321198, 7641.620416
 865.757644, 7614.835164
 870.199087, 7587.649226
 874.655158, 7560.448184
 879.114212, 7533.111447
 883.589951, 7505.316248
 888.073867, 7477.511319
 888.427707, 7462.418731
 888.782141, 7457.363335
 889.136923, 7452.255200
 889.491206, 7447.105042
 889.846349, 7441.898805
 890.201897, 7436.638307
 890.554873, 7431.361519
 890.910129, 7426.016331
 891.265611, 7420.615527
 891.619823, 7415.183433
 891.977112, 7409.668274
 892.329444, 7404.162694
 892.686839, 7398.557041
 893.044582, 7392.886638
 893.403094, 7387.157768
 893.761724, 7381.377960
 894.117184, 7375.593981
 894.473824, 7369.755296
 894.833578, 7363.823366
 895.192512, 7357.847607
 895.552234, 7351.815530
 895.912595, 7345.724950
 896.272848, 7339.586871
 896.634052, 7333.387793
 896.993903, 7327.158758
 897.356115, 7320.850879
 897.717019, 7314.508991
 898.078435, 7308.115403
 898.438850, 7301.688492
 898.802166, 7295.172364
 899.164024, 7288.623831
 899.526519, 7282.021767
 899.891576, 7275.330184
 900.255267, 7268.605912
 900.618874, 7261.838917
 900.982924, 7255.017496
 901.347740, 7248.134929
 901.713311, 7241.190319
 902.077837, 7234.213372
 902.444214, 7227.160650
 902.811420, 7220.008788
 903.174576, 7212.861993
 903.543911, 7205.573269
 903.913543, 7198.214538
 904.282970, 7190.810165
 904.653344, 7183.341445
 905.024120, 7175.814622
 905.394524, 7168.244828
 905.765262, 7160.621681
 906.135364, 7152.960766
 906.506769, 7145.229703
 906.879481, 7137.422828
 907.251440, 7129.577692
 907.625111, 7121.654341
 907.996907, 7113.712703
 908.371556, 7105.674091
 908.746634, 7097.570836
 909.121642, 7089.418831
 909.497222, 7081.207144
 909.871806, 7072.964260
 910.246643, 7064.670504
 910.624630, 7056.265653
 910.999272, 7047.869138
 911.377305, 7039.365674
 911.756325, 7030.784214
 912.136224, 7022.133037
 912.516362, 7013.425094
 912.893904, 7004.719949
 913.275030, 6995.899248
 913.654205, 6987.059716
 914.033172, 6978.180571
 914.416222, 6969.167578
 914.798573, 6960.108522
 915.184103, 6950.934280
 915.567938, 6941.737301
 915.953538, 6932.456997
 916.336457, 6923.179577
 916.723902, 6913.761412
 917.110359, 6904.302229
 917.494901, 6894.837402
 917.881533, 6885.257355
 918.270998, 6875.535373
 918.659624, 6865.773473
 919.051314, 6855.894415
 919.440364, 6846.015344
 919.833531, 6835.999384
 920.225975, 6825.937086
 920.618335, 6815.827495
 921.012752, 6805.619381
 921.406136, 6795.378043
 921.800399, 6785.067745
 922.193525, 6774.730412
 922.588037, 6764.312382
 922.982420, 6753.842294
 923.381475, 6744.336513
 923.778656, 6734.863621
 924.177406, 6725.341589
 924.575422, 6715.825387
 924.975795, 6706.241078
 925.374602, 6696.682567
 925.774533, 6687.085416
 926.176363, 6677.430925
 926.579144, 6667.741798
 926.983324, 6658.007148
 927.386454, 6648.286015
 927.788583, 6638.577306
 928.191887, 6628.828520
 928.595450, 6619.061783
 928.999001, 6609.283623
 929.406835, 6599.389879
 929.815136, 6589.472900
 930.223612, 6579.539782
 930.632141, 6569.593553
 931.040670, 6559.635490
 931.450245, 6549.640090
 931.860590, 6539.614077
 932.271483, 6529.562806
 932.684773, 6519.440945
 933.097207, 6509.328178
 933.512041, 6499.144582
 933.924664, 6489.003410
 934.338568, 6478.818903
 934.753310, 6468.601895
 935.169618, 6458.334356
 935.583686, 6448.110253
 935.999377, 6437.834258
 936.416144, 6427.519787
 936.834283, 6417.159449
 937.251356, 6406.813675
 937.671294, 6396.384939
 938.091619, 6385.934603
 938.510792, 6375.501075
 938.932361, 6364.995956
 939.355886, 6354.430109
 939.777131, 6343.909222
 940.198938, 6333.362450
 940.626280, 6322.665195
 941.053290, 6311.964163
 941.482681, 6301.191279
 941.911990, 6290.408294
 942.342080, 6279.593560
 942.772317, 6268.762964
 943.200525, 6257.971444
 943.633433, 6247.049307
 944.067084, 6236.096223
 944.500022, 6225.148953
 944.935950, 6214.113860
 945.372737, 6203.044741
 945.806127, 6192.049589
 946.242078, 6180.977330
 946.680209, 6169.837446
 947.116636, 6158.728746
 947.554883, 6147.561551
 947.993907, 6136.362376
 948.435051, 6125.096853
 948.876543, 6113.810161
 949.317345, 6102.528929
 949.761195, 6091.157428
 950.202277, 6079.844643
 950.646102, 6068.449308
 951.090247, 6057.033538
 951.535089, 6045.587642
 951.983135, 6034.046982
 952.432596, 6022.457491
 952.881094, 6010.880501
 953.329621, 5999.290494
 953.686757, 5990.053285
 953.779441, 5987.654764
 954.229069, 5976.011776
 954.681064, 5964.295163
 955.134190, 5952.536875
 955.586263, 5940.793609
 956.040319, 5928.986541
 956.496407, 5917.114233
 956.954028, 5905.189614
 957.411783, 5893.249062
 957.868624, 5881.319995
 958.327298, 5869.330733
 958.789548, 5857.235472
 959.249478, 5845.188541
 959.713375, 5833.025183
 960.178795, 5820.809324
 960.641116, 5808.662403
 961.106951, 5796.410676
 961.573676, 5784.123007
 962.043175, 5771.749720
 962.511843, 5759.385766
 962.983070, 5746.941703
 963.455779, 5734.445838
 963.931294, 5721.863046
 964.406131, 5709.285475
 964.879252, 5696.740793
 965.356106, 5684.084438
 965.832316, 5671.432533
 966.308348, 5658.772765
 966.786619, 5646.040822
 967.267595, 5633.224172
 967.745946, 5620.464839
 968.232605, 5607.471043
 968.713563, 5594.616756
 969.198879, 5581.633257
 969.684018, 5568.641752
 970.172349, 5555.551951
 970.658142, 5542.517471
 971.146022, 5529.414243
 971.634951, 5516.270129
 972.123064, 5503.135277
 972.612477, 5489.952765
 973.103168, 5476.723132
 973.595715, 5463.430755
 974.087584, 5450.143998
 974.582448, 5436.763587
 975.077029, 5423.378142
 975.574655, 5409.897489
 976.070816, 5396.443826
 976.567788, 5382.955504
 977.066151, 5369.416740
 977.570050, 5355.714743
 978.071462, 5342.067559
 978.576321, 5328.313734
 979.083620, 5314.480497
 979.590440, 5300.647449
 980.097302, 5286.800459
 980.607767, 5272.842100
 981.116621, 5258.914963
 981.626624, 5244.943564
 982.138630, 5230.904451
 982.652928, 5216.789577
 983.165971, 5202.696304
 983.684627, 5188.435911
 984.199899, 5174.255683
 984.719470, 5159.944218
 985.237264, 5145.668838
 985.757568, 5131.311386
 986.276946, 5116.966701
 986.800995, 5102.480068
 987.322940, 5088.038763
 987.844736, 5073.588817
 988.371539, 5058.987367
 988.894049, 5044.492151
 989.422079, 5029.831009
 989.949881, 5015.163352
 990.477291, 5000.493859
 991.004000, 4985.831214
 991.533703, 4971.072513
 992.062016, 4956.339926
 992.597359, 4941.398518
 993.128712, 4926.555749
 993.661560, 4911.658619
 994.195679, 4896.713292
 994.733163, 4881.661115
 995.273775, 4866.508525
 995.812252, 4851.403100
 996.350989, 4836.277761
 996.888147, 4821.184218
 997.433025, 4805.861056
 997.975057, 4790.605306
 998.517238, 4775.332842
 999.068037, 4759.804814
 999.612490, 4744.443114
1000.157834, 4729.043770
1000.709086, 4713.464968
1001.259750, 4697.890157
1001.814690, 4682.181700
1002.367454, 4666.522235
1002.918572, 4650.896928
1003.472512, 4635.179129
1004.022085, 4619.572948
1004.577029, 4603.801889
1005.135866, 4587.907721
1005.701325, 4571.812505
1006.262943, 4555.814058
1006.827892, 4539.708159
1007.390590, 4523.653963
1007.953454, 4507.582684
1008.519992, 4491.394050
1009.084614, 4475.247828
1009.654522, 4458.938043
1010.216249, 4442.850206
1010.782052, 4426.633535
1011.346028, 4410.457204
1011.921168, 4393.948352
1012.495500, 4377.450325
1013.068191, 4360.987279
1013.640371, 4344.526801
1014.216679, 4327.935441
1014.796198, 4311.239405
1015.375700, 4294.531696
1015.954813, 4277.823073
1016.533807, 4261.105877
1017.115540, 4244.297590
1017.703092, 4227.308965
1018.284496, 4210.486171
1018.870064, 4193.530934
1019.448627, 4176.766815
1020.042827, 4159.537579
1020.626428, 4142.603865
1021.215407, 4125.502305
1021.808628, 4108.265721
1022.394072, 4091.243448
1022.984017, 4074.078713
1023.578012, 4056.784474
1024.171170, 4039.502947
1024.768105, 4022.099732
1025.357569, 4004.902910
1025.951888, 3987.553084
1026.545096, 3970.224328
1027.137802, 3952.899028
1027.737886, 3935.346711
1028.339196, 3917.747137
1028.944378, 3900.022828
1029.548808, 3882.309146
1030.152550, 3864.604416
1030.759652, 3846.789841
1031.356428, 3829.267366
1031.968159, 3811.294612
1032.574940, 3793.456212
1033.186602, 3775.463204
1033.794188, 3757.579162
1034.403532, 3739.632524
1035.013464, 3721.657720
1035.623649, 3703.664693
1036.236332, 3685.587271
1036.858720, 3667.212569
1037.467878, 3649.217849
1038.075324, 3631.263344
1038.695264, 3612.928982
1039.314400, 3594.607800
1039.936889, 3576.176846
1040.558548, 3557.759942
1041.176493, 3539.442784
1041.799582, 3520.962819
1042.419872, 3502.555633
1043.043677, 3484.033940
1043.668437, 3465.473760
1044.291108, 3446.965608
1044.917826, 3428.327106
1045.545708, 3409.644004
1046.168044, 3391.116158
1046.799341, 3372.311634
1047.421559, 3353.767903
1048.058075, 3334.788216
1048.695292, 3315.777792
1049.326978, 3296.922730
1049.960683, 3277.997830
1050.588742, 3259.232186
1051.220444, 3240.348373
1051.853545, 3221.413468
1052.489190, 3202.393207
1053.118265, 3183.560476
1053.756590, 3164.441724
1054.393106, 3145.368075
1055.024297, 3126.445169
1055.663995, 3107.258346
1056.305204, 3088.017307
1056.948529, 3068.703889
1057.583438, 3049.634531
1058.225878, 3030.330364
1058.866560, 3011.070478
1059.505036, 2991.868511
1060.149941, 2972.464787
1060.792393, 2953.126544
1061.429143, 2933.951810
1062.074903, 2914.497597
1062.718199, 2895.109577
1063.370348, 2875.446578
1064.022579, 2855.773006
1064.673238, 2836.138890
1065.324947, 2816.465211
1065.969021, 2797.014357
1066.621680, 2777.296521
1067.274960, 2757.552299
1067.922012, 2737.988864
1068.572086, 2718.326667
1069.220679, 2698.702001
1069.877350, 2678.825579
1070.536469, 2658.867798
1071.190971, 2639.042632
1071.841950, 2619.317223
1072.503817, 2599.254872
1073.160848, 2579.332207
1073.825014, 2559.186265
1074.487188, 2539.093951
1075.146213, 2519.090490
1075.802621, 2499.159984
1076.467050, 2478.979384
1077.130879, 2458.810574
1077.791858, 2438.722051
1078.449150, 2418.739384
1079.117181, 2398.424079
1079.777576, 2378.334945
1080.442601, 2358.098992
1081.105233, 2337.929977
1081.771444, 2317.646232
1082.438004, 2297.346114
1083.102915, 2277.090632
1083.764911, 2256.918447
1084.427113, 2236.734637
1085.090907, 2216.496998
1085.758559, 2196.136509
1086.423760, 2175.845617
1087.092926, 2155.428692
1087.763038, 2134.977874
1088.434593, 2114.478119
1089.105311, 2093.999085
1089.775995, 2073.516365
1090.453977, 2052.806048
1091.129901, 2032.153988
1091.801855, 2011.618769
1092.471112, 1991.161635
1093.143017, 1970.619318
1093.823253, 1949.818078
1094.498574, 1929.163024
1095.180531, 1908.300940
1095.858806, 1887.547532
1096.536888, 1866.796217
1097.214745, 1846.048050
1097.887957, 1825.438477
1098.563990, 1804.739050
1099.242797, 1783.951226
1099.918982, 1763.240415
1100.597884, 1742.443119
1101.279158, 1721.569994
1101.957527, 1700.782855
1102.638912, 1679.900306
1103.317180, 1659.110484
1103.999411, 1638.196386
1104.680024, 1617.329244
1105.360650, 1596.459164
1106.044991, 1575.472669
1106.625829, 1557.658396
