Time, Horizontal Forces
   0.000000, 13925.489325
   0.000000, 13925.428006
   0.000007, 13925.214532
   0.000082, 13924.492482
   0.000471, 13923.081641
   0.002611, 13919.803221
   0.007883, 13915.598915
   0.016021, 13911.380926
   0.027016, 13907.161627
   0.040922, 13902.925763
   0.057780, 13898.671042
   0.077586, 13894.405387
   0.100326, 13890.134506
   0.125942, 13885.869053
   0.154713, 13881.567039
   0.186823, 13877.214182
   0.222045, 13872.849548
   0.260756, 13868.434133
   0.302570, 13864.017830
   0.347923, 13859.559024
   0.396709, 13855.074866
   0.449072, 13850.557485
   0.505139, 13846.002355
   0.565818, 13841.347472
   0.629321, 13836.734470
   0.696192, 13832.120443
   0.767836, 13827.415136
   0.842671, 13822.727536
   0.922055, 13817.975634
   1.006500, 13813.138478
   1.095504, 13808.253331
   1.189311, 13803.313046
   1.287386, 13798.350283
   1.389598, 13793.373623
   1.495618, 13788.399544
   1.607014, 13783.357765
   1.724723, 13778.214763
   1.846153, 13773.087982
   1.972630, 13767.922435
   2.107465, 13762.592664
   2.244878, 13757.331604
   2.390951, 13751.910535
   2.541755, 13746.482745
   2.696714, 13741.068506
   2.860361, 13735.514793
   3.029808, 13729.926934
   3.206675, 13724.256334
   3.388884, 13718.573339
   3.575572, 13712.904655
   3.771163, 13707.119787
   3.972625, 13701.313614
   4.179952, 13695.487693
   4.393994, 13689.620296
   4.613086, 13683.758190
   4.840682, 13677.811611
   5.075485, 13671.818943
   5.320203, 13665.716335
   5.568898, 13659.654073
   5.828049, 13653.476594
   6.097646, 13647.191412
   6.369353, 13640.993377
   6.654390, 13634.628936
   6.944175, 13628.293905
   7.242556, 13621.904753
   7.553601, 13615.380090
   7.870306, 13608.870354
   8.195511, 13602.317832
   8.527551, 13595.757430
   8.870135, 13589.118196
   9.222438, 13582.419944
   9.587628, 13575.607226
   9.959421, 13568.800192
  10.339511, 13561.968167
  10.731027, 13555.057587
  11.132951, 13548.089960
  11.543166, 13541.103809
  11.961975, 13534.094927
  12.395725, 13526.960797
  12.834698, 13519.863348
  13.285572, 13512.695351
  13.747262, 13505.476886
  14.217976, 13498.237618
  14.698218, 13490.970811
  15.197074, 13483.543393
  15.699039, 13476.188174
  16.215408, 13468.740008
  16.748197, 13461.174578
  17.289480, 13453.607092
  17.843884, 13445.974223
  18.404680, 13438.369340
  18.988049, 13430.576474
  19.574672, 13422.856110
  20.173425, 13415.090683
  20.783393, 13407.293582
  21.401260, 13399.507457
  22.039416, 13391.578868
  22.688402, 13383.628630
  23.350597, 13375.628943
  24.023375, 13367.612761
  24.708915, 13359.555150
  24.848461, 13357.928238
  24.918110, 13357.117872
  24.960115, 13356.629680
  24.987430, 13356.312425
  25.081498, 13355.221141
  25.082059, 13355.214643
  25.082987, 13355.203876
  25.083383, 13355.199295
  25.083495, 13355.197993
  25.083548, 13355.197270
  25.083601, 13355.196471
  25.084137, 13355.188481
  25.088672, 13355.120844
  25.116551, 13354.705204
  25.219963, 13353.165452
  25.527125, 13348.610316
  26.141405, 13339.581427
  26.785931, 13330.220303
  27.447079, 13320.732971
  28.115090, 13311.261439
  28.795350, 13301.730086
  29.485894, 13292.168012
  30.187059, 13282.571645
  30.898280, 13272.949716
  31.625886, 13263.218906
  32.364925, 13253.447966
  33.122314, 13243.548297
  33.887918, 13233.654448
  34.664240, 13223.734373
  35.453035, 13213.766848
  36.253324, 13203.765560
  37.061997, 13193.769806
  37.887845, 13183.672465
  38.726487, 13173.529462
  39.568639, 13163.452717
  40.432427, 13153.226649
  41.301106, 13143.051023
  42.184307, 13132.813184
  43.076800, 13122.574705
  43.989895, 13112.207828
  44.913626, 13101.827846
  45.848172, 13091.433143
  46.797072, 13080.985385
  47.758548, 13070.505393
  48.728286, 13060.040421
  49.715617, 13049.490786
  50.715006, 13038.917208
  51.729581, 13028.287750
  52.759859, 13017.598668
  53.800502, 13006.906228
  54.861502, 12996.109295
  55.940737, 12985.232130
  57.025220, 12974.405996
  58.120526, 12963.574570
  59.239747, 12952.610328
  60.369394, 12941.647223
  61.517558, 12930.607779
  62.678802, 12919.545623
  63.844125, 12908.545939
  65.034125, 12897.415199
  66.232218, 12886.309959
  67.455031, 12875.077466
  68.684252, 12863.887037
  69.936302, 12852.590053
  71.197192, 12841.313848
  72.473338, 12830.001238
  73.766415, 12818.638491
  75.076415, 12807.226969
  76.403491, 12795.766579
  77.734368, 12784.371758
  79.090532, 12772.859177
  80.452946, 12761.391375
  81.833859, 12749.865401
  83.234743, 12738.270562
  84.649742, 12726.656420
  86.076075, 12715.045990
  87.529580, 12703.311825
  89.002517, 12691.518677
  90.487151, 12679.729146
  91.983098, 12667.946145
  93.490940, 12656.164982
  95.029204, 12644.242587
  96.585428, 12632.277747
  98.148737, 12620.354100
  99.729079, 12608.395676
 101.324331, 12596.419167
 102.941287, 12584.374574
 103.265878, 12581.968036
 103.458075, 12580.544837
 103.568907, 12579.724732
 103.670897, 12578.970443
 103.750633, 12578.380984
 103.815717, 12577.900017
 103.862810, 12577.552094
 103.908576, 12577.214046
 103.960808, 12576.828329
 103.970275, 12576.758434
 103.972680, 12576.740674
 103.973243, 12576.736519
 103.973543, 12576.734301
 103.973675, 12576.733217
 103.973835, 12576.731726
 103.975433, 12576.716821
 103.991410, 12576.567770
 104.104923, 12575.509195
 104.512434, 12571.713829
 105.920854, 12558.655508
 107.399548, 12545.042629
 108.888289, 12531.435601
 110.397087, 12517.743863
 111.913332, 12504.082512
 113.444042, 12490.388416
 114.980652, 12476.738180
 116.546503, 12462.925781
 118.122274, 12449.123349
 119.709281, 12435.319359
 121.305428, 12421.531964
 122.924303, 12407.644738
 124.551241, 12393.784342
 126.193184, 12379.891768
 127.856354, 12365.915654
 129.529032, 12351.955259
 131.216982, 12337.962726
 132.918510, 12323.952713
 134.630181, 12309.953641
 136.359853, 12295.901764
 138.111584, 12281.765578
 139.881820, 12267.575250
 141.656321, 12253.444953
 143.451338, 12239.245481
 145.260899, 12225.025054
 147.084571, 12210.787542
 148.920652, 12196.546527
 150.771945, 12182.280654
 152.644271, 12167.946061
 154.530512, 12153.598154
 156.437327, 12139.187110
 158.353374, 12124.799131
 160.280389, 12110.420972
 162.228984, 12095.974111
 164.199367, 12081.458416
 166.177699, 12066.976279
 168.179261, 12052.416356
 170.188575, 12037.891749
 172.217971, 12023.313591
 174.265273, 12008.698468
 176.323559, 11994.096133
 178.395849, 11979.485219
 180.478634, 11964.890493
 182.589947, 11950.186568
 184.709407, 11935.516175
 186.847517, 11920.806782
 188.999008, 11906.095108
 191.170846, 11891.334105
 193.354765, 11876.580440
 195.557972, 11861.785833
 197.785531, 11846.917428
 200.028555, 11832.035439
 202.289230, 11817.125836
 204.561836, 11802.226623
 206.857959, 11787.262427
 209.160254, 11772.346558
 211.485733, 11757.369022
 213.824874, 11742.391807
 216.184489, 11727.371774
 218.564823, 11712.308244
 220.954382, 11697.274194
 223.374309, 11682.137345
 225.802736, 11667.035202
 228.246820, 11651.923154
 230.714584, 11636.752304
 233.196805, 11621.579990
 235.698407, 11606.376510
 238.223447, 11591.118069
 240.757637, 11575.891322
 243.307499, 11560.656993
 243.819123, 11557.610603
 244.160930, 11555.577281
 245.234459, 11549.201043
 245.255574, 11549.075780
 245.260895, 11549.044214
 245.269421, 11548.993635
 245.270580, 11548.986764
 245.271239, 11548.982852
 245.271652, 11548.980329
 245.272031, 11548.977442
 245.275823, 11548.948574
 245.308995, 11548.696002
 245.489763, 11547.319994
 246.397362, 11540.420301
 248.642360, 11523.417113
 250.910951, 11506.326222
 253.194482, 11489.213899
 255.489820, 11472.103966
 257.796429, 11455.000544
 260.112136, 11437.919721
 262.444877, 11420.803251
 264.792560, 11403.667118
 267.152670, 11386.530042
 269.527490, 11369.375787
 271.920292, 11352.181366
 274.327732, 11334.971442
 276.754404, 11317.713866
 279.196508, 11300.436402
 281.639954, 11283.238456
 284.109086, 11265.948995
 286.587877, 11248.680979
 289.079199, 11231.414439
 291.592865, 11214.082048
 294.118875, 11196.753457
 296.647416, 11179.495604
 299.192465, 11162.212950
 301.757769, 11144.880820
 304.342926, 11127.502866
 306.942795, 11110.114280
 309.557182, 11092.716713
 312.176347, 11075.374836
 314.815464, 11057.988307
 317.466208, 11040.612435
 320.132569, 11023.221299
 322.817880, 11005.793763
 325.520222, 10988.342939
 328.230660, 10970.926644
 330.963415, 10953.453877
 333.704471, 10936.014636
 336.468821, 10918.513958
 339.248237, 10901.004650
 342.033247, 10883.546292
 344.844506, 10866.009810
 347.663742, 10848.509712
 350.492407, 10831.036733
 353.334963, 10813.563320
 356.196160, 10796.060706
 359.073472, 10778.544862
 361.965013, 10761.027601
 364.876543, 10743.474509
 367.798876, 10725.941294
 370.741193, 10708.373198
 373.695465, 10690.818535
 376.672141, 10673.215681
 379.647749, 10655.703347
 382.645542, 10638.144595
 385.664177, 10620.548100
 388.695286, 10602.963053
 391.744345, 10585.357960
 394.807075, 10567.757859
 397.895053, 10550.096839
 400.984272, 10532.512314
 404.087347, 10514.932118
 407.216091, 10497.289955
 410.358140, 10479.656141
 413.516237, 10462.015492
 416.692282, 10444.357791
 419.882047, 10426.706832
 423.087385, 10409.052558
 426.311910, 10391.375478
 429.545002, 10373.733940
 432.802710, 10356.040709
 436.070654, 10338.374284
 439.358729, 10320.681395
 442.666954, 10302.962526
 445.986607, 10285.264655
 449.316383, 10267.594630
 452.668690, 10249.886890
 456.031707, 10232.204203
 459.419409, 10214.473462
 462.816887, 10196.773054
 463.500268, 10193.222512
 463.991797, 10190.670764
 464.329741, 10188.917319
 464.642615, 10187.294659
 464.904321, 10185.937894
 464.952813, 10185.686553
 465.008249, 10185.399231
 465.020106, 10185.337781
 465.031843, 10185.276956
 465.035901, 10185.255925
 465.037453, 10185.247869
 465.039173, 10185.238864
 465.056369, 10185.148819
 465.197834, 10184.408135
 465.963858, 10180.399850
 468.810677, 10165.539689
 472.227554, 10147.778365
 475.673722, 10129.946260
 479.138752, 10112.098172
 482.604102, 10094.329399
 486.092738, 10076.522144
 489.599800, 10058.701798
 493.128471, 10040.852699
 496.674129, 10022.998695
 500.224997, 10005.198991
 503.801621, 9987.350782
 507.396981, 9969.489752
 510.995201, 9951.694652
 514.609631, 9933.899248
 518.246373, 9916.073932
 521.897149, 9898.259651
 525.566409, 9880.434914
 529.253570, 9862.602912
 532.958511, 9844.764557
 536.673319, 9826.958017
 540.412163, 9809.115634
 544.167612, 9791.273353
 547.932129, 9773.466980
 551.718431, 9755.636524
 555.522072, 9737.803335
 559.340358, 9719.980235
 563.178382, 9702.143714
 567.036967, 9684.290388
 570.907534, 9666.460150
 574.798944, 9648.612387
 578.708079, 9630.761772
 582.627476, 9612.942443
 586.567398, 9595.107872
 590.532868, 9577.235914
 594.507978, 9559.398528
 598.500367, 9541.561444
 602.505612, 9523.744543
 606.535368, 9505.896285
 610.575486, 9488.079587
 614.631440, 9470.270300
 618.706842, 9452.452811
 622.797647, 9434.645044
 626.902631, 9416.852403
 631.027386, 9399.050865
 635.183907, 9381.189347
 639.346251, 9363.379633
 643.521000, 9345.593325
 647.714792, 9327.802263
 651.924416, 9310.020290
 656.166071, 9292.179551
 660.409120, 9274.409074
 664.678835, 9256.603048
 664.967817, 9255.400646
 668.963366, 9238.811274
 673.262209, 9224.438394
 677.582682, 9210.122976
 681.917670, 9195.651128
 686.289143, 9179.301934
 690.675101, 9162.363387
 695.073570, 9145.285727
 699.497039, 9128.023785
 703.941253, 9108.806905
 708.395109, 9088.973779
 712.878676, 9068.956326
 717.375034, 9048.816233
 721.883566, 9026.885573
 726.419429, 9003.904610
 730.954866, 8980.860771
 735.508572, 8957.718450
 740.077775, 8933.603467
 744.677960, 8907.924763
 749.282291, 8882.170893
 753.896152, 8856.372265
 758.526265, 8830.498057
 763.166859, 8802.553215
 767.818097, 8774.456964
 772.484386, 8746.304168
 777.155953, 8718.125621
 781.847123, 8688.589696
 786.542973, 8656.369934
 787.485451, 8638.233667
 788.358760, 8632.047522
 788.683032, 8626.727510
 789.007469, 8623.055166
 789.072387, 8621.510159
 789.259250, 8619.739276
 789.262199, 8619.137380
 789.266411, 8619.092562
 789.267314, 8619.071899
 789.267639, 8619.066369
 789.268011, 8619.062306
 789.270482, 8619.040797
 789.283259, 8618.927893
 789.333685, 8618.472543
 789.469207, 8617.195193
 789.690292, 8614.931787
 790.014201, 8611.510652
 790.338547, 8607.719550
 790.663164, 8603.876030
 790.988565, 8599.975953
 791.314197, 8596.022469
 791.639991, 8592.017864
 791.965915, 8587.962636
 792.292226, 8583.854433
 792.617206, 8579.708981
 792.942316, 8575.517877
 793.268711, 8571.265086
 793.595606, 8566.954468
 793.923061, 8562.587657
 794.250741, 8558.167780
 794.578340, 8553.699070
 794.906607, 8549.174513
 795.234999, 8544.597476
 795.563038, 8539.974899
 795.891986, 8535.294371
 796.221244, 8530.558445
 796.550817, 8525.768825
 796.880702, 8520.925437
 797.209856, 8516.040506
 797.539956, 8511.097638
 797.869143, 8506.113719
 798.200018, 8501.063194
 798.531410, 8495.951819
 798.863071, 8490.736691
 799.192981, 8485.432711
 799.525204, 8480.056318
 799.857335, 8474.623843
 800.188822, 8469.150841
 800.521856, 8463.610499
 800.855000, 8458.013961
 801.188162, 8452.367395
 801.521890, 8446.663659
 801.856241, 8440.899903
 802.190830, 8435.081106
 802.524934, 8429.218784
 802.859611, 8423.300533
 803.194311, 8417.330508
 803.528590, 8411.317109
 803.862758, 8405.257547
 804.199411, 8399.112185
 804.535815, 8392.912283
 804.873037, 8386.651109
 805.210660, 8380.331135
 805.547169, 8373.977128
 805.885571, 8367.547780
 806.223888, 8361.063322
 806.562061, 8354.531486
 806.901421, 8347.931241
 807.239101, 8341.304104
 807.577748, 8334.617287
 807.918003, 8327.850818
 808.258604, 8321.022946
 808.599629, 8314.136531
 808.939017, 8307.226164
 809.280545, 8300.235008
 809.622895, 8293.172088
 809.965792, 8286.046361
 810.309339, 8278.856805
 810.649953, 8271.666274
 810.993768, 8264.378772
 811.336323, 8257.052443
 811.680620, 8249.648578
 812.023747, 8242.209549
 812.369246, 8234.680489
 812.712720, 8227.130167
 813.058009, 8219.502505
 813.404167, 8211.801580
 813.750703, 8204.039656
 814.097846, 8196.213903
 814.445955, 8188.316418
 814.794100, 8180.363700
 815.141499, 8172.374349
 815.489020, 8164.334223
 815.839095, 8156.191955
 816.187112, 8148.030807
 816.537315, 8139.781575
 816.888845, 8131.446515
 817.240292, 8123.056889
 817.590644, 8114.638527
 817.942030, 8106.151091
 818.292602, 8097.625704
 818.645283, 8089.007415
 818.999495, 8080.297715
 819.351915, 8071.569086
 819.705468, 8062.770581
 820.055631, 8053.989984
 820.411636, 8045.042592
 820.765108, 8036.078813
 821.121913, 8028.229883
 821.478414, 8020.374219
 821.834556, 8012.513079
 822.191878, 8004.612474
 822.549467, 7996.692499
 822.907309, 7988.753523
 823.266705, 7980.766563
 823.627411, 7972.736905
 823.987385, 7964.710028
 824.347238, 7956.672355
 824.706783, 7948.628133
 825.067265, 7940.549487
 825.428164, 7932.448007
 825.791241, 7924.284086
 826.152910, 7916.138297
 826.517250, 7907.918748
 826.881875, 7899.679108
 827.246017, 7891.436783
 827.610386, 7883.175764
 827.974336, 7874.910709
 828.339939, 7866.594509
 828.706051, 7858.253136
 829.070723, 7849.931051
 829.437443, 7841.548630
 829.804734, 7833.139529
 830.171239, 7824.734885
 830.538886, 7816.290451
 830.906634, 7807.830117
 831.275686, 7799.326159
 831.645262, 7790.796456
 832.015966, 7782.227024
 832.385941, 7773.660796
 832.757302, 7765.048800
 833.128418, 7756.428788
 833.499824, 7747.788396
 833.873455, 7739.082496
 834.247141, 7730.361535
 834.620515, 7721.634107
 834.994111, 7712.887813
 835.367293, 7704.137559
 835.742370, 7695.329119
 836.115558, 7686.551422
 836.490737, 7677.713244
 836.867146, 7668.832326
 837.243819, 7659.931404
 837.623738, 7650.939901
 838.003123, 7641.947110
 838.381957, 7632.953521
 838.761124, 7623.938240
 839.140840, 7614.896062
 839.521059, 7605.828076
 839.904094, 7596.678953
 840.287107, 7587.516371
 840.669194, 7578.362038
 841.052109, 7569.173958
 841.434547, 7559.983469
 841.818844, 7550.734362
 842.203121, 7541.471816
 842.590598, 7532.118077
 842.978239, 7522.746258
 843.365805, 7513.362189
 843.752366, 7503.988475
 844.141553, 7494.536995
 844.531453, 7485.054038
 844.920042, 7475.588946
 845.308530, 7466.112319
 845.699247, 7456.567251
 846.093096, 7446.931417
 846.486041, 7437.303485
 846.878757, 7427.666972
 847.272204, 7417.998368
 847.667664, 7408.266032
 848.063251, 7398.516308
 848.459136, 7388.744982
 848.855046, 7378.958813
 849.249708, 7369.189360
 849.648055, 7359.314410
 850.047655, 7349.394053
 850.448721, 7339.422828
 850.740545, 7332.158500
 850.847552, 7329.492876
 851.248550, 7319.494592
 851.650954, 7309.446842
 852.053005, 7299.393489
 852.456173, 7289.297756
 852.859529, 7279.182910
 853.262937, 7269.052364
 853.664658, 7258.949919
 854.070406, 7248.731779
 854.473980, 7238.554039
 854.880962, 7228.275872
 855.288779, 7217.962127
 855.697257, 7207.617118
 856.104986, 7197.276601
 856.512307, 7186.932038
 856.919107, 7176.586373
 857.330117, 7166.119124
 857.741155, 7155.636594
 858.153223, 7145.113221
 858.566155, 7134.553216
 858.980851, 7123.933389
 859.394845, 7113.316926
 859.809368, 7102.672302
 860.224052, 7092.008929
 860.639071, 7081.322393
 861.054911, 7070.600108
 861.472031, 7059.830181
 861.890595, 7049.008289
 862.310521, 7038.136444
 862.731861, 7027.213165
 863.154442, 7016.242847
 863.576251, 7005.277746
 863.998267, 6994.292518
 864.423658, 6983.204521
 864.847615, 6972.139045
 865.274313, 6960.987096
 865.700553, 6949.832215
 866.126290, 6938.675640
 866.556278, 6927.392637
 866.985867, 6916.105078
 867.415383, 6904.804437
 867.845905, 6893.462342
 868.276104, 6882.113805
 868.708725, 6870.686349
 869.140451, 6859.267547
 869.576537, 6847.718257
 870.012846, 6836.147847
 870.446832, 6824.623996
 870.884445, 6812.988696
 871.319061, 6801.418050
 871.756899, 6789.746520
 872.193985, 6778.079987
 872.632207, 6766.368033
 873.070710, 6754.633521
 873.513333, 6742.773506
 873.956834, 6730.874660
 874.400492, 6718.956297
 874.844860, 6707.003563
 875.289620, 6695.025037
 875.734848, 6683.018597
 876.184686, 6670.872405
 876.633802, 6658.730237
 877.082341, 6646.588276
 877.532087, 6634.398256
 877.982566, 6622.172984
 878.433219, 6609.927583
 878.887957, 6597.555661
 879.339902, 6585.244309
 879.794161, 6572.854451
 880.245220, 6560.536610
 880.701407, 6548.063274
 881.159159, 6535.531585
 881.614355, 6523.054467
 882.072952, 6510.468620
 882.534446, 6497.787626
 882.994437, 6485.132348
 883.457255, 6472.383643
 883.919050, 6459.647536
 884.379512, 6446.932709
 884.844358, 6434.081223
 885.310555, 6421.176661
 885.777754, 6408.228652
 886.245476, 6395.250406
 886.714606, 6382.217319
 887.184203, 6369.155518
 887.652873, 6356.103853
 888.123872, 6342.971581
 888.596293, 6329.783901
 889.069097, 6316.569752
 889.543247, 6303.302191
 890.017522, 6290.015352
 890.493877, 6276.654416
 890.972369, 6263.217640
 891.452438, 6249.720596
 891.931618, 6236.232608
 892.409608, 6222.762378
 892.892330, 6209.142824
 893.374647, 6195.518761
 893.860088, 6181.790415
 894.343580, 6168.101235
 894.831197, 6154.279183
 895.316950, 6140.494021
 895.803820, 6126.661177
 896.293957, 6112.719453
 896.782697, 6098.801437
 897.273072, 6084.820863
 897.764624, 6070.790686
 898.254797, 6056.783914
 898.749174, 6042.640967
 899.243593, 6028.480746
 899.740672, 6014.228195
 900.235296, 6000.030018
 900.730890, 5985.788022
 901.229199, 5971.451920
 901.729354, 5957.046628
 902.228191, 5942.663220
 902.728166, 5928.230984
 903.231582, 5913.683288
 903.733718, 5899.156489
 904.237947, 5884.553049
 904.744920, 5869.853915
 905.249575, 5855.205915
 905.759700, 5840.382922
 906.265723, 5825.663047
 906.776079, 5810.800958
 907.288803, 5795.853644
 907.800335, 5780.924877
 908.313752, 5765.924897
 908.823663, 5751.011341
 909.338923, 5735.925199
 909.852405, 5720.875051
 910.371377, 5705.647712
 910.890248, 5690.407099
 911.411131, 5675.091080
 911.929621, 5659.829286
 912.449235, 5644.518297
 912.969317, 5629.177434
 913.492172, 5613.738638
 914.014535, 5598.298254
 914.539564, 5582.762898
 915.063629, 5567.240002
 915.587586, 5551.704308
 916.113105, 5536.106274
 916.642982, 5520.362718
 917.170475, 5504.673955
 917.702607, 5488.831062
 918.231010, 5473.083160
 918.760753, 5457.279410
 919.299081, 5441.203255
 919.830790, 5425.308723
 920.367982, 5409.234167
 920.900765, 5393.275623
 921.439635, 5377.118651
 921.979190, 5360.925021
 922.519948, 5344.679163
 923.061489, 5328.393695
 923.601951, 5312.124662
 924.147714, 5295.679917
 924.694114, 5279.199780
 925.237346, 5262.799220
 925.784711, 5246.257838
 926.334331, 5229.632168
 926.879394, 5213.128469
 927.430473, 5196.426575
 927.983365, 5179.653648
 928.533587, 5162.945738
 929.085306, 5146.176485
 929.638016, 5129.361229
 930.194363, 5112.419334
 930.748403, 5095.531799
 931.305107, 5078.547231
 931.866458, 5061.404806
 932.427950, 5044.242063
 932.986301, 5027.159507
 933.544443, 5010.067627
 934.109659, 4992.743242
 934.671689, 4975.500682
 935.233143, 4958.260154
 935.798453, 4940.885450
 936.369820, 4923.308654
 936.932199, 4905.992742
 937.501779, 4888.439414
 938.070120, 4870.908618
 938.639947, 4853.316358
 939.211626, 4835.651294
 939.783597, 4817.961587
 940.360123, 4800.115291
 940.933846, 4782.340211
 941.509572, 4764.487495
 942.088454, 4746.521325
 942.670036, 4728.455652
 943.247443, 4710.504223
 943.825673, 4692.511826
 944.403519, 4674.516131
 944.986854, 4656.334057
 945.563568, 4638.343203
 946.152355, 4619.960308
 946.738586, 4601.641805
 947.319510, 4583.474028
 947.905926, 4565.119370
 948.494704, 4546.675533
 949.081513, 4528.278259
 949.670868, 4509.786091
 950.252091, 4491.534372
 950.837512, 4473.136102
 951.426090, 4454.623851
 952.019675, 4435.939183
 952.612582, 4417.260974
 953.208737, 4398.465526
 953.807557, 4379.571094
 954.403160, 4360.763417
 954.995900, 4342.031567
 955.589353, 4323.262712
 956.186068, 4304.376232
 956.783145, 4285.463806
 957.387695, 4266.300010
 957.988632, 4247.236267
 958.589317, 4228.166098
 959.192254, 4209.010091
 959.798146, 4189.745790
 960.405852, 4170.409370
 961.009918, 4151.174572
 961.616263, 4131.853032
 962.223086, 4112.502131
 962.827901, 4093.201312
 963.428300, 4074.027742
 964.036335, 4054.596456
 964.649807, 4034.977437
 965.255081, 4015.606897
 965.867752, 3995.985840
 966.482198, 3976.294166
 967.096803, 3956.583644
 967.711758, 3936.848214
 968.326052, 3917.120490
 968.937397, 3897.474086
 969.556214, 3877.574088
 970.165572, 3857.965127
 970.788245, 3837.914304
 971.400805, 3818.176045
 972.021428, 3798.164779
 972.637726, 3778.279954
 973.255395, 3758.337957
 973.873419, 3738.371648
 974.493826, 3718.315533
 975.117351, 3698.145734
 975.740910, 3677.962037
 976.358558, 3657.957154
 976.984981, 3637.655390
 977.614777, 3617.231599
 978.240673, 3596.921722
 978.871688, 3576.433189
 979.499599, 3556.032996
 980.130994, 3535.507200
 980.762547, 3514.963949
 981.388682, 3494.584839
 982.016994, 3474.122868
 982.646575, 3453.607595
 983.269067, 3433.311647
 983.905965, 3412.534110
 984.540656, 3391.816634
 985.170190, 3371.255886
 985.800926, 3350.644365
 986.440157, 3329.743587
 987.078359, 3308.864835
 987.718820, 3287.900616
 988.353429, 3267.116658
 988.987872, 3246.326942
 989.626455, 3225.390380
 990.268259, 3204.337037
 990.907085, 3183.370297
 991.553088, 3162.156933
 992.200075, 3140.900184
 992.843347, 3119.754587
 993.492028, 3098.420273
 994.139021, 3077.130676
 994.775608, 3056.173076
 995.418036, 3035.012788
 996.062950, 3013.760244
 996.711661, 2992.372176
 997.356270, 2971.109127
 998.004036, 2949.731780
 998.647701, 2928.479768
 999.297063, 2907.029685
 999.943786, 2885.656891
1000.602845, 2863.866401
1001.251571, 2842.407771
1001.901280, 2820.907021
1002.558782, 2799.138651
1003.213927, 2777.438751
1003.863771, 2755.905070
1004.517961, 2734.218085
1005.169035, 2712.625207
1005.820142, 2691.022231
1006.476638, 2669.231377
1007.124224, 2647.727456
1007.784955, 2625.778154
1008.438285, 2604.065989
1009.100166, 2582.060884
1009.714017, 2561.644852
