Time, Horizontal Forces
   0.000000,    0.000000
   0.000000,    0.000000
   0.000007,    0.000000
   0.000082,    0.000000
   0.000471,    0.000000
   0.002611,    0.000000
   0.007883,    0.000000
   0.016021,    0.000000
   0.027016,    0.000000
   0.040922,    0.000000
   0.057780,    0.000000
   0.077586,    0.000000
   0.100326,    0.000000
   0.125942,    0.000000
   0.154713,    0.000000
   0.186823,    0.000000
   0.222045,    0.000000
   0.260756,    0.000000
   0.302570,    0.000000
   0.347923,    0.000000
   0.396709,    0.000000
   0.449072,    0.000000
   0.505139,    0.000000
   0.565818,    0.000000
   0.629321,    0.000000
   0.696192,    0.000000
   0.767836,    0.000000
   0.842671,    0.000000
   0.922055,    0.000000
   1.006500,    0.000000
   1.095504,    0.000000
   1.189311,    0.000000
   1.287386,    0.000000
   1.389598,    0.000000
   1.495618,    0.000000
   1.607014,    0.000000
   1.724723,    0.000000
   1.846153,    0.000000
   1.972630,    0.000000
   2.107465,    0.000000
   2.244878,    0.000000
   2.390951,    0.000000
   2.541755,    0.000000
   2.696714,    0.000000
   2.860361,    0.000000
   3.029808,    0.000000
   3.206675,    0.000000
   3.388884,    0.000000
   3.575572,    0.000000
   3.771163,    0.000000
   3.972625,    0.000000
   4.179952,    0.000000
   4.393994,    0.000000
   4.613086,    0.000000
   4.840682,    0.000000
   5.075485,    0.000000
   5.320203,    0.000000
   5.568898,    0.000000
   5.828049,    0.000000
   6.097646,    0.000000
   6.369353,    0.000000
   6.654390,    0.000000
   6.944175,    0.000000
   7.242556,    0.000000
   7.553601,    0.000000
   7.870306,    0.000000
   8.195511,    0.000000
   8.527551,    0.000000
   8.870135,    0.000000
   9.222438,    0.000000
   9.587628,    0.000000
   9.959421,    0.000000
  10.339511,    0.000000
  10.731027,    0.000000
  11.132951,    0.000000
  11.543166,    0.000000
  11.961975,    0.000000
  12.395725,    0.000000
  12.834698,    0.000000
  13.285572,    0.000000
  13.747262,    0.000000
  14.217976,    0.000000
  14.698218,    0.000000
  15.197074,    0.000000
  15.699039,    0.000000
  16.215408,    0.000000
  16.748197,    0.000000
  17.289480,    0.000000
  17.843884,    0.000000
  18.404680,    0.000000
  18.988049,    0.000000
  19.574672,    0.000000
  20.173425,    0.000000
  20.783393,    0.000000
  21.401260,    0.000000
  22.039416,    0.000000
  22.688402,    0.000000
  23.350597,    0.000000
  24.023375,    0.000000
  24.708915,    0.000000
  24.848461,    0.000000
  24.918110,    0.000000
  24.960115,    0.000000
  24.987430,    0.000000
  25.081498,    0.000000
  25.082059,    0.000000
  25.082987,    0.000000
  25.083383,    0.000000
  25.083495,    0.000000
  25.083548,    0.000000
  25.083601,    0.000000
  25.084137,    0.000000
  25.088672,    0.000000
  25.116551,    0.000000
  25.219963,    0.000000
  25.527125,    0.000000
  26.141405,    0.000000
  26.785931,    0.000000
  27.447079,    0.000000
  28.115090,    0.000000
  28.795350,    0.000000
  29.485894,    0.000000
  30.187059,    0.000000
  30.898280,    0.000000
  31.625886,    0.000000
  32.364925,    0.000000
  33.122314,    0.000000
  33.887918,    0.000000
  34.664240,    0.000000
  35.453035,    0.000000
  36.253324,    0.000000
  37.061997,    0.000000
  37.887845,    0.000000
  38.726487,    0.000000
  39.568639,    0.000000
  40.432427,    0.000000
  41.301106,    0.000000
  42.184307,    0.000000
  43.076800,    0.000000
  43.989895,    0.000000
  44.913626,    0.000000
  45.848172,    0.000000
  46.797072,    0.000000
  47.758548,    0.000000
  48.728286,    0.000000
  49.715617,    0.000000
  50.715006,    0.000000
  51.729581,    0.000000
  52.759859,    0.000000
  53.800502,    0.000000
  54.861502,    0.000000
  55.940737,    0.000000
  57.025220,    0.000000
  58.120526,    0.000000
  59.239747,    0.000000
  60.369394,    0.000000
  61.517558,    0.000000
  62.678802,    0.000000
  63.844125,    0.000000
  65.034125,    0.000000
  66.232218,    0.000000
  67.455031,    0.000000
  68.684252,    0.000000
  69.936302,    0.000000
  71.197192,    0.000000
  72.473338,    0.000000
  73.766415,    0.000000
  75.076415,    0.000000
  76.403491,    0.000000
  77.734368,    0.000000
  79.090532,    0.000000
  80.452946,    0.000000
  81.833859,    0.000000
  83.234743,    0.000000
  84.649742,    0.000000
  86.076075,    0.000000
  87.529580,    0.000000
  89.002517,    0.000000
  90.487151,    0.000000
  91.983098,    0.000000
  93.490940,    0.000000
  95.029204,    0.000000
  96.585428,    0.000000
  98.148737,    0.000000
  99.729079,    0.000000
 101.324331,    0.000000
 102.941287,    0.000000
 103.265878,    0.000000
 103.458075,    0.000000
 103.568907,    0.000000
 103.670897,    0.000000
 103.750633,    0.000000
 103.815717,    0.000000
 103.862810,    0.000000
 103.908576,    0.000000
 103.960808,    0.000000
 103.970275,    0.000000
 103.972680,    0.000000
 103.973243,    0.000000
 103.973543,    0.000000
 103.973675,    0.000000
 103.973835,    0.000000
 103.975433,    0.000000
 103.991410,    0.000000
 104.104923,    0.000000
 104.512434,    0.000000
 105.920854,    0.000000
 107.399548,    0.000000
 108.888289,    0.000000
 110.397087,    0.000000
 111.913332,    0.000000
 113.444042,    0.000000
 114.980652,    0.000000
 116.546503,    0.000000
 118.122274,    0.000000
 119.709281,    0.000000
 121.305428,    0.000000
 122.924303,    0.000000
 124.551241,    0.000000
 126.193184,    0.000000
 127.856354,    0.000000
 129.529032,    0.000000
 131.216982,    0.000000
 132.918510,    0.000000
 134.630181,    0.000000
 136.359853,    0.000000
 138.111584,    0.000000
 139.881820,    0.000000
 141.656321,    0.000000
 143.451338,    0.000000
 145.260899,    0.000000
 147.084571,    0.000000
 148.920652,    0.000000
 150.771945,    0.000000
 152.644271,    0.000000
 154.530512,    0.000000
 156.437327,    0.000000
 158.353374,    0.000000
 160.280389,    0.000000
 162.228984,    0.000000
 164.199367,    0.000000
 166.177699,    0.000000
 168.179261,    0.000000
 170.188575,    0.000000
 172.217971,    0.000000
 174.265273,    0.000000
 176.323559,    0.000000
 178.395849,    0.000000
 180.478634,    0.000000
 182.589947,    0.000000
 184.709407,    0.000000
 186.847517,    0.000000
 188.999008,    0.000000
 191.170846,    0.000000
 193.354765,    0.000000
 195.557972,    0.000000
 197.785531,    0.000000
 200.028555,    0.000000
 202.289230,    0.000000
 204.561836,    0.000000
 206.857959,    0.000000
 209.160254,    0.000000
 211.485733,    0.000000
 213.824874,    0.000000
 216.184489,    0.000000
 218.564823,    0.000000
 220.954382,    0.000000
 223.374309,    0.000000
 225.802736,    0.000000
 228.246820,    0.000000
 230.714584,    0.000000
 233.196805,    0.000000
 235.698407,    0.000000
 238.223447,    0.000000
 240.757637,    0.000000
 243.307499,    0.000000
 243.819123,    0.000000
 244.160930,    0.000000
 245.234459,    0.000000
 245.255574,    0.000000
 245.260895,    0.000000
 245.269421,    0.000000
 245.270580,    0.000000
 245.271239,    0.000000
 245.271652,    0.000000
 245.272031,    0.000000
 245.275823,    0.000000
 245.308995,    0.000000
 245.489763,    0.000000
 246.397362,    0.000000
 248.642360,    0.000000
 250.910951,    0.000000
 253.194482,    0.000000
 255.489820,    0.000000
 257.796429,    0.000000
 260.112136,    0.000000
 262.444877,    0.000000
 264.792560,    0.000000
 267.152670,    0.000000
 269.527490,    0.000000
 271.920292,    0.000000
 274.327732,    0.000000
 276.754404,    0.000000
 279.196508,    0.000000
 281.639954,    0.000000
 284.109086,    0.000000
 286.587877,    0.000000
 289.079199,    0.000000
 291.592865,    0.000000
 294.118875,    0.000000
 296.647416,    0.000000
 299.192465,    0.000000
 301.757769,    0.000000
 304.342926,    0.000000
 306.942795,    0.000000
 309.557182,    0.000000
 312.176347,    0.000000
 314.815464,    0.000000
 317.466208,    0.000000
 320.132569,    0.000000
 322.817880,    0.000000
 325.520222,    0.000000
 328.230660,    0.000000
 330.963415,    0.000000
 333.704471,    0.000000
 336.468821,    0.000000
 339.248237,    0.000000
 342.033247,    0.000000
 344.844506,    0.000000
 347.663742,    0.000000
 350.492407,    0.000000
 353.334963,    0.000000
 356.196160,    0.000000
 359.073472,    0.000000
 361.965013,    0.000000
 364.876543,    0.000000
 367.798876,    0.000000
 370.741193,    0.000000
 373.695465,    0.000000
 376.672141,    0.000000
 379.647749,    0.000000
 382.645542,    0.000000
 385.664177,    0.000000
 388.695286,    0.000000
 391.744345,    0.000000
 394.807075,    0.000000
 397.895053,    0.000000
 400.984272,    0.000000
 404.087347,    0.000000
 407.216091,    0.000000
 410.358140,    0.000000
 413.516237,    0.000000
 416.692282,    0.000000
 419.882047,    0.000000
 423.087385,    0.000000
 426.311910,    0.000000
 429.545002,    0.000000
 432.802710,    0.000000
 436.070654,    0.000000
 439.358729,    0.000000
 442.666954,    0.000000
 445.986607,    0.000000
 449.316383,    0.000000
 452.668690,    0.000000
 456.031707,    0.000000
 459.419409,    0.000000
 462.816887,    0.000000
 463.500268,    0.000000
 463.991797,    0.000000
 464.329741,    0.000000
 464.642615,    0.000000
 464.904321,    0.000000
 464.952813,    0.000000
 465.008249,    0.000000
 465.020106,    0.000000
 465.031843,    0.000000
 465.035901,    0.000000
 465.037453,    0.000000
 465.039173,    0.000000
 465.056369,    0.000000
 465.197834,    0.000000
 465.963858,    0.000000
 468.810677,    0.000000
 472.227554,    0.000000
 475.673722,    0.000000
 479.138752,    0.000000
 482.604102,    0.000000
 486.092738,    0.000000
 489.599800,    0.000000
 493.128471,    0.000000
 496.674129,    0.000000
 500.224997,    0.000000
 503.801621,    0.000000
 507.396981,    0.000000
 510.995201,    0.000000
 514.609631,    0.000000
 518.246373,    0.000000
 521.897149,    0.000000
 525.566409,    0.000000
 529.253570,    0.000000
 532.958511,    0.000000
 536.673319,    0.000000
 540.412163,    0.000000
 544.167612,    0.000000
 547.932129,    0.000000
 551.718431,    0.000000
 555.522072,    0.000000
 559.340358,    0.000000
 563.178382,    0.000000
 567.036967,    0.000000
 570.907534,    0.000000
 574.798944,    0.000000
 578.708079,    0.000000
 582.627476,    0.000000
 586.567398,    0.000000
 590.532868,    0.000000
 594.507978,    0.000000
 598.500367,    0.000000
 602.505612,    0.000000
 606.535368,    0.000000
 610.575486,    0.000000
 614.631440,    0.000000
 618.706842,    0.000000
 622.797647,    0.000000
 626.902631,    0.000000
 631.027386,    0.000000
 635.183907,    0.000000
 639.346251,    0.000000
 643.521000,    0.000000
 647.714792,    0.000000
 651.924416,    0.000000
 656.166071,    0.000000
 660.409120,    0.000000
 664.678835,    0.000000
 664.967817,    0.000000
 668.963366,    0.000000
 673.262209,    0.000000
 677.582682,    0.000000
 681.917670,    0.000000
 686.289143,    0.000000
 690.675101,    0.000000
 695.073570,    0.000000
 699.497039,    0.000000
 703.941253,    0.000000
 708.395109,    0.000000
 712.878676,    0.000000
 717.375034,    0.000000
 721.883566,    0.000000
 726.419429,    0.000000
 730.954866,    0.000000
 735.508572,    0.000000
 740.077775,    0.000000
 744.677960,    0.000000
 749.282291,    0.000000
 753.896152,    0.000000
 758.526265,    0.000000
 763.166859,    0.000000
 767.818097,    0.000000
 772.484386,    0.000000
 777.155953,    0.000000
 781.847123,    0.000000
 786.542973,    0.000000
 787.485451,    0.000000
 788.358760,    0.000000
 788.683032,    1.415520
 789.007469,    2.881403
 789.072387,    3.183502
 789.259250,    4.060342
 789.262199,    4.074402
 789.266411,    4.094489
 789.267314,    4.098800
 789.267639,    4.100350
 789.268011,    4.102122
 789.270482,    4.113918
 789.283259,    4.174913
 789.333685,    4.416075
 789.469207,    5.068199
 789.690292,    6.147435
 790.014201,    7.764551
 790.338547,    9.433235
 790.663164,   11.152753
 790.988565,   12.925991
 791.314197,   14.750140
 791.639991,   16.624867
 791.965915,   18.550003
 792.292226,   20.527122
 792.617206,   22.545637
 792.942316,   24.614223
 793.268711,   26.740438
 793.595606,   28.919570
 793.923061,   31.152211
 794.250741,   33.436213
 794.578340,   35.769442
 794.906607,   38.157288
 795.234999,   40.595948
 795.563038,   43.081803
 795.891986,   45.624421
 796.221244,   48.219424
 796.550817,   50.866949
 796.880702,   53.567068
 797.209856,   56.311142
 797.539956,   59.113063
 797.869143,   61.957120
 798.200018,   64.865743
 798.531410,   67.829167
 798.863071,   70.845313
 799.192981,   73.895532
 799.525204,   77.017248
 799.857335,   80.188447
 800.188822,   83.403665
 800.521856,   86.684178
 800.855000,   90.016250
 801.188162,   93.398933
 801.521890,   96.837839
 801.856241,  100.333772
 802.190830,  103.882867
 802.524934,  107.477378
 802.859611,  111.128605
 803.194311,  114.830653
 803.528590,  118.578498
 803.862758,  122.375408
 804.199411,  126.251242
 804.535815,  130.175107
 804.873037,  134.159478
 805.210660,  138.199659
 805.547169,  142.277392
 805.885571,  146.429075
 806.223888,  150.630886
 806.562061,  154.882022
 806.901421,  159.199282
 807.239101,  163.546205
 807.577748,  167.956500
 807.918003,  172.439016
 808.258604,  176.977551
 808.599629,  181.573291
 808.939017,  186.198228
 809.280545,  190.903673
 809.622895,  195.672164
 809.965792,  200.500145
 810.309339,  205.389250
 810.649953,  210.288127
 810.993768,  215.284669
 811.336323,  220.314655
 811.680620,  225.422052
 812.023747,  230.563901
 812.369246,  235.793304
 812.712720,  241.043951
 813.058009,  246.374225
 813.404167,  251.770151
 813.750703,  257.224298
 814.097846,  262.740429
 814.445955,  268.324514
 814.794100,  273.961886
 815.141499,  279.639658
 815.489020,  285.371798
 815.839095,  291.198827
 816.187112,  297.044271
 816.537315,  302.979163
 816.888845,  308.989702
 817.240292,  315.052118
 817.590644,  321.148635
 817.942030,  327.316137
 818.292602,  333.522275
 818.645283,  339.818837
 818.999495,  346.196340
 819.351915,  352.594968
 819.705468,  359.067496
 820.055631,  365.530777
 820.411636,  372.155194
 820.765108,  378.786034
 821.121913,  385.494197
 821.478414,  392.211418
 821.834556,  398.936613
 822.191878,  405.698865
 822.549467,  412.480995
 822.907309,  419.282691
 823.266705,  426.128806
 823.627411,  433.014847
 823.987385,  439.901817
 824.347238,  446.801350
 824.706783,  453.709795
 825.067265,  460.651095
 825.428164,  467.615309
 825.791241,  474.636517
 826.152910,  481.645431
 826.517250,  488.721135
 826.881875,  495.817464
 827.246017,  502.919425
 827.610386,  510.040804
 827.974336,  517.168962
 828.339939,  524.344540
 828.706051,  531.545157
 829.070723,  538.732417
 829.437443,  545.975092
 829.804734,  553.244134
 830.171239,  560.512625
 830.538886,  567.818831
 830.906634,  575.142096
 831.275686,  582.506436
 831.645262,  589.896390
 832.015966,  597.324091
 832.385941,  604.752333
 832.757302,  612.223585
 833.128418,  619.705111
 833.499824,  627.207639
 833.873455,  634.770386
 834.247141,  642.349557
 834.620515,  649.937677
 834.994111,  657.545524
 835.367293,  665.160125
 835.742370,  672.828688
 836.115558,  680.473789
 836.490737,  688.174881
 836.867146,  695.916543
 837.243819,  703.678976
 837.623738,  711.523774
 838.003123,  719.373063
 838.381957,  727.226401
 838.761124,  735.102025
 839.140840,  743.004494
 839.521059,  750.932867
 839.904094,  758.935560
 840.287107,  766.953412
 840.669194,  774.967410
 841.052109,  783.014315
 841.434547,  791.066686
 841.818844,  799.173784
 842.203121,  807.296032
 842.590598,  815.501652
 842.978239,  823.726545
 843.365805,  831.965594
 843.752366,  840.198936
 844.141553,  848.503991
 844.531453,  856.840124
 844.920042,  865.163953
 845.308530,  873.501310
 845.699247,  881.902286
 846.093096,  890.386597
 846.486041,  898.867395
 846.878757,  907.359180
 847.272204,  915.882674
 847.667664,  924.465803
 848.063251,  933.067723
 848.459136,  941.692154
 848.855046,  950.333132
 849.249708,  958.962773
 849.648055,  967.689061
 850.047655,  976.458956
 850.448721,  985.277320
 850.740545,  991.703955
 850.847552,  994.062653
 851.248550, 1002.911923
 851.650954, 1011.808475
 852.053005, 1020.713483
 852.456173, 1029.659532
 852.859529, 1038.626017
 853.262937, 1047.609914
 853.664658, 1056.572358
 854.070406, 1065.640943
 854.473980, 1074.677159
 854.880962, 1083.806050
 855.288779, 1092.970072
 855.697257, 1102.165408
 856.104986, 1111.360273
 856.512307, 1120.562241
 856.919107, 1129.768679
 857.330117, 1139.086846
 857.741155, 1148.422163
 858.153223, 1157.797404
 858.566155, 1167.208840
 858.980851, 1176.677171
 859.394845, 1186.146073
 859.809368, 1195.643658
 860.224052, 1205.161534
 860.639071, 1214.703647
 861.054911, 1224.281248
 861.472031, 1233.904981
 861.890595, 1243.578746
 862.310521, 1253.300775
 862.731861, 1263.072426
 863.154442, 1272.889801
 863.576251, 1282.706138
 863.998267, 1292.544117
 864.423658, 1302.477792
 864.847615, 1312.394939
 865.274313, 1322.393255
 865.700553, 1332.397870
 866.126290, 1342.407657
 866.556278, 1352.534574
 866.985867, 1362.669285
 867.415383, 1372.819435
 867.845905, 1383.010518
 868.276104, 1393.211082
 868.708725, 1403.486296
 869.140451, 1413.757433
 869.576537, 1424.149695
 870.012846, 1434.564725
 870.446832, 1444.941574
 870.884445, 1455.422538
 871.319061, 1465.848988
 871.756899, 1476.370095
 872.193985, 1486.890442
 872.632207, 1497.455497
 873.070710, 1508.044652
 873.513333, 1518.750857
 873.956834, 1529.495932
 874.400492, 1540.262451
 874.844860, 1551.063837
 875.289620, 1561.892350
 875.734848, 1572.749918
 876.184686, 1583.737740
 876.633802, 1594.725798
 877.082341, 1605.717528
 877.532087, 1616.756630
 877.982566, 1627.831526
 878.433219, 1638.928527
 878.887957, 1650.144099
 879.339902, 1661.308652
 879.794161, 1672.548297
 880.245220, 1683.726474
 880.701407, 1695.049664
 881.159159, 1706.429767
 881.614355, 1717.764221
 882.072952, 1729.201379
 882.534446, 1740.728976
 882.994437, 1752.237160
 883.457255, 1763.834287
 883.919050, 1775.423929
 884.379512, 1786.998155
 884.844358, 1798.700771
 885.310555, 1810.455737
 885.777754, 1822.254311
 886.245476, 1834.084471
 886.714606, 1845.968667
 887.184203, 1857.883098
 887.652873, 1869.792317
 888.123872, 1881.779139
 888.596293, 1893.820610
 889.069097, 1905.890325
 889.543247, 1918.012916
 890.017522, 1930.157208
 890.493877, 1942.373334
 890.972369, 1954.662938
 891.452438, 1967.011824
 891.931618, 1979.356572
 892.409608, 1991.689186
 892.892330, 2004.162682
 893.374647, 2016.644483
 893.860088, 2029.226030
 894.343580, 2041.775871
 894.831197, 2054.451751
 895.316950, 2067.098010
 895.803820, 2079.792223
 896.293957, 2092.590602
 896.782697, 2105.371455
 897.273072, 2118.214001
 897.764624, 2131.106372
 898.254797, 2143.981475
 898.749174, 2156.986032
 899.243593, 2170.010764
 899.740672, 2183.124742
 900.235296, 2196.192980
 900.730890, 2209.305835
 901.229199, 2222.509651
 901.729354, 2235.781538
 902.228191, 2249.037591
 902.728166, 2262.342975
 903.231582, 2275.759176
 903.733718, 2289.160468
 904.237947, 2302.636839
 904.744920, 2316.205933
 905.249575, 2329.732211
 905.759700, 2343.424523
 906.265723, 2357.025985
 906.776079, 2370.763293
 907.288803, 2384.583852
 907.800335, 2398.391726
 908.313752, 2412.269942
 908.823663, 2426.072629
 909.338923, 2440.039523
 909.852405, 2453.977563
 910.371377, 2468.084228
 910.890248, 2482.207730
 911.411131, 2496.405671
 911.929621, 2510.557875
 912.449235, 2524.760222
 912.969317, 2538.994810
 913.492172, 2553.324828
 914.014535, 2567.660878
 914.539564, 2582.089690
 915.063629, 2596.511504
 915.587586, 2610.949770
 916.113105, 2625.450545
 916.642982, 2640.091234
 917.170475, 2654.685580
 917.702607, 2669.427955
 918.231010, 2684.086555
 918.760753, 2698.801750
 919.299081, 2713.775307
 919.830790, 2728.584363
 920.367982, 2743.565846
 920.900765, 2758.443866
 921.439635, 2773.511588
 921.979190, 2788.618237
 922.519948, 2803.778357
 923.061489, 2818.980199
 923.601951, 2834.171439
 924.147714, 2849.531548
 924.694114, 2864.929535
 925.237346, 2880.257945
 925.784711, 2895.722779
 926.334331, 2911.271264
 926.879394, 2926.710470
 927.430473, 2942.339929
 927.983365, 2958.040745
 928.533587, 2973.685549
 929.085306, 2989.392645
 929.638016, 3005.147690
 930.194363, 3021.026298
 930.748403, 3036.858843
 931.305107, 3052.787260
 931.866458, 3068.868688
 932.427950, 3084.974160
 932.986301, 3101.009318
 933.544443, 3117.058139
 934.109659, 3133.330273
 934.671689, 3149.530528
 935.233143, 3165.733822
 935.798453, 3182.068209
 936.369820, 3198.597666
 936.932199, 3214.886764
 937.501779, 3231.404226
 938.070120, 3247.905521
 938.639947, 3264.469712
 939.211626, 3281.107519
 939.783597, 3297.773606
 940.360123, 3314.592346
 940.933846, 3331.349070
 941.509572, 3348.184090
 942.088454, 3365.131247
 942.670036, 3382.177456
 943.247443, 3399.121010
 943.825673, 3416.108358
 944.403519, 3433.103939
 944.986854, 3450.280723
 945.563568, 3467.281970
 946.152355, 3484.658929
 946.738586, 3501.980268
 947.319510, 3519.164242
 947.905926, 3536.530179
 948.494704, 3553.985739
 949.081513, 3571.402458
 949.670868, 3588.914256
 950.252091, 3606.203493
 950.837512, 3623.636706
 951.426090, 3641.183127
 952.019675, 3658.898248
 952.612582, 3676.612532
 953.208737, 3694.443322
 953.807557, 3712.373379
 954.403160, 3730.226432
 954.995900, 3748.012770
 955.589353, 3765.839500
 956.186068, 3783.783243
 956.783145, 3801.756943
 957.387695, 3819.974936
 957.988632, 3838.103192
 958.589317, 3856.242910
 959.192254, 3874.469652
 959.798146, 3892.804851
 960.405852, 3911.214137
 961.009918, 3929.532072
 961.616263, 3947.938023
 962.223086, 3966.377358
 962.827901, 3984.774355
 963.428300, 4003.055372
 964.036335, 4021.587494
 964.649807, 4040.304147
 965.255081, 4058.789144
 965.867752, 4077.518653
 966.482198, 4096.321069
 967.096803, 4115.146985
 967.711758, 4134.002193
 968.326052, 4152.855525
 968.937397, 4171.636580
 969.556214, 4190.665577
 970.165572, 4209.421694
 970.788245, 4228.606004
 971.400805, 4247.496722
 972.021428, 4266.654247
 972.637726, 4285.696218
 973.255395, 4304.798425
 973.873419, 4323.929410
 974.493826, 4343.151962
 975.117351, 4362.489037
 975.740910, 4381.845007
 976.358558, 4401.034983
 976.984981, 4420.515318
 977.614777, 4440.118392
 978.240673, 4459.617736
 978.871688, 4479.294257
 979.499599, 4498.891564
 980.130994, 4518.615184
 980.762547, 4538.361240
 981.388682, 4557.955112
 982.016994, 4577.634236
 982.646575, 4597.370230
 983.269067, 4616.900740
 983.905965, 4636.900341
 984.540656, 4656.847825
 985.170190, 4676.650017
 985.800926, 4696.506704
 986.440157, 4716.647765
 987.078359, 4736.773330
 987.718820, 4756.987027
 988.353429, 4777.032589
 988.987872, 4797.089345
 989.626455, 4817.293460
 990.268259, 4837.616014
 990.907085, 4857.860685
 991.553088, 4878.349277
 992.200075, 4898.885603
 992.843347, 4919.320323
 993.492028, 4939.943247
 994.139021, 4960.528770
 994.775608, 4980.798949
 995.418036, 5001.270867
 996.062950, 5021.837794
 996.711661, 5042.541682
 997.356270, 5063.130317
 998.004036, 5083.835411
 998.647701, 5104.424850
 999.297063, 5125.211975
 999.943786, 5145.929979
1000.602845, 5167.058805
1001.251571, 5187.871686
1001.901280, 5208.731217
1002.558782, 5229.856289
1003.213927, 5250.920815
1003.863771, 5271.829802
1004.517961, 5292.893488
1005.169035, 5313.871588
1005.820142, 5334.865296
1006.476638, 5356.047446
1007.124224, 5376.956444
1007.784955, 5398.304397
1008.438285, 5419.427559
1009.100166, 5440.841643
1009.714017, 5460.714662
