Time, Horizontal Forces
   0.000000,    0.000000
   0.000001,    0.000000
   0.000006,    0.000000
   0.000051,    0.000000
   0.000254,    0.000000
   0.000937,    0.000000
   0.003594,    0.000000
   0.008770,    0.000000
   0.016215,    0.000000
   0.025986,    0.000000
   0.038053,    0.000000
   0.052396,    0.000000
   0.069115,    0.000000
   0.088096,    0.000000
   0.109545,    0.000000
   0.133445,    0.000000
   0.159844,    0.000000
   0.188742,    0.000000
   0.220179,    0.000000
   0.254154,    0.000000
   0.290762,    0.000000
   0.329834,    0.000000
   0.371933,    0.000000
   0.416730,    0.000000
   0.464133,    0.000000
   0.514632,    0.000000
   0.568012,    0.000000
   0.623767,    0.000000
   0.683393,    0.000000
   0.746091,    0.000000
   0.811495,    0.000000
   0.879944,    0.000000
   0.952973,    0.000000
   1.028661,    0.000000
   1.108195,    0.000000
   1.190503,    0.000000
   1.276329,    0.000000
   1.366302,    0.000000
   1.460383,    0.000000
   1.557910,    0.000000
   1.658864,    0.000000
   1.765569,    0.000000
   1.876077,    0.000000
   1.991080,    0.000000
   2.108697,    0.000000
   2.232114,    0.000000
   2.358495,    0.000000
   2.491456,    0.000000
   2.627207,    0.000000
   2.766419,    0.000000
   2.910997,    0.000000
   3.061458,    0.000000
   3.214194,    0.000000
   3.373591,    0.000000
   3.537116,    0.000000
   3.707854,    0.000000
   3.881891,    0.000000
   4.060893,    0.000000
   4.246787,    0.000000
   4.436942,    0.000000
   4.635771,    0.000000
   4.839095,    0.000000
   5.046944,    0.000000
   5.262260,    0.000000
   5.479624,    0.000000
   5.704145,    0.000000
   5.932675,    0.000000
   6.172206,    0.000000
   6.417668,    0.000000
   6.664659,    0.000000
   6.919177,    0.000000
   7.182286,    0.000000
   7.451337,    0.000000
   7.728786,    0.000000
   8.011867,    0.000000
   8.300203,    0.000000
   8.595273,    0.000000
   8.898197,    0.000000
   9.208447,    0.000000
   9.524740,    0.000000
   9.847117,    0.000000
  10.178260,    0.000000
  10.517285,    0.000000
  10.863781,    0.000000
  11.215388,    0.000000
  11.577699,    0.000000
  11.947059,    0.000000
  12.323083,    0.000000
  12.706533,    0.000000
  13.101735,    0.000000
  13.498441,    0.000000
  13.905442,    0.000000
  14.322436,    0.000000
  14.746977,    0.000000
  15.179755,    0.000000
  15.615931,    0.000000
  16.065427,    0.000000
  16.521679,    0.000000
  16.989674,    0.000000
  17.467086,    0.000000
  17.948124,    0.000000
  18.442233,    0.000000
  18.943653,    0.000000
  19.455403,    0.000000
  19.971291,    0.000000
  20.503197,    0.000000
  21.039939,    0.000000
  21.591975,    0.000000
  22.154661,    0.000000
  22.722075,    0.000000
  23.294581,    0.000000
  23.879363,    0.000000
  24.470105,    0.000000
  25.080064,    0.000000
  25.104614,    0.000000
  25.110192,    0.000000
  25.111427,    0.000000
  25.113175,    0.000000
  25.113784,    0.000000
  25.114962,    0.000000
  25.115436,    0.000000
  25.115489,    0.000000
  25.115536,    0.000000
  25.116007,    0.000000
  25.120721,    0.000000
  25.146034,    0.000000
  25.240975,    0.000000
  25.544938,    0.000000
  26.122884,    0.000000
  26.701027,    0.000000
  27.285207,    0.000000
  27.878682,    0.000000
  28.479559,    0.000000
  29.087489,    0.000000
  29.709576,    0.000000
  30.339197,    0.000000
  30.977515,    0.000000
  31.624560,    0.000000
  32.281037,    0.000000
  32.946776,    0.000000
  33.624452,    0.000000
  34.313136,    0.000000
  35.009054,    0.000000
  35.708189,    0.000000
  36.418015,    0.000000
  37.136818,    0.000000
  37.867779,    0.000000
  38.610465,    0.000000
  39.366949,    0.000000
  40.124054,    0.000000
  40.893463,    0.000000
  41.674081,    0.000000
  42.464088,    0.000000
  43.263317,    0.000000
  44.070501,    0.000000
  44.886655,    0.000000
  45.715278,    0.000000
  46.555057,    0.000000
  47.404370,    0.000000
  48.265463,    0.000000
  49.125549,    0.000000
  50.002292,    0.000000
  50.891462,    0.000000
  51.789845,    0.000000
  52.700389,    0.000000
  53.620266,    0.000000
  54.548014,    0.000000
  55.488294,    0.000000
  56.438610,    0.000000
  57.408434,    0.000000
  58.385766,    0.000000
  59.370371,    0.000000
  60.365913,    0.000000
  61.379289,    0.000000
  62.389213,    0.000000
  63.423505,    0.000000
  64.463035,    0.000000
  65.513995,    0.000000
  66.577116,    0.000000
  67.651149,    0.000000
  68.734516,    0.000000
  69.826554,    0.000000
  70.926902,    0.000000
  72.041160,    0.000000
  73.167900,    0.000000
  74.306773,    0.000000
  75.467376,    0.000000
  76.633843,    0.000000
  77.809141,    0.000000
  78.997253,    0.000000
  80.197519,    0.000000
  81.410899,    0.000000
  82.633034,    0.000000
  83.870672,    0.000000
  85.116192,    0.000000
  86.373469,    0.000000
  87.642578,    0.000000
  88.921294,    0.000000
  90.211860,    0.000000
  91.522913,    0.000000
  92.844013,    0.000000
  94.177813,    0.000000
  95.524629,    0.000000
  96.890774,    0.000000
  98.258511,    0.000000
  99.637602,    0.000000
 101.033815,    0.000000
 102.439374,    0.000000
 103.861289,    0.000000
 104.147219,    0.000000
 104.341094,    0.000000
 104.495880,    0.000000
 104.518932,    0.000000
 104.524426,    0.000000
 104.526123,    0.000000
 104.526910,    0.000000
 104.527083,    0.000000
 104.527264,    0.000000
 104.529071,    0.000000
 104.545335,    0.000000
 104.639691,    0.000000
 104.976903,    0.000000
 106.129664,    0.000000
 107.448863,    0.000000
 108.782020,    0.000000
 110.126774,    0.000000
 111.485587,    0.000000
 112.857579,    0.000000
 114.232498,    0.000000
 115.627087,    0.000000
 117.025299,    0.000000
 118.429538,    0.000000
 119.849673,    0.000000
 121.280854,    0.000000
 122.724636,    0.000000
 124.175236,    0.000000
 125.645137,    0.000000
 127.123819,    0.000000
 128.606536,    0.000000
 130.101253,    0.000000
 131.612673,    0.000000
 133.134895,    0.000000
 134.662743,    0.000000
 136.203744,    0.000000
 137.761978,    0.000000
 139.327242,    0.000000
 140.902608,    0.000000
 142.494729,    0.000000
 144.099947,    0.000000
 145.710691,    0.000000
 147.333012,    0.000000
 148.962100,    0.000000
 150.611414,    0.000000
 152.268878,    0.000000
 153.933457,    0.000000
 155.615091,    0.000000
 157.310570,    0.000000
 159.024199,    0.000000
 160.742691,    0.000000
 162.471318,    0.000000
 164.211370,    0.000000
 165.965139,    0.000000
 167.730713,    0.000000
 169.504136,    0.000000
 171.289475,    0.000000
 173.092475,    0.000000
 174.905755,    0.000000
 176.736613,    0.000000
 178.577433,    0.000000
 180.426186,    0.000000
 182.292552,    0.000000
 184.168049,    0.000000
 186.052534,    0.000000
 187.953189,    0.000000
 189.864605,    0.000000
 191.788346,    0.000000
 193.723244,    0.000000
 195.670670,    0.000000
 197.631588,    0.000000
 199.600492,    0.000000
 201.578585,    0.000000
 203.575679,    0.000000
 205.591905,    0.000000
 207.624545,    0.000000
 209.671944,    0.000000
 211.722398,    0.000000
 213.780715,    0.000000
 215.852799,    0.000000
 217.930789,    0.000000
 220.026908,    0.000000
 222.141208,    0.000000
 224.269987,    0.000000
 226.407867,    0.000000
 228.556658,    0.000000
 230.718107,    0.000000
 232.896905,    0.000000
 235.094814,    0.000000
 237.303170,    0.000000
 239.512888,    0.000000
 241.745851,    0.000000
 243.989033,    0.000000
 246.242947,    0.000000
 246.696259,    0.000000
 248.417686,    0.000000
 248.435820,    0.000000
 248.441007,    0.000000
 248.449399,    0.000000
 248.452117,    0.000000
 248.457552,    0.000000
 248.458257,    0.000000
 248.458628,    0.000000
 248.458984,    0.000000
 248.459308,    0.000000
 248.462550,    0.000000
 248.494704,    0.000000
 248.719489,    0.000000
 249.725066,    0.000000
 251.719700,    0.000000
 253.779585,    0.000000
 255.845816,    0.000000
 257.926492,    0.000000
 260.018203,    0.000000
 262.117889,    0.000000
 264.225392,    0.000000
 266.347479,    0.000000
 268.479330,    0.000000
 270.619404,    0.000000
 272.778841,    0.000000
 274.941400,    0.000000
 277.112158,    0.000000
 279.296599,    0.000000
 281.490633,    0.000000
 283.701626,    0.000000
 285.922600,    0.000000
 288.150724,    0.000000
 290.393710,    0.000000
 292.643781,    0.000000
 294.906961,    0.000000
 297.183446,    0.000000
 299.465437,    0.000000
 301.764926,    0.000000
 304.067928,    0.000000
 306.389604,    0.000000
 308.720301,    0.000000
 311.065369,    0.000000
 313.420332,    0.000000
 315.784519,    0.000000
 318.159011,    0.000000
 320.545962,    0.000000
 322.943466,    0.000000
 325.352425,    0.000000
 327.766033,    0.000000
 330.197939,    0.000000
 332.633831,    0.000000
 335.088965,    0.000000
 337.555321,    0.000000
 340.031860,    0.000000
 342.519440,    0.000000
 345.023622,    0.000000
 347.538764,    0.000000
 350.058976,    0.000000
 352.593858,    0.000000
 355.142610,    0.000000
 357.699338,    0.000000
 360.270044,    0.000000
 362.850448,    0.000000
 365.446561,    0.000000
 368.049100,    0.000000
 370.663009,    0.000000
 373.293354,    0.000000
 375.929053,    0.000000
 378.574729,    0.000000
 381.235283,    0.000000
 383.903976,    0.000000
 386.590827,    0.000000
 389.287783,    0.000000
 391.994667,    0.000000
 394.706064,    0.000000
 397.440764,    0.000000
 400.181286,    0.000000
 402.936323,    0.000000
 405.704811,    0.000000
 408.488933,    0.000000
 411.284026,    0.000000
 414.084220,    0.000000
 416.889096,    0.000000
 419.708533,    0.000000
 422.545376,    0.000000
 425.398278,    0.000000
 428.257758,    0.000000
 431.132352,    0.000000
 434.019837,    0.000000
 436.919663,    0.000000
 439.821595,    0.000000
 442.743417,    0.000000
 445.676320,    0.000000
 448.620964,    0.000000
 451.574264,    0.000000
 454.535505,    0.000000
 457.511524,    0.000000
 460.507034,    0.000000
 463.511220,    0.000000
 466.526193,    0.000000
 469.548137,    0.000000
 472.589684,    0.000000
 475.638948,    0.000000
 476.251346,    0.000000
 476.720335,    0.000000
 477.065547,    0.000000
 477.120290,    0.000000
 477.136970,    0.000000
 477.165558,    0.000000
 477.175153,    0.000000
 477.176811,    0.000000
 477.178528,    0.000000
 477.195695,    0.000000
 477.346967,    0.000000
 478.209917,    0.000000
 480.851419,    0.000000
 483.929371,    0.000000
 487.011271,    0.000000
 490.096576,    0.000000
 493.199907,    0.000000
 496.318901,    0.000000
 499.445243,    0.000000
 502.589472,    0.000000
 505.741627,    0.000000
 508.909317,    0.000000
 512.088997,    0.000000
 515.278295,    0.000000
 518.478661,    0.000000
 521.689262,    0.000000
 524.917627,    0.000000
 528.156191,    0.000000
 531.404500,    0.000000
 534.665889,    0.000000
 537.942055,    0.000000
 541.228510,    0.000000
 544.523422,    0.000000
 547.837509,    0.000000
 551.167379,    0.000000
 554.502284,    0.000000
 557.850130,    0.000000
 561.210674,    0.000000
 564.587181,    0.000000
 567.973018,    0.000000
 571.371712,    0.000000
 574.776435,    0.000000
 578.195979,    0.000000
 581.627918,    0.000000
 585.077831,    0.000000
 588.539660,    0.000000
 592.010643,    0.000000
 595.491964,    0.000000
 598.985547,    0.000000
 602.491253,    0.000000
 606.006502,    0.000000
 609.534511,    0.000000
 613.078588,    0.000000
 616.637030,    0.000000
 620.210215,    0.000000
 623.792146,    0.000000
 627.388022,    0.000000
 630.987118,    0.000000
 634.607694,    0.000000
 638.239199,    0.000000
 641.885623,    0.000000
 645.541759,    0.000000
 649.206249,    0.000000
 652.891571,    0.000000
 656.587050,    0.000000
 660.292644,    0.000000
 664.016097,    0.000000
 667.742726,    0.000000
 671.481226,    0.000000
 675.242879,    0.000000
 679.003419,    0.000000
 682.786868,    0.000000
 686.585612,    0.000000
 690.392208,    0.000000
 694.213453,    0.000000
 698.039404,    0.000000
 701.880478,    0.000000
 705.740575,    0.000000
 709.601892,    0.000000
 713.488985,    0.000000
 717.379775,    0.000000
 721.284794,    0.000000
 723.174928,    0.000000
 725.212289,    0.000000
 729.149558,    0.000000
 733.087521,    0.000000
 737.042221,    0.000000
 741.008085,    0.000000
 744.992700,    0.000000
 748.983789,    0.000000
 752.991009,    0.000000
 757.010780,    0.000000
 761.042227,    0.000000
 765.083601,    0.000000
 769.142019,    0.000000
 773.212553,    0.000000
 777.292638,    0.000000
 781.381331,    0.000000
 785.482819,    0.000000
 789.591904,    0.000000
 793.707916,    0.000000
 797.843449,    0.000000
 801.990962,    0.000000
 806.141231,    0.000000
 810.303845,    0.000000
 814.479445,    0.000000
 818.666912,    0.000000
 822.865317,    0.000000
 827.070061,    0.000000
 827.238674,    0.000000
 827.246700,    0.000000
 827.252017,    0.000000
 827.255947,    0.000000
 827.258260,    0.000000
 827.259242,    0.000000
 827.260216,    0.000000
 827.269963,    0.000000
 827.367426,    0.000000
 827.956406,    0.000000
 830.575043,    0.000000
 834.897452,    0.000000
 839.275145,    0.000000
 843.659444,    0.000000
 848.060213,    0.000000
 852.472241,    0.000000
 856.888696,    0.000000
 861.321198,    0.000000
 865.757644,    0.000000
 870.199087,    0.000000
 874.655158,    0.000000
 879.114212,    0.000000
 883.589951,    0.000000
 888.073867,    0.000000
 888.427707,    2.791402
 888.782141,    5.635787
 889.136923,    8.531349
 889.491206,   11.471128
 889.846349,   14.466355
 890.201897,   17.513427
 890.554873,   20.586482
 890.910129,   23.727411
 891.265611,   26.918610
 891.619823,   30.146476
 891.977112,   33.450701
 892.329444,   36.756958
 892.686839,   40.158754
 893.044582,   43.612476
 893.403094,   47.122348
 893.761724,   50.682154
 894.117184,   54.258758
 894.473824,   57.895241
 894.833578,   61.612056
 895.192512,   65.369169
 895.552234,   69.183268
 895.912595,   73.053004
 896.272848,   76.970468
 896.634052,   80.947239
 896.993903,   84.957919
 897.356115,   89.043869
 897.717019,   93.164045
 898.078435,   97.338925
 898.438850,  101.550948
 898.802166,  105.845854
 899.164024,  110.172573
 899.526519,  114.555813
 899.891576,  119.019362
 900.255267,  123.515573
 900.618874,  128.059884
 900.982924,  132.658867
 901.347740,  137.316772
 901.713311,  142.033728
 902.077837,  146.786473
 902.444214,  151.612737
 902.811420,  156.499578
 903.174576,  161.381619
 903.543911,  166.396226
 903.913543,  171.465087
 904.282970,  176.581298
 904.653344,  181.760850
 905.024120,  186.996370
 905.394524,  192.276913
 905.765262,  197.612447
 906.135364,  202.988926
 906.506769,  208.434521
 906.879481,  213.949748
 907.251440,  219.504275
 907.625111,  225.134935
 907.996907,  230.787770
 908.371556,  236.534545
 908.746634,  242.338830
 909.121642,  248.192924
 909.497222,  254.106870
 909.871806,  260.055919
 910.246643,  266.059594
 910.624630,  272.164818
 910.999272,  278.266904
 911.377305,  284.475159
 911.756325,  290.751077
 912.136224,  297.093156
 912.516362,  303.490949
 912.893904,  309.896303
 913.275030,  316.413942
 913.654205,  322.949710
 914.033172,  329.533099
 914.416222,  336.239138
 914.798573,  342.984990
 915.184103,  349.839298
 915.567938,  356.715908
 915.953538,  363.676596
 916.336457,  370.641041
 916.723902,  377.740316
 917.110359,  384.874267
 917.494901,  392.025215
 917.881533,  399.267377
 918.270998,  406.615577
 918.659624,  414.001063
 919.051314,  421.498200
 919.440364,  428.998121
 919.833531,  436.630962
 920.225975,  444.303653
 920.618335,  452.028401
 921.012752,  459.847597
 921.406136,  467.700286
 921.800399,  475.624420
 922.193525,  483.579466
 922.588037,  491.616341
 922.982420,  499.704452
 923.381475,  507.902190
 923.778656,  516.075257
 924.177406,  524.294421
 924.575422,  532.512243
 924.975795,  540.792591
 925.374602,  549.054344
 925.774533,  557.353192
 926.176363,  565.705343
 926.579144,  574.091193
 926.983324,  582.520195
 927.386454,  590.941231
 927.788583,  599.355215
 928.191887,  607.807649
 928.595450,  616.279365
 928.999001,  624.764702
 929.406835,  633.354106
 929.815136,  641.967467
 930.223612,  650.598627
 930.632141,  659.244956
 931.040670,  667.905344
 931.450245,  676.601980
 931.860590,  685.329038
 932.271483,  694.081872
 932.684773,  702.899996
 933.097207,  711.714009
 933.512041,  720.593590
 933.924664,  729.439986
 934.338568,  738.327993
 934.753310,  747.248182
 935.169618,  756.216326
 935.583686,  765.150338
 935.999377,  774.133506
 936.416144,  783.154137
 936.834283,  792.218727
 937.251356,  801.274403
 937.671294,  810.406553
 938.091619,  819.561487
 938.510792,  828.705545
 938.932361,  837.916214
 939.355886,  847.184029
 939.777131,  856.416277
 940.198938,  865.675101
 940.626280,  875.069966
 941.053290,  884.472094
 941.482681,  893.941324
 941.911990,  903.423409
 942.342080,  912.937391
 942.772317,  922.469303
 943.200525,  931.970767
 943.633433,  941.591226
 944.067084,  951.242960
 944.500022,  960.893573
 944.935950,  970.625642
 945.372737,  980.391771
 945.806127,  990.096644
 946.242078,  999.873591
 946.680209, 1009.714303
 947.116636, 1019.531497
 947.554883, 1029.404426
 947.993907, 1039.309683
 948.435051, 1049.277700
 948.876543, 1059.268535
 949.317345, 1069.258609
 949.761195, 1079.332723
 950.202277, 1089.358894
 950.646102, 1099.462317
 951.090247, 1109.587959
 951.535089, 1119.744428
 951.983135, 1129.989131
 952.432596, 1140.281355
 952.881094, 1150.566637
 953.329621, 1160.867633
 953.686757, 1169.080464
 953.779441, 1171.213425
 954.229069, 1181.569828
 954.681064, 1191.995900
 955.134190, 1202.463259
 955.586263, 1212.921428
 956.040319, 1223.440618
 956.496407, 1234.022162
 956.954028, 1244.654584
 957.411783, 1255.305469
 957.868624, 1265.950346
 958.327298, 1276.653190
 958.789548, 1287.454962
 959.249478, 1298.217853
 959.713375, 1309.089078
 960.178795, 1320.011578
 960.641116, 1330.876745
 961.106951, 1341.839993
 961.573676, 1352.839760
 962.043175, 1363.920563
 962.511843, 1374.997393
 962.983070, 1386.150406
 963.455779, 1397.354282
 963.931294, 1408.640574
 964.406131, 1419.926655
 964.879252, 1431.187663
 965.356106, 1442.553391
 965.832316, 1453.919600
 966.308348, 1465.297337
 966.786619, 1476.744427
 967.267595, 1488.272205
 967.745946, 1499.752926
 968.232605, 1511.449210
 968.713563, 1523.024462
 969.198879, 1534.720644
 969.684018, 1546.428622
 970.172349, 1558.229806
 970.658142, 1569.985710
 971.146022, 1581.808221
 971.634951, 1593.672243
 972.123064, 1605.532513
 972.612477, 1617.440433
 973.103168, 1629.395549
 973.595715, 1641.412023
 974.087584, 1653.428064
 974.582448, 1665.533482
 975.077029, 1677.648139
 975.574655, 1689.853683
 976.070816, 1702.039496
 976.567788, 1714.261402
 977.066151, 1726.533734
 977.570050, 1738.958826
 978.071462, 1751.338992
 978.576321, 1763.820709
 979.083620, 1776.379348
 979.590440, 1788.942667
 980.097302, 1801.523491
 980.607767, 1814.210386
 981.116621, 1826.873777
 981.626624, 1839.582290
 982.138630, 1852.357297
 982.652928, 1865.206180
 983.165971, 1878.040322
 983.684627, 1891.031644
 984.199899, 1903.954895
 984.719470, 1917.002749
 985.237264, 1930.022690
 985.757568, 1943.122493
 986.276946, 1956.215645
 986.800995, 1969.443414
 987.322940, 1982.634832
 987.844736, 1995.839161
 988.371539, 2009.187018
 988.894049, 2022.442797
 989.422079, 2035.855404
 989.949881, 2049.279077
 990.477291, 2062.709520
 991.004000, 2076.138766
 991.533703, 2089.661091
 992.062016, 2103.164580
 992.597359, 2116.864648
 993.128712, 2130.479419
 993.661560, 2144.149195
 994.195679, 2157.868358
 994.733163, 2171.690813
 995.273775, 2185.610741
 995.812252, 2199.492580
 996.350989, 2213.397945
 996.888147, 2227.279274
 997.433025, 2241.377075
 997.975057, 2255.418136
 998.517238, 2269.479844
 999.068037, 2283.782237
 999.612490, 2297.936756
1000.157834, 2312.131259
1000.709086, 2326.496561
1001.259750, 2340.863578
1001.814690, 2355.359325
1002.367454, 2369.815290
1002.918572, 2384.245110
1003.472512, 2398.765758
1004.022085, 2413.188644
1004.577029, 2427.769313
1005.135866, 2442.469279
1005.701325, 2457.360778
1006.262943, 2472.168304
1006.827892, 2487.080866
1007.390590, 2501.951113
1007.953454, 2516.842725
1008.519992, 2531.848666
1009.084614, 2546.820866
1009.654522, 2561.950369
1010.216249, 2576.879516
1010.782052, 2591.933761
1011.346028, 2606.956086
1011.921168, 2622.292889
1012.495500, 2637.625350
1013.068191, 2652.930978
1013.640371, 2668.239874
1014.216679, 2683.676202
1014.796198, 2699.215684
1015.375700, 2714.771809
1015.954813, 2730.334545
1016.533807, 2745.911018
1017.115540, 2761.578151
1017.703092, 2777.419255
1018.284496, 2793.111537
1018.870064, 2808.933193
1019.448627, 2824.582249
1020.042827, 2840.671416
1020.626428, 2856.490460
1021.215407, 2872.472165
1021.808628, 2888.586000
1022.394072, 2904.505329
1022.984017, 2920.563754
1023.578012, 2936.749279
1024.171170, 2952.928849
1024.768105, 2969.228336
1025.357569, 2985.340407
1025.951888, 3001.601745
1026.545096, 3017.849253
1027.137802, 3034.099415
1027.737886, 3050.568504
1028.339196, 3067.087980
1028.944378, 3083.730638
1029.548808, 3100.369422
1030.152550, 3117.005879
1030.759652, 3133.751677
1031.356428, 3150.228876
1031.968159, 3167.135637
1032.574940, 3183.922149
1033.186602, 3200.860331
1033.794188, 3217.702070
1034.403532, 3234.608891
1035.013464, 3251.548390
1035.623649, 3268.511207
1036.236332, 3285.559763
1036.858720, 3302.895010
1037.467878, 3319.877941
1038.075324, 3336.828990
1038.695264, 3354.144912
1039.314400, 3371.454674
1039.936889, 3388.874479
1040.558548, 3406.287331
1041.176493, 3423.612134
1041.799582, 3441.097237
1042.419872, 3458.519767
1043.043677, 3476.057000
1043.668437, 3493.637021
1044.291108, 3511.174075
1044.917826, 3528.840997
1045.545708, 3546.556584
1046.168044, 3564.131259
1046.799341, 3581.974784
1047.421559, 3599.577149
1048.058075, 3617.599811
1048.695292, 3635.658211
1049.326978, 3653.575489
1049.960683, 3671.565589
1050.588742, 3689.410675
1051.220444, 3707.374528
1051.853545, 3725.393413
1052.489190, 3743.499993
1053.118265, 3761.434428
1053.756590, 3779.647716
1054.393106, 3797.824526
1055.024297, 3815.864075
1055.663995, 3834.161710
1056.305204, 3852.517598
1056.948529, 3870.949119
1057.583438, 3889.154183
1058.225878, 3907.589940
1058.866560, 3925.989938
1059.505036, 3944.341085
1060.149941, 3962.891614
1060.792393, 3981.386092
1061.429143, 3999.730644
1062.074903, 4018.349123
1062.718199, 4036.910805
1063.370348, 4055.742416
1064.022579, 4074.590862
1064.673238, 4093.408187
1065.324947, 4112.270112
1065.969021, 4130.924971
1066.621680, 4149.842538
1067.274960, 4168.792120
1067.922012, 4187.574791
1068.572086, 4206.458894
1069.220679, 4225.313549
1069.877350, 4244.416789
1070.536469, 4263.605006
1071.190971, 4282.672440
1071.841950, 4301.650563
1072.503817, 4320.959642
1073.160848, 4340.141034
1073.825014, 4359.544228
1074.487188, 4378.902607
1075.146213, 4398.182148
1075.802621, 4417.398084
1076.467050, 4436.861960
1077.130879, 4456.321304
1077.791858, 4475.709974
1078.449150, 4495.003186
1079.117181, 4514.624413
1079.777576, 4534.033979
1080.442601, 4553.592210
1081.105233, 4573.092540
1081.771444, 4592.710627
1082.438004, 4612.351399
1083.102915, 4631.955807
1083.764911, 4651.486360
1084.427113, 4671.034915
1085.090907, 4690.642373
1085.758559, 4710.375686
1086.423760, 4730.048354
1087.092926, 4749.850067
1087.763038, 4769.691532
1088.434593, 4789.587382
1089.105311, 4809.470015
1089.775995, 4829.363112
1090.453977, 4849.484247
1091.129901, 4869.555776
1091.801855, 4889.520666
1092.471112, 4909.416492
1093.143017, 4929.402038
1093.823253, 4949.646499
1094.498574, 4969.755663
1095.180531, 4990.073433
1095.858806, 5010.292382
1096.536888, 5030.516286
1097.214745, 5050.744108
1097.887957, 5070.843721
1098.563990, 5091.037888
1099.242797, 5111.325271
1099.918982, 5131.544443
1100.597884, 5151.855019
1101.279158, 5172.246668
1101.957527, 5192.561295
1102.638912, 5212.976174
1103.317180, 5233.307376
1103.999411, 5253.767125
1104.680024, 5274.187947
1105.360650, 5294.618637
1106.044991, 5315.170340
1106.625829, 5332.621083
