Time, Horizontal Forces
   0.000000,    0.000000
   0.000001,    0.000000
   0.000008,    0.000000
   0.000085,    0.000000
   0.000543,    0.000000
   0.003035,    0.000000
   0.008605,    0.000000
   0.017027,    0.000000
   0.028368,    0.000000
   0.042545,    0.000000
   0.059724,    0.000000
   0.079970,    0.000000
   0.103103,    0.000000
   0.129491,    0.000000
   0.158826,    0.000000
   0.191095,    0.000000
   0.226678,    0.000000
   0.265799,    0.000000
   0.307931,    0.000000
   0.353373,    0.000000
   0.402443,    0.000000
   0.455538,    0.000000
   0.512453,    0.000000
   0.573216,    0.000000
   0.637873,    0.000000
   0.706223,    0.000000
   0.778401,    0.000000
   0.855089,    0.000000
   0.935289,    0.000000
   1.020031,    0.000000
   1.109395,    0.000000
   1.203550,    0.000000
   1.303199,    0.000000
   1.407188,    0.000000
   1.514678,    0.000000
   1.627005,    0.000000
   1.745700,    0.000000
   1.870521,    0.000000
   2.000834,    0.000000
   2.133768,    0.000000
   2.273696,    0.000000
   2.420510,    0.000000
   2.571663,    0.000000
   2.731894,    0.000000
   2.895533,    0.000000
   3.065821,    0.000000
   3.240139,    0.000000
   3.421501,    0.000000
   3.609797,    0.000000
   3.806069,    0.000000
   4.008971,    0.000000
   4.218648,    0.000000
   4.436204,    0.000000
   4.660889,    0.000000
   4.892956,    0.000000
   5.129459,    0.000000
   5.374645,    0.000000
   5.627893,    0.000000
   5.890608,    0.000000
   6.160723,    0.000000
   6.438773,    0.000000
   6.724886,    0.000000
   7.022169,    0.000000
   7.324638,    0.000000
   7.636490,    0.000000
   7.957718,    0.000000
   8.286979,    0.000000
   8.621683,    0.000000
   8.969777,    0.000000
   9.326003,    0.000000
   9.697506,    0.000000
  10.072618,    0.000000
  10.457639,    0.000000
  10.850334,    0.000000
  11.255033,    0.000000
  11.669350,    0.000000
  12.095084,    0.000000
  12.530679,    0.000000
  12.976238,    0.000000
  13.438790,    0.000000
  13.907145,    0.000000
  14.390212,    0.000000
  14.880089,    0.000000
  15.380551,    0.000000
  15.890951,    0.000000
  16.413626,    0.000000
  16.941474,    0.000000
  17.492912,    0.000000
  18.049814,    0.000000
  18.622370,    0.000000
  19.204568,    0.000000
  19.803849,    0.000000
  20.413755,    0.000000
  21.031570,    0.000000
  21.661013,    0.000000
  22.302960,    0.000000
  22.958545,    0.000000
  23.628370,    0.000000
  24.310903,    0.000000
  25.011444,    0.000000
  25.151941,    0.000000
  25.244034,    0.000000
  25.298016,    0.000000
  25.331131,    0.000000
  25.336123,    0.000000
  25.341706,    0.000000
  25.342762,    0.000000
  25.344595,    0.000000
  25.345117,    0.000000
  25.346042,    0.000000
  25.346385,    0.000000
  25.346706,    0.000000
  25.349603,    0.000000
  25.373300,    0.000000
  25.473118,    0.000000
  25.756008,    0.000000
  26.335332,    0.000000
  26.984387,    0.000000
  27.647984,    0.000000
  28.320925,    0.000000
  29.014078,    0.000000
  29.715630,    0.000000
  30.429133,    0.000000
  31.149998,    0.000000
  31.881400,    0.000000
  32.627384,    0.000000
  33.382127,    0.000000
  34.154394,    0.000000
  34.938206,    0.000000
  35.731106,    0.000000
  36.539000,    0.000000
  37.356124,    0.000000
  38.178072,    0.000000
  39.018910,    0.000000
  39.872719,    0.000000
  40.739745,    0.000000
  41.622054,    0.000000
  42.509123,    0.000000
  43.415510,    0.000000
  44.333504,    0.000000
  45.264490,    0.000000
  46.212208,    0.000000
  47.165610,    0.000000
  48.138151,    0.000000
  49.117998,    0.000000
  50.115250,    0.000000
  51.124475,    0.000000
  52.148655,    0.000000
  53.183272,    0.000000
  54.239034,    0.000000
  55.303378,    0.000000
  56.382353,    0.000000
  57.477169,    0.000000
  58.574483,    0.000000
  59.694759,    0.000000
  60.837406,    0.000000
  61.988398,    0.000000
  63.156071,    0.000000
  64.339061,    0.000000
  65.532160,    0.000000
  66.741814,    0.000000
  67.970516,    0.000000
  69.216061,    0.000000
  70.477910,    0.000000
  71.755337,    0.000000
  73.042509,    0.000000
  74.341551,    0.000000
  75.667354,    0.000000
  77.003418,    0.000000
  78.342644,    0.000000
  79.709884,    0.000000
  81.099533,    0.000000
  82.499030,    0.000000
  83.909217,    0.000000
  85.343321,    0.000000
  86.787946,    0.000000
  88.250783,    0.000000
  89.735056,    0.000000
  91.223066,    0.000000
  92.737523,    0.000000
  94.258092,    0.000000
  95.811012,    0.000000
  97.367374,    0.000000
  98.946308,    0.000000
 100.550367,    0.000000
 102.157216,    0.000000
 103.787647,    0.000000
 104.117795,    0.000000
 104.371482,    0.000000
 104.558574,    0.000000
 104.685758,    0.000000
 104.780914,    0.000000
 104.854139,    0.000000
 104.926580,    0.000000
 104.986336,    0.000000
 105.032408,    0.000000
 105.040490,    0.000000
 105.049596,    0.000000
 105.063736,    0.000000
 105.064668,    0.000000
 105.065346,    0.000000
 105.065758,    0.000000
 105.066053,    0.000000
 105.066240,    0.000000
 105.066426,    0.000000
 105.068280,    0.000000
 105.084581,    0.000000
 105.167418,    0.000000
 105.476980,    0.000000
 106.530458,    0.000000
 108.003205,    0.000000
 109.514056,    0.000000
 111.025431,    0.000000
 112.549878,    0.000000
 114.085887,    0.000000
 115.642192,    0.000000
 117.204949,    0.000000
 118.790106,    0.000000
 120.387749,    0.000000
 121.999894,    0.000000
 123.622366,    0.000000
 125.260489,    0.000000
 126.920135,    0.000000
 128.599179,    0.000000
 130.288736,    0.000000
 131.987252,    0.000000
 133.701326,    0.000000
 135.429733,    0.000000
 137.178381,    0.000000
 138.935489,    0.000000
 140.714111,    0.000000
 142.502035,    0.000000
 144.306939,    0.000000
 146.126567,    0.000000
 147.963002,    0.000000
 149.818335,    0.000000
 151.682443,    0.000000
 153.570817,    0.000000
 155.462407,    0.000000
 157.369084,    0.000000
 159.296143,    0.000000
 161.240515,    0.000000
 163.204593,    0.000000
 165.171094,    0.000000
 167.163577,    0.000000
 169.173025,    0.000000
 171.198185,    0.000000
 173.242093,    0.000000
 175.306428,    0.000000
 177.384017,    0.000000
 179.475199,    0.000000
 181.579313,    0.000000
 183.700674,    0.000000
 185.847484,    0.000000
 188.004616,    0.000000
 190.178461,    0.000000
 192.371337,    0.000000
 194.575604,    0.000000
 196.804972,    0.000000
 199.038238,    0.000000
 201.299108,    0.000000
 203.573504,    0.000000
 205.860577,    0.000000
 208.177869,    0.000000
 210.512853,    0.000000
 212.861510,    0.000000
 215.228214,    0.000000
 217.610951,    0.000000
 220.009537,    0.000000
 222.421567,    0.000000
 224.847668,    0.000000
 227.300555,    0.000000
 229.762977,    0.000000
 232.238070,    0.000000
 234.734186,    0.000000
 237.248478,    0.000000
 239.780101,    0.000000
 242.328431,    0.000000
 244.888867,    0.000000
 247.472358,    0.000000
 247.576573,    0.000000
 247.663087,    0.000000
 247.744089,    0.000000
 247.823179,    0.000000
 247.841340,    0.000000
 247.845672,    0.000000
 247.854268,    0.000000
 247.856560,    0.000000
 247.857053,    0.000000
 247.857357,    0.000000
 247.857670,    0.000000
 247.860805,    0.000000
 247.890870,    0.000000
 248.052201,    0.000000
 248.733079,    0.000000
 250.519037,    0.000000
 252.826695,    0.000000
 255.123957,    0.000000
 257.438960,    0.000000
 259.767134,    0.000000
 262.115750,    0.000000
 264.473375,    0.000000
 266.841262,    0.000000
 269.217778,    0.000000
 271.620188,    0.000000
 274.029603,    0.000000
 276.454934,    0.000000
 278.899772,    0.000000
 281.362607,    0.000000
 283.834668,    0.000000
 286.318271,    0.000000
 288.816223,    0.000000
 291.332805,    0.000000
 293.861066,    0.000000
 296.401973,    0.000000
 298.959004,    0.000000
 301.528724,    0.000000
 304.123014,    0.000000
 306.726655,    0.000000
 309.349425,    0.000000
 311.980440,    0.000000
 314.624537,    0.000000
 317.290111,    0.000000
 319.964296,    0.000000
 322.656444,    0.000000
 325.361839,    0.000000
 328.082547,    0.000000
 330.818119,    0.000000
 333.564005,    0.000000
 336.329382,    0.000000
 339.106092,    0.000000
 341.902517,    0.000000
 344.717459,    0.000000
 347.541434,    0.000000
 350.384424,    0.000000
 353.242031,    0.000000
 356.121833,    0.000000
 359.006064,    0.000000
 361.908019,    0.000000
 364.829026,    0.000000
 367.760755,    0.000000
 370.708421,    0.000000
 373.676852,    0.000000
 376.655768,    0.000000
 379.650040,    0.000000
 382.662365,    0.000000
 385.690893,    0.000000
 388.735897,    0.000000
 391.802527,    0.000000
 394.876217,    0.000000
 397.969627,    0.000000
 401.075680,    0.000000
 404.194782,    0.000000
 407.332508,    0.000000
 410.484859,    0.000000
 413.665580,    0.000000
 416.851505,    0.000000
 420.057001,    0.000000
 423.281249,    0.000000
 426.524504,    0.000000
 429.779950,    0.000000
 433.054237,    0.000000
 436.334324,    0.000000
 439.636074,    0.000000
 442.958512,    0.000000
 446.294935,    0.000000
 449.641790,    0.000000
 453.009764,    0.000000
 456.395553,    0.000000
 459.791287,    0.000000
 463.198882,    0.000000
 466.631235,    0.000000
 467.320214,    0.000000
 469.947310,    0.000000
 469.954431,    0.000000
 469.959511,    0.000000
 469.962431,    0.000000
 469.966123,    0.000000
 470.003042,    0.000000
 470.256397,    0.000000
 471.601360,    0.000000
 474.710822,    0.000000
 478.192264,    0.000000
 481.679087,    0.000000
 485.175064,    0.000000
 488.694551,    0.000000
 492.215300,    0.000000
 495.761471,    0.000000
 499.323123,    0.000000
 502.900993,    0.000000
 506.489073,    0.000000
 510.105122,    0.000000
 513.729980,    0.000000
 517.373162,    0.000000
 521.031038,    0.000000
 524.705129,    0.000000
 528.403384,    0.000000
 532.117634,    0.000000
 535.841792,    0.000000
 539.591390,    0.000000
 543.366160,    0.000000
 547.152306,    0.000000
 550.947547,    0.000000
 554.757184,    0.000000
 558.584143,    0.000000
 562.439263,    0.000000
 566.309698,    0.000000
 570.191784,    0.000000
 574.086171,    0.000000
 578.006924,    0.000000
 581.940686,    0.000000
 585.894267,    0.000000
 589.859474,    0.000000
 593.848217,    0.000000
 597.852964,    0.000000
 601.879575,    0.000000
 605.912263,    0.000000
 609.969531,    0.000000
 614.049015,    0.000000
 618.134583,    0.000000
 622.237548,    0.000000
 626.361603,    0.000000
 630.509510,    0.000000
 634.668245,    0.000000
 638.836454,    0.000000
 643.021900,    0.000000
 647.232030,    0.000000
 651.457517,    0.000000
 655.708116,    0.000000
 659.976685,    0.000000
 664.261985,    0.000000
 668.565343,    0.000000
 672.875125,    0.000000
 677.203973,    0.000000
 681.561447,    0.000000
 683.459948,    0.000000
 685.922373,    0.000000
 690.315840,    0.000000
 694.723863,    0.000000
 699.154493,    0.000000
 703.600140,    0.000000
 708.077360,    0.000000
 712.560391,    0.000000
 717.069141,    0.000000
 721.595615,    0.000000
 726.138517,    0.000000
 730.707678,    0.000000
 735.282321,    0.000000
 739.883183,    0.000000
 744.486140,    0.000000
 749.125145,    0.000000
 753.777967,    0.000000
 758.442259,    0.000000
 763.117370,    0.000000
 767.810693,    0.000000
 772.512142,    0.000000
 777.236063,    0.000000
 781.968472,    0.000000
 786.712022,    0.000000
 791.467584,    0.000000
 796.231453,    0.000000
 797.184745,    0.000000
 797.384141,    0.000000
 797.586763,    0.000000
 797.590886,    0.000000
 797.594509,    0.000000
 797.595369,    0.000000
 797.596183,    0.000000
 797.604323,    0.000000
 797.680764,    0.000000
 798.185434,    0.000000
 800.524700,    0.000000
 805.496324,    0.000000
 810.489053,    0.000000
 815.489611,    0.000000
 815.822494,    2.728226
 816.155094,    5.504585
 816.488498,    8.338139
 816.821238,   11.216480
 817.152915,   14.135743
 817.486897,   17.125600
 817.819822,   20.156375
 818.154690,   23.255357
 818.489782,   26.407178
 818.823765,   29.599117
 819.159332,   32.856819
 819.494957,   36.165867
 819.830930,   39.529143
 820.165793,   42.931911
 820.501322,   46.391962
 820.838428,   49.919094
 821.175353,   53.495266
 821.511471,   57.113606
 821.847791,   60.784719
 822.185143,   64.517846
 822.523261,   68.310410
 822.861778,   72.158517
 823.199501,   76.048535
 823.538015,   79.998579
 823.876904,   84.004017
 824.215354,   88.055201
 824.554252,   92.162670
 824.894433,   96.336802
 825.234704,  100.563310
 825.575795,  104.851340
 825.917637,  109.200350
 826.258876,  113.593148
 826.599645,  118.031162
 826.941924,  122.540219
 827.285299,  127.115443
 827.625969,  131.705978
 827.968027,  136.366375
 828.311022,  141.091001
 828.655581,  145.888961
 829.000011,  150.737034
 829.344677,  155.640303
 829.690497,  160.612033
 830.036541,  165.639178
 830.381978,  170.709544
 830.727321,  175.830406
 831.073691,  181.018508
 831.420584,  186.266595
 831.769027,  191.590574
 832.116576,  196.953310
 832.463283,  202.355168
 832.811554,  207.833587
 833.161545,  213.391695
 833.512081,  219.011367
 833.860121,  224.643503
 834.210056,  230.358712
 834.560692,  236.138111
 834.911900,  241.979776
 835.264301,  247.894357
 835.617155,  253.869786
 835.969969,  259.897782
 836.322503,  265.974096
 836.674459,  272.093379
 837.027191,  278.279046
 837.381240,  284.541008
 837.735552,  290.860962
 838.090234,  297.202020
 838.444227,  303.545229
 838.799299,  309.922256
 839.155272,  316.330004
 839.510936,  322.746733
 839.866864,  329.182706
 840.225301,  335.678711
 840.580829,  342.136490
 840.939064,  348.658010
 841.297818,  355.203619
 841.657427,  361.779502
 842.016502,  368.360278
 842.377600,  374.992848
 842.738339,  381.633538
 843.097316,  388.256388
 843.457194,  394.910450
 843.818350,  401.602786
 844.179837,  408.315927
 844.541794,  415.052493
 844.905714,  421.840379
 845.269086,  428.632828
 845.632245,  435.436013
 845.996146,  442.267851
 846.359986,  449.113267
 846.725458,  456.004183
 847.090823,  462.907897
 847.456069,  469.824117
 847.822057,  476.769192
 848.186654,  483.702563
 848.553558,  490.694584
 848.920366,  497.699570
 849.288769,  504.749880
 849.657624,  511.823764
 850.025664,  518.896821
 850.394846,  526.006715
 850.764562,  533.141774
 851.134283,  540.291809
 851.504588,  547.468032
 851.874667,  554.654733
 852.245353,  561.868100
 852.617956,  569.133731
 852.990621,  576.415567
 853.364384,  583.733885
 853.737415,  591.052841
 854.109816,  598.374349
 854.484953,  605.764660
 854.859613,  613.160613
 855.232812,  620.542632
 855.610154,  628.021684
 855.987506,  635.516103
 856.365445,  643.037343
 856.744425,  650.594514
 857.123166,  658.162111
 857.501044,  665.727564
 857.879099,  673.311640
 858.259561,  680.959196
 858.639528,  688.611985
 859.019503,  696.280085
 859.398980,  703.953241
 859.780769,  711.688331
 860.164566,  719.479432
 860.547572,  727.269770
 860.931298,  735.090065
 861.316361,  742.952958
 861.701410,  750.830938
 862.087440,  758.744384
 862.472182,  766.646720
 862.858164,  774.589864
 863.244074,  782.546854
 863.628245,  790.483155
 864.015436,  798.497153
 864.404962,  806.574968
 864.793774,  814.653408
 865.184145,  822.779735
 865.576484,  830.962661
 865.968260,  839.149448
 866.360133,  847.353791
 866.752526,  855.584607
 867.147066,  863.876141
 867.540736,  872.165000
 867.836200,  878.396347
 867.934290,  880.467019
 868.327190,  888.770726
 868.723463,  897.161398
 869.122940,  905.635817
 869.519596,  914.066150
 869.918943,  922.569484
 870.318549,  931.094220
 870.717946,  939.630343
 871.119954,  948.238208
 871.519516,  956.809531
 871.919099,  965.397062
 872.320228,  974.033623
 872.722652,  982.713963
 873.126464,  991.440206
 873.529387, 1000.163125
 873.934305, 1008.945239
 874.340008, 1017.760400
 874.745640, 1026.590021
 875.152371, 1035.459618
 875.559600, 1044.356135
 875.968712, 1053.309939
 876.378625, 1062.297472
 876.789103, 1071.313618
 877.201574, 1080.389854
 877.615391, 1089.512105
 878.026466, 1098.590154
 878.441793, 1107.778485
 878.855166, 1116.939933
 879.271878, 1126.191833
 879.686004, 1135.402652
 880.102916, 1144.691850
 880.521081, 1154.025482
 880.937739, 1163.341903
 881.353630, 1172.657458
 881.773864, 1182.086787
 882.194763, 1191.547666
 882.615973, 1201.032113
 883.036844, 1210.525484
 883.460664, 1220.102050
 883.881680, 1229.631791
 884.303816, 1239.203407
 884.728670, 1248.853284
 885.156392, 1258.585170
 885.581262, 1268.268859
 886.009898, 1278.055199
 886.437488, 1287.834480
 886.866252, 1297.657408
 887.295662, 1307.511996
 887.724857, 1317.378429
 888.155251, 1327.289264
 888.587086, 1337.250191
 889.021134, 1347.279167
 889.455572, 1357.334220
 889.888297, 1367.366539
 890.326698, 1377.547661
 890.760957, 1387.649568
 891.199119, 1397.859411
 891.636947, 1408.078602
 892.074932, 1418.318574
 892.514514, 1428.613040
 892.957033, 1438.993603
 893.397710, 1449.348198
 893.840287, 1459.764713
 894.282480, 1470.189443
 894.725623, 1480.653813
 895.169843, 1491.160924
 895.614511, 1501.695923
 896.061602, 1512.305749
 896.508971, 1522.939590
 896.958332, 1533.638315
 897.403655, 1544.258184
 897.854382, 1555.024392
 898.306609, 1565.844050
 898.759921, 1576.707363
 899.215562, 1587.644253
 899.673747, 1598.660164
 900.127947, 1609.597986
 900.585175, 1620.626492
 901.042341, 1631.671303
 901.497488, 1642.684940
 901.955499, 1653.785598
 902.416031, 1664.965232
 902.876051, 1676.150261
 903.337229, 1687.381299
 903.800373, 1698.678176
 904.261594, 1709.945964
 904.724530, 1721.273502
 905.189475, 1732.668159
 905.658035, 1744.169567
 906.119937, 1755.525322
 906.590986, 1767.124128
 907.060129, 1778.694147
 907.530574, 1790.314454
 907.999237, 1801.908796
 908.471362, 1813.606913
 908.942507, 1825.298882
 909.413435, 1837.003521
 909.888650, 1848.832930
 910.363159, 1860.663009
 910.841616, 1872.609906
 911.322222, 1884.629024
 911.801461, 1896.632411
 912.282172, 1908.691151
 912.764937, 1920.819985
 913.246392, 1932.934388
 913.729714, 1945.114315
 914.213007, 1957.311995
 914.696154, 1969.524413
 915.181000, 1981.798291
 915.670218, 1994.201568
 916.158511, 2006.600101
 916.647152, 2019.026116
 917.134296, 2031.432592
 917.624924, 2043.946450
 918.113133, 2056.417097
 918.607425, 2069.061919
 919.098691, 2081.647987
 919.596833, 2094.429171
 920.097542, 2107.295382
 920.594195, 2120.076271
 921.092030, 2132.906470
 921.589068, 2145.734925
 922.087607, 2158.620904
 922.588941, 2171.598084
 923.091255, 2184.619618
 923.591785, 2197.613767
 924.095591, 2210.711926
 924.602027, 2223.897556
 925.108429, 2237.101415
 925.618186, 2250.411986
 926.128289, 2263.750841
 926.637736, 2277.091705
 927.146167, 2290.425033
 927.656519, 2303.827795
 928.167871, 2317.275946
 928.682260, 2330.823218
 929.199921, 2344.476081
 929.715983, 2358.106109
 930.232827, 2371.776107
 930.747955, 2385.419862
 931.269264, 2399.246731
 931.786403, 2412.982222
 932.304381, 2426.759164
 932.824874, 2440.622215
 933.346148, 2454.525345
 933.869418, 2468.501067
 934.396912, 2482.609118
 934.922016, 2496.672693
 935.451505, 2510.873264
 935.977075, 2524.988107
 936.508301, 2539.274402
 937.038415, 2553.550322
 937.569553, 2567.873295
 938.101455, 2582.236371
 938.635981, 2596.689908
 939.171542, 2611.191061
 939.705581, 2625.670509
 940.243433, 2640.272956
 940.780725, 2654.879792
 941.321204, 2669.592978
 941.861555, 2684.322350
 942.398962, 2698.990907
 942.938930, 2713.748863
 943.482695, 2728.630236
 944.024452, 2743.476233
 944.568804, 2758.412905
 945.109448, 2773.267224
 945.655396, 2788.286773
 946.207702, 2803.501164
 946.752085, 2818.516771
 947.303504, 2833.746169
 947.853814, 2848.964596
 948.406443, 2864.266871
 948.957511, 2879.545503
 949.507710, 2894.819530
 950.067622, 2910.383083
 950.620515, 2925.771163
 951.177831, 2941.301987
 951.738523, 2956.946730
 952.294960, 2972.492383
 952.858256, 2988.249453
 953.420896, 3004.008035
 953.988314, 3019.920450
 954.549499, 3035.677764
 955.107208, 3051.356778
 955.672143, 3067.258526
 956.239404, 3083.245517
 956.806027, 3099.234174
 957.376220, 3115.343358
 957.943751, 3131.396948
 958.510016, 3147.434196
 959.079740, 3163.588922
 959.645053, 3179.637849
 960.217662, 3195.913418
 960.788426, 3212.156016
 961.363860, 3228.551118
 961.939928, 3244.983904
 962.518813, 3261.516767
 963.095449, 3278.004959
 963.673731, 3294.559728
 964.251857, 3311.129522
 964.832242, 3327.783602
 965.413351, 3344.477928
 965.998551, 3361.309433
 966.581346, 3378.091293
 967.160013, 3394.773475
 967.742532, 3411.585956
 968.325183, 3428.421448
 968.919385, 3445.610453
 969.506696, 3462.619593
 970.095827, 3479.700819
 970.683825, 3496.768480
 971.274294, 3513.927175
 971.862961, 3531.052693
 972.459148, 3548.416389
 973.054917, 3565.787358
 973.648945, 3583.126873
 974.243617, 3600.504374
 974.839555, 3617.938035
 975.433078, 3635.320052
 976.037502, 3653.040741
 976.635230, 3670.584292
 977.237876, 3688.291427
 977.843693, 3706.111069
 978.449177, 3723.940269
 979.053776, 3741.762554
 979.657646, 3759.582409
 980.265704, 3777.545003
 980.872489, 3795.489036
 981.480067, 3813.475545
 982.084509, 3831.387976
 982.691753, 3849.402216
 983.298391, 3867.417194
 983.910616, 3885.616923
 984.517269, 3903.669632
 985.129126, 3921.895857
 985.742549, 3940.187489
 986.352214, 3958.385547
 986.967947, 3976.783350
 987.586045, 3995.270553
 988.199837, 4013.647470
 988.816479, 4032.128155
 989.431212, 4050.569989
 990.053974, 4069.271249
 990.673788, 4087.902440
 991.292843, 4106.529131
 991.922250, 4125.485950
 992.556283, 4144.601051
 993.187270, 4163.643044
 993.807174, 4182.368717
 994.427230, 4201.116858
 995.054226, 4220.092952
 995.672232, 4238.814693
 996.304973, 4258.000933
 996.938131, 4277.218059
 997.562049, 4296.172566
 998.195792, 4315.443496
 998.828979, 4334.715546
 999.461042, 4353.971211
1000.096057, 4373.334667
1000.725104, 4392.533705
1001.360955, 4411.958078
1001.992026, 4431.253870
1002.625426, 4450.638295
1003.264359, 4470.209588
1003.908636, 4489.962370
1004.539179, 4509.311228
1005.176814, 4528.894880
1005.813335, 4548.461483
1006.456145, 4568.238691
1007.093663, 4587.870101
1007.734481, 4607.620171
1008.372238, 4627.292722
1009.009168, 4646.956448
1009.656735, 4666.965522
1010.298583, 4686.814715
1010.942588, 4706.747295
1011.591685, 4726.854345
1012.231776, 4746.698822
1012.876814, 4766.713133
1013.530424, 4787.010134
1014.179036, 4807.168472
1014.828903, 4827.382212
1015.476540, 4847.542874
1016.125429, 4867.758666
1016.777524, 4888.090536
1017.432475, 4908.527722
1018.084788, 4928.898669
1018.739971, 4949.375311
1019.390978, 4969.737283
1020.041907, 4990.112480
1020.697610, 5010.652887
1021.350992, 5031.136180
1022.013032, 5051.906749
1022.669952, 5072.532280
1023.325034, 5093.115474
1023.986168, 5113.904345
1024.647060, 5134.701051
1025.304349, 5155.399551
1025.955273, 5175.912485
1026.618293, 5196.821665
1027.284401, 5217.843484
1027.945930, 5238.735782
1028.603828, 5259.528115
1029.260951, 5280.310516
1029.917916, 5301.102340
1030.583319, 5322.175828
1031.251114, 5343.339749
1031.921228, 5364.591811
1032.585521, 5385.673692
1033.253538, 5406.888072
1033.915962, 5427.938979
1034.249745, 5438.551421
