Time, Horizontal Forces
   0.000000,    0.000000
   0.000001,    0.000000
   0.000010,    0.000000
   0.000165,    0.000000
   0.000906,    0.000000
   0.003878,    0.000000
   0.009197,    0.000000
   0.016801,    0.000000
   0.026649,    0.000000
   0.038817,    0.000000
   0.053367,    0.000000
   0.070270,    0.000000
   0.089427,    0.000000
   0.111137,    0.000000
   0.135183,    0.000000
   0.161653,    0.000000
   0.190899,    0.000000
   0.222436,    0.000000
   0.256730,    0.000000
   0.293710,    0.000000
   0.332874,    0.000000
   0.374826,    0.000000
   0.420181,    0.000000
   0.468295,    0.000000
   0.519009,    0.000000
   0.573030,    0.000000
   0.629770,    0.000000
   0.689907,    0.000000
   0.752710,    0.000000
   0.819295,    0.000000
   0.888689,    0.000000
   0.961195,    0.000000
   1.037710,    0.000000
   1.117281,    0.000000
   1.200804,    0.000000
   1.288183,    0.000000
   1.379665,    0.000000
   1.473406,    0.000000
   1.570169,    0.000000
   1.671274,    0.000000
   1.776728,    0.000000
   1.887692,    0.000000
   2.002431,    0.000000
   2.121006,    0.000000
   2.244075,    0.000000
   2.371810,    0.000000
   2.504607,    0.000000
   2.640912,    0.000000
   2.782805,    0.000000
   2.928371,    0.000000
   3.078173,    0.000000
   3.235231,    0.000000
   3.397406,    0.000000
   3.562111,    0.000000
   3.732541,    0.000000
   3.907539,    0.000000
   4.091574,    0.000000
   4.278486,    0.000000
   4.470909,    0.000000
   4.667243,    0.000000
   4.870426,    0.000000
   5.079616,    0.000000
   5.294193,    0.000000
   5.514990,    0.000000
   5.740566,    0.000000
   5.971629,    0.000000
   6.208607,    0.000000
   6.456622,    0.000000
   6.706495,    0.000000
   6.963874,    0.000000
   7.226829,    0.000000
   7.496465,    0.000000
   7.774878,    0.000000
   8.059158,    0.000000
   8.349294,    0.000000
   8.649138,    0.000000
   8.952195,    0.000000
   9.261746,    0.000000
   9.582220,    0.000000
   9.907815,    0.000000
  10.239774,    0.000000
  10.583311,    0.000000
  10.928569,    0.000000
  11.281768,    0.000000
  11.642269,    0.000000
  12.010671,    0.000000
  12.389360,    0.000000
  12.771389,    0.000000
  13.161104,    0.000000
  13.567929,    0.000000
  13.977958,    0.000000
  14.393994,    0.000000
  14.821963,    0.000000
  15.256141,    0.000000
  15.698965,    0.000000
  16.150205,    0.000000
  16.612735,    0.000000
  17.082660,    0.000000
  17.557448,    0.000000
  18.043880,    0.000000
  18.534084,    0.000000
  19.035959,    0.000000
  19.545728,    0.000000
  20.066775,    0.000000
  20.593832,    0.000000
  21.131081,    0.000000
  21.681736,    0.000000
  22.244016,    0.000000
  22.811716,    0.000000
  23.386520,    0.000000
  23.973538,    0.000000
  24.577856,    0.000000
  24.698939,    0.000000
  24.798636,    0.000000
  25.103839,    0.000000
  25.108509,    0.000000
  25.112574,    0.000000
  25.113470,    0.000000
  25.113910,    0.000000
  25.114706,    0.000000
  25.114810,    0.000000
  25.114870,    0.000000
  25.114926,    0.000000
  25.115479,    0.000000
  25.120447,    0.000000
  25.152281,    0.000000
  25.279337,    0.000000
  25.673277,    0.000000
  26.264771,    0.000000
  26.844688,    0.000000
  27.429127,    0.000000
  28.028125,    0.000000
  28.629911,    0.000000
  29.245352,    0.000000
  29.870629,    0.000000
  30.503840,    0.000000
  31.146934,    0.000000
  31.800066,    0.000000
  32.458399,    0.000000
  33.123687,    0.000000
  33.801557,    0.000000
  34.488694,    0.000000
  35.186614,    0.000000
  35.893623,    0.000000
  36.614023,    0.000000
  37.335990,    0.000000
  38.071039,    0.000000
  38.814894,    0.000000
  39.565626,    0.000000
  40.327566,    0.000000
  41.102904,    0.000000
  41.887439,    0.000000
  42.675608,    0.000000
  43.478260,    0.000000
  44.292672,    0.000000
  45.113610,    0.000000
  45.941456,    0.000000
  46.785475,    0.000000
  47.638233,    0.000000
  48.501588,    0.000000
  49.372286,    0.000000
  50.254449,    0.000000
  51.142663,    0.000000
  52.046696,    0.000000
  52.962047,    0.000000
  53.880411,    0.000000
  54.809296,    0.000000
  55.751913,    0.000000
  56.705841,    0.000000
  57.671234,    0.000000
  58.650170,    0.000000
  59.633674,    0.000000
  60.632449,    0.000000
  61.644203,    0.000000
  62.669200,    0.000000
  63.702929,    0.000000
  64.749582,    0.000000
  65.804696,    0.000000
  66.866533,    0.000000
  67.944999,    0.000000
  69.025887,    0.000000
  70.124255,    0.000000
  71.232793,    0.000000
  72.352021,    0.000000
  73.487722,    0.000000
  74.634906,    0.000000
  75.790774,    0.000000
  76.959483,    0.000000
  78.144415,    0.000000
  79.341050,    0.000000
  80.543252,    0.000000
  81.756680,    0.000000
  82.983465,    0.000000
  84.219771,    0.000000
  85.468472,    0.000000
  86.731270,    0.000000
  88.011320,    0.000000
  89.305378,    0.000000
  90.606500,    0.000000
  91.914189,    0.000000
  93.232949,    0.000000
  94.573382,    0.000000
  95.917871,    0.000000
  97.278426,    0.000000
  98.652852,    0.000000
 100.033656,    0.000000
 101.432892,    0.000000
 102.847364,    0.000000
 104.274395,    0.000000
 104.331804,    0.000000
 104.380892,    0.000000
 104.428592,    0.000000
 104.486914,    0.000000
 104.499953,    0.000000
 104.515657,    0.000000
 104.518984,    0.000000
 104.520606,    0.000000
 104.523851,    0.000000
 104.524217,    0.000000
 104.524429,    0.000000
 104.526549,    0.000000
 104.529199,    0.000000
 104.555698,    0.000000
 104.704837,    0.000000
 105.233085,    0.000000
 106.462419,    0.000000
 107.789108,    0.000000
 109.127921,    0.000000
 110.475074,    0.000000
 111.833982,    0.000000
 113.196882,    0.000000
 114.578508,    0.000000
 115.970095,    0.000000
 117.373348,    0.000000
 118.784784,    0.000000
 120.209030,    0.000000
 121.639144,    0.000000
 123.084385,    0.000000
 124.538332,    0.000000
 126.008637,    0.000000
 127.486492,    0.000000
 128.971896,    0.000000
 130.473043,    0.000000
 131.982619,    0.000000
 133.501065,    0.000000
 135.035527,    0.000000
 136.577192,    0.000000
 138.130599,    0.000000
 139.702251,    0.000000
 141.282079,    0.000000
 142.877756,    0.000000
 144.477184,    0.000000
 146.086367,    0.000000
 147.715595,    0.000000
 149.357840,    0.000000
 151.004513,    0.000000
 152.673304,    0.000000
 154.347321,    0.000000
 156.035869,    0.000000
 157.733772,    0.000000
 159.438942,    0.000000
 161.152497,    0.000000
 162.887646,    0.000000
 164.631627,    0.000000
 166.389627,    0.000000
 168.158128,    0.000000
 169.936827,    0.000000
 171.736138,    0.000000
 173.543857,    0.000000
 175.364172,    0.000000
 177.188453,    0.000000
 179.026379,    0.000000
 180.883758,    0.000000
 182.752174,    0.000000
 184.631112,    0.000000
 186.523413,    0.000000
 188.423758,    0.000000
 190.341490,    0.000000
 192.268390,    0.000000
 194.209932,    0.000000
 196.159725,    0.000000
 198.119644,    0.000000
 200.095890,    0.000000
 202.085889,    0.000000
 204.089450,    0.000000
 206.106731,    0.000000
 208.129991,    0.000000
 210.162001,    0.000000
 212.219772,    0.000000
 214.282762,    0.000000
 216.360272,    0.000000
 218.450477,    0.000000
 220.557152,    0.000000
 222.678209,    0.000000
 224.805358,    0.000000
 226.940994,    0.000000
 229.097799,    0.000000
 231.264882,    0.000000
 233.449089,    0.000000
 235.642525,    0.000000
 237.845081,    0.000000
 240.064474,    0.000000
 242.293771,    0.000000
 244.541948,    0.000000
 246.797286,    0.000000
 247.252305,    0.000000
 247.562373,    0.000000
 247.808821,    0.000000
 247.981100,    0.000000
 248.110404,    0.000000
 248.241242,    0.000000
 248.351365,    0.000000
 248.383122,    0.000000
 248.430524,    0.000000
 248.440558,    0.000000
 248.444489,    0.000000
 248.452350,    0.000000
 248.452899,    0.000000
 248.453403,    0.000000
 248.458440,    0.000000
 248.500332,    0.000000
 248.758821,    0.000000
 250.153645,    0.000000
 252.204596,    0.000000
 254.270186,    0.000000
 256.341197,    0.000000
 258.419400,    0.000000
 260.509832,    0.000000
 262.613448,    0.000000
 264.723772,    0.000000
 266.851357,    0.000000
 268.987117,    0.000000
 271.126858,    0.000000
 273.278840,    0.000000
 275.443959,    0.000000
 277.624700,    0.000000
 279.809237,    0.000000
 282.010702,    0.000000
 284.224647,    0.000000
 286.448340,    0.000000
 288.676772,    0.000000
 290.923271,    0.000000
 293.173828,    0.000000
 295.438680,    0.000000
 297.712689,    0.000000
 299.999486,    0.000000
 302.292198,    0.000000
 304.606753,    0.000000
 306.923663,    0.000000
 309.255724,    0.000000
 311.602002,    0.000000
 313.952601,    0.000000
 316.316523,    0.000000
 318.696169,    0.000000
 321.083803,    0.000000
 323.482354,    0.000000
 325.888734,    0.000000
 328.309719,    0.000000
 330.744686,    0.000000
 333.189919,    0.000000
 335.645561,    0.000000
 338.111985,    0.000000
 340.591004,    0.000000
 343.077154,    0.000000
 345.570726,    0.000000
 348.092666,    0.000000
 350.620576,    0.000000
 353.147025,    0.000000
 355.694196,    0.000000
 358.251667,    0.000000
 360.822329,    0.000000
 363.398601,    0.000000
 365.995311,    0.000000
 368.597746,    0.000000
 371.208284,    0.000000
 373.833227,    0.000000
 376.480886,    0.000000
 379.135406,    0.000000
 381.799935,    0.000000
 384.471215,    0.000000
 387.154927,    0.000000
 389.853790,    0.000000
 392.562241,    0.000000
 395.285251,    0.000000
 398.019833,    0.000000
 400.770798,    0.000000
 403.520237,    0.000000
 406.280813,    0.000000
 409.065213,    0.000000
 411.863278,    0.000000
 414.668473,    0.000000
 417.473846,    0.000000
 420.303825,    0.000000
 423.148627,    0.000000
 426.000860,    0.000000
 428.861878,    0.000000
 431.733089,    0.000000
 434.622482,    0.000000
 437.516588,    0.000000
 440.428837,    0.000000
 443.347736,    0.000000
 446.279462,    0.000000
 449.227657,    0.000000
 452.189871,    0.000000
 455.155432,    0.000000
 458.135311,    0.000000
 461.128275,    0.000000
 464.134975,    0.000000
 467.155423,    0.000000
 470.191050,    0.000000
 473.231749,    0.000000
 476.281594,    0.000000
 476.895619,    0.000000
 476.995303,    0.000000
 477.104647,    0.000000
 477.129210,    0.000000
 477.145985,    0.000000
 477.154379,    0.000000
 477.160371,    0.000000
 477.163906,    0.000000
 477.166098,    0.000000
 477.168109,    0.000000
 477.188223,    0.000000
 477.350871,    0.000000
 478.348376,    0.000000
 481.049664,    0.000000
 484.130598,    0.000000
 487.208604,    0.000000
 490.305057,    0.000000
 493.410502,    0.000000
 496.531215,    0.000000
 499.664893,    0.000000
 502.808467,    0.000000
 505.962954,    0.000000
 509.127187,    0.000000
 512.306183,    0.000000
 515.498674,    0.000000
 518.698441,    0.000000
 521.908129,    0.000000
 525.128021,    0.000000
 528.363034,    0.000000
 531.615135,    0.000000
 534.872782,    0.000000
 538.149246,    0.000000
 541.433415,    0.000000
 544.734366,    0.000000
 548.044498,    0.000000
 551.372469,    0.000000
 554.706441,    0.000000
 558.055257,    0.000000
 561.412990,    0.000000
 564.784452,    0.000000
 568.169678,    0.000000
 571.570894,    0.000000
 574.975521,    0.000000
 578.402491,    0.000000
 581.835930,    0.000000
 585.279553,    0.000000
 588.734200,    0.000000
 592.198809,    0.000000
 595.687748,    0.000000
 599.177868,    0.000000
 602.686368,    0.000000
 606.203454,    0.000000
 609.734365,    0.000000
 613.279536,    0.000000
 616.837040,    0.000000
 620.408984,    0.000000
 623.987563,    0.000000
 627.583953,    0.000000
 631.188732,    0.000000
 634.806796,    0.000000
 638.434691,    0.000000
 642.085185,    0.000000
 645.742487,    0.000000
 649.412652,    0.000000
 653.093048,    0.000000
 656.787535,    0.000000
 660.501703,    0.000000
 664.218514,    0.000000
 667.942299,    0.000000
 671.684810,    0.000000
 675.442890,    0.000000
 679.203805,    0.000000
 682.986262,    0.000000
 686.775558,    0.000000
 690.585319,    0.000000
 694.399464,    0.000000
 698.238649,    0.000000
 702.077842,    0.000000
 705.929615,    0.000000
 709.795180,    0.000000
 713.678758,    0.000000
 717.574157,    0.000000
 721.482926,    0.000000
 723.135691,    0.000000
 725.400682,    0.000000
 729.338670,    0.000000
 733.283323,    0.000000
 737.242115,    0.000000
 741.216677,    0.000000
 745.199791,    0.000000
 749.190050,    0.000000
 753.197218,    0.000000
 757.219131,    0.000000
 761.256429,    0.000000
 765.301057,    0.000000
 769.350576,    0.000000
 773.420338,    0.000000
 777.496243,    0.000000
 781.586386,    0.000000
 785.682760,    0.000000
 789.788378,    0.000000
 793.914038,    0.000000
 798.046655,    0.000000
 802.194756,    0.000000
 806.351941,    0.000000
 810.517342,    0.000000
 814.699502,    0.000000
 818.891333,    0.000000
 823.085526,    0.000000
 823.926993,    0.000000
 826.892482,    0.000000
 827.060721,    0.000000
 827.113261,    0.000000
 827.181026,    0.000000
 827.197118,    0.000000
 827.227893,    0.000000
 827.235189,    0.000000
 827.237378,    0.000000
 827.239674,    0.000000
 827.241874,    0.000000
 827.263873,    0.000000
 827.415840,    0.000000
 828.260068,    0.000000
 831.958842,    0.000000
 836.332353,    0.000000
 840.709690,    0.000000
 845.099718,    0.000000
 849.495139,    0.000000
 853.900543,    0.000000
 858.316265,    0.000000
 862.750858,    0.000000
 867.192798,    0.000000
 871.641970,    0.000000
 876.091085,    0.000000
 880.559256,    0.000000
 885.031210,    0.000000
 885.382975,    2.363083
 885.734928,    4.775501
 886.087516,    7.240412
 886.440210,    9.754245
 886.792984,   12.316803
 887.146018,   14.929403
 887.497997,   17.582170
 887.851438,   20.293985
 888.205480,   23.058651
 888.558821,   25.865991
 888.913006,   28.728188
 889.266662,   31.634234
 889.620808,   34.592378
 889.975362,   37.602086
 890.331203,   40.671065
 890.686244,   43.781462
 891.041647,   46.943268
 891.398286,   50.164486
 891.754132,   53.426933
 892.111508,   56.751874
 892.469453,   60.130806
 892.827223,   63.556772
 893.185319,   67.034515
 893.543068,   70.557489
 893.901864,   74.139418
 894.258693,   77.750148
 894.618256,   81.437109
 894.975826,   85.152159
 895.335682,   88.939544
 895.695000,   92.769995
 896.055368,   96.660410
 896.416451,  100.607497
 896.777956,  104.608237
 897.140012,  108.664211
 897.502386,  112.772915
 897.864320,  116.925750
 898.227948,  121.147261
 898.592304,  125.426738
 898.956059,  129.748617
 899.320102,  134.123278
 899.684215,  138.548141
 900.048312,  143.022119
 900.413972,  147.564788
 900.779741,  152.158459
 901.144334,  156.786760
 901.511417,  161.496288
 901.875651,  166.218656
 902.242637,  171.026142
 902.608999,  175.875046
 902.976333,  180.786451
 903.343890,  185.750545
 903.712252,  190.775324
 904.080933,  195.854349
 904.451014,  201.002751
 904.822677,  206.223599
 905.193692,  211.485815
 905.564663,  216.797735
 905.935061,  222.151624
 906.305737,  227.559624
 906.678574,  233.049551
 907.051435,  238.590431
 907.425063,  244.193367
 907.798709,  249.847267
 908.172831,  255.559077
 908.548632,  261.347476
 908.924829,  267.193145
 909.300901,  273.087997
 909.678708,  279.061361
 910.056997,  285.093893
 910.434494,  291.165199
 910.811336,  297.277131
 911.191724,  303.498127
 911.571609,  309.762750
 911.950983,  316.070588
 912.328403,  322.397150
 912.707270,  328.799129
 913.089500,  335.309701
 913.470657,  341.853934
 913.853447,  348.478216
 914.235807,  355.147117
 914.619333,  361.888498
 915.005114,  368.722060
 915.389265,  375.579251
 915.776099,  382.537005
 916.163651,  389.560696
 916.548446,  396.587056
 916.935766,  403.712114
 917.323290,  410.893821
 917.712165,  418.153612
 918.102244,  425.489210
 918.492705,  432.885438
 918.883291,  440.337522
 919.274574,  447.856406
 919.665129,  455.414716
 920.059263,  463.096107
 920.452256,  470.809258
 920.845525,  478.581668
 921.239356,  486.419070
 921.632306,  494.292679
 922.026988,  502.254852
 922.423547,  510.309146
 922.823887,  518.495241
 923.220950,  526.628140
 923.622199,  534.860744
 924.023055,  543.099270
 924.422595,  551.324611
 924.820672,  559.533568
 925.222130,  567.826135
 925.624258,  576.146471
 926.026180,  584.476447
 926.426575,  592.788566
 926.827869,  601.133143
 927.234061,  609.593621
 927.640966,  618.083056
 928.047527,  626.579400
 928.453233,  635.071881
 928.859082,  643.581342
 929.268269,  652.174913
 929.677613,  660.785929
 930.086949,  669.410915
 930.497804,  678.082091
 930.909741,  686.790339
 931.319848,  695.474012
 931.730557,  704.184540
 932.143880,  712.964708
 932.556376,  721.741488
 932.970388,  730.564749
 933.383697,  739.387210
 933.800193,  748.292001
 934.214868,  757.172103
 934.631377,  766.105716
 935.049715,  775.092921
 935.469179,  784.118748
 935.888284,  793.151231
 936.306764,  802.184551
 936.726151,  811.251781
 937.148173,  820.390426
 937.571890,  829.580293
 937.992508,  838.717346
 938.414339,  847.895101
 938.839923,  857.169051
 939.264870,  866.443664
 939.689227,  875.719866
 940.115893,  885.061074
 940.544653,  894.462782
 940.969296,  903.788658
 941.398984,  913.239933
 941.829097,  922.715257
 942.257882,  932.175887
 942.687766,  941.675343
 943.120788,  951.258878
 943.552383,  960.825510
 943.987011,  970.474161
 944.422546,  980.157760
 944.856569,  989.822485
 945.288499,  999.455190
 945.726969, 1009.248573
 946.164535, 1019.036644
 946.602116, 1028.839853
 947.041247, 1038.692675
 947.478189, 1048.511112
 947.917362, 1058.394473
 948.356909, 1068.301052
 948.798742, 1078.274048
 949.242603, 1088.307806
 949.686649, 1098.360780
 950.133432, 1108.490820
 950.578494, 1118.596876
 951.025990, 1128.773296
 951.473031, 1138.954417
 951.919768, 1149.143671
 952.368315, 1159.389251
 952.819941, 1169.720373
 953.271706, 1180.069916
 953.524438, 1185.866428
 953.727514, 1190.527489
 954.182145, 1200.973434
 954.637582, 1211.453232
 955.092103, 1221.927279
 955.548638, 1232.463040
 956.004721, 1243.003689
 956.462338, 1253.595120
 956.920968, 1264.225383
 957.380237, 1274.885831
 957.843052, 1285.644150
 958.303260, 1296.357266
 958.766595, 1307.158671
 959.228236, 1317.936026
 959.690822, 1328.750855
 960.155377, 1339.627174
 960.618620, 1350.488195
 961.088124, 1361.511668
 961.557577, 1372.549651
 962.026095, 1383.581289
 962.500044, 1394.756638
 962.971205, 1405.881998
 963.445403, 1417.094887
 963.919821, 1428.328821
 964.394314, 1439.580335
 964.871809, 1450.918926
 965.347278, 1462.225242
 965.823798, 1473.572321
 966.302648, 1484.990764
 966.782245, 1496.442930
 967.263326, 1507.946495
 967.744603, 1519.470700
 968.227736, 1531.055312
 968.710925, 1542.657280
 969.194119, 1554.275301
 969.678291, 1565.932783
 970.161248, 1577.576875
 970.648572, 1589.342252
 971.134714, 1601.095057
 971.627640, 1613.028120
 972.116010, 1624.866989
 972.608697, 1636.826675
 973.102515, 1648.830084
 973.594845, 1660.813455
 974.089951, 1672.880628
 974.582293, 1684.896514
 975.075403, 1696.947185
 975.571624, 1709.090023
 976.071937, 1721.349341
 976.574038, 1733.668912
 977.079582, 1746.089587
 977.579245, 1758.382087
 978.083584, 1770.806019
 978.585216, 1783.179586
 979.089508, 1795.635089
 979.595175, 1808.140962
 980.101907, 1820.689577
 980.611848, 1833.334214
 981.118567, 1845.915343
 981.627539, 1858.568806
 982.141779, 1871.369897
 982.655040, 1884.163202
 983.170482, 1897.027552
 983.683488, 1909.847618
 984.200523, 1922.785009
 984.718742, 1935.768726
 985.239885, 1948.842478
 985.757756, 1961.850810
 986.278289, 1974.942668
 986.800057, 1988.082296
 987.322001, 2001.243016
 987.849432, 2014.559001
 988.374636, 2027.835600
 988.900430, 2041.143841
 989.427797, 2054.508699
 989.953853, 2067.857016
 990.482243, 2081.281300
 991.015238, 2094.839494
 991.544838, 2108.328110
 992.075666, 2121.864747
 992.611684, 2135.550660
 993.148883, 2149.283748
 993.689478, 2163.120799
 994.227523, 2176.909585
 994.767430, 2190.763111
 995.303465, 2204.534053
 995.845183, 2218.467936
 996.386413, 2232.406232
 996.929848, 2246.418297
 997.471647, 2260.405034
 998.020612, 2274.593924
 998.565144, 2288.685176
 999.112900, 2302.876880
 999.661856, 2317.116698
1000.208714, 2331.318986
1000.759761, 2345.647080
1001.313540, 2360.063342
1001.868666, 2374.531828
1002.424235, 2389.028982
1002.980455, 2403.560279
1003.533060, 2418.014037
1004.088805, 2432.566836
1004.649842, 2447.275342
1005.207678, 2461.916993
1005.768767, 2476.661048
1006.326902, 2491.344403
1006.888165, 2506.126996
1007.452275, 2521.001620
1008.018297, 2535.943785
1008.588999, 2551.026769
1009.158490, 2566.094987
1009.720698, 2580.987336
1010.290278, 2596.091932
1010.858968, 2611.189917
1011.431925, 2626.418288
1012.008248, 2641.753345
1012.579086, 2656.959432
1013.153461, 2672.276739
1013.730980, 2687.694986
1014.307830, 2703.112415
1014.892661, 2718.760485
1015.471873, 2734.275346
1016.051067, 2749.806675
1016.636051, 2765.510415
1017.217322, 2781.131519
1017.800367, 2796.817208
1018.379390, 2812.411454
1018.961969, 2828.118230
1019.545026, 2843.854656
1020.130744, 2859.679723
1020.720570, 2875.632716
1021.307312, 2891.519119
1021.898985, 2907.555926
1022.482998, 2923.401685
1023.069764, 2939.338637
1023.668615, 2955.620834
1024.262975, 2971.797803
1024.855853, 2987.951143
1025.457008, 3004.346926
1026.053012, 3020.618979
1026.653453, 3037.029012
1027.257236, 3053.547270
1027.858660, 3070.017827
1028.455746, 3086.386088
1029.065125, 3103.108204
1029.667687, 3119.659957
1030.267345, 3136.148349
1030.869962, 3152.734518
1031.477548, 3169.474032
1032.082187, 3186.148782
1032.687601, 3202.861267
1033.293039, 3219.590702
1033.902759, 3236.454813
1034.507059, 3253.185197
1035.118803, 3270.137947
1035.730158, 3287.096226
1036.343261, 3304.119263
1036.954032, 3321.093680
1037.571160, 3338.261029
1038.181185, 3355.246786
1038.795372, 3372.364433
1039.410357, 3389.520298
1040.024924, 3406.680402
1040.645978, 3424.037689
1041.270659, 3441.512559
1041.892976, 3458.937390
1042.518762, 3476.475457
1043.138471, 3493.859016
1043.765734, 3511.470465
1044.389487, 3528.999149
1045.013560, 3546.552569
1045.641868, 3564.240897
1046.267677, 3581.874565
1046.893941, 3599.536606
1047.522112, 3617.267965
1048.145684, 3634.884873
1048.775224, 3652.685781
1049.403937, 3670.478671
1050.031429, 3688.252244
1050.667550, 3706.285667
1051.302842, 3724.311045
1051.936359, 3742.301297
1052.576158, 3760.485337
1053.207783, 3778.452130
1053.844866, 3796.589267
1054.482191, 3814.748375
1055.123874, 3833.046811
1055.761225, 3851.236658
1056.399647, 3869.471920
1057.039354, 3887.758711
1057.681542, 3906.131236
1058.330652, 3924.716846
1058.979476, 3943.309221
1059.621174, 3961.712064
1060.261545, 3980.091285
1060.898809, 3998.395562
1061.542046, 4016.885712
1062.185850, 4035.406462
1062.832241, 4054.015933
1063.473955, 4072.504816
1064.117347, 4091.056081
1064.777735, 4110.111869
1065.425962, 4128.830941
1066.074781, 4147.581062
1066.721570, 4166.286375
1067.361845, 4184.816790
1068.014643, 4203.723378
1068.669154, 4222.693439
1069.318204, 4241.518797
1069.967005, 4260.350390
1070.614101, 4279.145781
1071.265765, 4298.087157
1071.919116, 4317.090936
1072.571253, 4336.072583
1073.226133, 4355.147306
1073.883209, 4374.299174
1074.539762, 4393.448899
1075.197762, 4412.653900
1075.854768, 4431.842827
1076.524852, 4451.426948
1077.186055, 4470.764505
1077.844731, 4490.040907
1078.506853, 4509.430879
1079.167812, 4528.799448
1079.830883, 4548.242443
1080.494101, 4567.702284
1081.153608, 4587.065565
1081.816698, 4606.546297
1082.482005, 4626.104466
1083.149362, 4645.735180
1083.819105, 4665.448308
1084.491158, 4685.241676
1085.160898, 4704.979010
1085.829751, 4724.702148
1086.498370, 4744.430251
1087.164990, 4764.111072
1087.830779, 4783.778884
1088.505777, 4803.730449
1089.175761, 4823.545352
1089.849606, 4843.485973
1090.524022, 4863.454922
1091.196602, 4883.380803
1091.873113, 4903.434446
1092.545727, 4923.383706
1093.216408, 4943.286586
1093.884577, 4963.125712
1094.561603, 4983.238691
1095.236610, 5003.302486
1095.915447, 5023.490907
1096.594686, 5043.701970
1097.270418, 5063.819246
1097.950084, 5084.064142
1098.628788, 5104.290782
1099.305485, 5124.467847
1099.984266, 5144.717268
1100.659262, 5164.863775
1101.341178, 5185.226884
1102.024600, 5205.644973
1102.709918, 5226.129703
1103.396141, 5246.651387
1104.078284, 5267.060805
1104.763842, 5287.582036
1105.449136, 5308.104980
1105.895417, 5321.475147
