Time, Mach number
   0.000000,    0.000001
   0.001667,    0.000972
   0.003333,    0.001939
   0.005000,    0.002904
   0.006667,    0.003870
   0.008333,    0.004836
   0.010000,    0.005802
   0.011667,    0.006768
   0.013333,    0.007733
   0.015000,    0.008699
   0.016667,    0.009665
   0.018333,    0.010631
   0.020000,    0.011586
   0.021667,    0.012540
   0.023333,    0.013494
   0.025000,    0.014448
   0.026667,    0.015403
   0.028333,    0.016357
   0.030000,    0.017311
   0.031667,    0.018265
   0.033333,    0.019219
   0.035000,    0.020173
   0.036667,    0.021117
   0.038333,    0.022059
   0.040000,    0.023001
   0.041667,    0.023943
   0.043333,    0.024885
   0.045000,    0.025827
   0.046667,    0.026769
   0.048333,    0.027711
   0.050000,    0.028653
   0.051667,    0.029596
   0.053333,    0.030527
   0.055000,    0.031456
   0.056667,    0.032386
   0.058333,    0.033316
   0.060000,    0.034246
   0.061667,    0.035175
   0.063333,    0.036105
   0.065000,    0.037035
   0.066667,    0.037965
   0.068333,    0.038895
   0.070000,    0.039813
   0.071667,    0.040730
   0.073333,    0.041647
   0.075000,    0.042564
   0.076667,    0.043481
   0.078333,    0.044399
   0.080000,    0.045316
   0.081667,    0.046233
   0.083333,    0.047150
   0.085000,    0.048067
   0.086667,    0.048971
   0.088333,    0.049874
   0.090000,    0.050776
   0.091667,    0.051679
   0.093333,    0.052582
   0.095000,    0.053484
   0.096667,    0.054387
   0.098333,    0.055290
   0.100000,    0.056192
   0.101667,    0.057095
   0.103333,    0.057982
   0.105000,    0.058866
   0.106667,    0.059751
   0.108333,    0.060636
   0.110000,    0.061521
   0.111667,    0.062406
   0.113333,    0.063290
   0.115000,    0.064175
   0.116667,    0.065060
   0.118333,    0.065945
   0.120000,    0.066814
   0.121667,    0.067680
   0.123333,    0.068547
   0.125000,    0.069414
   0.126667,    0.070281
   0.128333,    0.071148
   0.130000,    0.072014
   0.131667,    0.072881
   0.133333,    0.073748
   0.135000,    0.074615
   0.136667,    0.075466
   0.138333,    0.076314
   0.140000,    0.077163
   0.141667,    0.078012
   0.143333,    0.078861
   0.145000,    0.079709
   0.146667,    0.080558
   0.148333,    0.081407
   0.150000,    0.082256
   0.151667,    0.083104
   0.153333,    0.083937
   0.155000,    0.084768
   0.156667,    0.085598
   0.158333,    0.086429
   0.160000,    0.087260
   0.161667,    0.088091
   0.163333,    0.088921
   0.165000,    0.089752
   0.166667,    0.090583
   0.168333,    0.091413
   0.170000,    0.092228
   0.171667,    0.093041
   0.173333,    0.093853
   0.175000,    0.094666
   0.176667,    0.095479
   0.178333,    0.096291
   0.180000,    0.097104
   0.181667,    0.097917
   0.183333,    0.098729
   0.185000,    0.099542
   0.186667,    0.100337
   0.188333,    0.101129
   0.190000,    0.101921
   0.191667,    0.102713
   0.193333,    0.103505
   0.195000,    0.104297
   0.196667,    0.105089
   0.198333,    0.105881
   0.200000,    0.106673
   0.201667,    0.107465
   0.203333,    0.108237
   0.205000,    0.109005
   0.206667,    0.109774
   0.208333,    0.110543
   0.210000,    0.111312
   0.211667,    0.112080
   0.213333,    0.112849
   0.215000,    0.113618
   0.216667,    0.114387
   0.218333,    0.115155
   0.220000,    0.115904
   0.221667,    0.116649
   0.223333,    0.117395
   0.225000,    0.118141
   0.226667,    0.118887
   0.228333,    0.119632
   0.230000,    0.120378
   0.231667,    0.121124
   0.233333,    0.121869
   0.235000,    0.122615
   0.236667,    0.123341
   0.238333,    0.124064
   0.240000,    0.124787
   0.241667,    0.125510
   0.243333,    0.126233
   0.245000,    0.126956
   0.246667,    0.127680
   0.248333,    0.128403
   0.250000,    0.129126
   0.251667,    0.129849
   0.253333,    0.130552
   0.255000,    0.131253
   0.256667,    0.131954
   0.258333,    0.132655
   0.260000,    0.133356
   0.261667,    0.134057
   0.263333,    0.134758
   0.265000,    0.135459
   0.266667,    0.136160
   0.268333,    0.136860
   0.270000,    0.137542
   0.271667,    0.138221
   0.273333,    0.138900
   0.275000,    0.139579
   0.276667,    0.140258
   0.278333,    0.140938
   0.280000,    0.141617
   0.281667,    0.142296
   0.283333,    0.142975
   0.285000,    0.143654
   0.286667,    0.144314
   0.288333,    0.144972
   0.290000,    0.145630
   0.291667,    0.146288
   0.293333,    0.146945
   0.295000,    0.147603
   0.296667,    0.148261
   0.298333,    0.148919
   0.300000,    0.149576
   0.301667,    0.150234
   0.303333,    0.150877
   0.305000,    0.151517
   0.306667,    0.152158
   0.308333,    0.152798
   0.310000,    0.153439
   0.311667,    0.154080
   0.312642,    0.154454
   0.314309,    0.155085
   0.315975,    0.155715
   0.317642,    0.156346
   0.319309,    0.156966
   0.320975,    0.157574
   0.322642,    0.158183
   0.324309,    0.158791
   0.325975,    0.159400
   0.327642,    0.160009
   0.329309,    0.160617
   0.330975,    0.161226
   0.332642,    0.161834
   0.334309,    0.162443
   0.335975,    0.163034
   0.337642,    0.163606
   0.339309,    0.164178
   0.340975,    0.164750
   0.342642,    0.165322
   0.344309,    0.165894
   0.345975,    0.166466
   0.347642,    0.167038
   0.349309,    0.167610
   0.350975,    0.168182
   0.352642,    0.168735
   0.354309,    0.169265
   0.355975,    0.169796
   0.357642,    0.170327
   0.359309,    0.170858
   0.360975,    0.171389
   0.362642,    0.171920
   0.364309,    0.172451
   0.365975,    0.172981
   0.367642,    0.173512
   0.368518,    0.173791
   0.370185,    0.174122
   0.371852,    0.174453
   0.373518,    0.174783
   0.375185,    0.175114
   0.376852,    0.175444
   0.378518,    0.175775
   0.380185,    0.176105
   0.381852,    0.176436
   0.383518,    0.176767
   0.385185,    0.177097
   0.386852,    0.177269
   0.388518,    0.177440
   0.390185,    0.177612
   0.391852,    0.177783
   0.393518,    0.177955
   0.395185,    0.178041
   0.396852,    0.178127
   0.398518,    0.178213
   0.400185,    0.178299
   0.401852,    0.178385
   0.403518,    0.178382
   0.405185,    0.178378
   0.406852,    0.178375
   0.408518,    0.178372
   0.410185,    0.178368
   0.410185,    0.257173
   1.605400,    0.266144
   2.825139,    0.275550
   4.084250,    0.285420
   5.433948,    0.295783
   6.920962,    0.306671
   8.567151,    0.318118
  10.405942,    0.330160
  12.496124,    0.342839
  14.982109,    0.356198
  14.982109,    0.420000
  15.801212,    0.420000
  16.620315,    0.420000
  17.439418,    0.420000
  18.258522,    0.420000
  19.077625,    0.420000
  19.896728,    0.420000
  20.715832,    0.420000
  21.534935,    0.420000
  22.354038,    0.420000
  23.173141,    0.420000
  23.992245,    0.420000
  24.811348,    0.420000
  25.630451,    0.420000
  26.449554,    0.420000
  27.268658,    0.420000
  28.087761,    0.420000
  28.906864,    0.420000
  29.725967,    0.420000
  30.545071,    0.420000
  31.364174,    0.420000
  32.183277,    0.420000
  33.002380,    0.420000
  33.821484,    0.420000
  34.640587,    0.420000
  35.459690,    0.420000
  36.278793,    0.420000
  37.097897,    0.420000
  37.917000,    0.420000
  38.736103,    0.420000
  38.736103,    0.460962
  39.896032,    0.445132
  41.058764,    0.430040
  42.220084,    0.415643
  43.376236,    0.401901
  44.524976,    0.388776
  45.661995,    0.376234
  46.783206,    0.364242
  47.900611,    0.352769
  49.010509,    0.341787
  49.010509,    0.264108
  49.589924,    0.268716
  50.174964,    0.273435
  50.765469,    0.278269
  51.364214,    0.283221
  51.981985,    0.288295
  52.628108,    0.293495
  53.305596,    0.298825
  54.016769,    0.304289
  54.763442,    0.309891
  54.763442,    0.259294
  56.615618,    0.259181
  58.468603,    0.259068
  60.322397,    0.258955
  62.177002,    0.258841
  64.032418,    0.258728
  65.888646,    0.258615
  67.745686,    0.258502
  69.603540,    0.258388
  71.462208,    0.258275
  71.462208,    0.401036
  72.108615,    0.393786
  72.744854,    0.386715
  73.383630,    0.379817
  74.025084,    0.373088
  74.669359,    0.366521
  75.316244,    0.360113
  75.965602,    0.353857
  76.616971,    0.347750
  77.269434,    0.341787
  77.269434,    0.259294
  82.269434,    0.259181
  87.269434,    0.259068
  92.269434,    0.258955
  97.269434,    0.258841
 102.269434,    0.258728
 107.269434,    0.258615
 112.269434,    0.258502
 117.269434,    0.258388
 122.269434,    0.258275
 122.269434,    0.163163
 122.271101,    0.163163
 122.272767,    0.163164
 122.274434,    0.163164
 122.276101,    0.163164
 122.277767,    0.163164
 122.279434,    0.163165
 122.281101,    0.163165
 122.282767,    0.163165
 122.284434,    0.163166
 122.286101,    0.163166
 122.287767,    0.163166
 122.289434,    0.163166
 122.291101,    0.163167
 122.292767,    0.163167
 122.294434,    0.163167
 122.296101,    0.163167
 122.297767,    0.163168
 122.299434,    0.163168
 122.301101,    0.163168
 122.302767,    0.163168
 122.304434,    0.163168
 122.306101,    0.163169
 122.307767,    0.163169
 122.309434,    0.163169
 122.311101,    0.163169
 122.312767,    0.163169
 122.314434,    0.163170
 122.316101,    0.163170
 122.317767,    0.163170
 122.319434,    0.163170
 122.321101,    0.163171
 122.322767,    0.163171
 122.324434,    0.163171
 122.326101,    0.163171
 122.327767,    0.163171
 122.329434,    0.163171
 122.331101,    0.163171
 122.332767,    0.163171
 122.334434,    0.163171
 122.336101,    0.163171
 122.337767,    0.163170
 122.339434,    0.163170
 122.341101,    0.163170
 122.342767,    0.163171
 122.344434,    0.163171
 122.346101,    0.163171
 122.347767,    0.163171
 122.349434,    0.163171
 122.351101,    0.163171
 122.352767,    0.163172
 122.354434,    0.163172
 122.356101,    0.163172
 122.357767,    0.163172
 122.359434,    0.163172
 122.361101,    0.163172
 122.362767,    0.163172
 122.364434,    0.163172
 122.366101,    0.163173
 122.367767,    0.163173
 122.369434,    0.163173
 122.371101,    0.163173
 122.372767,    0.163173
 122.374434,    0.163173
 122.376101,    0.163173
 122.377767,    0.163173
 122.379434,    0.163173
 122.381101,    0.163173
 122.382767,    0.163173
 122.384434,    0.163173
 122.386101,    0.163174
 122.387767,    0.163174
 122.389434,    0.163174
 122.391101,    0.163174
 122.392767,    0.163174
 122.394434,    0.163174
 122.396101,    0.163174
 122.397767,    0.163175
 122.399434,    0.163175
 122.401101,    0.163175
 122.402767,    0.163175
 122.404434,    0.163176
 122.406101,    0.163176
 122.407767,    0.163176
 122.409434,    0.163176
 122.411101,    0.163176
 122.412767,    0.163176
 122.414434,    0.163176
 122.416101,    0.163177
 122.417767,    0.163177
 122.419434,    0.163177
 122.421101,    0.163177
 122.422767,    0.163177
 122.424434,    0.163177
 122.426101,    0.163177
 122.427767,    0.163177
 122.429434,    0.163177
 122.431101,    0.163177
 122.432767,    0.163178
 122.434434,    0.163178
 122.436101,    0.163178
 122.437767,    0.163178
 122.439434,    0.163178
 122.441101,    0.163178
 122.442767,    0.163178
 122.444434,    0.163178
 122.446101,    0.163178
 122.447767,    0.163177
 122.449434,    0.163177
 122.451101,    0.163177
 122.452767,    0.163177
 122.454434,    0.163177
 122.456101,    0.163177
 122.457767,    0.163176
 122.459434,    0.163176
 122.461101,    0.163176
 122.462767,    0.163176
 122.464434,    0.163176
 122.466101,    0.163175
 122.467767,    0.163175
 122.469434,    0.163175
 122.471101,    0.163175
 122.472767,    0.163175
 122.474434,    0.163174
 122.476101,    0.163174
 122.477767,    0.163174
 122.479434,    0.163174
 122.481101,    0.163173
 122.482767,    0.163173
 122.484434,    0.163173
 122.486101,    0.163173
 122.487767,    0.163173
 122.489434,    0.163172
 122.491101,    0.163172
 122.492767,    0.163172
 122.494434,    0.163172
 122.496101,    0.163172
 122.497767,    0.163172
 122.499434,    0.163172
 122.501101,    0.163171
 122.502767,    0.163171
 122.504434,    0.163171
 122.506101,    0.163171
 122.507767,    0.163171
 122.509434,    0.163171
 122.511101,    0.163171
 122.512767,    0.163170
 122.514434,    0.163170
 122.516101,    0.163170
 122.517767,    0.163170
 122.519434,    0.163169
 122.521101,    0.163169
 122.522767,    0.163169
 122.524434,    0.163169
 122.526101,    0.163169
 122.527767,    0.163168
 122.529434,    0.163168
 122.531101,    0.163168
 122.532767,    0.163168
 122.534434,    0.163168
 122.536101,    0.163167
 122.537767,    0.163167
 122.539434,    0.163167
 122.541101,    0.163167
 122.542767,    0.163167
 122.544434,    0.163167
 122.546101,    0.163166
 122.547767,    0.163166
 122.549434,    0.163166
 122.551101,    0.163166
 122.552767,    0.163166
 122.554434,    0.163166
 122.556101,    0.163166
 122.557767,    0.163166
 122.559434,    0.163166
 122.561101,    0.163166
 122.562767,    0.163165
 122.564434,    0.163165
 122.566101,    0.163165
 122.567767,    0.163165
 122.569434,    0.163165
 122.571101,    0.163165
 122.572767,    0.163164
 122.574434,    0.163164
 122.576101,    0.163164
 122.577767,    0.163164
 122.579434,    0.163164
 122.581101,    0.163164
 122.582767,    0.163163
 122.584434,    0.163163
 122.586101,    0.163163
 122.587767,    0.163163
 122.589434,    0.163163
 122.591101,    0.163163
 122.592767,    0.163163
 122.594434,    0.163163
 122.596101,    0.163163
 122.597767,    0.163163
 122.599434,    0.163163
 122.601101,    0.163163
 122.602767,    0.163163
 122.604434,    0.163163
 122.606101,    0.163163
 122.607767,    0.163163
 122.609434,    0.163163
 122.611101,    0.163162
 122.612767,    0.163162
 122.614434,    0.163162
 122.616101,    0.163162
 122.617767,    0.163162
 122.619434,    0.163162
 122.621101,    0.163162
 122.622767,    0.163162
 122.624434,    0.163162
 122.626101,    0.163162
 122.627767,    0.163161
 122.629434,    0.163161
 122.631101,    0.163161
 122.632767,    0.163161
 122.634434,    0.163161
 122.636101,    0.163161
 122.637767,    0.163161
 122.639434,    0.163161
 122.641101,    0.163161
 122.642767,    0.163161
 122.644434,    0.163161
 122.646101,    0.163161
 122.647767,    0.163161
 122.649434,    0.163161
 122.651101,    0.163161
 122.652767,    0.163161
 122.654434,    0.163161
 122.656101,    0.163161
 122.657767,    0.163161
 122.659434,    0.163161
 122.661101,    0.163161
 122.662767,    0.163161
 122.664434,    0.163161
 122.666101,    0.163161
 122.667767,    0.163161
 122.669434,    0.163161
 122.671101,    0.163161
 122.672767,    0.163161
 122.674434,    0.163161
 122.676101,    0.163161
 122.677767,    0.163161
 122.679434,    0.163161
 122.681101,    0.163161
 122.682767,    0.163161
 122.684434,    0.163161
 122.686101,    0.163161
 122.687767,    0.163161
 122.689434,    0.163161
 122.691101,    0.163161
 122.692767,    0.163161
 122.694434,    0.163161
 122.696101,    0.163161
 122.697767,    0.163161
 122.699434,    0.163161
 122.701101,    0.163161
 122.702767,    0.163162
 122.704434,    0.163162
 122.706101,    0.163162
 122.707767,    0.163162
 122.709434,    0.163162
 122.711101,    0.163162
 122.712767,    0.163162
 122.714434,    0.163162
 122.716101,    0.163162
 122.717767,    0.163162
 122.719434,    0.163162
 122.721101,    0.163162
 122.722767,    0.163162
 122.724434,    0.163162
 122.726101,    0.163162
 122.727767,    0.163162
 122.729434,    0.163162
 122.731101,    0.163162
 122.732767,    0.163162
 122.734434,    0.163162
 122.736101,    0.163162
 122.737767,    0.163162
 122.739434,    0.163162
 122.741101,    0.163162
 122.742767,    0.163162
 122.744434,    0.163162
 122.746101,    0.163162
 122.747767,    0.163162
 122.749434,    0.163162
 122.751101,    0.163162
 122.752767,    0.163162
 122.754434,    0.163162
 122.756101,    0.163162
 122.757767,    0.163163
 122.759434,    0.163163
 122.761101,    0.163162
 122.762767,    0.163162
 122.764434,    0.163162
 122.766101,    0.163162
 122.767767,    0.163162
 122.769434,    0.163162
 122.771101,    0.163162
 122.772767,    0.163162
 122.774434,    0.163162
 122.776101,    0.163162
 122.777767,    0.163163
 122.779434,    0.163163
 122.781101,    0.163163
 122.782767,    0.163164
 122.784434,    0.163164
 122.786101,    0.163164
 122.787767,    0.163165
 122.789434,    0.163165
 122.791101,    0.163165
 122.792767,    0.163166
 122.794434,    0.163166
 122.796101,    0.163166
 122.797767,    0.163167
 122.799434,    0.163167
 122.801101,    0.163167
 122.802767,    0.163168
 122.804434,    0.163168
 122.806101,    0.163168
 122.807767,    0.163169
 122.809434,    0.163169
 122.811101,    0.163169
 122.812767,    0.163169
 122.814434,    0.163170
 122.816101,    0.163170
 122.817767,    0.163170
 122.819434,    0.163170
 122.821101,    0.163170
 122.822767,    0.163170
 122.824434,    0.163171
 122.826101,    0.163171
 122.827767,    0.163171
 122.829434,    0.163171
 122.831101,    0.163171
 122.832767,    0.163171
 122.834434,    0.163171
 122.836101,    0.163171
 122.837767,    0.163172
 122.839434,    0.163172
 122.841101,    0.163172
 122.842767,    0.163172
 122.844434,    0.163172
 122.846101,    0.163172
 122.847767,    0.163172
 122.849434,    0.163172
 122.851101,    0.163172
 122.852767,    0.163172
 122.854434,    0.163173
 122.856101,    0.163173
 122.857767,    0.163173
 122.859434,    0.163173
 122.861101,    0.163173
 122.862767,    0.163173
 122.864434,    0.163174
 122.866101,    0.163174
 122.867767,    0.163174
 122.869434,    0.163174
 122.871101,    0.163174
 122.872767,    0.163175
 122.874434,    0.163175
 122.876101,    0.163175
 122.877767,    0.163175
 122.879434,    0.163175
 122.881101,    0.163175
 122.882767,    0.163175
 122.884434,    0.163175
 122.886101,    0.163175
 122.887767,    0.163176
 122.889434,    0.163176
 122.891101,    0.163176
 122.892767,    0.163176
 122.894434,    0.163176
 122.896101,    0.163176
 122.897767,    0.163176
 122.899434,    0.163176
 122.901101,    0.163176
 122.902767,    0.163176
 122.904434,    0.163176
 122.906101,    0.163176
 122.907767,    0.163176
 122.909434,    0.163176
 122.911101,    0.163176
 122.912767,    0.163176
 122.914434,    0.163176
 122.916101,    0.163175
 122.917767,    0.163175
 122.919434,    0.163175
 122.921101,    0.163175
 122.922767,    0.163175
 122.924434,    0.163174
 122.926101,    0.163174
 122.927767,    0.163174
 122.929434,    0.163174
 122.931101,    0.163173
 122.932767,    0.163173
 122.934434,    0.163173
 122.936101,    0.163173
 122.937767,    0.163172
 122.939434,    0.163172
 122.941101,    0.163172
 122.942767,    0.163171
 122.944434,    0.163171
 122.946101,    0.163171
 122.947767,    0.163171
 122.949434,    0.163170
 122.951101,    0.163170
 122.952767,    0.163170
 122.954434,    0.163170
 122.956101,    0.163169
 122.957767,    0.163169
 122.959434,    0.163169
 122.961101,    0.163169
 122.962767,    0.163169
 122.964434,    0.163169
 122.966101,    0.163168
 122.967767,    0.163168
 122.969434,    0.163168
 122.971101,    0.163168
 122.972767,    0.163168
 122.974434,    0.163168
 122.976101,    0.163168
 122.977767,    0.163167
 122.979434,    0.163167
 122.981101,    0.163167
 122.982767,    0.163167
 122.984434,    0.163166
 122.986101,    0.163166
 122.987767,    0.163166
 122.989434,    0.163166
 122.991101,    0.163165
 122.992767,    0.163165
 122.994434,    0.163165
 122.996101,    0.163165
 122.997767,    0.163165
 122.999434,    0.163164
 123.001101,    0.163164
 123.002767,    0.163164
 123.004434,    0.163164
 123.006101,    0.163163
 123.007767,    0.163163
 123.009434,    0.163163
 123.011101,    0.163163
 123.012767,    0.163163
 123.014434,    0.163163
 123.016101,    0.163163
 123.017767,    0.163163
 123.019434,    0.163163
 123.021101,    0.163163
 123.022767,    0.163163
 123.024434,    0.163163
 123.026101,    0.163163
 123.027767,    0.163162
 123.029434,    0.163162
 123.031101,    0.163162
 123.032767,    0.163162
 123.034434,    0.163162
 123.036101,    0.163162
 123.037767,    0.163161
 123.039434,    0.163161
 123.041101,    0.163161
 123.042767,    0.163161
 123.044434,    0.163160
 123.046101,    0.163160
 123.047767,    0.163160
 123.049434,    0.163159
 123.051101,    0.163159
 123.052767,    0.163158
 123.054434,    0.163158
 123.056101,    0.163158
 123.057767,    0.163157
 123.059434,    0.163157
 123.061101,    0.163156
 123.062767,    0.163156
 123.064434,    0.163155
 123.066101,    0.163155
 123.067767,    0.163154
 123.069434,    0.163154
 123.071101,    0.163154
 123.072767,    0.163153
 123.074434,    0.163153
 123.076101,    0.163152
 123.077767,    0.163152
 123.079434,    0.163151
 123.081101,    0.163151
 123.082767,    0.163150
 123.084434,    0.163150
 123.086101,    0.163150
 123.087767,    0.163149
 123.089434,    0.163149
 123.091101,    0.163148
 123.092767,    0.163148
 123.094434,    0.163148
 123.096101,    0.163147
 123.097767,    0.163147
 123.099434,    0.163147
 123.101101,    0.163147
 123.102767,    0.163146
 123.104434,    0.163146
 123.106101,    0.163146
 123.107767,    0.163146
 123.109434,    0.163145
 123.111101,    0.163145
 123.112767,    0.163145
 123.114434,    0.163144
 123.116101,    0.163144
 123.117767,    0.163144
 123.119434,    0.163143
 123.121101,    0.163143
 123.122767,    0.163143
 123.124434,    0.163142
 123.126101,    0.163142
 123.127767,    0.163142
 123.129434,    0.163142
 123.131101,    0.163142
 123.132767,    0.163142
 123.134434,    0.163141
 123.136101,    0.163141
 123.137767,    0.163141
 123.139434,    0.163141
 123.141101,    0.163141
 123.142767,    0.163141
 123.144434,    0.163140
 123.146101,    0.163140
 123.147767,    0.163140
 123.149434,    0.163140
 123.151101,    0.163139
 123.152767,    0.163139
 123.154434,    0.163139
 123.156101,    0.163139
 123.157767,    0.163139
 123.159434,    0.163138
 123.161101,    0.163138
 123.162767,    0.163138
 123.164434,    0.163138
 123.166101,    0.163137
 123.167767,    0.163137
 123.169434,    0.163137
 123.171101,    0.163137
 123.172767,    0.163136
 123.174434,    0.163136
 123.176101,    0.163136
 123.177767,    0.163136
 123.179434,    0.163136
 123.181101,    0.163136
 123.182767,    0.163136
 123.184434,    0.163136
 123.186101,    0.163136
 123.187767,    0.163135
 123.189434,    0.163135
 123.191101,    0.163135
 123.192767,    0.163135
 123.194434,    0.163135
 123.196101,    0.163135
 123.197767,    0.163134
 123.199434,    0.163134
 123.201101,    0.163134
 123.202767,    0.163134
 123.204434,    0.163134
 123.206101,    0.163133
 123.207767,    0.163133
 123.209434,    0.163133
 123.211101,    0.163133
 123.212767,    0.163133
 123.214434,    0.163133
 123.216101,    0.163132
 123.217767,    0.163132
 123.219434,    0.163132
 123.221101,    0.163132
 123.222767,    0.163132
 123.224434,    0.163132
 123.226101,    0.163132
 123.227767,    0.163132
 123.229434,    0.163132
 123.231101,    0.163132
 123.232767,    0.163132
 123.234434,    0.163132
 123.236101,    0.163132
 123.237767,    0.163132
 123.239434,    0.163132
 123.241101,    0.163132
 123.242767,    0.163132
 123.244434,    0.163131
 123.246101,    0.163131
 123.247767,    0.163131
 123.249434,    0.163131
 123.251101,    0.163131
 123.252767,    0.163131
 123.254434,    0.163131
 123.256101,    0.163131
 123.257767,    0.163131
 123.259434,    0.163130
 123.261101,    0.163130
 123.262767,    0.163130
 123.264434,    0.163129
 123.266101,    0.163129
 123.267767,    0.163129
 123.269434,    0.163128
 123.271101,    0.163128
 123.272767,    0.163127
 123.274434,    0.163127
 123.276101,    0.163127
 123.277767,    0.163126
 123.279434,    0.163126
 123.281101,    0.163125
 123.282767,    0.163125
 123.284434,    0.163125
 123.286101,    0.163124
 123.287767,    0.163124
 123.289434,    0.163123
 123.291101,    0.163123
 123.292767,    0.163123
 123.294434,    0.163122
 123.296101,    0.163122
 123.297767,    0.163121
 123.299434,    0.163121
 123.301101,    0.163121
 123.302767,    0.163120
 123.304434,    0.163120
 123.306101,    0.163120
 123.307767,    0.163119
 123.309434,    0.163119
 123.311101,    0.163119
 123.312767,    0.163118
 123.314434,    0.163118
 123.316101,    0.163118
 123.317767,    0.163118
 123.319434,    0.163118
 123.321101,    0.163117
 123.322767,    0.163117
 123.324434,    0.163117
 123.326101,    0.163117
 123.327767,    0.163116
 123.329434,    0.163116
 123.331101,    0.163116
 123.332767,    0.163115
 123.334434,    0.163115
 123.336101,    0.163115
 123.337767,    0.163114
 123.339434,    0.163114
 123.341101,    0.163114
 123.342767,    0.163114
 123.344434,    0.163114
 123.346101,    0.163113
 123.347767,    0.163113
 123.349434,    0.163113
 123.351101,    0.163113
 123.352767,    0.163113
 123.354434,    0.163113
 123.356101,    0.163113
 123.357767,    0.163113
 123.359434,    0.163112
 123.361101,    0.163112
 123.362767,    0.163112
 123.364434,    0.163112
 123.366101,    0.163111
 123.367767,    0.163111
 123.369434,    0.163111
 123.371101,    0.163111
 123.372767,    0.163111
 123.374434,    0.163110
 123.376101,    0.163110
 123.377767,    0.163110
 123.379434,    0.163110
 123.381101,    0.163109
 123.382767,    0.163109
 123.384434,    0.163109
 123.386101,    0.163109
 123.387767,    0.163108
 123.389434,    0.163108
 123.391101,    0.163108
 123.392767,    0.163108
 123.394434,    0.163108
 123.396101,    0.163108
 123.397767,    0.163107
 123.399434,    0.163107
 123.401101,    0.163107
 123.402767,    0.163107
 123.404434,    0.163107
 123.406101,    0.163107
 123.407767,    0.163107
 123.409434,    0.163107
 123.411101,    0.163106
 123.412767,    0.163106
 123.414434,    0.163106
 123.416101,    0.163106
 123.417767,    0.163106
 123.419434,    0.163105
 123.421101,    0.163105
 123.422767,    0.163105
 123.424434,    0.163105
 123.426101,    0.163105
 123.427767,    0.163104
 123.429434,    0.163104
 123.431101,    0.163104
 123.432767,    0.163104
 123.434434,    0.163104
 123.436101,    0.163103
 123.437767,    0.163103
 123.439434,    0.163103
 123.441101,    0.163103
 123.442767,    0.163103
 123.444434,    0.163103
 123.446101,    0.163103
 123.447767,    0.163103
 123.449434,    0.163103
 123.451101,    0.163103
 123.452767,    0.163103
 123.454434,    0.163103
 123.456101,    0.163103
 123.457767,    0.163103
 123.459434,    0.163103
 123.461101,    0.163102
 123.462767,    0.163102
 123.464434,    0.163102
 123.466101,    0.163102
 123.467767,    0.163102
 123.469434,    0.163102
 123.471101,    0.163102
 123.472767,    0.163102
 123.474434,    0.163101
 123.476101,    0.163101
 123.477767,    0.163101
 123.479434,    0.163100
 123.481101,    0.163100
 123.482767,    0.163100
 123.484434,    0.163099
 123.486101,    0.163099
 123.487767,    0.163098
 123.489434,    0.163098
 123.491101,    0.163098
 123.492767,    0.163097
 123.494434,    0.163097
 123.496101,    0.163096
 123.497767,    0.163096
 123.499434,    0.163096
 123.501101,    0.163095
 123.502767,    0.163095
 123.504434,    0.163094
 123.506101,    0.163094
 123.507767,    0.163094
 123.509434,    0.163093
 123.511101,    0.163093
 123.512767,    0.163092
 123.514434,    0.163092
 123.516101,    0.163092
 123.517767,    0.163091
 123.519434,    0.163091
 123.521101,    0.163090
 123.522767,    0.163090
 123.524434,    0.163090
 123.526101,    0.163089
 123.527767,    0.163089
 123.529434,    0.163089
 123.531101,    0.163089
 123.532767,    0.163088
 123.534434,    0.163088
 123.536101,    0.163088
 123.537767,    0.163088
 123.539434,    0.163087
 123.541101,    0.163087
 123.542767,    0.163087
 123.544434,    0.163087
 123.546101,    0.163086
 123.547767,    0.163086
 123.549434,    0.163086
 123.551101,    0.163085
 123.552767,    0.163085
 123.554434,    0.163085
 123.556101,    0.163084
 123.557767,    0.163084
 123.559434,    0.163084
 123.561101,    0.163084
 123.562767,    0.163084
 123.564434,    0.163084
 123.566101,    0.163084
 123.567767,    0.163083
 123.569434,    0.163083
 123.571101,    0.163083
 123.572767,    0.163083
 123.574434,    0.163083
 123.576101,    0.163083
 123.577767,    0.163083
 123.579434,    0.163082
 123.581101,    0.163082
 123.582767,    0.163082
 123.584434,    0.163082
 123.586101,    0.163082
 123.587767,    0.163081
 123.589434,    0.163081
 123.591101,    0.163081
 123.592767,    0.163081
 123.594434,    0.163081
 123.596101,    0.163080
 123.597767,    0.163080
 123.599434,    0.163080
 123.601101,    0.163080
 123.602767,    0.163080
 123.604434,    0.163079
 123.606101,    0.163079
 123.607767,    0.163079
 123.609434,    0.163079
 123.611101,    0.163079
 123.612767,    0.163079
 123.614434,    0.163079
 123.616101,    0.163079
 123.617767,    0.163079
 123.619434,    0.163079
 123.621101,    0.163079
 123.622767,    0.163078
 123.624434,    0.163078
 123.626101,    0.163078
 123.627767,    0.163078
 123.629434,    0.163078
 123.631101,    0.163078
 123.632767,    0.163078
 123.634434,    0.163077
 123.636101,    0.163077
 123.637767,    0.163077
 123.639434,    0.163077
 123.641101,    0.163077
 123.642767,    0.163077
 123.644434,    0.163077
 123.646101,    0.163076
 123.647767,    0.163076
 123.649434,    0.163076
 123.651101,    0.163076
 123.652767,    0.163076
 123.654434,    0.163076
 123.656101,    0.163076
 123.657767,    0.163075
 123.659434,    0.163075
 123.661101,    0.163076
 123.662767,    0.163076
 123.664434,    0.163076
 123.666101,    0.163076
 123.667767,    0.163076
 123.669434,    0.163076
 123.671101,    0.163076
 123.672767,    0.163076
 123.674434,    0.163076
 123.676101,    0.163076
 123.677767,    0.163076
 123.679434,    0.163076
 123.681101,    0.163076
 123.682767,    0.163075
 123.684434,    0.163075
 123.686101,    0.163075
 123.687767,    0.163075
 123.689434,    0.163075
 123.691101,    0.163075
 123.692767,    0.163075
 123.694434,    0.163075
 123.696101,    0.163074
 123.697767,    0.163074
 123.699434,    0.163074
 123.701101,    0.163073
 123.702767,    0.163073
 123.704434,    0.163073
 123.706101,    0.163072
 123.707767,    0.163072
 123.709434,    0.163072
 123.711101,    0.163071
 123.712767,    0.163071
 123.714434,    0.163070
 123.716101,    0.163070
 123.717767,    0.163070
 123.719434,    0.163069
 123.721101,    0.163069
 123.722767,    0.163069
 123.724434,    0.163068
 123.726101,    0.163068
 123.727767,    0.163068
 123.729434,    0.163067
 123.731101,    0.163067
 123.732767,    0.163066
 123.734434,    0.163066
 123.736101,    0.163066
 123.737767,    0.163065
 123.739434,    0.163065
 123.741101,    0.163065
 123.742767,    0.163064
 123.744434,    0.163064
 123.746101,    0.163064
 123.747767,    0.163064
 123.749434,    0.163064
 123.751101,    0.163063
 123.752767,    0.163063
 123.754434,    0.163063
 123.756101,    0.163063
 123.757767,    0.163063
 123.759434,    0.163062
 123.761101,    0.163062
 123.762767,    0.163062
 123.764434,    0.163062
 123.766101,    0.163061
 123.767767,    0.163061
 123.769434,    0.163061
 123.771101,    0.163060
 123.772767,    0.163060
 123.774434,    0.163060
 123.776101,    0.163060
 123.777767,    0.163060
 123.779434,    0.163060
 123.781101,    0.163059
 123.782767,    0.163059
 123.784434,    0.163059
 123.786101,    0.163059
 123.787767,    0.163059
 123.789434,    0.163059
 123.791101,    0.163059
 123.792767,    0.163059
 123.794434,    0.163059
 123.796101,    0.163058
 123.797767,    0.163058
 123.799434,    0.163058
 123.801101,    0.163058
 123.802767,    0.163058
 123.804434,    0.163057
 123.806101,    0.163057
 123.807767,    0.163057
 123.809434,    0.163057
 123.811101,    0.163057
 123.812767,    0.163056
 123.814434,    0.163056
 123.816101,    0.163056
 123.817767,    0.163056
 123.819434,    0.163056
 123.821101,    0.163055
 123.822767,    0.163055
 123.824434,    0.163055
 123.826101,    0.163055
 123.827767,    0.163055
 123.829434,    0.163055
 123.831101,    0.163055
 123.832767,    0.163055
 123.834434,    0.163054
 123.836101,    0.163054
 123.837767,    0.163054
 123.839434,    0.163054
 123.841101,    0.163054
 123.842767,    0.163054
 123.844434,    0.163054
 123.846101,    0.163054
 123.847767,    0.163054
 123.849434,    0.163053
 123.851101,    0.163053
 123.852767,    0.163053
 123.854434,    0.163053
 123.856101,    0.163053
 123.857767,    0.163053
 123.859434,    0.163052
 123.861101,    0.163052
 123.862767,    0.163052
 123.864434,    0.163052
 123.866101,    0.163052
 123.867767,    0.163052
 123.869434,    0.163051
 123.871101,    0.163051
 123.872767,    0.163051
 123.874434,    0.163051
 123.876101,    0.163051
 123.877767,    0.163051
 123.879434,    0.163051
 123.881101,    0.163051
 123.882767,    0.163051
 123.884434,    0.163051
 123.886101,    0.163051
 123.887767,    0.163051
 123.889434,    0.163051
 123.891101,    0.163051
 123.892767,    0.163051
 123.894434,    0.163051
 123.896101,    0.163051
 123.897767,    0.163051
 123.899434,    0.163051
 123.901101,    0.163051
 123.902767,    0.163051
 123.904434,    0.163051
 123.906101,    0.163051
 123.907767,    0.163050
 123.909434,    0.163050
 123.911101,    0.163050
 123.912767,    0.163050
 123.914434,    0.163049
 123.916101,    0.163049
 123.917767,    0.163048
 123.919434,    0.163048
 123.921101,    0.163048
 123.922767,    0.163047
 123.924434,    0.163047
 123.926101,    0.163047
 123.927767,    0.163046
 123.929434,    0.163046
 123.931101,    0.163046
 123.932767,    0.163045
 123.934434,    0.163045
 123.936101,    0.163044
 123.937767,    0.163044
 123.939434,    0.163044
 123.941101,    0.163043
 123.942767,    0.163043
 123.944434,    0.163043
 123.946101,    0.163042
 123.947767,    0.163042
 123.949434,    0.163042
 123.951101,    0.163041
 123.952767,    0.163041
 123.954434,    0.163040
 123.956101,    0.163040
 123.957767,    0.163040
 123.959434,    0.163039
 123.961101,    0.163039
 123.962767,    0.163039
 123.964434,    0.163039
 123.966101,    0.163039
 123.967767,    0.163039
 123.969434,    0.163038
 123.971101,    0.163038
 123.972767,    0.163038
 123.974434,    0.163038
 123.976101,    0.163037
 123.977767,    0.163037
 123.979434,    0.163037
 123.981101,    0.163037
 123.982767,    0.163036
 123.984434,    0.163036
 123.986101,    0.163036
 123.987767,    0.163036
 123.989434,    0.163035
 123.991101,    0.163035
 123.992767,    0.163035
 123.994434,    0.163035
 123.996101,    0.163035
 123.997767,    0.163035
 123.999434,    0.163035
 124.001101,    0.163035
 124.002767,    0.163035
 124.004434,    0.163034
 124.006101,    0.163034
 124.007767,    0.163034
 124.009434,    0.163034
 124.011101,    0.163034
 124.012767,    0.163034
 124.014434,    0.163034
 124.016101,    0.163034
 124.017767,    0.163033
 124.019434,    0.163033
 124.021101,    0.163033
 124.022767,    0.163033
 124.024434,    0.163033
 124.026101,    0.163032
 124.027767,    0.163032
 124.029434,    0.163032
 124.031101,    0.163032
 124.032767,    0.163032
 124.034434,    0.163032
 124.036101,    0.163031
 124.037767,    0.163031
 124.039434,    0.163031
 124.041101,    0.163031
 124.042767,    0.163031
 124.044434,    0.163031
 124.046101,    0.163031
 124.047767,    0.163031
 124.049434,    0.163031
 124.051101,    0.163031
 124.052767,    0.163031
 124.054434,    0.163031
 124.056101,    0.163031
 124.057767,    0.163031
 124.059434,    0.163030
 124.061101,    0.163030
 124.062767,    0.163030
 124.064434,    0.163030
 124.066101,    0.163030
 124.067767,    0.163030
 124.069434,    0.163030
 124.071101,    0.163030
 124.072767,    0.163029
 124.074434,    0.163029
 124.076101,    0.163029
 124.077767,    0.163029
 124.079434,    0.163029
 124.081101,    0.163029
 124.082767,    0.163029
 124.084434,    0.163029
 124.086101,    0.163029
 124.087767,    0.163028
 124.089434,    0.163028
 124.091101,    0.163028
 124.092767,    0.163028
 124.094434,    0.163028
 124.096101,    0.163028
 124.097767,    0.163028
 124.099434,    0.163028
 124.101101,    0.163028
 124.102767,    0.163029
 124.104434,    0.163029
 124.106101,    0.163029
 124.107767,    0.163029
 124.109434,    0.163029
 124.111101,    0.163029
 124.112767,    0.163029
 124.114434,    0.163029
 124.116101,    0.163029
 124.117767,    0.163029
 124.119434,    0.163028
 124.121101,    0.163028
 124.122767,    0.163028
 124.124434,    0.163028
 124.126101,    0.163028
 124.127767,    0.163028
 124.129434,    0.163028
 124.131101,    0.163027
 124.132767,    0.163027
 124.134434,    0.163027
 124.136101,    0.163026
 124.137767,    0.163026
 124.139434,    0.163026
 124.141101,    0.163025
 124.142767,    0.163025
 124.144434,    0.163025
 124.146101,    0.163024
 124.147767,    0.163024
 124.149434,    0.163024
 124.151101,    0.163023
 124.152767,    0.163023
 124.154434,    0.163023
 124.156101,    0.163022
 124.157767,    0.163022
 124.159434,    0.163022
 124.161101,    0.163021
 124.162767,    0.163021
 124.164434,    0.163021
 124.166101,    0.163020
 124.167767,    0.163020
 124.169434,    0.163020
 124.171101,    0.163019
 124.172767,    0.163019
 124.174434,    0.163019
 124.176101,    0.163018
 124.177767,    0.163018
 124.179434,    0.163018
 124.181101,    0.163018
 124.182767,    0.163018
 124.184434,    0.163017
 124.186101,    0.163017
 124.187767,    0.163017
 124.189434,    0.163017
 124.191101,    0.163017
 124.192767,    0.163017
 124.194434,    0.163016
 124.196101,    0.163016
 124.197767,    0.163016
 124.199434,    0.163016
 124.201101,    0.163015
 124.202767,    0.163015
 124.204434,    0.163015
 124.206101,    0.163015
 124.207767,    0.163014
 124.209434,    0.163014
 124.211101,    0.163014
 124.212767,    0.163014
 124.214434,    0.163014
 124.216101,    0.163014
 124.217767,    0.163014
 124.219434,    0.163014
 124.221101,    0.163014
 124.222767,    0.163014
 124.224434,    0.163014
 124.226101,    0.163013
 124.227767,    0.163013
 124.229434,    0.163013
 124.231101,    0.163013
 124.232767,    0.163013
 124.234434,    0.163013
 124.236101,    0.163012
 124.237767,    0.163012
 124.239434,    0.163012
 124.241101,    0.163012
 124.242767,    0.163012
 124.244434,    0.163012
 124.246101,    0.163011
 124.247767,    0.163011
 124.249434,    0.163011
 124.251101,    0.163011
 124.252767,    0.163011
 124.254434,    0.163011
 124.256101,    0.163010
 124.257767,    0.163010
 124.259434,    0.163010
 124.261101,    0.163010
 124.262767,    0.163010
 124.264434,    0.163010
 124.266101,    0.163010
 124.267767,    0.163010
 124.269434,    0.163010
 124.271101,    0.163010
 124.272767,    0.163010
 124.274434,    0.163010
 124.276101,    0.163010
 124.277767,    0.163010
 124.279434,    0.163010
 124.281101,    0.163009
 124.282767,    0.163009
 124.284434,    0.163009
 124.286101,    0.163009
 124.287767,    0.163009
 124.289434,    0.163009
 124.291101,    0.163009
 124.292767,    0.163009
 124.294434,    0.163008
 124.296101,    0.163008
 124.297767,    0.163008
 124.299434,    0.163008
 124.301101,    0.163008
 124.302767,    0.163008
 124.304434,    0.163008
 124.306101,    0.163008
 124.307767,    0.163008
 124.309434,    0.163008
 124.311101,    0.163008
 124.312767,    0.163008
 124.314434,    0.163008
 124.316101,    0.163008
 124.317767,    0.163008
 124.319434,    0.163008
 124.321101,    0.163008
 124.322767,    0.163008
 124.324434,    0.163008
 124.326101,    0.163008
 124.327767,    0.163008
 124.329434,    0.163008
 124.331101,    0.163008
 124.332767,    0.163008
 124.334434,    0.163008
 124.336101,    0.163008
 124.337767,    0.163008
 124.339434,    0.163008
 124.341101,    0.163008
 124.342767,    0.163007
 124.344434,    0.163007
 124.346101,    0.163007
 124.347767,    0.163007
 124.349434,    0.163006
 124.351101,    0.163006
 124.352767,    0.163006
 124.354434,    0.163005
 124.356101,    0.163005
 124.357767,    0.163005
 124.359434,    0.163004
 124.361101,    0.163004
 124.362767,    0.163004
 124.364434,    0.163003
 124.366101,    0.163003
 124.367767,    0.163003
 124.369434,    0.163002
 124.371101,    0.163002
 124.372767,    0.163002
 124.374434,    0.163001
 124.376101,    0.163001
 124.377767,    0.163001
 124.379434,    0.163000
 124.381101,    0.163000
 124.382767,    0.163000
 124.384434,    0.162999
 124.386101,    0.162999
 124.387767,    0.162999
 124.389434,    0.162998
 124.391101,    0.162998
 124.392767,    0.162998
 124.394434,    0.162998
 124.396101,    0.162998
 124.397767,    0.162997
 124.399434,    0.162997
 124.401101,    0.162997
 124.402767,    0.162997
 124.404434,    0.162997
 124.406101,    0.162997
 124.407767,    0.162996
 124.409434,    0.162996
 124.411101,    0.162996
 124.412767,    0.162996
 124.414434,    0.162996
 124.416101,    0.162995
 124.417767,    0.162995
 124.419434,    0.162995
 124.421101,    0.162995
 124.422767,    0.162994
 124.424434,    0.162994
 124.426101,    0.162994
 124.427767,    0.162994
 124.429434,    0.162994
 124.431101,    0.162994
 124.432767,    0.162994
 124.434434,    0.162994
 124.436101,    0.162994
 124.437767,    0.162994
 124.439434,    0.162994
 124.441101,    0.162994
 124.442767,    0.162994
 124.444434,    0.162993
 124.446101,    0.162993
 124.447767,    0.162993
 124.449434,    0.162993
 124.451101,    0.162993
 124.452767,    0.162993
 124.454434,    0.162993
 124.456101,    0.162992
 124.457767,    0.162992
 124.459434,    0.162992
 124.461101,    0.162992
 124.462767,    0.162992
 124.464434,    0.162992
 124.466101,    0.162992
 124.467767,    0.162991
 124.469434,    0.162991
 124.471101,    0.162991
 124.472767,    0.162991
 124.474434,    0.162991
 124.476101,    0.162991
 124.477767,    0.162991
 124.479434,    0.162991
 124.481101,    0.162991
 124.482767,    0.162991
 124.484434,    0.162991
 124.486101,    0.162991
 124.487767,    0.162991
 124.489434,    0.162991
 124.491101,    0.162991
 124.492767,    0.162991
 124.494434,    0.162991
 124.496101,    0.162991
 124.497767,    0.162990
 124.499434,    0.162990
 124.501101,    0.162990
 124.502767,    0.162990
 124.504434,    0.162990
 124.506101,    0.162990
 124.507767,    0.162990
 124.509434,    0.162990
 124.511101,    0.162990
 124.512767,    0.162990
 124.514434,    0.162989
 124.516101,    0.162989
 124.517767,    0.162989
 124.519434,    0.162989
 124.521101,    0.162989
 124.522767,    0.162989
 124.524434,    0.162989
 124.526101,    0.162989
 124.527767,    0.162989
 124.529434,    0.162989
 124.531101,    0.162989
 124.532767,    0.162989
 124.534434,    0.162989
 124.536101,    0.162990
 124.537767,    0.162990
 124.539434,    0.162990
 124.541101,    0.162990
 124.542767,    0.162990
 124.544434,    0.162990
 124.546101,    0.162990
 124.547767,    0.162990
 124.549434,    0.162990
 124.551101,    0.162990
 124.552767,    0.162990
 124.554434,    0.162990
 124.556101,    0.162990
 124.557767,    0.162990
 124.559434,    0.162990
 124.561101,    0.162989
 124.562767,    0.162989
 124.564434,    0.162989
 124.566101,    0.162988
 124.567767,    0.162988
 124.569434,    0.162988
 124.571101,    0.162988
 124.572767,    0.162987
 124.574434,    0.162987
 124.576101,    0.162987
 124.577767,    0.162986
 124.579434,    0.162986
 124.581101,    0.162986
 124.582767,    0.162985
 124.584434,    0.162985
 124.586101,    0.162985
 124.587767,    0.162984
 124.589434,    0.162984
 124.591101,    0.162984
 124.592767,    0.162983
 124.594434,    0.162983
 124.596101,    0.162983
 124.597767,    0.162983
 124.599434,    0.162982
 124.601101,    0.162982
 124.602767,    0.162982
 124.604434,    0.162981
 124.606101,    0.162981
 124.607767,    0.162981
 124.609434,    0.162981
 124.611101,    0.162980
 124.612767,    0.162980
 124.614434,    0.162980
 124.616101,    0.162980
 124.617767,    0.162980
 124.619434,    0.162980
 124.621101,    0.162980
 124.622767,    0.162979
 124.624434,    0.162979
 124.626101,    0.162979
 124.627767,    0.162979
 124.629434,    0.162979
 124.631101,    0.162978
 124.632767,    0.162978
 124.634434,    0.162978
 124.636101,    0.162978
 124.637767,    0.162978
 124.639434,    0.162977
 124.641101,    0.162977
 124.642767,    0.162977
 124.644434,    0.162977
 124.646101,    0.162977
 124.647767,    0.162977
 124.649434,    0.162977
 124.651101,    0.162977
 124.652767,    0.162977
 124.654434,    0.162977
 124.656101,    0.162977
 124.657767,    0.162977
 124.659434,    0.162977
 124.661101,    0.162976
 124.662767,    0.162976
 124.664434,    0.162976
 124.666101,    0.162976
 124.667767,    0.162976
 124.669434,    0.162976
 124.671101,    0.162976
 124.672767,    0.162976
 124.674434,    0.162975
 124.676101,    0.162975
 124.677767,    0.162975
 124.679434,    0.162975
 124.681101,    0.162975
 124.682767,    0.162975
 124.684434,    0.162975
 124.686101,    0.162974
 124.687767,    0.162974
 124.689434,    0.162974
 124.691101,    0.162974
 124.692767,    0.162974
 124.694434,    0.162974
 124.696101,    0.162974
 124.697767,    0.162974
 124.699434,    0.162974
 124.701101,    0.162974
 124.702767,    0.162974
 124.704434,    0.162974
 124.706101,    0.162974
 124.707767,    0.162974
 124.709434,    0.162974
 124.711101,    0.162974
 124.712767,    0.162974
 124.714434,    0.162974
 124.716101,    0.162974
 124.717767,    0.162974
 124.719434,    0.162973
 124.721101,    0.162973
 124.722767,    0.162973
 124.724434,    0.162973
 124.726101,    0.162973
 124.727767,    0.162973
 124.729434,    0.162973
 124.731101,    0.162973
 124.732767,    0.162973
 124.734434,    0.162973
 124.736101,    0.162973
 124.737767,    0.162973
 124.739434,    0.162972
 124.741101,    0.162972
 124.742767,    0.162972
 124.744434,    0.162973
 124.746101,    0.162973
 124.747767,    0.162973
 124.749434,    0.162973
 124.751101,    0.162973
 124.752767,    0.162973
 124.754434,    0.162973
 124.756101,    0.162973
 124.757767,    0.162973
 124.759434,    0.162973
 124.761101,    0.162973
 124.762767,    0.162973
 124.764434,    0.162973
 124.766101,    0.162973
 124.767767,    0.162973
 124.769434,    0.162973
 124.771101,    0.162973
 124.772767,    0.162973
 124.774434,    0.162973
 124.776101,    0.162973
 124.777767,    0.162973
 124.779434,    0.162973
 124.781101,    0.162972
 124.782767,    0.162972
 124.784434,    0.162972
 124.786101,    0.162971
 124.787767,    0.162971
 124.789434,    0.162971
 124.791101,    0.162971
 124.792767,    0.162970
 124.794434,    0.162970
 124.796101,    0.162970
 124.797767,    0.162969
 124.799434,    0.162969
 124.801101,    0.162969
 124.802767,    0.162969
 124.804434,    0.162968
 124.806101,    0.162968
 124.807767,    0.162968
 124.809434,    0.162967
 124.811101,    0.162967
 124.812767,    0.162967
 124.814434,    0.162966
 124.816101,    0.162966
 124.817767,    0.162966
 124.819434,    0.162966
 124.821101,    0.162965
 124.822767,    0.162965
 124.824434,    0.162965
 124.826101,    0.162964
 124.827767,    0.162964
 124.829434,    0.162964
 124.831101,    0.162964
 124.832767,    0.162964
 124.834434,    0.162964
 124.836101,    0.162964
 124.837767,    0.162964
 124.839434,    0.162963
 124.841101,    0.162963
 124.842767,    0.162963
 124.844434,    0.162963
 124.846101,    0.162963
 124.846511,    0.162963
 124.848178,    0.162963
 124.849844,    0.162962
 124.851511,    0.162962
 124.853178,    0.162962
 124.854844,    0.162962
 124.856511,    0.162962
 124.858178,    0.162939
 124.859844,    0.162672
 124.861511,    0.162406
 124.863178,    0.162139
 124.864844,    0.161872
 124.866511,    0.161606
 124.868178,    0.161339
 124.869844,    0.161072
 124.871511,    0.160806
 124.873178,    0.160539
 124.874844,    0.160272
 124.876511,    0.160002
 124.878178,    0.159731
 124.879844,    0.159460
 124.881511,    0.159190
 124.883178,    0.158919
 124.884844,    0.158649
 124.886511,    0.158378
 124.888178,    0.158107
 124.889844,    0.157837
 124.891511,    0.157566
 124.893178,    0.157292
 124.894844,    0.157018
 124.896511,    0.156744
 124.898178,    0.156471
 124.899844,    0.156197
 124.901134,    0.155985
 124.902801,    0.155709
 124.904467,    0.155432
 124.906134,    0.155156
 124.907801,    0.154880
 124.909467,    0.154431
 124.911134,    0.153957
 124.912801,    0.153483
 124.914467,    0.153009
 124.916134,    0.152535
 124.917801,    0.152062
 124.919467,    0.151588
 124.921134,    0.151114
 124.922801,    0.150640
 124.924467,    0.150166
 124.926134,    0.149499
 124.927801,    0.148803
 124.929467,    0.148108
 124.931134,    0.147412
 124.932801,    0.146717
 124.934467,    0.146021
 124.936134,    0.145326
 124.937801,    0.144630
 124.939467,    0.143935
 124.941134,    0.143239
 124.942801,    0.142382
 124.944467,    0.141502
 124.946134,    0.140622
 124.947801,    0.139742
 124.949467,    0.138862
 124.951134,    0.137982
 124.952801,    0.137102
 124.954467,    0.136222
 124.956134,    0.135342
 124.957801,    0.134462
 124.959467,    0.133582
 124.961134,    0.132703
 124.962081,    0.132202
 124.963748,    0.131348
 124.965414,    0.130493
 124.967081,    0.129639
 124.968748,    0.128785
 124.970414,    0.127930
 124.972081,    0.127076
 124.973748,    0.126221
 124.975414,    0.125483
 124.977081,    0.124893
 124.978748,    0.124302
 124.980414,    0.123711
 124.982081,    0.123121
 124.983748,    0.122530
 124.985414,    0.121939
 124.987081,    0.121349
 124.988748,    0.120758
 124.990414,    0.120167
 124.992081,    0.119317
 124.993748,    0.118138
 124.995414,    0.116960
 124.997081,    0.115782
 124.998748,    0.114604
 125.000414,    0.113426
 125.002081,    0.112248
 125.003748,    0.111070
 125.005414,    0.109855
 125.007081,    0.108625
 125.008748,    0.107395
 125.010414,    0.106165
 125.012081,    0.104935
 125.013748,    0.103705
 125.015414,    0.102475
 125.017081,    0.101251
 125.018748,    0.100030
 125.020414,    0.098809
 125.022081,    0.097588
 125.023748,    0.096367
 125.025414,    0.095145
 125.027081,    0.093924
 125.028748,    0.092703
 125.030414,    0.091482
 125.032081,    0.090261
 125.033748,    0.089051
 125.035414,    0.087846
 125.037081,    0.086642
 125.038748,    0.085437
 125.040414,    0.084233
 125.042081,    0.083028
 125.043748,    0.081824
 125.045414,    0.080619
 125.047081,    0.079415
 125.048748,    0.078210
 125.050414,    0.077014
 125.052081,    0.075822
 125.053748,    0.074629
 125.055414,    0.073437
 125.057081,    0.072245
 125.058748,    0.071053
 125.060414,    0.069861
 125.062081,    0.068669
 125.063748,    0.067476
 125.065414,    0.066284
 125.067081,    0.065091
 125.068748,    0.063896
 125.070414,    0.062702
 125.072081,    0.061507
 125.073748,    0.060313
 125.075414,    0.059118
 125.077081,    0.057924
 125.078748,    0.056729
 125.080414,    0.055535
 125.082081,    0.054340
 125.083748,    0.053148
 125.085414,    0.051958
 125.087081,    0.050767
 125.088748,    0.049577
 125.090414,    0.048386
 125.092081,    0.047195
 125.093748,    0.046005
 125.095414,    0.044814
 125.097081,    0.043623
 125.098748,    0.042433
 125.100414,    0.041249
 125.102081,    0.040069
 125.103748,    0.038888
 125.105414,    0.037708
 125.107081,    0.036528
 125.108748,    0.035348
 125.110414,    0.034168
 125.112081,    0.032987
 125.113748,    0.031807
 125.115414,    0.030627
 125.117081,    0.029457
 125.118748,    0.028294
 125.120414,    0.027130
 125.122081,    0.025967
 125.123748,    0.024804
 125.125414,    0.023640
 125.127081,    0.022477
 125.128748,    0.021313
 125.130414,    0.020150
 125.132081,    0.018986
 125.133748,    0.017837
 125.135414,    0.016696
 125.137081,    0.015556
 125.138748,    0.014415
 125.140414,    0.013274
 125.142081,    0.012133
 125.143748,    0.010992
 125.145414,    0.009852
 125.147081,    0.008711
 125.148748,    0.007570
 125.150414,    0.006445
 125.152081,    0.005328
 125.153748,    0.004212
 125.155414,    0.003095
 125.157081,    0.001979
 125.158748,    0.000862
 125.160050,   -0.000010
