Ground Distance, Speed
   0.000000,    0.000280
   0.015373,    0.279787
   0.168785,    0.558184
   0.339218,    0.836410
   0.509650,    1.114636
   0.680083,    1.392862
   0.850515,    1.671089
   1.020948,    1.949315
   1.191380,    2.227541
   1.361813,    2.505767
   1.532245,    2.783993
   1.702678,    3.062219
   2.119185,    3.337895
   2.566417,    3.613254
   3.013649,    3.888612
   3.460881,    4.163971
   3.908113,    4.439329
   4.355345,    4.714688
   4.802576,    4.990046
   5.249808,    5.265405
   5.697040,    5.540763
   6.144272,    5.816122
   6.834992,    6.088857
   7.556114,    6.361265
   8.277236,    6.633673
   8.998358,    6.906081
   9.719480,    7.178489
  10.440601,    7.450897
  11.161723,    7.723305
  11.882845,    7.995713
  12.603967,    8.268122
  13.325089,    8.540530
  14.287041,    8.810245
  15.279063,    9.079624
  16.271085,    9.349004
  17.263106,    9.618383
  18.255128,    9.887762
  19.247150,   10.157141
  20.239172,   10.426521
  21.231194,   10.695900
  22.223216,   10.965279
  23.215238,   11.234658
  24.445364,   11.501279
  25.705220,   11.767556
  26.965075,   12.033833
  28.224931,   12.300109
  29.484787,   12.566386
  30.744643,   12.832663
  32.004499,   13.098939
  33.264354,   13.365216
  34.524210,   13.631493
  35.784066,   13.897769
  37.279237,   14.161226
  38.803789,   14.424331
  40.328341,   14.687436
  41.852893,   14.950541
  43.377445,   15.213645
  44.901997,   15.476750
  46.426549,   15.739855
  47.951101,   16.002960
  49.475653,   16.266064
  51.000206,   16.529169
  52.757125,   16.789038
  54.543057,   17.048503
  56.328989,   17.307969
  58.114921,   17.567434
  59.900854,   17.826899
  61.686786,   18.086364
  63.472718,   18.345829
  65.258650,   18.605294
  67.044583,   18.864759
  68.830515,   19.124225
  70.845145,   19.379738
  72.888330,   19.634757
  74.931515,   19.889777
  76.974701,   20.144797
  79.017886,   20.399817
  81.061071,   20.654836
  83.104256,   20.909856
  85.147441,   21.164876
  87.190626,   21.419896
  89.233812,   21.674915
  91.501718,   21.925951
  93.797684,   22.176489
  96.093649,   22.427026
  98.389614,   22.677564
 100.685580,   22.928102
 102.981545,   23.178640
 105.277510,   23.429178
 107.573476,   23.679716
 109.869441,   23.930254
 112.165406,   24.180791
 114.682102,   24.427333
 117.226359,   24.673375
 119.770615,   24.919417
 122.314871,   25.165460
 124.859128,   25.411502
 127.403384,   25.657544
 129.947640,   25.903587
 132.491897,   26.149629
 135.036153,   26.395671
 137.580409,   26.641714
 140.341396,   26.883752
 143.129443,   27.125291
 145.917490,   27.366829
 148.705537,   27.608367
 151.493584,   27.849906
 154.281632,   28.091444
 157.069679,   28.332982
 159.857726,   28.574521
 162.645773,   28.816059
 165.433820,   29.057598
 168.434592,   29.295129
 171.461924,   29.532160
 174.489256,   29.769191
 177.516588,   30.006222
 180.543920,   30.243253
 183.571252,   30.480284
 186.598584,   30.717315
 189.625916,   30.954346
 192.653248,   31.191377
 195.680580,   31.428408
 198.916629,   31.661433
 202.178739,   31.893959
 205.440848,   32.126484
 208.702958,   32.359009
 211.965068,   32.591534
 215.227178,   32.824059
 218.489287,   33.056584
 221.751397,   33.289109
 225.013507,   33.521635
 228.275617,   33.754160
 231.742291,   33.982192
 235.234507,   34.209664
 238.726722,   34.437136
 242.218938,   34.664608
 245.711154,   34.892079
 249.203370,   35.119551
 252.695586,   35.347023
 256.187802,   35.574495
 259.680018,   35.801967
 263.172234,   36.029438
 266.864084,   36.251735
 270.580862,   36.473386
 274.297639,   36.695037
 278.014416,   36.916688
 281.731193,   37.138339
 285.447970,   37.359990
 289.164747,   37.581641
 292.881525,   37.803291
 296.598302,   38.024942
 300.315079,   38.246593
 304.226339,   38.463127
 308.161883,   38.679022
 312.097426,   38.894917
 316.032970,   39.110813
 319.968513,   39.326708
 323.904057,   39.542603
 327.839600,   39.758498
 331.775144,   39.974393
 335.710687,   40.190288
 339.646231,   40.406183
 343.771177,   40.617034
 347.919771,   40.827255
 352.068366,   41.037475
 356.216960,   41.247696
 360.365555,   41.457917
 364.514149,   41.668138
 368.662744,   41.878358
 372.811338,   42.088579
 376.959933,   42.298800
 381.108527,   42.509021
 385.441517,   42.714272
 389.797530,   42.918903
 394.153544,   43.123534
 398.509557,   43.328165
 402.865570,   43.532796
 407.221583,   43.737427
 411.577596,   43.942058
 415.933610,   44.146689
 420.289623,   44.351320
 424.645636,   44.555951
 429.181114,   44.755690
 433.739000,   44.954819
 438.296885,   45.153948
 442.854771,   45.353077
 447.412657,   45.552205
 451.970542,   45.751334
 456.528428,   45.950463
 461.086313,   46.149591
 465.644199,   46.348720
 470.202085,   46.547849
 474.934583,   46.742166
 479.688884,   46.935883
 484.443185,   47.129599
 489.197485,   47.323316
 493.951786,   47.517032
 498.706087,   47.710749
 503.460387,   47.904465
 508.214688,   48.098182
 512.968989,   48.291898
 517.723290,   48.485615
 522.647433,   48.674602
 527.592782,   48.862999
 532.538132,   49.051395
 537.483481,   49.239792
 542.428831,   49.428189
 547.374180,   49.616585
 552.319530,   49.804982
 557.264879,   49.993379
 562.210228,   50.181775
 567.155578,   50.370172
 572.266084,   50.553934
 577.397212,   50.737118
 582.528339,   50.920302
 587.659467,   51.103486
 592.790594,   51.286670
 597.921721,   51.469854
 603.052849,   51.653038
 608.183976,   51.836222
 613.315104,   52.019406
 618.446231,   52.202590
 623.737949,   52.381268
 629.049717,   52.559384
 634.361486,   52.737500
 639.673254,   52.915616
 644.985023,   53.093732
 650.296791,   53.271848
 655.608560,   53.449964
 660.920328,   53.628080
 666.232097,   53.806196
 671.543865,   53.984312
 677.011762,   54.158009
 682.499153,   54.331154
 687.986544,   54.504299
 693.473935,   54.677444
 698.961327,   54.850589
 704.448718,   55.023734
 709.936109,   55.196879
 715.423500,   55.370024
 720.910891,   55.543168
 726.398282,   55.716313
 732.037424,   55.885124
 737.695515,   56.053392
 743.353605,   56.221661
 749.011695,   56.389930
 754.669785,   56.558199
 760.327875,   56.726468
 765.985965,   56.894737
 771.644055,   57.063006
 777.302145,   57.231275
 782.960235,   57.399544
 788.700458,   57.565452
 789.596318,   57.591253
 795.428852,   57.754494
 801.261386,   57.917735
 807.093920,   58.080976
 812.926454,   58.244217
 818.758988,   58.407458
 824.591522,   58.570699
 830.424056,   58.733940
 836.256590,   58.897181
 842.095900,   59.060108
 848.079721,   59.216345
 854.063542,   59.372581
 860.047362,   59.528817
 866.031183,   59.685054
 872.015003,   59.841290
 877.998824,   59.997527
 883.982644,   60.153763
 889.966465,   60.309999
 895.950285,   60.466236
 901.940895,   60.622054
 908.076286,   60.768962
 914.211677,   60.915869
 920.347068,   61.062776
 926.482459,   61.209684
 932.617850,   61.356591
 938.753241,   61.503499
 944.888632,   61.650406
 951.024023,   61.797313
 957.159414,   61.944221
 963.301150,   62.090658
 969.578194,   62.227062
 975.855238,   62.363467
 982.132281,   62.499871
 988.409325,   62.636275
 994.686369,   62.772680
1000.963413,   62.909084
1007.240457,   63.045489
1013.517500,   63.181893
1019.794544,   63.318298
1025.790447,   63.448593
1032.174633,   63.511853
1038.558819,   63.575113
1044.943005,   63.638373
1051.327191,   63.701633
1057.711377,   63.764893
1064.095563,   63.828153
1070.479749,   63.891413
1076.863935,   63.954673
1083.248121,   64.017933
1089.632307,   64.081194
1096.044616,   64.093572
1102.456926,   64.105950
1108.869235,   64.118328
1115.281544,   64.130706
1121.693854,   64.143084
1128.105808,   64.129352
1134.517762,   64.115621
1140.929716,   64.101890
1147.341670,   64.088158
1153.753624,   64.074427
1160.151680,   64.034681
1166.549735,   63.994935
1172.947791,   63.955189
1179.345847,   63.915443
1185.743902,   63.875697
