Ground Distance, Speed
   0.000000,    0.000280
   0.015373,    0.279787
   0.168785,    0.558183
   0.339217,    0.836408
   0.509649,    1.114632
   0.680081,    1.392857
   0.850513,    1.671081
   1.020945,    1.949306
   1.191377,    2.227530
   1.361810,    2.505755
   1.532242,    2.783979
   1.702674,    3.062204
   2.119176,    3.337873
   2.566403,    3.613222
   3.013630,    3.888572
   3.460857,    4.163922
   3.908084,    4.439272
   4.355311,    4.714622
   4.802538,    4.989971
   5.249765,    5.265321
   5.696992,    5.540671
   6.144219,    5.816021
   6.834921,    6.088736
   7.556023,    6.361122
   8.277125,    6.633508
   8.998227,    6.905894
   9.719329,    7.178280
  10.440431,    7.450666
  11.161533,    7.723052
  11.882635,    7.995438
  12.603737,    8.267824
  13.324839,    8.540210
  14.286743,    8.809886
  15.278714,    9.079224
  16.270685,    9.348562
  17.262656,    9.617900
  18.254627,    9.887238
  19.246597,   10.156576
  20.238568,   10.425914
  21.230539,   10.695252
  22.222510,   10.964590
  23.214481,   11.233928
  24.444509,   11.500485
  25.704260,   11.766696
  26.964012,   12.032906
  28.223763,   12.299117
  29.483515,   12.565327
  30.743266,   12.831538
  32.003017,   13.097748
  33.262769,   13.363959
  34.522520,   13.630169
  35.782272,   13.896380
  37.277267,   14.159744
  38.801634,   14.422752
  40.326001,   14.685761
  41.850368,   14.948769
  43.374735,   15.211778
  44.899102,   15.474786
  46.423469,   15.737795
  47.947835,   16.000803
  49.472202,   16.263812
  50.996569,   16.526820
  52.753203,   16.786563
  54.538837,   17.045898
  56.324472,   17.305233
  58.110106,   17.564568
  59.895740,   17.823903
  61.681374,   18.083238
  63.467009,   18.342573
  65.252643,   18.601908
  67.038277,   18.861243
  68.823911,   19.120578
  70.838111,   19.375927
  72.880849,   19.630778
  74.923587,   19.885628
  76.966325,   20.140479
  79.009063,   20.395330
  81.051801,   20.650181
  83.094539,   20.905032
  85.137277,   21.159882
  87.180015,   21.414733
  89.222753,   21.669584
  91.490044,   21.920412
  93.785372,   22.170738
  96.080700,   22.421065
  98.376028,   22.671391
 100.671357,   22.921717
 102.966685,   23.172043
 105.262013,   23.422369
 107.557341,   23.672695
 109.852669,   23.923022
 112.147997,   24.173348
 114.663848,   24.419636
 117.207232,   24.665421
 119.750617,   24.911205
 122.294002,   25.156989
 124.837386,   25.402774
 127.380771,   25.648558
 129.924156,   25.894343
 132.467540,   26.140127
 135.010925,   26.385911
 137.554309,   26.631696
 140.314173,   26.873432
 143.101066,   27.114663
 145.887959,   27.355895
 148.674852,   27.597126
 151.461746,   27.838357
 154.248639,   28.079588
 157.035532,   28.320819
 159.822425,   28.562050
 162.609318,   28.803281
 165.396211,   29.044512
 168.395532,   29.281690
 171.421377,   29.518362
 174.447222,   29.755034
 177.473067,   29.991705
 180.498912,   30.228377
 183.524756,   30.465049
 186.550601,   30.701721
 189.576446,   30.938392
 192.602291,   31.175064
 195.628136,   31.411736
 198.862355,   31.644353
 202.122591,   31.876465
 205.382827,   32.108576
 208.643064,   32.340688
 211.903300,   32.572800
 215.163536,   32.804911
 218.423773,   33.037023
 221.684009,   33.269134
 224.944245,   33.501246
 228.204481,   33.733357
 231.668895,   33.960938
 235.158801,   34.187952
 238.648708,   34.414967
 242.138614,   34.641982
 245.628521,   34.868997
 249.118428,   35.096012
 252.608334,   35.323027
 256.098241,   35.550041
 259.588147,   35.777056
 263.078054,   36.004071
 266.767166,   36.225863
 270.481150,   36.447003
 274.195135,   36.668143
 277.909119,   36.889284
 281.623104,   37.110424
 285.337089,   37.331564
 289.051073,   37.552704
 292.765058,   37.773844
 296.479042,   37.994984
 300.193027,   38.216124
 304.101016,   38.432098
 308.033229,   38.647427
 311.965441,   38.862756
 315.897653,   39.078085
 319.829866,   39.293414
 323.762078,   39.508743
 327.694291,   39.724072
 331.626503,   39.939401
 335.558716,   40.154729
 339.490928,   40.370058
 343.612015,   40.580293
 347.756684,   40.789892
 351.901354,   40.999491
 356.046023,   41.209090
 360.190693,   41.418689
 364.335362,   41.628288
 368.480032,   41.837887
 372.624701,   42.047486
 376.769371,   42.257085
 380.914040,   42.466684
 385.242527,   42.671264
 389.593966,   42.875218
 393.945405,   43.079171
 398.296843,   43.283125
 402.648282,   43.487079
 406.999720,   43.691032
 411.351159,   43.894986
 415.702597,   44.098939
 420.054036,   44.302893
 424.405474,   44.506847
 428.935751,   44.705860
 433.488357,   44.904256
 438.040963,   45.102653
 442.593569,   45.301049
 447.146175,   45.499445
 451.698781,   45.697841
 456.251387,   45.896238
 460.803994,   46.094634
 465.356600,   46.293030
 469.909206,   46.491427
 474.635749,   46.684963
 479.384011,   46.877893
 484.132272,   47.070823
 488.880534,   47.263752
 493.628795,   47.456682
 498.377056,   47.649612
 503.125318,   47.842541
 507.873579,   48.035471
 512.621841,   48.228401
 517.370102,   48.421330
 522.287483,   48.609483
 527.225979,   48.797040
 532.164476,   48.984596
 537.102972,   49.172152
 542.041469,   49.359709
 546.979965,   49.547265
 551.918462,   49.734821
 556.856959,   49.922378
 561.795455,   50.109934
 566.733952,   50.297490
 571.836835,   50.480366
 576.960243,   50.662657
 582.083652,   50.844948
 587.207060,   51.027239
 592.330468,   51.209530
 597.453877,   51.391821
 602.577285,   51.574112
 607.700694,   51.756403
 612.824102,   51.938694
 617.947510,   52.120985
 623.230690,   52.298723
 628.533819,   52.475892
 633.836948,   52.653061
 639.140077,   52.830231
 644.443206,   53.007400
 649.746335,   53.184569
 655.049464,   53.361738
 660.352593,   53.538908
 665.655722,   53.716077
 670.958851,   53.893246
 676.417244,   54.065952
 681.895024,   54.238100
 687.372804,   54.410249
 692.850584,   54.582397
 698.328364,   54.754545
 703.806143,   54.926694
 709.283923,   55.098842
 714.761703,   55.270991
 720.239483,   55.443139
 725.717263,   55.615288
 731.303522,   55.784293
 736.903326,   55.952907
 742.503130,   56.121520
 748.102934,   56.290133
 750.429016,   56.360173
 756.112488,   56.526347
 761.795960,   56.692522
 767.479432,   56.858696
 773.162904,   57.024871
 778.846375,   57.191045
 784.568708,   57.355385
 790.379849,   57.515534
 796.190990,   57.675683
 802.002132,   57.835832
 807.813273,   57.995980
 813.624414,   58.156129
 819.435555,   58.316278
 825.246697,   58.476427
 831.057838,   58.636575
 836.868979,   58.796724
 842.727488,   58.954114
 848.694245,   59.105199
 854.661002,   59.256284
 860.627759,   59.407369
 866.594516,   59.558454
 872.561273,   59.709539
 878.528030,   59.860624
 884.494787,   60.011710
 890.461544,   60.162795
 896.428301,   60.313880
 902.439491,   60.461856
 908.552225,   60.602729
 914.664958,   60.743602
 920.777691,   60.884474
 926.890425,   61.025347
 933.003158,   61.166219
 939.115891,   61.307092
 945.228625,   61.447965
 951.341358,   61.588837
 957.454091,   61.729710
 961.706192,   61.827703
 967.934738,   61.905500
 974.163284,   61.983298
 980.391830,   62.061096
 986.620376,   62.138894
 992.848922,   62.216692
 999.077468,   62.294490
1005.306014,   62.372287
1011.534560,   62.450085
1017.763106,   62.527883
1023.991652,   62.605681
1030.261056,   62.637258
1036.530460,   62.668835
1042.799864,   62.700412
1049.069269,   62.731989
1055.338673,   62.763566
1061.618214,   62.772546
1067.897755,   62.781526
1074.177297,   62.790506
1080.456838,   62.799486
1086.736379,   62.808466
1093.011579,   62.788673
1099.286780,   62.768879
1105.561980,   62.749085
1111.837180,   62.729292
1118.112381,   62.709498
1124.387581,   62.689704
1130.662781,   62.669911
1136.937982,   62.650117
