Time, Altitude
   0.000100,    0.000000
   0.000632,    0.000000
   0.002658,    0.000000
   0.010813,    0.000000
   0.025337,    0.000000
   0.052438,    0.000000
   0.080756,    0.000000
   0.109151,    0.000000
   0.137475,    0.000000
   0.165924,    0.000000
   0.194561,    0.000000
   0.223268,    0.000000
   0.251881,    0.000000
   0.280809,    0.000000
   0.309715,    0.000000
   0.338699,    0.000000
   0.368081,    0.000000
   0.397342,    0.000000
   0.426895,    0.000000
   0.456628,    0.000000
   0.486143,    0.000000
   0.515893,    0.000000
   0.546240,    0.000000
   0.576696,    0.000000
   0.607149,    0.000000
   0.637996,    0.000000
   0.668871,    0.000000
   0.700113,    0.000000
   0.731322,    0.000000
   0.763022,    0.000000
   0.794720,    0.000000
   0.826546,    0.000000
   0.858859,    0.000000
   0.891226,    0.000000
   0.923987,    0.000000
   0.957066,    0.000000
   0.990520,    0.000000
   1.023672,    0.000000
   1.056808,    0.000000
   1.090362,    0.000000
   1.124297,    0.000000
   1.158939,    0.000000
   1.193709,    0.000000
   1.228613,    0.000000
   1.263827,    0.000000
   1.299374,    0.000000
   1.335333,    0.000000
   1.371267,    0.000000
   1.407707,    0.000000
   1.444142,    0.000000
   1.480707,    0.000000
   1.518105,    0.000000
   1.555786,    0.000000
   1.593149,    0.000000
   1.630917,    0.000000
   1.668815,    0.000000
   1.707771,    0.000000
   1.746453,    0.000000
   1.785409,    0.000000
   1.824306,    0.000000
   1.863714,    0.000000
   1.903442,    0.000000
   1.943357,    0.000000
   1.983599,    0.000000
   2.023895,    0.000000
   2.064363,    0.000000
   2.105067,    0.000000
   2.146850,    0.000000
   2.188147,    0.000000
   2.229894,    0.000000
   2.271762,    0.000000
   2.313916,    0.000000
   2.356660,    0.000000
   2.399529,    0.000000
   2.442515,    0.000000
   2.486167,    0.000000
   2.529532,    0.000000
   2.573081,    0.000000
   2.617413,    0.000000
   2.661707,    0.000000
   2.706131,    0.000000
   2.751359,    0.000000
   2.796088,    0.000000
   2.841126,    0.000000
   2.886382,    0.000000
   2.931919,    0.000000
   2.978012,    0.000000
   3.023810,    0.000000
   3.069837,    0.000000
   3.117171,    0.000000
   3.164173,    0.000000
   3.211172,    0.000000
   3.258823,    0.000000
   3.306476,    0.000000
   3.354392,    0.000000
   3.402537,    0.000000
   3.451201,    0.000000
   3.499963,    0.000000
   3.548561,    0.000000
   3.597683,    0.000000
   3.646529,    0.000000
   3.695882,    0.000000
   3.745358,    0.000000
   3.795275,    0.000000
   3.845122,    0.000000
   3.895289,    0.000000
   3.946060,    0.000000
   3.997251,    0.000000
   4.048293,    0.000000
   4.099339,    0.000000
   4.150836,    0.000000
   4.203207,    0.000000
   4.213623,    0.000000
   4.222181,    0.000000
   4.248275,    0.000000
   4.248673,    0.000000
   4.249019,    0.000000
   4.249095,    0.000000
   4.249133,    0.000000
   4.249201,    0.000000
   4.249210,    0.000000
   4.249215,    0.000000
   4.249219,    0.000000
   4.249267,    0.000000
   4.249690,    0.000000
   4.252402,    0.000000
   4.263208,    0.000000
   4.296545,    0.000000
   4.346130,    0.000000
   4.394214,    0.000000
   4.442159,    0.000000
   4.490780,    0.000000
   4.539116,    0.000000
   4.588034,    0.000000
   4.637220,    0.000000
   4.686517,    0.000000
   4.736073,    0.000000
   4.785890,    0.000000
   4.835599,    0.000000
   4.885333,    0.000000
   4.935507,    0.000000
   4.985866,    0.000000
   5.036514,    0.000000
   5.087323,    0.000000
   5.138593,    0.000000
   5.189482,    0.000000
   5.240800,    0.000000
   5.292242,    0.000000
   5.343674,    0.000000
   5.395388,    0.000000
   5.447523,    0.000000
   5.499790,    0.000000
   5.551821,    0.000000
   5.604327,    0.000000
   5.657122,    0.000000
   5.709862,    0.000000
   5.762575,    0.000000
   5.815843,    0.000000
   5.869189,    0.000000
   5.922726,    0.000000
   5.976250,    0.000000
   6.030013,    0.000000
   6.083682,    0.000000
   6.137844,    0.000000
   6.192220,    0.000000
   6.246317,    0.000000
   6.300580,    0.000000
   6.355191,    0.000000
   6.410002,    0.000000
   6.465018,    0.000000
   6.520351,    0.000000
   6.575494,    0.000000
   6.631043,    0.000000
   6.686863,    0.000000
   6.742963,    0.000000
   6.799092,    0.000000
   6.855475,    0.000000
   6.911870,    0.000000
   6.968183,    0.000000
   7.024938,    0.000000
   7.081384,    0.000000
   7.138307,    0.000000
   7.195322,    0.000000
   7.252454,    0.000000
   7.309991,    0.000000
   7.367677,    0.000000
   7.425368,    0.000000
   7.483269,    0.000000
   7.541544,    0.000000
   7.599963,    0.000000
   7.658227,    0.000000
   7.716613,    0.000000
   7.775218,    0.000000
   7.833858,    0.000000
   7.892667,    0.000000
   7.951721,    0.000000
   8.011161,    0.000000
   8.070831,    0.000000
   8.130410,    0.000000
   8.189876,    0.000000
   8.249436,    0.000000
   8.309561,    0.000000
   8.369460,    0.000000
   8.429665,    0.000000
   8.490076,    0.000000
   8.550362,    0.000000
   8.611048,    0.000000
   8.671989,    0.000000
   8.733065,    0.000000
   8.735514,    0.000000
   8.737607,    0.000000
   8.739641,    0.000000
   8.742127,    0.000000
   8.742682,    0.000000
   8.743352,    0.000000
   8.743493,    0.000000
   8.743563,    0.000000
   8.743701,    0.000000
   8.743716,    0.000000
   8.743725,    0.000000
   8.743816,    0.000000
   8.743929,    0.000000
   8.745058,    0.000000
   8.751410,    0.000000
   8.773873,    0.000000
   8.825941,    0.000000
   8.881811,    0.000000
   8.937860,    0.000000
   8.993927,    0.000000
   9.050154,    0.000000
   9.106220,    0.000000
   9.162728,    0.000000
   9.219317,    0.000000
   9.276054,    0.000000
   9.332797,    0.000000
   9.389730,    0.000000
   9.446577,    0.000000
   9.503703,    0.000000
   9.560852,    0.000000
   9.618324,    0.000000
   9.675771,    0.000000
   9.733194,    0.000000
   9.790908,    0.000000
   9.848630,    0.000000
   9.906377,    0.000000
   9.964418,    0.000000
  10.022419,    0.000000
  10.080549,    0.000000
  10.139048,    0.000000
  10.197540,    0.000000
  10.256306,    0.000000
  10.314900,    0.000000
  10.373545,    0.000000
  10.432610,    0.000000
  10.491838,    0.000000
  10.550919,    0.000000
  10.610485,    0.000000
  10.669931,    0.000000
  10.729587,    0.000000
  10.789269,    0.000000
  10.848904,    0.000000
  10.908531,    0.000000
  10.968608,    0.000000
  11.028690,    0.000000
  11.088953,    0.000000
  11.149277,    0.000000
  11.209650,    0.000000
  11.270424,    0.000000
  11.331182,    0.000000
  11.392066,    0.000000
  11.452787,    0.000000
  11.513669,    0.000000
  11.574900,    0.000000
  11.636200,    0.000000
  11.697552,    0.000000
  11.759047,    0.000000
  11.820512,    0.000000
  11.882249,    0.000000
  11.943990,    0.000000
  12.005911,    0.000000
  12.067807,    0.000000
  12.129737,    0.000000
  12.191896,    0.000000
  12.254202,    0.000000
  12.316645,    0.000000
  12.379231,    0.000000
  12.441718,    0.000000
  12.504194,    0.000000
  12.567178,    0.000000
  12.630040,    0.000000
  12.693062,    0.000000
  12.756189,    0.000000
  12.819533,    0.000000
  12.883028,    0.000000
  12.946426,    0.000000
  13.009801,    0.000000
  13.073526,    0.000000
  13.137278,    0.000000
  13.201257,    0.000000
  13.265230,    0.000000
  13.329196,    0.000000
  13.393376,    0.000000
  13.457570,    0.000000
  13.522034,    0.000000
  13.586432,    0.000000
  13.599392,    0.000000
  13.608217,    0.000000
  13.615227,    0.000000
  13.620126,    0.000000
  13.623802,    0.000000
  13.627521,    0.000000
  13.630650,    0.000000
  13.631552,    0.000000
  13.632899,    0.000000
  13.633184,    0.000000
  13.633296,    0.000000
  13.633519,    0.000000
  13.633534,    0.000000
  13.633549,    0.000000
  13.633692,    0.000000
  13.634882,    0.000000
  13.642222,    0.000000
  13.681772,    0.000000
  13.739743,    0.000000
  13.797912,    0.000000
  13.856017,    0.000000
  13.914109,    0.000000
  13.972329,    0.000000
  14.030702,    0.000000
  14.089048,    0.000000
  14.147659,    0.000000
  14.206281,    0.000000
  14.264802,    0.000000
  14.323447,    0.000000
  14.382239,    0.000000
  14.441245,    0.000000
  14.500144,    0.000000
  14.559290,    0.000000
  14.618562,    0.000000
  14.677885,    0.000000
  14.737128,    0.000000
  14.796642,    0.000000
  14.856058,    0.000000
  14.915644,    0.000000
  14.975266,    0.000000
  15.035017,    0.000000
  15.094719,    0.000000
  15.154784,    0.000000
  15.214706,    0.000000
  15.274816,    0.000000
  15.335089,    0.000000
  15.395270,    0.000000
  15.455589,    0.000000
  15.516108,    0.000000
  15.576628,    0.000000
  15.637224,    0.000000
  15.697817,    0.000000
  15.758578,    0.000000
  15.819490,    0.000000
  15.880458,    0.000000
  15.941488,    0.000000
  16.002586,    0.000000
  16.063799,    0.000000
  16.124990,    0.000000
  16.186168,    0.000000
  16.247844,    0.000000
  16.309469,    0.000000
  16.370863,    0.000000
  16.432565,    0.000000
  16.494322,    0.000000
  16.556203,    0.000000
  16.618024,    0.000000
  16.680143,    0.000000
  16.742204,    0.000000
  16.804267,    0.000000
  16.866480,    0.000000
  16.929038,    0.000000
  16.991566,    0.000000
  17.054138,    0.000000
  17.116678,    0.000000
  17.179318,    0.000000
  17.242122,    0.000000
  17.304960,    0.000000
  17.367945,    0.000000
  17.431010,    0.000000
  17.494262,    0.000000
  17.557292,    0.000000
  17.620391,    0.000000
  17.683846,    0.000000
  17.747425,    0.000000
  17.810979,    0.000000
  17.874352,    0.000000
  17.938096,    0.000000
  18.001987,    0.000000
  18.065859,    0.000000
  18.129744,    0.000000
  18.193673,    0.000000
  18.257823,    0.000000
  18.321894,    0.000000
  18.386184,    0.000000
  18.450438,    0.000000
  18.514793,    0.000000
  18.579328,    0.000000
  18.643987,    0.000000
  18.708539,    0.000000
  18.773222,    0.000000
  18.838009,    0.000000
  18.902914,    0.000000
  18.967936,    0.000000
  19.033104,    0.000000
  19.098203,    0.000000
  19.163320,    0.000000
  19.176408,    0.000000
  19.178533,    0.000000
  19.180862,    0.000000
  19.181386,    0.000000
  19.181743,    0.000000
  19.181922,    0.000000
  19.182050,    0.000000
  19.182125,    0.000000
  19.182172,    0.000000
  19.182215,    0.000000
  19.182643,    0.000000
  19.186108,    0.000000
  19.207347,    0.000000
  19.264769,    0.000000
  19.330096,    0.000000
  19.395185,    0.000000
  19.460489,    0.000000
  19.525808,    0.000000
  19.591274,    0.000000
  19.656838,    0.000000
  19.722436,    0.000000
  19.788088,    0.000000
  19.853770,    0.000000
  19.919587,    0.000000
  19.985511,    0.000000
  20.051414,    0.000000
  20.117350,    0.000000
  20.183326,    0.000000
  20.249442,    0.000000
  20.315737,    0.000000
  20.381975,    0.000000
  20.448427,    0.000000
  20.514867,    0.000000
  20.581477,    0.000000
  20.648104,    0.000000
  20.714923,    0.000000
  20.781694,    0.000000
  20.848595,    0.000000
  20.915508,    0.000000
  20.982529,    0.000000
  21.049656,    0.000000
  21.116935,    0.000000
  21.184116,    0.000000
  21.251573,    0.000000
  21.318992,    0.000000
  21.386447,    0.000000
  21.453954,    0.000000
  21.521493,    0.000000
  21.589342,    0.000000
  21.657052,    0.000000
  21.724956,    0.000000
  21.792864,    0.000000
  21.860877,    0.000000
  21.929004,    0.000000
  21.997206,    0.000000
  22.065524,    0.000000
  22.133808,    0.000000
  22.202272,    0.000000
  22.270736,    0.000000
  22.339293,    0.000000
  22.407878,    0.000000
  22.476730,    0.000000
  22.545552,    0.000000
  22.614458,    0.000000
  22.683398,    0.000000
  22.752445,    0.000000
  22.821702,    0.000000
  22.890851,    0.000000
  22.959974,    0.000000
  23.029289,    0.000000
  23.098736,    0.000000
  23.168081,    0.000000
  23.237668,    0.000000
  23.307226,    0.000000
  23.377005,    0.000000
  23.446710,    0.000000
  23.516719,    0.000000
  23.586575,    0.000000
  23.656507,    0.000000
  23.726536,    0.000000
  23.796740,    0.000000
  23.867005,    0.000000
  23.937359,    0.000000
  23.967061,    0.000000
  24.007723,    0.000000
  24.078299,    0.000000
  24.148844,    0.000000
  24.219490,    0.000000
  24.290268,    0.000000
  24.361048,    0.000000
  24.431805,    0.000000
  24.502713,    0.000000
  24.573733,    0.000000
  24.644876,    0.000000
  24.715999,    0.000000
  24.787062,    0.000000
  24.858332,    0.000000
  24.929562,    0.000000
  25.000896,    0.000000
  25.072192,    0.000000
  25.143504,    0.000000
  25.215019,    0.000000
  25.286510,    0.000000
  25.358125,    0.000000
  25.429753,    0.000000
  25.501380,    0.000000
  25.573152,    0.000000
  25.644947,    0.000000
  25.716642,    0.000000
  25.731009,    0.000000
  25.781596,    0.000000
  25.784464,    0.000000
  25.785359,    0.000000
  25.786514,    0.000000
  25.786789,    0.000000
  25.787313,    0.000000
  25.787437,    0.000000
  25.787475,    0.000000
  25.787514,    0.000000
  25.787551,    0.000000
  25.787926,    0.000000
  25.790516,    0.000000
  25.804901,    0.000000
  25.867860,    0.000000
  25.942166,    0.000000
  26.016388,    0.000000
  26.090677,    0.000000
  26.164910,    0.000000
  26.239166,    0.000000
  26.313450,    0.000000
  26.387905,    0.000000
  26.462339,    0.000000
  26.536750,    0.000000
  26.611017,    0.000000
  26.685460,    0.000000
  26.759824,    0.000000
  26.765667,    0.000009
  26.771513,    0.000035
  26.777368,    0.000078
  26.783225,    0.000140
  26.789082,    0.000221
  26.794942,    0.000320
  26.800784,    0.000438
  26.806649,    0.000576
  26.812524,    0.000735
  26.818386,    0.000914
  26.824261,    0.001113
  26.830126,    0.001334
  26.835999,    0.001576
  26.841878,    0.001840
  26.847777,    0.002128
  26.853662,    0.002438
  26.859552,    0.002771
  26.865462,    0.003129
  26.871357,    0.003509
  26.877278,    0.003916
  26.883207,    0.004348
  26.889132,    0.004805
  26.895061,    0.005289
  26.900984,    0.005797
  26.906924,    0.006333
  26.912830,    0.006893
  26.918780,    0.007484
  26.924697,    0.008100
  26.930650,    0.008747
  26.936594,    0.009421
  26.942555,    0.010126
  26.948526,    0.010862
  26.954503,    0.011629
  26.960489,    0.012426
  26.966479,    0.013255
  26.972461,    0.014114
  26.978470,    0.015008
  26.984490,    0.015936
  26.990500,    0.016895
  26.996513,    0.017887
  27.002526,    0.018913
  27.008539,    0.019972
  27.014576,    0.021069
  27.020614,    0.022202
  27.026633,    0.023365
  27.032691,    0.024572
  27.038701,    0.025805
  27.044756,    0.027084
  27.050800,    0.028397
  27.056859,    0.029750
  27.062920,    0.031142
  27.068995,    0.032574
  27.075073,    0.034047
  27.081174,    0.035564
  27.087300,    0.037127
  27.093414,    0.038728
  27.099527,    0.040369
  27.105629,    0.042049
  27.111735,    0.043771
  27.117876,    0.045545
  27.124017,    0.047361
  27.130169,    0.049225
  27.136320,    0.051131
  27.142479,    0.053085
  27.148664,    0.055091
  27.154855,    0.057145
  27.161043,    0.059244
  27.167259,    0.061399
  27.173481,    0.063603
  27.179690,    0.065851
  27.185887,    0.068141
  27.192141,    0.070502
  27.198387,    0.072908
  27.204623,    0.075361
  27.210826,    0.077850
  27.217052,    0.080399
  27.223332,    0.083021
  27.229594,    0.085687
  27.235882,    0.088417
  27.242161,    0.091196
  27.248459,    0.094036
  27.254793,    0.096948
  27.261100,    0.099901
  27.267450,    0.102931
  27.273810,    0.106022
  27.280124,    0.109147
  27.286479,    0.112349
  27.292837,    0.115609
  27.299215,    0.118940
  27.305613,    0.122339
  27.312015,    0.125801
  27.318419,    0.129325
  27.324834,    0.132915
  27.331235,    0.136559
  27.337695,    0.140298
  27.344134,    0.144089
  27.350578,    0.147946
  27.357029,    0.151872
  27.363466,    0.155853
  27.369929,    0.159916
  27.376423,    0.164064
  27.382977,    0.168318
  27.389477,    0.172605
  27.396045,    0.177005
  27.402605,    0.181468
  27.409143,    0.185985
  27.415656,    0.190553
  27.422223,    0.195228
  27.428800,    0.199980
  27.435373,    0.204799
  27.441921,    0.209668
  27.448481,    0.214617
  27.455121,    0.219697
  27.461772,    0.224857
  27.468416,    0.230085
  27.475046,    0.235372
  27.481676,    0.240733
  27.488361,    0.246209
  27.495047,    0.251761
  27.501731,    0.257386
  27.508440,    0.263105
  27.515165,    0.268913
  27.521860,    0.274768
  27.528564,    0.280706
  27.535309,    0.286757
  27.542039,    0.292870
  27.548794,    0.299081
  27.555536,    0.305357
  27.562329,    0.311758
  27.569092,    0.318206
  27.575883,    0.324760
  27.582704,    0.331420
  27.589541,    0.338176
  27.596372,    0.345005
  27.603192,    0.351901
  27.610025,    0.358891
  27.616901,    0.366004
  27.623803,    0.373226
  27.630654,    0.380474
  27.637524,    0.387824
  27.644453,    0.395319
  27.651372,    0.402885
  27.658279,    0.410522
  27.665224,    0.418283
  27.672201,    0.426164
  27.679111,    0.434052
  27.686102,    0.442117
  27.693098,    0.450274
  27.700072,    0.458490
  27.707063,    0.466811
  27.714104,    0.475278
  27.721121,    0.483803
  27.728186,    0.492474
  27.735265,    0.501250
  27.742318,    0.510082
  27.749336,    0.518958
  27.756460,    0.528056
  27.763568,    0.537224
  27.770675,    0.546480
  27.777806,    0.555859
  27.784901,    0.565280
  27.792031,    0.574838
  27.799167,    0.584494
  27.806338,    0.594291
  27.813541,    0.604225
  27.820746,    0.614255
  27.827995,    0.624440
  27.835214,    0.634679
  27.842472,    0.645067
  27.849722,    0.655539
  27.856966,    0.666098
  27.864238,    0.676795
  27.871559,    0.687660
  27.878882,    0.698626
  27.882977,    0.704803
  27.886268,    0.709788
  27.893635,    0.721019
  27.901014,    0.732368
  27.908377,    0.743794
  27.915771,    0.755368
  27.923157,    0.767031
  27.930567,    0.778833
  27.937993,    0.790761
  27.945427,    0.802807
  27.952918,    0.815048
  27.960366,    0.827323
  27.967863,    0.839784
  27.975332,    0.852302
  27.982815,    0.864949
  27.990329,    0.877754
  27.997821,    0.890627
  28.005413,    0.903780
  28.013003,    0.917038
  28.020577,    0.930377
  28.028238,    0.943979
  28.035852,    0.957610
  28.043515,    0.971438
  28.051180,    0.985382
  28.058845,    0.999439
  28.066558,    1.013696
  28.074237,    1.028004
  28.081932,    1.042455
  28.089663,    1.057090
  28.097406,    1.071860
  28.105171,    1.086791
  28.112938,    1.101841
  28.120735,    1.117066
  28.128531,    1.132407
  28.136326,    1.147865
  28.144136,    1.163471
  28.151925,    1.179153
  28.159784,    1.195095
  28.167622,    1.211117
  28.175569,    1.227483
  28.183441,    1.243817
  28.191382,    1.260417
  28.199340,    1.277178
  28.207273,    1.294009
  28.215249,    1.311059
  28.223180,    1.328136
  28.231122,    1.345362
  28.239113,    1.362821
  28.247170,    1.380550
  28.255253,    1.398470
  28.263391,    1.416642
  28.271434,    1.434730
  28.279550,    1.453116
  28.287622,    1.471532
  28.295736,    1.490175
  28.303870,    1.508999
  28.312021,    1.527994
  28.320222,    1.547242
  28.328370,    1.566501
  28.336554,    1.585977
  28.344821,    1.605791
  28.353071,    1.625702
  28.361355,    1.645835
  28.369599,    1.666009
  28.377906,    1.686478
  28.386232,    1.707134
  28.394603,    1.728046
  28.402921,    1.748966
  28.411280,    1.770134
  28.419658,    1.791494
  28.428038,    1.813003
  28.436504,    1.834882
  28.444934,    1.856813
  28.453373,    1.878913
  28.461835,    1.901225
  28.470275,    1.923626
  28.478752,    1.946273
  28.487301,    1.969266
  28.495795,    1.992260
  28.504307,    2.015455
  28.512901,    2.039029
  28.521514,    2.062806
  28.530179,    2.086888
  28.538803,    2.111009
  28.547455,    2.135368
  28.556044,    2.159706
  28.564723,    2.184456
  28.573393,    2.209340
  28.582098,    2.234482
  28.590775,    2.259706
  28.599565,    2.285422
  28.608284,    2.311091
  28.617053,    2.337071
  28.625840,    2.363269
  28.634593,    2.389528
  28.643411,    2.416150
  28.652272,    2.443069
  28.661153,    2.470219
  28.670041,    2.497556
  28.678937,    2.525093
  28.687775,    2.552616
  28.696662,    2.580462
  28.705632,    2.608743
  28.714550,    2.637031
  28.723519,    2.665655
  28.732440,    2.694298
  28.741409,    2.723272
  28.750423,    2.752566
  28.759467,    2.782134
  28.768583,    2.812123
  28.777680,    2.842225
  28.786659,    2.872117
  28.795755,    2.902577
  28.804835,    2.933167
  28.813982,    2.964166
  28.823182,    2.995529
  28.832294,    3.026774
  28.841460,    3.058394
  28.850676,    3.090369
  28.859880,    3.122492
  28.869210,    3.155247
  28.878449,    3.187873
  28.887687,    3.220684
  28.897017,    3.254012
  28.906286,    3.287317
  28.915582,    3.320911
  28.924813,    3.354461
  28.934099,    3.388406
  28.943392,    3.422567
  28.952726,    3.457076
  28.962125,    3.492020
  28.971474,    3.526974
  28.980899,    3.562418
  28.990202,    3.597594
  28.999548,    3.633130
  29.009085,    3.669596
  29.018549,    3.705988
  29.027989,    3.742488
  29.037560,    3.779699
  29.047047,    3.816792
  29.056604,    3.854365
  29.066213,    3.892351
  29.075783,    3.930395
  29.085283,    3.968366
  29.094978,    4.007328
  29.104563,    4.046061
  29.114101,    4.084811
  29.123685,    4.123959
  29.133347,    4.163639
  29.142962,    4.203335
  29.152587,    4.243291
  29.162212,    4.283458
  29.171903,    4.324120
  29.181508,    4.364630
  29.191230,    4.405852
  29.200944,    4.447263
  29.210686,    4.489007
  29.220389,    4.530806
  29.230192,    4.573258
  29.239881,    4.615437
  29.249636,    4.658120
  29.259402,    4.701076
  29.269160,    4.744221
  29.279021,    4.788043
  29.288938,    4.832345
  29.298816,    4.876704
  29.308749,    4.921537
  29.318584,    4.966157
  29.328538,    5.011549
  29.338435,    5.056912
  29.348336,    5.102525
  29.358304,    5.148677
  29.368231,    5.194873
  29.378164,    5.241331
  29.388126,    5.288160
  29.398015,    5.334874
  29.407997,    5.382265
  29.417965,    5.429826
  29.427913,    5.477524
  29.437997,    5.526114
  29.448066,    5.574877
  29.458107,    5.623739
  29.468246,    5.673325
  29.478254,    5.722514
  29.488348,    5.772365
  29.498445,    5.822474
  29.508611,    5.873167
  29.518706,    5.923758
  29.528818,    5.974675
  29.538949,    6.025935
  29.549118,    6.077637
  29.559397,    6.130145
  29.569669,    6.182878
  29.579828,    6.235278
  29.589965,    6.287812
  29.600053,    6.340333
  29.610233,    6.393591
  29.620422,    6.447142
  29.630651,    6.501156
  29.640805,    6.555025
  29.650985,    6.609281
  29.661433,    6.665227
  29.671687,    6.720396
  29.681950,    6.775866
  29.692180,    6.831413
  29.702307,    6.886647
  29.712630,    6.943213
  29.722980,    7.000184
  29.733242,    7.056933
  29.743500,    7.113913
  29.753730,    7.170994
  29.764032,    7.228732
  29.774359,    7.286876
  29.784667,    7.345168
  29.795017,    7.403962
  29.805401,    7.463214
  29.815775,    7.522677
  29.826172,    7.582533
  29.836553,    7.642558
  29.847139,    7.704047
  29.857585,    7.764986
  29.867989,    7.825956
  29.878448,    7.887509
  29.888887,    7.949218
  29.899359,    8.011391
  29.909832,    8.073843
  29.920247,    8.136211
  29.930717,    8.199184
  29.941221,    8.262635
  29.951757,    8.326553
  29.962330,    8.390971
  29.972939,    8.455885
  29.983510,    8.520849
  29.994067,    8.586000
  30.004620,    8.651401
  30.015140,    8.716878
  30.025646,    8.782543
  30.036298,    8.849393
  30.046869,    8.916022
  30.057501,    8.983311
  30.068141,    9.050936
  30.078752,    9.118653
  30.089423,    9.187046
  30.100033,    9.255323
  30.110612,    9.323679
  30.121151,    9.392054
  30.131828,    9.461615
  30.142474,    9.531248
  30.153179,    9.601559
  30.163889,    9.672195
  30.174544,    9.742747
  30.185261,    9.813994
  30.195962,    9.885423
  30.206630,    9.956924
  30.217331,   10.028929
  30.227972,   10.100813
  30.238721,   10.173720
  30.249493,   10.247076
  30.260295,   10.320925
  30.271111,   10.395162
  30.281862,   10.469246
  30.292666,   10.543991
  30.303465,   10.618997
  30.310498,   10.668000
