Ground Distance, Angles
   0.000000,    0.000000
   0.000001,    0.000000
   0.000006,    0.000000
   0.000051,    0.000000
   0.000254,    0.000000
   0.000937,    0.000000
   0.003594,    0.000000
   0.008770,    0.000000
   0.016215,    0.000000
   0.025986,    0.000000
   0.038053,    0.000000
   0.052396,    0.000000
   0.069115,    0.000000
   0.088096,    0.000000
   0.109545,    0.000000
   0.133445,    0.000000
   0.159844,    0.000000
   0.188742,    0.000000
   0.220179,    0.000000
   0.254154,    0.000000
   0.290762,    0.000000
   0.329834,    0.000000
   0.371933,    0.000000
   0.416730,    0.000000
   0.464133,    0.000000
   0.514632,    0.000000
   0.568012,    0.000000
   0.623767,    0.000000
   0.683393,    0.000000
   0.746091,    0.000000
   0.811495,    0.000000
   0.879944,    0.000000
   0.952973,    0.000000
   1.028661,    0.000000
   1.108195,    0.000000
   1.190503,    0.000000
   1.276329,    0.000000
   1.366302,    0.000000
   1.460383,    0.000000
   1.557910,    0.000000
   1.658864,    0.000000
   1.765569,    0.000000
   1.876077,    0.000000
   1.991080,    0.000000
   2.108697,    0.000000
   2.232114,    0.000000
   2.358495,    0.000000
   2.491456,    0.000000
   2.627207,    0.000000
   2.766419,    0.000000
   2.910997,    0.000000
   3.061458,    0.000000
   3.214194,    0.000000
   3.373591,    0.000000
   3.537116,    0.000000
   3.707854,    0.000000
   3.881891,    0.000000
   4.060893,    0.000000
   4.246787,    0.000000
   4.436942,    0.000000
   4.635771,    0.000000
   4.839095,    0.000000
   5.046944,    0.000000
   5.262260,    0.000000
   5.479624,    0.000000
   5.704145,    0.000000
   5.932675,    0.000000
   6.172206,    0.000000
   6.417668,    0.000000
   6.664659,    0.000000
   6.919177,    0.000000
   7.182286,    0.000000
   7.451337,    0.000000
   7.728786,    0.000000
   8.011867,    0.000000
   8.300203,    0.000000
   8.595273,    0.000000
   8.898197,    0.000000
   9.208447,    0.000000
   9.524740,    0.000000
   9.847117,    0.000000
  10.178260,    0.000000
  10.517285,    0.000000
  10.863781,    0.000000
  11.215388,    0.000000
  11.577699,    0.000000
  11.947059,    0.000000
  12.323083,    0.000000
  12.706533,    0.000000
  13.101735,    0.000000
  13.498441,    0.000000
  13.905442,    0.000000
  14.322436,    0.000000
  14.746977,    0.000000
  15.179755,    0.000000
  15.615931,    0.000000
  16.065427,    0.000000
  16.521679,    0.000000
  16.989674,    0.000000
  17.467086,    0.000000
  17.948124,    0.000000
  18.442233,    0.000000
  18.943653,    0.000000
  19.455403,    0.000000
  19.971291,    0.000000
  20.503197,    0.000000
  21.039939,    0.000000
  21.591975,    0.000000
  22.154661,    0.000000
  22.722075,    0.000000
  23.294581,    0.000000
  23.879363,    0.000000
  24.470105,    0.000000
  25.080064,    0.000000
  25.104614,    0.000000
  25.110192,    0.000000
  25.111427,    0.000000
  25.113175,    0.000000
  25.113784,    0.000000
  25.114962,    0.000000
  25.115436,    0.000000
  25.115489,    0.000000
  25.115536,    0.000000
  25.116007,    0.000000
  25.120721,    0.000000
  25.146034,    0.000000
  25.240975,    0.000000
  25.544938,    0.000000
  26.122884,    0.000000
  26.701027,    0.000000
  27.285207,    0.000000
  27.878682,    0.000000
  28.479559,    0.000000
  29.087489,    0.000000
  29.709576,    0.000000
  30.339197,    0.000000
  30.977515,    0.000000
  31.624560,    0.000000
  32.281037,    0.000000
  32.946776,    0.000000
  33.624452,    0.000000
  34.313136,    0.000000
  35.009054,    0.000000
  35.708189,    0.000000
  36.418015,    0.000000
  37.136818,    0.000000
  37.867779,    0.000000
  38.610465,    0.000000
  39.366949,    0.000000
  40.124054,    0.000000
  40.893463,    0.000000
  41.674081,    0.000000
  42.464088,    0.000000
  43.263317,    0.000000
  44.070501,    0.000000
  44.886655,    0.000000
  45.715278,    0.000000
  46.555057,    0.000000
  47.404370,    0.000000
  48.265463,    0.000000
  49.125549,    0.000000
  50.002292,    0.000000
  50.891462,    0.000000
  51.789845,    0.000000
  52.700389,    0.000000
  53.620266,    0.000000
  54.548014,    0.000000
  55.488294,    0.000000
  56.438610,    0.000000
  57.408434,    0.000000
  58.385766,    0.000000
  59.370371,    0.000000
  60.365913,    0.000000
  61.379289,    0.000000
  62.389213,    0.000000
  63.423505,    0.000000
  64.463035,    0.000000
  65.513995,    0.000000
  66.577116,    0.000000
  67.651149,    0.000000
  68.734516,    0.000000
  69.826554,    0.000000
  70.926902,    0.000000
  72.041160,    0.000000
  73.167900,    0.000000
  74.306773,    0.000000
  75.467376,    0.000000
  76.633843,    0.000000
  77.809141,    0.000000
  78.997253,    0.000000
  80.197519,    0.000000
  81.410899,    0.000000
  82.633034,    0.000000
  83.870672,    0.000000
  85.116192,    0.000000
  86.373469,    0.000000
  87.642578,    0.000000
  88.921294,    0.000000
  90.211860,    0.000000
  91.522913,    0.000000
  92.844013,    0.000000
  94.177813,    0.000000
  95.524629,    0.000000
  96.890774,    0.000000
  98.258511,    0.000000
  99.637602,    0.000000
 101.033815,    0.000000
 102.439374,    0.000000
 103.861289,    0.000000
 104.147219,    0.000000
 104.341094,    0.000000
 104.495880,    0.000000
 104.518932,    0.000000
 104.524426,    0.000000
 104.526123,    0.000000
 104.526910,    0.000000
 104.527083,    0.000000
 104.527264,    0.000000
 104.529071,    0.000000
 104.545335,    0.000000
 104.639691,    0.000000
 104.976903,    0.000000
 106.129664,    0.000000
 107.448863,    0.000000
 108.782020,    0.000000
 110.126774,    0.000000
 111.485587,    0.000000
 112.857579,    0.000000
 114.232498,    0.000000
 115.627087,    0.000000
 117.025299,    0.000000
 118.429538,    0.000000
 119.849673,    0.000000
 121.280854,    0.000000
 122.724636,    0.000000
 124.175236,    0.000000
 125.645137,    0.000000
 127.123819,    0.000000
 128.606536,    0.000000
 130.101253,    0.000000
 131.612673,    0.000000
 133.134895,    0.000000
 134.662743,    0.000000
 136.203744,    0.000000
 137.761978,    0.000000
 139.327242,    0.000000
 140.902608,    0.000000
 142.494729,    0.000000
 144.099947,    0.000000
 145.710691,    0.000000
 147.333012,    0.000000
 148.962100,    0.000000
 150.611414,    0.000000
 152.268878,    0.000000
 153.933457,    0.000000
 155.615091,    0.000000
 157.310570,    0.000000
 159.024199,    0.000000
 160.742691,    0.000000
 162.471318,    0.000000
 164.211370,    0.000000
 165.965139,    0.000000
 167.730713,    0.000000
 169.504136,    0.000000
 171.289475,    0.000000
 173.092475,    0.000000
 174.905755,    0.000000
 176.736613,    0.000000
 178.577433,    0.000000
 180.426186,    0.000000
 182.292552,    0.000000
 184.168049,    0.000000
 186.052534,    0.000000
 187.953189,    0.000000
 189.864605,    0.000000
 191.788346,    0.000000
 193.723244,    0.000000
 195.670670,    0.000000
 197.631588,    0.000000
 199.600492,    0.000000
 201.578585,    0.000000
 203.575679,    0.000000
 205.591905,    0.000000
 207.624545,    0.000000
 209.671944,    0.000000
 211.722398,    0.000000
 213.780715,    0.000000
 215.852799,    0.000000
 217.930789,    0.000000
 220.026908,    0.000000
 222.141208,    0.000000
 224.269987,    0.000000
 226.407867,    0.000000
 228.556658,    0.000000
 230.718107,    0.000000
 232.896905,    0.000000
 235.094814,    0.000000
 237.303170,    0.000000
 239.512888,    0.000000
 241.745851,    0.000000
 243.989033,    0.000000
 246.242947,    0.000000
 246.696259,    0.000000
 248.417686,    0.000000
 248.435820,    0.000000
 248.441007,    0.000000
 248.449399,    0.000000
 248.452117,    0.000000
 248.457552,    0.000000
 248.458257,    0.000000
 248.458628,    0.000000
 248.458984,    0.000000
 248.459308,    0.000000
 248.462550,    0.000000
 248.494704,    0.000000
 248.719489,    0.000000
 249.725066,    0.000000
 251.719700,    0.000000
 253.779585,    0.000000
 255.845816,    0.000000
 257.926492,    0.000000
 260.018203,    0.000000
 262.117889,    0.000000
 264.225392,    0.000000
 266.347479,    0.000000
 268.479330,    0.000000
 270.619404,    0.000000
 272.778841,    0.000000
 274.941400,    0.000000
 277.112158,    0.000000
 279.296599,    0.000000
 281.490633,    0.000000
 283.701626,    0.000000
 285.922600,    0.000000
 288.150724,    0.000000
 290.393710,    0.000000
 292.643781,    0.000000
 294.906961,    0.000000
 297.183446,    0.000000
 299.465437,    0.000000
 301.764926,    0.000000
 304.067928,    0.000000
 306.389604,    0.000000
 308.720301,    0.000000
 311.065369,    0.000000
 313.420332,    0.000000
 315.784519,    0.000000
 318.159011,    0.000000
 320.545962,    0.000000
 322.943466,    0.000000
 325.352425,    0.000000
 327.766033,    0.000000
 330.197939,    0.000000
 332.633831,    0.000000
 335.088965,    0.000000
 337.555321,    0.000000
 340.031860,    0.000000
 342.519440,    0.000000
 345.023622,    0.000000
 347.538764,    0.000000
 350.058976,    0.000000
 352.593858,    0.000000
 355.142610,    0.000000
 357.699338,    0.000000
 360.270044,    0.000000
 362.850448,    0.000000
 365.446561,    0.000000
 368.049100,    0.000000
 370.663009,    0.000000
 373.293354,    0.000000
 375.929053,    0.000000
 378.574729,    0.000000
 381.235283,    0.000000
 383.903976,    0.000000
 386.590827,    0.000000
 389.287783,    0.000000
 391.994667,    0.000000
 394.706064,    0.000000
 397.440764,    0.000000
 400.181286,    0.000000
 402.936323,    0.000000
 405.704811,    0.000000
 408.488933,    0.000000
 411.284026,    0.000000
 414.084220,    0.000000
 416.889096,    0.000000
 419.708533,    0.000000
 422.545376,    0.000000
 425.398278,    0.000000
 428.257758,    0.000000
 431.132352,    0.000000
 434.019837,    0.000000
 436.919663,    0.000000
 439.821595,    0.000000
 442.743417,    0.000000
 445.676320,    0.000000
 448.620964,    0.000000
 451.574264,    0.000000
 454.535505,    0.000000
 457.511524,    0.000000
 460.507034,    0.000000
 463.511220,    0.000000
 466.526193,    0.000000
 469.548137,    0.000000
 472.589684,    0.000000
 475.638948,    0.000000
 476.251346,    0.000000
 476.720335,    0.000000
 477.065547,    0.000000
 477.120290,    0.000000
 477.136970,    0.000000
 477.165558,    0.000000
 477.175153,    0.000000
 477.176811,    0.000000
 477.178528,    0.000000
 477.195695,    0.000000
 477.346967,    0.000000
 478.209917,    0.000000
 480.851419,    0.000000
 483.929371,    0.000000
 487.011271,    0.000000
 490.096576,    0.000000
 493.199907,    0.000000
 496.318901,    0.000000
 499.445243,    0.000000
 502.589472,    0.000000
 505.741627,    0.000000
 508.909317,    0.000000
 512.088997,    0.000000
 515.278295,    0.000000
 518.478661,    0.000000
 521.689262,    0.000000
 524.917627,    0.000000
 528.156191,    0.000000
 531.404500,    0.000000
 534.665889,    0.000000
 537.942055,    0.000000
 541.228510,    0.000000
 544.523422,    0.000000
 547.837509,    0.000000
 551.167379,    0.000000
 554.502284,    0.000000
 557.850130,    0.000000
 561.210674,    0.000000
 564.587181,    0.000000
 567.973018,    0.000000
 571.371712,    0.000000
 574.776435,    0.000000
 578.195979,    0.000000
 581.627918,    0.000000
 585.077831,    0.000000
 588.539660,    0.000000
 592.010643,    0.000000
 595.491964,    0.000000
 598.985547,    0.000000
 602.491253,    0.000000
 606.006502,    0.000000
 609.534511,    0.000000
 613.078588,    0.000000
 616.637030,    0.000000
 620.210215,    0.000000
 623.792146,    0.000000
 627.388022,    0.000000
 630.987118,    0.000000
 634.607694,    0.000000
 638.239199,    0.000000
 641.885623,    0.000000
 645.541759,    0.000000
 649.206249,    0.000000
 652.891571,    0.000000
 656.587050,    0.000000
 660.292644,    0.000000
 664.016097,    0.000000
 667.742726,    0.000000
 671.481226,    0.000000
 675.242879,    0.000000
 679.003419,    0.000000
 682.786868,    0.000000
 686.585612,    0.000000
 690.392208,    0.000000
 694.213453,    0.000000
 698.039404,    0.000000
 701.880478,    0.000000
 705.740575,    0.000000
 709.601892,    0.000000
 713.488985,    0.000000
 717.379775,    0.000000
 721.284794,    0.000000
 723.174928,    0.000000
 725.212289,    0.000000
 729.149558,    0.109731
 733.087521,    0.320515
 737.042221,    0.529105
 741.008085,    0.736370
 744.992700,    0.942022
 748.983789,    1.146461
 752.991009,    1.349065
 757.010780,    1.550337
 761.042227,    1.750101
 765.083601,    1.948325
 769.142019,    2.144932
 773.212553,    2.340280
 777.292638,    2.534134
 781.381331,    2.726384
 785.482819,    2.917000
 789.591904,    3.106189
 793.707916,    3.293723
 797.843449,    3.479586
 801.990962,    3.664359
 806.141231,    3.847707
 810.303845,    4.029236
 814.479445,    4.209383
 818.666912,    4.388185
 822.865317,    4.565601
 827.070061,    4.741602
 827.238674,    4.916008
 827.246700,    4.922935
 827.252017,    4.923264
 827.255947,    4.923482
 827.258260,    4.923644
 827.259242,    4.923739
 827.260216,    4.923779
 827.269963,    4.923819
 827.367426,    4.924219
 827.956406,    4.928221
 830.575043,    4.952396
 834.897452,    5.059669
 839.275145,    5.235508
 843.659444,    5.411674
 848.060213,    5.586186
 852.472241,    5.759448
 856.888696,    5.931264
 861.321198,    6.101381
 865.757644,    6.270262
 870.199087,    6.437457
 874.655158,    6.603025
 879.114212,    6.767340
 883.589951,    6.929984
 888.073867,    7.091471
 888.427707,    7.251504
 888.782141,    7.264007
 889.136923,    7.276520
 889.491206,    7.289035
 889.846349,    7.301522
 890.201897,    7.314028
 890.554873,    7.326538
 890.910129,    7.338947
 891.265611,    7.351425
 891.619823,    7.363901
 891.977112,    7.376322
 892.329444,    7.388840
 892.686839,    7.401173
 893.044582,    7.413674
 893.403094,    7.426175
 893.761724,    7.438693
 894.117184,    7.451205
 894.473824,    7.463595
 894.833578,    7.476015
 895.192512,    7.488534
 895.552234,    7.501013
 895.912595,    7.513508
 896.272848,    7.526016
 896.634052,    7.538508
 896.993903,    7.551023
 897.356115,    7.563481
 897.717019,    7.576009
 898.078435,    7.588481
 898.438850,    7.600960
 898.802166,    7.613394
 899.164024,    7.625918
 899.526519,    7.638380
 899.891576,    7.650853
 900.255267,    7.663404
 900.618874,    7.675897
 900.982924,    7.688376
 901.347740,    7.700860
 901.713311,    7.713359
 902.077837,    7.725873
 902.444214,    7.738340
 902.811420,    7.750860
 903.174576,    7.763398
 903.543911,    7.775786
 903.913543,    7.788374
 904.282970,    7.800962
 904.653344,    7.813531
 905.024120,    7.826121
 905.394524,    7.838715
 905.765262,    7.851284
 906.135364,    7.863854
 906.506769,    7.876391
 906.879481,    7.888961
 907.251440,    7.901565
 907.625111,    7.914132
 907.996907,    7.926746
 908.371556,    7.939285
 908.746634,    7.951910
 909.121642,    7.964538
 909.497222,    7.977152
 909.871806,    7.989774
 910.246643,    8.002352
 910.624630,    8.014927
 910.999272,    8.027597
 911.377305,    8.040143
 911.756325,    8.052792
 912.136224,    8.065463
 912.516362,    8.078151
 912.893904,    8.090837
 913.275030,    8.103424
 913.654205,    8.116120
 914.033172,    8.128739
 914.416222,    8.141340
 914.798573,    8.154066
 915.184103,    8.166757
 915.567938,    8.179542
 915.953538,    8.192260
 916.336457,    8.205024
 916.723902,    8.217688
 917.110359,    8.230491
 917.494901,    8.243249
 917.881533,    8.255933
 918.270998,    8.268674
 918.659624,    8.281497
 919.051314,    8.294280
 919.440364,    8.307153
 919.833531,    8.319927
 920.225975,    8.332825
 920.618335,    8.345687
 921.012752,    8.358535
 921.406136,    8.371438
 921.800399,    8.384296
 922.193525,    8.397170
 922.588037,    8.409996
 922.982420,    8.422855
 923.381475,    8.422855
 923.778656,    8.422855
 924.177406,    8.422855
 924.575422,    8.422855
 924.975795,    8.422855
 925.374602,    8.422855
 925.774533,    8.422855
 926.176363,    8.422855
 926.579144,    8.422855
 926.983324,    8.422855
 927.386454,    8.422855
 927.788583,    8.422855
 928.191887,    8.422855
 928.595450,    8.422855
 928.999001,    8.422855
 929.406835,    8.422855
 929.815136,    8.422855
 930.223612,    8.422855
 930.632141,    8.422855
 931.040670,    8.422855
 931.450245,    8.422855
 931.860590,    8.422855
 932.271483,    8.422855
 932.684773,    8.422855
 933.097207,    8.422855
 933.512041,    8.422855
 933.924664,    8.422855
 934.338568,    8.422855
 934.753310,    8.422855
 935.169618,    8.422855
 935.583686,    8.422855
 935.999377,    8.422855
 936.416144,    8.422855
 936.834283,    8.422855
 937.251356,    8.422855
 937.671294,    8.422855
 938.091619,    8.422855
 938.510792,    8.422855
 938.932361,    8.422855
 939.355886,    8.422855
 939.777131,    8.422855
 940.198938,    8.422855
 940.626280,    8.422855
 941.053290,    8.422855
 941.482681,    8.422855
 941.911990,    8.422855
 942.342080,    8.422855
 942.772317,    8.422855
 943.200525,    8.422855
 943.633433,    8.422855
 944.067084,    8.422855
 944.500022,    8.422855
 944.935950,    8.422855
 945.372737,    8.422855
 945.806127,    8.422855
 946.242078,    8.422855
 946.680209,    8.422855
 947.116636,    8.422855
 947.554883,    8.422855
 947.993907,    8.422855
 948.435051,    8.422855
 948.876543,    8.422855
 949.317345,    8.422855
 949.761195,    8.422855
 950.202277,    8.422855
 950.646102,    8.422855
 951.090247,    8.422855
 951.535089,    8.422855
 951.983135,    8.422855
 952.432596,    8.422855
 952.881094,    8.422855
 953.329621,    8.422855
 953.686757,    8.422855
 953.779441,    8.422855
 954.229069,    8.422855
 954.681064,    8.422855
 955.134190,    8.422855
 955.586263,    8.422855
 956.040319,    8.422855
 956.496407,    8.422855
 956.954028,    8.422855
 957.411783,    8.422855
 957.868624,    8.422855
 958.327298,    8.422855
 958.789548,    8.422855
 959.249478,    8.422855
 959.713375,    8.422855
 960.178795,    8.422855
 960.641116,    8.422855
 961.106951,    8.422855
 961.573676,    8.422855
 962.043175,    8.422855
 962.511843,    8.422855
 962.983070,    8.422855
 963.455779,    8.422855
 963.931294,    8.422855
 964.406131,    8.422855
 964.879252,    8.422855
 965.356106,    8.422855
 965.832316,    8.422855
 966.308348,    8.422855
 966.786619,    8.422855
 967.267595,    8.422855
 967.745946,    8.422855
 968.232605,    8.422855
 968.713563,    8.422855
 969.198879,    8.422855
 969.684018,    8.422855
 970.172349,    8.422855
 970.658142,    8.422855
 971.146022,    8.422855
 971.634951,    8.422855
 972.123064,    8.422855
 972.612477,    8.422855
 973.103168,    8.422855
 973.595715,    8.422855
 974.087584,    8.422855
 974.582448,    8.422855
 975.077029,    8.422855
 975.574655,    8.422855
 976.070816,    8.422855
 976.567788,    8.422855
 977.066151,    8.422855
 977.570050,    8.422855
 978.071462,    8.422855
 978.576321,    8.422855
 979.083620,    8.422855
 979.590440,    8.422855
 980.097302,    8.422855
 980.607767,    8.422855
 981.116621,    8.422855
 981.626624,    8.422855
 982.138630,    8.422855
 982.652928,    8.422855
 983.165971,    8.422855
 983.684627,    8.422855
 984.199899,    8.422855
 984.719470,    8.422855
 985.237264,    8.422855
 985.757568,    8.422855
 986.276946,    8.422855
 986.800995,    8.422855
 987.322940,    8.422855
 987.844736,    8.422855
 988.371539,    8.422855
 988.894049,    8.422855
 989.422079,    8.422855
 989.949881,    8.422855
 990.477291,    8.422855
 991.004000,    8.422855
 991.533703,    8.422855
 992.062016,    8.422855
 992.597359,    8.422855
 993.128712,    8.422855
 993.661560,    8.422855
 994.195679,    8.422855
 994.733163,    8.422855
 995.273775,    8.422855
 995.812252,    8.422855
 996.350989,    8.422855
 996.888147,    8.422855
 997.433025,    8.422855
 997.975057,    8.422855
 998.517238,    8.422855
 999.068037,    8.422855
 999.612490,    8.422855
1000.157834,    8.422855
1000.709086,    8.422855
1001.259750,    8.422855
1001.814690,    8.422855
1002.367454,    8.422855
1002.918572,    8.422855
1003.472512,    8.422855
1004.022085,    8.422855
1004.577029,    8.422855
1005.135866,    8.422855
1005.701325,    8.422855
1006.262943,    8.422855
1006.827892,    8.422855
1007.390590,    8.422855
1007.953454,    8.422855
1008.519992,    8.422855
1009.084614,    8.422855
1009.654522,    8.422855
1010.216249,    8.422855
1010.782052,    8.422855
1011.346028,    8.422855
1011.921168,    8.422855
1012.495500,    8.422855
1013.068191,    8.422855
1013.640371,    8.422855
1014.216679,    8.422855
1014.796198,    8.422855
1015.375700,    8.422855
1015.954813,    8.422855
1016.533807,    8.422855
1017.115540,    8.422855
1017.703092,    8.422855
1018.284496,    8.422855
1018.870064,    8.422855
1019.448627,    8.422855
1020.042827,    8.422855
1020.626428,    8.422855
1021.215407,    8.422855
1021.808628,    8.422855
1022.394072,    8.422855
1022.984017,    8.422855
1023.578012,    8.422855
1024.171170,    8.422855
1024.768105,    8.422855
1025.357569,    8.422855
1025.951888,    8.422855
1026.545096,    8.422855
1027.137802,    8.422855
1027.737886,    8.422855
1028.339196,    8.422855
1028.944378,    8.422855
1029.548808,    8.422855
1030.152550,    8.422855
1030.759652,    8.422855
1031.356428,    8.422855
1031.968159,    8.422855
1032.574940,    8.422855
1033.186602,    8.422855
1033.794188,    8.422855
1034.403532,    8.422855
1035.013464,    8.422855
1035.623649,    8.422855
1036.236332,    8.422855
1036.858720,    8.422855
1037.467878,    8.422855
1038.075324,    8.422855
1038.695264,    8.422855
1039.314400,    8.422855
1039.936889,    8.422855
1040.558548,    8.422855
1041.176493,    8.422855
1041.799582,    8.422855
1042.419872,    8.422855
1043.043677,    8.422855
1043.668437,    8.422855
1044.291108,    8.422855
1044.917826,    8.422855
1045.545708,    8.422855
1046.168044,    8.422855
1046.799341,    8.422855
1047.421559,    8.422855
1048.058075,    8.422855
1048.695292,    8.422855
1049.326978,    8.422855
1049.960683,    8.422855
1050.588742,    8.422855
1051.220444,    8.422855
1051.853545,    8.422855
1052.489190,    8.422855
1053.118265,    8.422855
1053.756590,    8.422855
1054.393106,    8.422855
1055.024297,    8.422855
1055.663995,    8.422855
1056.305204,    8.422855
1056.948529,    8.422855
1057.583438,    8.422855
1058.225878,    8.422855
1058.866560,    8.422855
1059.505036,    8.422855
1060.149941,    8.422855
1060.792393,    8.422855
1061.429143,    8.422855
1062.074903,    8.422855
1062.718199,    8.422855
1063.370348,    8.422855
1064.022579,    8.422855
1064.673238,    8.422855
1065.324947,    8.422855
1065.969021,    8.422855
1066.621680,    8.422855
1067.274960,    8.422855
1067.922012,    8.422855
1068.572086,    8.422855
1069.220679,    8.422855
1069.877350,    8.422855
1070.536469,    8.422855
1071.190971,    8.422855
1071.841950,    8.422855
1072.503817,    8.422855
1073.160848,    8.422855
1073.825014,    8.422855
1074.487188,    8.422855
1075.146213,    8.422855
1075.802621,    8.422855
1076.467050,    8.422855
1077.130879,    8.422855
1077.791858,    8.422855
1078.449150,    8.422855
1079.117181,    8.422855
1079.777576,    8.422855
1080.442601,    8.422855
1081.105233,    8.422855
1081.771444,    8.422855
1082.438004,    8.422855
1083.102915,    8.422855
1083.764911,    8.422855
1084.427113,    8.422855
1085.090907,    8.422855
1085.758559,    8.422855
1086.423760,    8.422855
1087.092926,    8.422855
1087.763038,    8.422855
1088.434593,    8.422855
1089.105311,    8.422855
1089.775995,    8.422855
1090.453977,    8.422855
1091.129901,    8.422855
1091.801855,    8.422855
1092.471112,    8.422855
1093.143017,    8.422855
1093.823253,    8.422855
1094.498574,    8.422855
1095.180531,    8.422855
1095.858806,    8.422855
1096.536888,    8.422855
1097.214745,    8.422855
1097.887957,    8.422855
1098.563990,    8.422855
1099.242797,    8.422855
1099.918982,    8.422855
1100.597884,    8.422855
1101.279158,    8.422855
1101.957527,    8.422855
1102.638912,    8.422855
1103.317180,    8.422855
1103.999411,    8.422855
1104.680024,    8.422855
1105.360650,    8.422855
1106.044991,    8.422855
1106.625829,    8.422855
