Ground Distance, Angles
   0.000000,    0.000000
   0.000001,    0.000000
   0.000010,    0.000000
   0.000165,    0.000000
   0.000906,    0.000000
   0.003878,    0.000000
   0.009197,    0.000000
   0.016801,    0.000000
   0.026649,    0.000000
   0.038817,    0.000000
   0.053367,    0.000000
   0.070270,    0.000000
   0.089427,    0.000000
   0.111137,    0.000000
   0.135183,    0.000000
   0.161653,    0.000000
   0.190899,    0.000000
   0.222436,    0.000000
   0.256730,    0.000000
   0.293710,    0.000000
   0.332874,    0.000000
   0.374826,    0.000000
   0.420181,    0.000000
   0.468295,    0.000000
   0.519009,    0.000000
   0.573030,    0.000000
   0.629770,    0.000000
   0.689907,    0.000000
   0.752710,    0.000000
   0.819295,    0.000000
   0.888689,    0.000000
   0.961195,    0.000000
   1.037710,    0.000000
   1.117281,    0.000000
   1.200804,    0.000000
   1.288183,    0.000000
   1.379665,    0.000000
   1.473406,    0.000000
   1.570169,    0.000000
   1.671274,    0.000000
   1.776728,    0.000000
   1.887692,    0.000000
   2.002431,    0.000000
   2.121006,    0.000000
   2.244075,    0.000000
   2.371810,    0.000000
   2.504607,    0.000000
   2.640912,    0.000000
   2.782805,    0.000000
   2.928371,    0.000000
   3.078173,    0.000000
   3.235231,    0.000000
   3.397406,    0.000000
   3.562111,    0.000000
   3.732541,    0.000000
   3.907539,    0.000000
   4.091574,    0.000000
   4.278486,    0.000000
   4.470909,    0.000000
   4.667243,    0.000000
   4.870426,    0.000000
   5.079616,    0.000000
   5.294193,    0.000000
   5.514990,    0.000000
   5.740566,    0.000000
   5.971629,    0.000000
   6.208607,    0.000000
   6.456622,    0.000000
   6.706495,    0.000000
   6.963874,    0.000000
   7.226829,    0.000000
   7.496465,    0.000000
   7.774878,    0.000000
   8.059158,    0.000000
   8.349294,    0.000000
   8.649138,    0.000000
   8.952195,    0.000000
   9.261746,    0.000000
   9.582220,    0.000000
   9.907815,    0.000000
  10.239774,    0.000000
  10.583311,    0.000000
  10.928569,    0.000000
  11.281768,    0.000000
  11.642269,    0.000000
  12.010671,    0.000000
  12.389360,    0.000000
  12.771389,    0.000000
  13.161104,    0.000000
  13.567929,    0.000000
  13.977958,    0.000000
  14.393994,    0.000000
  14.821963,    0.000000
  15.256141,    0.000000
  15.698965,    0.000000
  16.150205,    0.000000
  16.612735,    0.000000
  17.082660,    0.000000
  17.557448,    0.000000
  18.043880,    0.000000
  18.534084,    0.000000
  19.035959,    0.000000
  19.545728,    0.000000
  20.066775,    0.000000
  20.593832,    0.000000
  21.131081,    0.000000
  21.681736,    0.000000
  22.244016,    0.000000
  22.811716,    0.000000
  23.386520,    0.000000
  23.973538,    0.000000
  24.577856,    0.000000
  24.698939,    0.000000
  24.798636,    0.000000
  25.103839,    0.000000
  25.108509,    0.000000
  25.112574,    0.000000
  25.113470,    0.000000
  25.113910,    0.000000
  25.114706,    0.000000
  25.114810,    0.000000
  25.114870,    0.000000
  25.114926,    0.000000
  25.115479,    0.000000
  25.120447,    0.000000
  25.152281,    0.000000
  25.279337,    0.000000
  25.673277,    0.000000
  26.264771,    0.000000
  26.844688,    0.000000
  27.429127,    0.000000
  28.028125,    0.000000
  28.629911,    0.000000
  29.245352,    0.000000
  29.870629,    0.000000
  30.503840,    0.000000
  31.146934,    0.000000
  31.800066,    0.000000
  32.458399,    0.000000
  33.123687,    0.000000
  33.801557,    0.000000
  34.488694,    0.000000
  35.186614,    0.000000
  35.893623,    0.000000
  36.614023,    0.000000
  37.335990,    0.000000
  38.071039,    0.000000
  38.814894,    0.000000
  39.565626,    0.000000
  40.327566,    0.000000
  41.102904,    0.000000
  41.887439,    0.000000
  42.675608,    0.000000
  43.478260,    0.000000
  44.292672,    0.000000
  45.113610,    0.000000
  45.941456,    0.000000
  46.785475,    0.000000
  47.638233,    0.000000
  48.501588,    0.000000
  49.372286,    0.000000
  50.254449,    0.000000
  51.142663,    0.000000
  52.046696,    0.000000
  52.962047,    0.000000
  53.880411,    0.000000
  54.809296,    0.000000
  55.751913,    0.000000
  56.705841,    0.000000
  57.671234,    0.000000
  58.650170,    0.000000
  59.633674,    0.000000
  60.632449,    0.000000
  61.644203,    0.000000
  62.669200,    0.000000
  63.702929,    0.000000
  64.749582,    0.000000
  65.804696,    0.000000
  66.866533,    0.000000
  67.944999,    0.000000
  69.025887,    0.000000
  70.124255,    0.000000
  71.232793,    0.000000
  72.352021,    0.000000
  73.487722,    0.000000
  74.634906,    0.000000
  75.790774,    0.000000
  76.959483,    0.000000
  78.144415,    0.000000
  79.341050,    0.000000
  80.543252,    0.000000
  81.756680,    0.000000
  82.983465,    0.000000
  84.219771,    0.000000
  85.468472,    0.000000
  86.731270,    0.000000
  88.011320,    0.000000
  89.305378,    0.000000
  90.606500,    0.000000
  91.914189,    0.000000
  93.232949,    0.000000
  94.573382,    0.000000
  95.917871,    0.000000
  97.278426,    0.000000
  98.652852,    0.000000
 100.033656,    0.000000
 101.432892,    0.000000
 102.847364,    0.000000
 104.274395,    0.000000
 104.331804,    0.000000
 104.380892,    0.000000
 104.428592,    0.000000
 104.486914,    0.000000
 104.499953,    0.000000
 104.515657,    0.000000
 104.518984,    0.000000
 104.520606,    0.000000
 104.523851,    0.000000
 104.524217,    0.000000
 104.524429,    0.000000
 104.526549,    0.000000
 104.529199,    0.000000
 104.555698,    0.000000
 104.704837,    0.000000
 105.233085,    0.000000
 106.462419,    0.000000
 107.789108,    0.000000
 109.127921,    0.000000
 110.475074,    0.000000
 111.833982,    0.000000
 113.196882,    0.000000
 114.578508,    0.000000
 115.970095,    0.000000
 117.373348,    0.000000
 118.784784,    0.000000
 120.209030,    0.000000
 121.639144,    0.000000
 123.084385,    0.000000
 124.538332,    0.000000
 126.008637,    0.000000
 127.486492,    0.000000
 128.971896,    0.000000
 130.473043,    0.000000
 131.982619,    0.000000
 133.501065,    0.000000
 135.035527,    0.000000
 136.577192,    0.000000
 138.130599,    0.000000
 139.702251,    0.000000
 141.282079,    0.000000
 142.877756,    0.000000
 144.477184,    0.000000
 146.086367,    0.000000
 147.715595,    0.000000
 149.357840,    0.000000
 151.004513,    0.000000
 152.673304,    0.000000
 154.347321,    0.000000
 156.035869,    0.000000
 157.733772,    0.000000
 159.438942,    0.000000
 161.152497,    0.000000
 162.887646,    0.000000
 164.631627,    0.000000
 166.389627,    0.000000
 168.158128,    0.000000
 169.936827,    0.000000
 171.736138,    0.000000
 173.543857,    0.000000
 175.364172,    0.000000
 177.188453,    0.000000
 179.026379,    0.000000
 180.883758,    0.000000
 182.752174,    0.000000
 184.631112,    0.000000
 186.523413,    0.000000
 188.423758,    0.000000
 190.341490,    0.000000
 192.268390,    0.000000
 194.209932,    0.000000
 196.159725,    0.000000
 198.119644,    0.000000
 200.095890,    0.000000
 202.085889,    0.000000
 204.089450,    0.000000
 206.106731,    0.000000
 208.129991,    0.000000
 210.162001,    0.000000
 212.219772,    0.000000
 214.282762,    0.000000
 216.360272,    0.000000
 218.450477,    0.000000
 220.557152,    0.000000
 222.678209,    0.000000
 224.805358,    0.000000
 226.940994,    0.000000
 229.097799,    0.000000
 231.264882,    0.000000
 233.449089,    0.000000
 235.642525,    0.000000
 237.845081,    0.000000
 240.064474,    0.000000
 242.293771,    0.000000
 244.541948,    0.000000
 246.797286,    0.000000
 247.252305,    0.000000
 247.562373,    0.000000
 247.808821,    0.000000
 247.981100,    0.000000
 248.110404,    0.000000
 248.241242,    0.000000
 248.351365,    0.000000
 248.383122,    0.000000
 248.430524,    0.000000
 248.440558,    0.000000
 248.444489,    0.000000
 248.452350,    0.000000
 248.452899,    0.000000
 248.453403,    0.000000
 248.458440,    0.000000
 248.500332,    0.000000
 248.758821,    0.000000
 250.153645,    0.000000
 252.204596,    0.000000
 254.270186,    0.000000
 256.341197,    0.000000
 258.419400,    0.000000
 260.509832,    0.000000
 262.613448,    0.000000
 264.723772,    0.000000
 266.851357,    0.000000
 268.987117,    0.000000
 271.126858,    0.000000
 273.278840,    0.000000
 275.443959,    0.000000
 277.624700,    0.000000
 279.809237,    0.000000
 282.010702,    0.000000
 284.224647,    0.000000
 286.448340,    0.000000
 288.676772,    0.000000
 290.923271,    0.000000
 293.173828,    0.000000
 295.438680,    0.000000
 297.712689,    0.000000
 299.999486,    0.000000
 302.292198,    0.000000
 304.606753,    0.000000
 306.923663,    0.000000
 309.255724,    0.000000
 311.602002,    0.000000
 313.952601,    0.000000
 316.316523,    0.000000
 318.696169,    0.000000
 321.083803,    0.000000
 323.482354,    0.000000
 325.888734,    0.000000
 328.309719,    0.000000
 330.744686,    0.000000
 333.189919,    0.000000
 335.645561,    0.000000
 338.111985,    0.000000
 340.591004,    0.000000
 343.077154,    0.000000
 345.570726,    0.000000
 348.092666,    0.000000
 350.620576,    0.000000
 353.147025,    0.000000
 355.694196,    0.000000
 358.251667,    0.000000
 360.822329,    0.000000
 363.398601,    0.000000
 365.995311,    0.000000
 368.597746,    0.000000
 371.208284,    0.000000
 373.833227,    0.000000
 376.480886,    0.000000
 379.135406,    0.000000
 381.799935,    0.000000
 384.471215,    0.000000
 387.154927,    0.000000
 389.853790,    0.000000
 392.562241,    0.000000
 395.285251,    0.000000
 398.019833,    0.000000
 400.770798,    0.000000
 403.520237,    0.000000
 406.280813,    0.000000
 409.065213,    0.000000
 411.863278,    0.000000
 414.668473,    0.000000
 417.473846,    0.000000
 420.303825,    0.000000
 423.148627,    0.000000
 426.000860,    0.000000
 428.861878,    0.000000
 431.733089,    0.000000
 434.622482,    0.000000
 437.516588,    0.000000
 440.428837,    0.000000
 443.347736,    0.000000
 446.279462,    0.000000
 449.227657,    0.000000
 452.189871,    0.000000
 455.155432,    0.000000
 458.135311,    0.000000
 461.128275,    0.000000
 464.134975,    0.000000
 467.155423,    0.000000
 470.191050,    0.000000
 473.231749,    0.000000
 476.281594,    0.000000
 476.895619,    0.000000
 476.995303,    0.000000
 477.104647,    0.000000
 477.129210,    0.000000
 477.145985,    0.000000
 477.154379,    0.000000
 477.160371,    0.000000
 477.163906,    0.000000
 477.166098,    0.000000
 477.168109,    0.000000
 477.188223,    0.000000
 477.350871,    0.000000
 478.348376,    0.000000
 481.049664,    0.000000
 484.130598,    0.000000
 487.208604,    0.000000
 490.305057,    0.000000
 493.410502,    0.000000
 496.531215,    0.000000
 499.664893,    0.000000
 502.808467,    0.000000
 505.962954,    0.000000
 509.127187,    0.000000
 512.306183,    0.000000
 515.498674,    0.000000
 518.698441,    0.000000
 521.908129,    0.000000
 525.128021,    0.000000
 528.363034,    0.000000
 531.615135,    0.000000
 534.872782,    0.000000
 538.149246,    0.000000
 541.433415,    0.000000
 544.734366,    0.000000
 548.044498,    0.000000
 551.372469,    0.000000
 554.706441,    0.000000
 558.055257,    0.000000
 561.412990,    0.000000
 564.784452,    0.000000
 568.169678,    0.000000
 571.570894,    0.000000
 574.975521,    0.000000
 578.402491,    0.000000
 581.835930,    0.000000
 585.279553,    0.000000
 588.734200,    0.000000
 592.198809,    0.000000
 595.687748,    0.000000
 599.177868,    0.000000
 602.686368,    0.000000
 606.203454,    0.000000
 609.734365,    0.000000
 613.279536,    0.000000
 616.837040,    0.000000
 620.408984,    0.000000
 623.987563,    0.000000
 627.583953,    0.000000
 631.188732,    0.000000
 634.806796,    0.000000
 638.434691,    0.000000
 642.085185,    0.000000
 645.742487,    0.000000
 649.412652,    0.000000
 653.093048,    0.000000
 656.787535,    0.000000
 660.501703,    0.000000
 664.218514,    0.000000
 667.942299,    0.000000
 671.684810,    0.000000
 675.442890,    0.000000
 679.203805,    0.000000
 682.986262,    0.000000
 686.775558,    0.000000
 690.585319,    0.000000
 694.399464,    0.000000
 698.238649,    0.000000
 702.077842,    0.000000
 705.929615,    0.000000
 709.795180,    0.000000
 713.678758,    0.000000
 717.574157,    0.000000
 721.482926,    0.000000
 723.135691,    0.000000
 725.400682,    0.000000
 729.338670,    0.000000
 733.283323,    0.000000
 737.242115,    0.000000
 741.216677,    0.000000
 745.199791,    0.000000
 749.190050,    0.000000
 753.197218,    0.000000
 757.219131,    0.000000
 761.256429,    0.000000
 765.301057,    0.000000
 769.350576,    0.000000
 773.420338,    0.000000
 777.496243,    0.000000
 781.586386,    0.000000
 785.682760,    0.000000
 789.788378,    0.000000
 793.914038,    0.000000
 798.046655,    0.000000
 802.194756,    0.000000
 806.351941,    0.000000
 810.517342,    0.000000
 814.699502,    0.000000
 818.891333,    0.000000
 823.085526,    0.000000
 823.926993,    0.000000
 826.892482,    0.000000
 827.060721,    0.000000
 827.113261,    0.000000
 827.181026,    0.000000
 827.197118,    0.000000
 827.227893,    0.000000
 827.235189,    0.000000
 827.237378,    0.000000
 827.239674,    0.000000
 827.241874,    0.000000
 827.263873,    0.000000
 827.415840,    0.000000
 828.260068,    0.000000
 831.958842,    0.000000
 836.332353,    0.000000
 840.709690,    0.000000
 845.099718,    0.000000
 849.495139,    0.000000
 853.900543,    0.000000
 858.316265,    0.000000
 862.750858,    0.000000
 867.192798,    0.000000
 871.641970,    0.000000
 876.091085,    0.000000
 880.559256,    0.000000
 885.031210,    0.000000
 885.382975,    0.002797
 885.734928,    0.005653
 886.087516,    0.008571
 886.440210,    0.011546
 886.792984,    0.014580
 887.146018,    0.017672
 887.497997,    0.020812
 887.851438,    0.024022
 888.205480,    0.027295
 888.558821,    0.030618
 888.913006,    0.034006
 889.266662,    0.037446
 889.620808,    0.040947
 889.975362,    0.044510
 890.331203,    0.048143
 890.686244,    0.051825
 891.041647,    0.055567
 891.398286,    0.059380
 891.754132,    0.063242
 892.111508,    0.067178
 892.469453,    0.071178
 892.827223,    0.075233
 893.185319,    0.079350
 893.543068,    0.083520
 893.901864,    0.087760
 894.258693,    0.092034
 894.618256,    0.096398
 894.975826,    0.100796
 895.335682,    0.105279
 895.695000,    0.109813
 896.055368,    0.114418
 896.416451,    0.119090
 896.777956,    0.123826
 897.140012,    0.128627
 897.502386,    0.133491
 897.864320,    0.138407
 898.227948,    0.143404
 898.592304,    0.148469
 898.956059,    0.153585
 899.320102,    0.158764
 899.684215,    0.164001
 900.048312,    0.169297
 900.413972,    0.174675
 900.779741,    0.180112
 901.144334,    0.185591
 901.511417,    0.191166
 901.875651,    0.196756
 902.242637,    0.202446
 902.608999,    0.208186
 902.976333,    0.214000
 903.343890,    0.219876
 903.712252,    0.225824
 904.080933,    0.231836
 904.451014,    0.237930
 904.822677,    0.244110
 905.193692,    0.250339
 905.564663,    0.256627
 905.935061,    0.262965
 906.305737,    0.269366
 906.678574,    0.275865
 907.051435,    0.282424
 907.425063,    0.289056
 907.798709,    0.295749
 908.172831,    0.302510
 908.548632,    0.309362
 908.924829,    0.316282
 909.300901,    0.323259
 909.678708,    0.330330
 910.056997,    0.337471
 910.434494,    0.344658
 910.811336,    0.351893
 911.191724,    0.359257
 911.571609,    0.366673
 911.950983,    0.374139
 912.328403,    0.381628
 912.707270,    0.389207
 913.089500,    0.396914
 913.470657,    0.404660
 913.853447,    0.412502
 914.235807,    0.420396
 914.619333,    0.428376
 915.005114,    0.436465
 915.389265,    0.444582
 915.776099,    0.452819
 916.163651,    0.461133
 916.548446,    0.469450
 916.935766,    0.477885
 917.323290,    0.486386
 917.712165,    0.494980
 918.102244,    0.503663
 918.492705,    0.512419
 918.883291,    0.521240
 919.274574,    0.530141
 919.665129,    0.539088
 920.059263,    0.548181
 920.452256,    0.557312
 920.845525,    0.566512
 921.239356,    0.575790
 921.632306,    0.585111
 922.026988,    0.594536
 922.423547,    0.604071
 922.823887,    0.613761
 923.220950,    0.623389
 923.622199,    0.633134
 924.023055,    0.642887
 924.422595,    0.652624
 924.820672,    0.662342
 925.222130,    0.672158
 925.624258,    0.682008
 926.026180,    0.691869
 926.426575,    0.701709
 926.827869,    0.711587
 927.234061,    0.721603
 927.640966,    0.731653
 928.047527,    0.741711
 928.453233,    0.751764
 928.859082,    0.761838
 929.268269,    0.772011
 929.677613,    0.782205
 930.086949,    0.792415
 930.497804,    0.802681
 930.909741,    0.812990
 931.319848,    0.823270
 931.730557,    0.833582
 932.143880,    0.843976
 932.556376,    0.854366
 932.970388,    0.864812
 933.383697,    0.875256
 933.800193,    0.885798
 934.214868,    0.896311
 934.631377,    0.906887
 935.049715,    0.917527
 935.469179,    0.928212
 935.888284,    0.938905
 936.306764,    0.949600
 936.726151,    0.960334
 937.148173,    0.971153
 937.571890,    0.982033
 937.992508,    0.992850
 938.414339,    1.003716
 938.839923,    1.014695
 939.264870,    1.025675
 939.689227,    1.036657
 940.115893,    1.047716
 940.544653,    1.058847
 940.969296,    1.069888
 941.398984,    1.081078
 941.829097,    1.092296
 942.257882,    1.103497
 942.687766,    1.114743
 943.120788,    1.126090
 943.552383,    1.137416
 943.987011,    1.148840
 944.422546,    1.160305
 944.856569,    1.171747
 945.288499,    1.183152
 945.726969,    1.194747
 946.164535,    1.206336
 946.602116,    1.217943
 947.041247,    1.229608
 947.478189,    1.241233
 947.917362,    1.252935
 948.356909,    1.264664
 948.798742,    1.276472
 949.242603,    1.288352
 949.686649,    1.300255
 950.133432,    1.312249
 950.578494,    1.324215
 951.025990,    1.336264
 951.473031,    1.348319
 951.919768,    1.360384
 952.368315,    1.372515
 952.819941,    1.384748
 953.271706,    1.397002
 953.524438,    1.403866
 953.727514,    1.409385
 954.182145,    1.421753
 954.637582,    1.434162
 955.092103,    1.446565
 955.548638,    1.459040
 956.004721,    1.471521
 956.462338,    1.484062
 956.920968,    1.496650
 957.380237,    1.509273
 957.843052,    1.522012
 958.303260,    1.534698
 958.766595,    1.547488
 959.228236,    1.560250
 959.690822,    1.573057
 960.155377,    1.585936
 960.618620,    1.598798
 961.088124,    1.611851
 961.557577,    1.624922
 962.026095,    1.637986
 962.500044,    1.651220
 962.971205,    1.664394
 963.445403,    1.677673
 963.919821,    1.690976
 964.394314,    1.704301
 964.871809,    1.717728
 965.347278,    1.731118
 965.823798,    1.744556
 966.302648,    1.758078
 966.782245,    1.771641
 967.263326,    1.785264
 967.744603,    1.798912
 968.227736,    1.812632
 968.710925,    1.826372
 969.194119,    1.840132
 969.678291,    1.853938
 970.161248,    1.867729
 970.648572,    1.881663
 971.134714,    1.895582
 971.627640,    1.909715
 972.116010,    1.923737
 972.608697,    1.937902
 973.102515,    1.952119
 973.594845,    1.966312
 974.089951,    1.980604
 974.582293,    1.994836
 975.075403,    2.009110
 975.571624,    2.023492
 976.071937,    2.038013
 976.574038,    2.052605
 977.079582,    2.067317
 977.579245,    2.081877
 978.083584,    2.096593
 978.585216,    2.111250
 979.089508,    2.126004
 979.595175,    2.140818
 980.101907,    2.155682
 980.611848,    2.170660
 981.118567,    2.185563
 981.627539,    2.200552
 982.141779,    2.215717
 982.655040,    2.230872
 983.170482,    2.246111
 983.683488,    2.261298
 984.200523,    2.276624
 984.718742,    2.292005
 985.239885,    2.307493
 985.757756,    2.322904
 986.278289,    2.338414
 986.800057,    2.353980
 987.322001,    2.369572
 987.849432,    2.385348
 988.374636,    2.401077
 988.900430,    2.416845
 989.427797,    2.432679
 989.953853,    2.448494
 990.482243,    2.464399
 991.015238,    2.480463
 991.544838,    2.496445
 992.075666,    2.512483
 992.611684,    2.528699
 993.148883,    2.544971
 993.689478,    2.561367
 994.227523,    2.577705
 994.767430,    2.594120
 995.303465,    2.610438
 995.845183,    2.626949
 996.386413,    2.643465
 996.929848,    2.660069
 997.471647,    2.676644
 998.020612,    2.693458
 998.565144,    2.710156
 999.112900,    2.726974
 999.661856,    2.743849
1000.208714,    2.760680
1000.759761,    2.777660
1001.313540,    2.794745
1001.868666,    2.811892
1002.424235,    2.829073
1002.980455,    2.846295
1003.533060,    2.863426
1004.088805,    2.880674
1004.649842,    2.898107
1005.207678,    2.915460
1005.768767,    2.932936
1006.326902,    2.950340
1006.888165,    2.967861
1007.452275,    2.985492
1008.018297,    3.003204
1008.588999,    3.021083
1009.158490,    3.038944
1009.720698,    3.056597
1010.290278,    3.074502
1010.858968,    3.092400
1011.431925,    3.110452
1012.008248,    3.128632
1012.579086,    3.146658
1013.153461,    3.164817
1013.730980,    3.183096
1014.307830,    3.201374
1014.892661,    3.219926
1015.471873,    3.238320
1016.051067,    3.256735
1016.636051,    3.275353
1017.217322,    3.293875
1017.800367,    3.312473
1018.379390,    3.330963
1018.961969,    3.349587
1019.545026,    3.368247
1020.130744,    3.387012
1020.720570,    3.405929
1021.307312,    3.424767
1021.898985,    3.443784
1022.482998,    3.462575
1023.069764,    3.481474
1023.668615,    3.500784
1024.262975,    3.519969
1024.855853,    3.539126
1025.457008,    3.558571
1026.053012,    3.577870
1026.653453,    3.597333
1027.257236,    3.616925
1027.858660,    3.636460
1028.455746,    3.655875
1029.065125,    3.675709
1029.667687,    3.695343
1030.267345,    3.714901
1030.869962,    3.734576
1031.477548,    3.754433
1032.082187,    3.774214
1032.687601,    3.794040
1033.293039,    3.813886
1033.902759,    3.833893
1034.507059,    3.853742
1035.118803,    3.873855
1035.730158,    3.893975
1036.343261,    3.914172
1036.954032,    3.934312
1037.571160,    3.954681
1038.181185,    3.974836
1038.795372,    3.995147
1039.410357,    4.015505
1040.024924,    4.035868
1040.645978,    4.056465
1041.270659,    4.077202
1041.892976,    4.097881
1042.518762,    4.118694
1043.138471,    4.139325
1043.765734,    4.160227
1044.389487,    4.181031
1045.013560,    4.201865
1045.641868,    4.222859
1046.267677,    4.243790
1046.893941,    4.264754
1047.522112,    4.285802
1048.145684,    4.306714
1048.775224,    4.327845
1049.403937,    4.348967
1050.031429,    4.370067
1050.667550,    4.391476
1051.302842,    4.412876
1051.936359,    4.434235
1052.576158,    4.455824
1053.207783,    4.477157
1053.844866,    4.498692
1054.482191,    4.520254
1055.123874,    4.541982
1055.761225,    4.563582
1056.399647,    4.585236
1057.039354,    4.606952
1057.681542,    4.628771
1058.330652,    4.650843
1058.979476,    4.672924
1059.621174,    4.694781
1060.261545,    4.716610
1060.898809,    4.738351
1061.542046,    4.760313
1062.185850,    4.782313
1062.832241,    4.804418
1063.473955,    4.826381
1064.117347,    4.848419
1064.777735,    4.871057
1065.425962,    4.893296
1066.074781,    4.915572
1066.721570,    4.937796
1067.361845,    4.959813
1068.014643,    4.982277
1068.669154,    5.004818
1069.318204,    5.027188
1069.967005,    5.049565
1070.614101,    5.071901
1071.265765,    5.094410
1071.919116,    5.116995
1072.571253,    5.139554
1073.226133,    5.162225
1073.883209,    5.184988
1074.539762,    5.207749
1075.197762,    5.230577
1075.854768,    5.253386
1076.524852,    5.276667
1077.186055,    5.299654
1077.844731,    5.322571
1078.506853,    5.345623
1079.167812,    5.368650
1079.830883,    5.391767
1080.494101,    5.414904
1081.153608,    5.437928
1081.816698,    5.461092
1082.482005,    5.484350
1083.149362,    5.507694
1083.819105,    5.531138
1084.491158,    5.554677
1085.160898,    5.578151
1085.829751,    5.601609
1086.498370,    5.625074
1087.164990,    5.648484
1087.830779,    5.671879
1088.505777,    5.695613
1089.175761,    5.719185
1089.849606,    5.742907
1090.524022,    5.766664
1091.196602,    5.790371
1091.873113,    5.814231
1092.545727,    5.837968
1093.216408,    5.861651
1093.884577,    5.885259
1094.561603,    5.909193
1095.236610,    5.933070
1095.915447,    5.957097
1096.594686,    5.981151
1097.270418,    6.005095
1097.950084,    6.029192
1098.628788,    6.053269
1099.305485,    6.077287
1099.984266,    6.101392
1100.659262,    6.125376
1101.341178,    6.149619
1102.024600,    6.173929
1102.709918,    6.198319
1103.396141,    6.222754
1104.078284,    6.247057
1104.763842,    6.271494
1105.449136,    6.295934
1105.895417,    6.311857
