Ground Distance, Angles
   0.000000,    0.000000
   0.000001,    0.000000
   0.000006,    0.000000
   0.000051,    0.000000
   0.000254,    0.000000
   0.000937,    0.000000
   0.003594,    0.000000
   0.008770,    0.000000
   0.016215,    0.000000
   0.025986,    0.000000
   0.038053,    0.000000
   0.052396,    0.000000
   0.069115,    0.000000
   0.088096,    0.000000
   0.109545,    0.000000
   0.133445,    0.000000
   0.159844,    0.000000
   0.188742,    0.000000
   0.220179,    0.000000
   0.254154,    0.000000
   0.290762,    0.000000
   0.329834,    0.000000
   0.371933,    0.000000
   0.416730,    0.000000
   0.464133,    0.000000
   0.514632,    0.000000
   0.568012,    0.000000
   0.623767,    0.000000
   0.683393,    0.000000
   0.746091,    0.000000
   0.811495,    0.000000
   0.879944,    0.000000
   0.952973,    0.000000
   1.028661,    0.000000
   1.108195,    0.000000
   1.190503,    0.000000
   1.276329,    0.000000
   1.366302,    0.000000
   1.460383,    0.000000
   1.557910,    0.000000
   1.658864,    0.000000
   1.765569,    0.000000
   1.876077,    0.000000
   1.991080,    0.000000
   2.108697,    0.000000
   2.232114,    0.000000
   2.358495,    0.000000
   2.491456,    0.000000
   2.627207,    0.000000
   2.766419,    0.000000
   2.910997,    0.000000
   3.061458,    0.000000
   3.214194,    0.000000
   3.373591,    0.000000
   3.537116,    0.000000
   3.707854,    0.000000
   3.881891,    0.000000
   4.060893,    0.000000
   4.246787,    0.000000
   4.436942,    0.000000
   4.635771,    0.000000
   4.839095,    0.000000
   5.046944,    0.000000
   5.262260,    0.000000
   5.479624,    0.000000
   5.704145,    0.000000
   5.932675,    0.000000
   6.172206,    0.000000
   6.417668,    0.000000
   6.664659,    0.000000
   6.919177,    0.000000
   7.182286,    0.000000
   7.451337,    0.000000
   7.728786,    0.000000
   8.011867,    0.000000
   8.300203,    0.000000
   8.595273,    0.000000
   8.898197,    0.000000
   9.208447,    0.000000
   9.524740,    0.000000
   9.847117,    0.000000
  10.178260,    0.000000
  10.517285,    0.000000
  10.863781,    0.000000
  11.215388,    0.000000
  11.577699,    0.000000
  11.947059,    0.000000
  12.323083,    0.000000
  12.706533,    0.000000
  13.101735,    0.000000
  13.498441,    0.000000
  13.905442,    0.000000
  14.322436,    0.000000
  14.746977,    0.000000
  15.179755,    0.000000
  15.615931,    0.000000
  16.065427,    0.000000
  16.521679,    0.000000
  16.989674,    0.000000
  17.467086,    0.000000
  17.948124,    0.000000
  18.442233,    0.000000
  18.943653,    0.000000
  19.455403,    0.000000
  19.971291,    0.000000
  20.503197,    0.000000
  21.039939,    0.000000
  21.591975,    0.000000
  22.154661,    0.000000
  22.722075,    0.000000
  23.294581,    0.000000
  23.879363,    0.000000
  24.470105,    0.000000
  25.080064,    0.000000
  25.104614,    0.000000
  25.110192,    0.000000
  25.111427,    0.000000
  25.113175,    0.000000
  25.113784,    0.000000
  25.114962,    0.000000
  25.115436,    0.000000
  25.115489,    0.000000
  25.115536,    0.000000
  25.116007,    0.000000
  25.120721,    0.000000
  25.146034,    0.000000
  25.240975,    0.000000
  25.544938,    0.000000
  26.122884,    0.000000
  26.701027,    0.000000
  27.285207,    0.000000
  27.878682,    0.000000
  28.479559,    0.000000
  29.087489,    0.000000
  29.709576,    0.000000
  30.339197,    0.000000
  30.977515,    0.000000
  31.624560,    0.000000
  32.281037,    0.000000
  32.946776,    0.000000
  33.624452,    0.000000
  34.313136,    0.000000
  35.009054,    0.000000
  35.708189,    0.000000
  36.418015,    0.000000
  37.136818,    0.000000
  37.867779,    0.000000
  38.610465,    0.000000
  39.366949,    0.000000
  40.124054,    0.000000
  40.893463,    0.000000
  41.674081,    0.000000
  42.464088,    0.000000
  43.263317,    0.000000
  44.070501,    0.000000
  44.886655,    0.000000
  45.715278,    0.000000
  46.555057,    0.000000
  47.404370,    0.000000
  48.265463,    0.000000
  49.125549,    0.000000
  50.002292,    0.000000
  50.891462,    0.000000
  51.789845,    0.000000
  52.700389,    0.000000
  53.620266,    0.000000
  54.548014,    0.000000
  55.488294,    0.000000
  56.438610,    0.000000
  57.408434,    0.000000
  58.385766,    0.000000
  59.370371,    0.000000
  60.365913,    0.000000
  61.379289,    0.000000
  62.389213,    0.000000
  63.423505,    0.000000
  64.463035,    0.000000
  65.513995,    0.000000
  66.577116,    0.000000
  67.651149,    0.000000
  68.734516,    0.000000
  69.826554,    0.000000
  70.926902,    0.000000
  72.041160,    0.000000
  73.167900,    0.000000
  74.306773,    0.000000
  75.467376,    0.000000
  76.633843,    0.000000
  77.809141,    0.000000
  78.997253,    0.000000
  80.197519,    0.000000
  81.410899,    0.000000
  82.633034,    0.000000
  83.870672,    0.000000
  85.116192,    0.000000
  86.373469,    0.000000
  87.642578,    0.000000
  88.921294,    0.000000
  90.211860,    0.000000
  91.522913,    0.000000
  92.844013,    0.000000
  94.177813,    0.000000
  95.524629,    0.000000
  96.890774,    0.000000
  98.258511,    0.000000
  99.637602,    0.000000
 101.033815,    0.000000
 102.439374,    0.000000
 103.861289,    0.000000
 104.147219,    0.000000
 104.341094,    0.000000
 104.495880,    0.000000
 104.518932,    0.000000
 104.524426,    0.000000
 104.526123,    0.000000
 104.526910,    0.000000
 104.527083,    0.000000
 104.527264,    0.000000
 104.529071,    0.000000
 104.545335,    0.000000
 104.639691,    0.000000
 104.976903,    0.000000
 106.129664,    0.000000
 107.448863,    0.000000
 108.782020,    0.000000
 110.126774,    0.000000
 111.485587,    0.000000
 112.857579,    0.000000
 114.232498,    0.000000
 115.627087,    0.000000
 117.025299,    0.000000
 118.429538,    0.000000
 119.849673,    0.000000
 121.280854,    0.000000
 122.724636,    0.000000
 124.175236,    0.000000
 125.645137,    0.000000
 127.123819,    0.000000
 128.606536,    0.000000
 130.101253,    0.000000
 131.612673,    0.000000
 133.134895,    0.000000
 134.662743,    0.000000
 136.203744,    0.000000
 137.761978,    0.000000
 139.327242,    0.000000
 140.902608,    0.000000
 142.494729,    0.000000
 144.099947,    0.000000
 145.710691,    0.000000
 147.333012,    0.000000
 148.962100,    0.000000
 150.611414,    0.000000
 152.268878,    0.000000
 153.933457,    0.000000
 155.615091,    0.000000
 157.310570,    0.000000
 159.024199,    0.000000
 160.742691,    0.000000
 162.471318,    0.000000
 164.211370,    0.000000
 165.965139,    0.000000
 167.730713,    0.000000
 169.504136,    0.000000
 171.289475,    0.000000
 173.092475,    0.000000
 174.905755,    0.000000
 176.736613,    0.000000
 178.577433,    0.000000
 180.426186,    0.000000
 182.292552,    0.000000
 184.168049,    0.000000
 186.052534,    0.000000
 187.953189,    0.000000
 189.864605,    0.000000
 191.788346,    0.000000
 193.723244,    0.000000
 195.670670,    0.000000
 197.631588,    0.000000
 199.600492,    0.000000
 201.578585,    0.000000
 203.575679,    0.000000
 205.591905,    0.000000
 207.624545,    0.000000
 209.671944,    0.000000
 211.722398,    0.000000
 213.780715,    0.000000
 215.852799,    0.000000
 217.930789,    0.000000
 220.026908,    0.000000
 222.141208,    0.000000
 224.269987,    0.000000
 226.407867,    0.000000
 228.556658,    0.000000
 230.718107,    0.000000
 232.896905,    0.000000
 235.094814,    0.000000
 237.303170,    0.000000
 239.512888,    0.000000
 241.745851,    0.000000
 243.989033,    0.000000
 246.242947,    0.000000
 246.696259,    0.000000
 248.417686,    0.000000
 248.435820,    0.000000
 248.441007,    0.000000
 248.449399,    0.000000
 248.452117,    0.000000
 248.457552,    0.000000
 248.458257,    0.000000
 248.458628,    0.000000
 248.458984,    0.000000
 248.459308,    0.000000
 248.462550,    0.000000
 248.494704,    0.000000
 248.719489,    0.000000
 249.725066,    0.000000
 251.719700,    0.000000
 253.779585,    0.000000
 255.845816,    0.000000
 257.926492,    0.000000
 260.018203,    0.000000
 262.117889,    0.000000
 264.225392,    0.000000
 266.347479,    0.000000
 268.479330,    0.000000
 270.619404,    0.000000
 272.778841,    0.000000
 274.941400,    0.000000
 277.112158,    0.000000
 279.296599,    0.000000
 281.490633,    0.000000
 283.701626,    0.000000
 285.922600,    0.000000
 288.150724,    0.000000
 290.393710,    0.000000
 292.643781,    0.000000
 294.906961,    0.000000
 297.183446,    0.000000
 299.465437,    0.000000
 301.764926,    0.000000
 304.067928,    0.000000
 306.389604,    0.000000
 308.720301,    0.000000
 311.065369,    0.000000
 313.420332,    0.000000
 315.784519,    0.000000
 318.159011,    0.000000
 320.545962,    0.000000
 322.943466,    0.000000
 325.352425,    0.000000
 327.766033,    0.000000
 330.197939,    0.000000
 332.633831,    0.000000
 335.088965,    0.000000
 337.555321,    0.000000
 340.031860,    0.000000
 342.519440,    0.000000
 345.023622,    0.000000
 347.538764,    0.000000
 350.058976,    0.000000
 352.593858,    0.000000
 355.142610,    0.000000
 357.699338,    0.000000
 360.270044,    0.000000
 362.850448,    0.000000
 365.446561,    0.000000
 368.049100,    0.000000
 370.663009,    0.000000
 373.293354,    0.000000
 375.929053,    0.000000
 378.574729,    0.000000
 381.235283,    0.000000
 383.903976,    0.000000
 386.590827,    0.000000
 389.287783,    0.000000
 391.994667,    0.000000
 394.706064,    0.000000
 397.440764,    0.000000
 400.181286,    0.000000
 402.936323,    0.000000
 405.704811,    0.000000
 408.488933,    0.000000
 411.284026,    0.000000
 414.084220,    0.000000
 416.889096,    0.000000
 419.708533,    0.000000
 422.545376,    0.000000
 425.398278,    0.000000
 428.257758,    0.000000
 431.132352,    0.000000
 434.019837,    0.000000
 436.919663,    0.000000
 439.821595,    0.000000
 442.743417,    0.000000
 445.676320,    0.000000
 448.620964,    0.000000
 451.574264,    0.000000
 454.535505,    0.000000
 457.511524,    0.000000
 460.507034,    0.000000
 463.511220,    0.000000
 466.526193,    0.000000
 469.548137,    0.000000
 472.589684,    0.000000
 475.638948,    0.000000
 476.251346,    0.000000
 476.720335,    0.000000
 477.065547,    0.000000
 477.120290,    0.000000
 477.136970,    0.000000
 477.165558,    0.000000
 477.175153,    0.000000
 477.176811,    0.000000
 477.178528,    0.000000
 477.195695,    0.000000
 477.346967,    0.000000
 478.209917,    0.000000
 480.851419,    0.000000
 483.929371,    0.000000
 487.011271,    0.000000
 490.096576,    0.000000
 493.199907,    0.000000
 496.318901,    0.000000
 499.445243,    0.000000
 502.589472,    0.000000
 505.741627,    0.000000
 508.909317,    0.000000
 512.088997,    0.000000
 515.278295,    0.000000
 518.478661,    0.000000
 521.689262,    0.000000
 524.917627,    0.000000
 528.156191,    0.000000
 531.404500,    0.000000
 534.665889,    0.000000
 537.942055,    0.000000
 541.228510,    0.000000
 544.523422,    0.000000
 547.837509,    0.000000
 551.167379,    0.000000
 554.502284,    0.000000
 557.850130,    0.000000
 561.210674,    0.000000
 564.587181,    0.000000
 567.973018,    0.000000
 571.371712,    0.000000
 574.776435,    0.000000
 578.195979,    0.000000
 581.627918,    0.000000
 585.077831,    0.000000
 588.539660,    0.000000
 592.010643,    0.000000
 595.491964,    0.000000
 598.985547,    0.000000
 602.491253,    0.000000
 606.006502,    0.000000
 609.534511,    0.000000
 613.078588,    0.000000
 616.637030,    0.000000
 620.210215,    0.000000
 623.792146,    0.000000
 627.388022,    0.000000
 630.987118,    0.000000
 634.607694,    0.000000
 638.239199,    0.000000
 641.885623,    0.000000
 645.541759,    0.000000
 649.206249,    0.000000
 652.891571,    0.000000
 656.587050,    0.000000
 660.292644,    0.000000
 664.016097,    0.000000
 667.742726,    0.000000
 671.481226,    0.000000
 675.242879,    0.000000
 679.003419,    0.000000
 682.786868,    0.000000
 686.585612,    0.000000
 690.392208,    0.000000
 694.213453,    0.000000
 698.039404,    0.000000
 701.880478,    0.000000
 705.740575,    0.000000
 709.601892,    0.000000
 713.488985,    0.000000
 717.379775,    0.000000
 721.284794,    0.000000
 723.174928,    0.000000
 725.212289,    0.000000
 729.149558,    0.000000
 733.087521,    0.000000
 737.042221,    0.000000
 741.008085,    0.000000
 744.992700,    0.000000
 748.983789,    0.000000
 752.991009,    0.000000
 757.010780,    0.000000
 761.042227,    0.000000
 765.083601,    0.000000
 769.142019,    0.000000
 773.212553,    0.000000
 777.292638,    0.000000
 781.381331,    0.000000
 785.482819,    0.000000
 789.591904,    0.000000
 793.707916,    0.000000
 797.843449,    0.000000
 801.990962,    0.000000
 806.141231,    0.000000
 810.303845,    0.000000
 814.479445,    0.000000
 818.666912,    0.000000
 822.865317,    0.000000
 827.070061,    0.000000
 827.238674,    0.000000
 827.246700,    0.000000
 827.252017,    0.000000
 827.255947,    0.000000
 827.258260,    0.000000
 827.259242,    0.000000
 827.260216,    0.000000
 827.269963,    0.000000
 827.367426,    0.000000
 827.956406,    0.000000
 830.575043,    0.000000
 834.897452,    0.000000
 839.275145,    0.000000
 843.659444,    0.000000
 848.060213,    0.000000
 852.472241,    0.000000
 856.888696,    0.000000
 861.321198,    0.000000
 865.757644,    0.000000
 870.199087,    0.000000
 874.655158,    0.000000
 879.114212,    0.000000
 883.589951,    0.000000
 888.073867,    0.000000
 888.427707,    0.003304
 888.782141,    0.006671
 889.136923,    0.010098
 889.491206,    0.013578
 889.846349,    0.017124
 890.201897,    0.020730
 890.554873,    0.024368
 890.910129,    0.028086
 891.265611,    0.031863
 891.619823,    0.035684
 891.977112,    0.039595
 892.329444,    0.043509
 892.686839,    0.047535
 893.044582,    0.051623
 893.403094,    0.055778
 893.761724,    0.059992
 894.117184,    0.064225
 894.473824,    0.068530
 894.833578,    0.072929
 895.192512,    0.077377
 895.552234,    0.081891
 895.912595,    0.086472
 896.272848,    0.091109
 896.634052,    0.095816
 896.993903,    0.100564
 897.356115,    0.105400
 897.717019,    0.110277
 898.078435,    0.115219
 898.438850,    0.120205
 898.802166,    0.125288
 899.164024,    0.130410
 899.526519,    0.135598
 899.891576,    0.140882
 900.255267,    0.146204
 900.618874,    0.151583
 900.982924,    0.157027
 901.347740,    0.162540
 901.713311,    0.168124
 902.077837,    0.173749
 902.444214,    0.179462
 902.811420,    0.185247
 903.174576,    0.191026
 903.543911,    0.196961
 903.913543,    0.202961
 904.282970,    0.209017
 904.653344,    0.215148
 905.024120,    0.221346
 905.394524,    0.227596
 905.765262,    0.233912
 906.135364,    0.240276
 906.506769,    0.246722
 906.879481,    0.253250
 907.251440,    0.259825
 907.625111,    0.266490
 907.996907,    0.273181
 908.371556,    0.279984
 908.746634,    0.286854
 909.121642,    0.293784
 909.497222,    0.300784
 909.871806,    0.307826
 910.246643,    0.314933
 910.624630,    0.322159
 910.999272,    0.329382
 911.377305,    0.336731
 911.756325,    0.344160
 912.136224,    0.351667
 912.516362,    0.359240
 912.893904,    0.366822
 913.275030,    0.374537
 913.654205,    0.382274
 914.033172,    0.390067
 914.416222,    0.398005
 914.798573,    0.405990
 915.184103,    0.414103
 915.567938,    0.422243
 915.953538,    0.430483
 916.336457,    0.438727
 916.723902,    0.447130
 917.110359,    0.455575
 917.494901,    0.464040
 917.881533,    0.472613
 918.270998,    0.481311
 918.659624,    0.490053
 919.051314,    0.498928
 919.440364,    0.507806
 919.833531,    0.516841
 920.225975,    0.525923
 920.618335,    0.535067
 921.012752,    0.544323
 921.406136,    0.553619
 921.800399,    0.562999
 922.193525,    0.572416
 922.588037,    0.581929
 922.982420,    0.591504
 923.381475,    0.601208
 923.778656,    0.610883
 924.177406,    0.620612
 924.575422,    0.630340
 924.975795,    0.640142
 925.374602,    0.649922
 925.774533,    0.659746
 926.176363,    0.669633
 926.579144,    0.679560
 926.983324,    0.689538
 927.386454,    0.699506
 927.788583,    0.709466
 928.191887,    0.719472
 928.595450,    0.729501
 928.999001,    0.739546
 929.406835,    0.749714
 929.815136,    0.759910
 930.223612,    0.770128
 930.632141,    0.780363
 931.040670,    0.790615
 931.450245,    0.800910
 931.860590,    0.811241
 932.271483,    0.821603
 932.684773,    0.832042
 933.097207,    0.842476
 933.512041,    0.852988
 933.924664,    0.863461
 934.338568,    0.873982
 934.753310,    0.884542
 935.169618,    0.895159
 935.583686,    0.905735
 935.999377,    0.916370
 936.416144,    0.927049
 936.834283,    0.937780
 937.251356,    0.948501
 937.671294,    0.959312
 938.091619,    0.970150
 938.510792,    0.980975
 938.932361,    0.991879
 939.355886,    1.002851
 939.777131,    1.013781
 940.198938,    1.024742
 940.626280,    1.035864
 941.053290,    1.046995
 941.482681,    1.058206
 941.911990,    1.069432
 942.342080,    1.080695
 942.772317,    1.091980
 943.200525,    1.103229
 943.633433,    1.114619
 944.067084,    1.126045
 944.500022,    1.137471
 944.935950,    1.148993
 945.372737,    1.160555
 945.806127,    1.172045
 946.242078,    1.183620
 946.680209,    1.195271
 947.116636,    1.206894
 947.554883,    1.218583
 947.993907,    1.230311
 948.435051,    1.242113
 948.876543,    1.253941
 949.317345,    1.265769
 949.761195,    1.277697
 950.202277,    1.289568
 950.646102,    1.301530
 951.090247,    1.313519
 951.535089,    1.325544
 951.983135,    1.337674
 952.432596,    1.349860
 952.881094,    1.362038
 953.329621,    1.374234
 953.686757,    1.383959
 953.779441,    1.386484
 954.229069,    1.398746
 954.681064,    1.411091
 955.134190,    1.423485
 955.586263,    1.435868
 956.040319,    1.448324
 956.496407,    1.460853
 956.954028,    1.473442
 957.411783,    1.486054
 957.868624,    1.498658
 958.327298,    1.511332
 958.789548,    1.524122
 959.249478,    1.536866
 959.713375,    1.549739
 960.178795,    1.562673
 960.641116,    1.575539
 961.106951,    1.588521
 961.573676,    1.601546
 962.043175,    1.614667
 962.511843,    1.627784
 962.983070,    1.640991
 963.455779,    1.654258
 963.931294,    1.667623
 964.406131,    1.680988
 964.879252,    1.694324
 965.356106,    1.707783
 965.832316,    1.721243
 966.308348,    1.734717
 966.786619,    1.748273
 967.267595,    1.761925
 967.745946,    1.775521
 968.232605,    1.789372
 968.713563,    1.803080
 969.198879,    1.816932
 969.684018,    1.830797
 970.172349,    1.844773
 970.658142,    1.858696
 971.146022,    1.872698
 971.634951,    1.886748
 972.123064,    1.900795
 972.612477,    1.914898
 973.103168,    1.929057
 973.595715,    1.943289
 974.087584,    1.957520
 974.582448,    1.971858
 975.077029,    1.986206
 975.574655,    2.000663
 976.070816,    2.015096
 976.567788,    2.029571
 977.066151,    2.044107
 977.570050,    2.058824
 978.071462,    2.073488
 978.576321,    2.088272
 979.083620,    2.103147
 979.590440,    2.118029
 980.097302,    2.132931
 980.607767,    2.147958
 981.116621,    2.162958
 981.626624,    2.178012
 982.138630,    2.193145
 982.652928,    2.208365
 983.165971,    2.223568
 983.684627,    2.238957
 984.199899,    2.254266
 984.719470,    2.269723
 985.237264,    2.285146
 985.757568,    2.300665
 986.276946,    2.316176
 986.800995,    2.331846
 987.322940,    2.347474
 987.844736,    2.363117
 988.371539,    2.378930
 988.894049,    2.394634
 989.422079,    2.410524
 989.949881,    2.426428
 990.477291,    2.442340
 991.004000,    2.458250
 991.533703,    2.474271
 992.062016,    2.490270
 992.597359,    2.506502
 993.128712,    2.522633
 993.661560,    2.538830
 994.195679,    2.555085
 994.733163,    2.571463
 995.273775,    2.587957
 995.812252,    2.604405
 996.350989,    2.620882
 996.888147,    2.637330
 997.433025,    2.654035
 997.975057,    2.670674
 998.517238,    2.687336
 999.068037,    2.704285
 999.612490,    2.721058
1000.157834,    2.737879
1000.709086,    2.754903
1001.259750,    2.771928
1001.814690,    2.789107
1002.367454,    2.806239
1002.918572,    2.823340
1003.472512,    2.840549
1004.022085,    2.857642
1004.577029,    2.874923
1005.135866,    2.892345
1005.701325,    2.909994
1006.262943,    2.927544
1006.827892,    2.945219
1007.390590,    2.962845
1007.953454,    2.980495
1008.519992,    2.998282
1009.084614,    3.016029
1009.654522,    3.033962
1010.216249,    3.051659
1010.782052,    3.069504
1011.346028,    3.087311
1011.921168,    3.105491
1012.495500,    3.123667
1013.068191,    3.141811
1013.640371,    3.159960
1014.216679,    3.178259
1014.796198,    3.196682
1015.375700,    3.215124
1015.954813,    3.233575
1016.533807,    3.252042
1017.115540,    3.270617
1017.703092,    3.289399
1018.284496,    3.308004
1018.870064,    3.326764
1019.448627,    3.345319
1020.042827,    3.364396
1020.626428,    3.383153
1021.215407,    3.402104
1021.808628,    3.421211
1022.394072,    3.440089
1022.984017,    3.459131
1023.578012,    3.478325
1024.171170,    3.497512
1024.768105,    3.516842
1025.357569,    3.535949
1025.951888,    3.555235
1026.545096,    3.574504
1027.137802,    3.593777
1027.737886,    3.613310
1028.339196,    3.632903
1028.944378,    3.652642
1029.548808,    3.672378
1030.152550,    3.692111
1030.759652,    3.711974
1031.356428,    3.731519
1031.968159,    3.751574
1032.574940,    3.771487
1033.186602,    3.791580
1033.794188,    3.811559
1034.403532,    3.831616
1035.013464,    3.851712
1035.623649,    3.871837
1036.236332,    3.892063
1036.858720,    3.912631
1037.467878,    3.932780
1038.075324,    3.952892
1038.695264,    3.973438
1039.314400,    3.993977
1039.936889,    4.014647
1040.558548,    4.035310
1041.176493,    4.055868
1041.799582,    4.076617
1042.419872,    4.097292
1043.043677,    4.118104
1043.668437,    4.138968
1044.291108,    4.159781
1044.917826,    4.180748
1045.545708,    4.201774
1046.168044,    4.222633
1046.799341,    4.243812
1047.421559,    4.264706
1048.058075,    4.286098
1048.695292,    4.307534
1049.326978,    4.328803
1049.960683,    4.350159
1050.588742,    4.371343
1051.220444,    4.392669
1051.853545,    4.414061
1052.489190,    4.435557
1053.118265,    4.456850
1053.756590,    4.478475
1054.393106,    4.500056
1055.024297,    4.521476
1055.663995,    4.543203
1056.305204,    4.564999
1056.948529,    4.586886
1057.583438,    4.608505
1058.225878,    4.630398
1058.866560,    4.652249
1059.505036,    4.674043
1060.149941,    4.696075
1060.792393,    4.718041
1061.429143,    4.739829
1062.074903,    4.761944
1062.718199,    4.783991
1063.370348,    4.806360
1064.022579,    4.828750
1064.673238,    4.851103
1065.324947,    4.873511
1065.969021,    4.895673
1066.621680,    4.918147
1067.274960,    4.940661
1067.922012,    4.962977
1068.572086,    4.985415
1069.220679,    5.007818
1069.877350,    5.030517
1070.536469,    5.053318
1071.190971,    5.075976
1071.841950,    5.098529
1072.503817,    5.121476
1073.160848,    5.144273
1073.825014,    5.167333
1074.487188,    5.190341
1075.146213,    5.213257
1075.802621,    5.236097
1076.467050,    5.259233
1077.130879,    5.282365
1077.791858,    5.305413
1078.449150,    5.328349
1079.117181,    5.351676
1079.777576,    5.374751
1080.442601,    5.398005
1081.105233,    5.421190
1081.771444,    5.444517
1082.438004,    5.467871
1083.102915,    5.491183
1083.764911,    5.514408
1084.427113,    5.537656
1085.090907,    5.560974
1085.758559,    5.584443
1086.423760,    5.607841
1087.092926,    5.631393
1087.763038,    5.654993
1088.434593,    5.678659
1089.105311,    5.702311
1089.775995,    5.725976
1090.453977,    5.749913
1091.129901,    5.773792
1091.801855,    5.797545
1092.471112,    5.821217
1093.143017,    5.844997
1093.823253,    5.869085
1094.498574,    5.893014
1095.180531,    5.917192
1095.858806,    5.941254
1096.536888,    5.965323
1097.214745,    5.989397
1097.887957,    6.013320
1098.563990,    6.037356
1099.242797,    6.061504
1099.918982,    6.085573
1100.597884,    6.109751
1101.279158,    6.134026
1101.957527,    6.158212
1102.638912,    6.182517
1103.317180,    6.206724
1103.999411,    6.231086
1104.680024,    6.255402
1105.360650,    6.279731
1106.044991,    6.304205
1106.625829,    6.324987
