Ground Distance, Angles
   0.000000,    0.000000
   0.000001,    0.000000
   0.000006,    0.000000
   0.000051,    0.000000
   0.000254,    0.000000
   0.000937,    0.000000
   0.003594,    0.000000
   0.008770,    0.000000
   0.016215,    0.000000
   0.025986,    0.000000
   0.038053,    0.000000
   0.052396,    0.000000
   0.069115,    0.000000
   0.088096,    0.000000
   0.109545,    0.000000
   0.133445,    0.000000
   0.159844,    0.000000
   0.188742,    0.000000
   0.220179,    0.000000
   0.254154,    0.000000
   0.290762,    0.000000
   0.329834,    0.000000
   0.371933,    0.000000
   0.416730,    0.000000
   0.464133,    0.000000
   0.514632,    0.000000
   0.568012,    0.000000
   0.623767,    0.000000
   0.683393,    0.000000
   0.746091,    0.000000
   0.811495,    0.000000
   0.879944,    0.000000
   0.952973,    0.000000
   1.028661,    0.000000
   1.108195,    0.000000
   1.190503,    0.000000
   1.276329,    0.000000
   1.366302,    0.000000
   1.460383,    0.000000
   1.557910,    0.000000
   1.658864,    0.000000
   1.765569,    0.000000
   1.876077,    0.000000
   1.991080,    0.000000
   2.108697,    0.000000
   2.232114,    0.000000
   2.358495,    0.000000
   2.491456,    0.000000
   2.627207,    0.000000
   2.766419,    0.000000
   2.910997,    0.000000
   3.061458,    0.000000
   3.214194,    0.000000
   3.373591,    0.000000
   3.537116,    0.000000
   3.707854,    0.000000
   3.881891,    0.000000
   4.060893,    0.000000
   4.246787,    0.000000
   4.436942,    0.000000
   4.635771,    0.000000
   4.839095,    0.000000
   5.046944,    0.000000
   5.262260,    0.000000
   5.479624,    0.000000
   5.704145,    0.000000
   5.932675,    0.000000
   6.172206,    0.000000
   6.417668,    0.000000
   6.664659,    0.000000
   6.919177,    0.000000
   7.182286,    0.000000
   7.451337,    0.000000
   7.728786,    0.000000
   8.011867,    0.000000
   8.300203,    0.000000
   8.595273,    0.000000
   8.898197,    0.000000
   9.208447,    0.000000
   9.524740,    0.000000
   9.847117,    0.000000
  10.178260,    0.000000
  10.517285,    0.000000
  10.863781,    0.000000
  11.215388,    0.000000
  11.577699,    0.000000
  11.947059,    0.000000
  12.323083,    0.000000
  12.706533,    0.000000
  13.101735,    0.000000
  13.498441,    0.000000
  13.905442,    0.000000
  14.322436,    0.000000
  14.746977,    0.000000
  15.179755,    0.000000
  15.615931,    0.000000
  16.065427,    0.000000
  16.521679,    0.000000
  16.989674,    0.000000
  17.467086,    0.000000
  17.948124,    0.000000
  18.442233,    0.000000
  18.943653,    0.000000
  19.455403,    0.000000
  19.971291,    0.000000
  20.503197,    0.000000
  21.039939,    0.000000
  21.591975,    0.000000
  22.154661,    0.000000
  22.722075,    0.000000
  23.294581,    0.000000
  23.879363,    0.000000
  24.470105,    0.000000
  25.080064,    0.000000
  25.104614,    0.000000
  25.110192,    0.000000
  25.111427,    0.000000
  25.113175,    0.000000
  25.113784,    0.000000
  25.114962,    0.000000
  25.115436,    0.000000
  25.115489,    0.000000
  25.115536,    0.000000
  25.116007,    0.000000
  25.120721,    0.000000
  25.146034,    0.000000
  25.240975,    0.000000
  25.544938,    0.000000
  26.122884,    0.000000
  26.701027,    0.000000
  27.285207,    0.000000
  27.878682,    0.000000
  28.479559,    0.000000
  29.087489,    0.000000
  29.709576,    0.000000
  30.339197,    0.000000
  30.977515,    0.000000
  31.624560,    0.000000
  32.281037,    0.000000
  32.946776,    0.000000
  33.624452,    0.000000
  34.313136,    0.000000
  35.009054,    0.000000
  35.708189,    0.000000
  36.418015,    0.000000
  37.136818,    0.000000
  37.867779,    0.000000
  38.610465,    0.000000
  39.366949,    0.000000
  40.124054,    0.000000
  40.893463,    0.000000
  41.674081,    0.000000
  42.464088,    0.000000
  43.263317,    0.000000
  44.070501,    0.000000
  44.886655,    0.000000
  45.715278,    0.000000
  46.555057,    0.000000
  47.404370,    0.000000
  48.265463,    0.000000
  49.125549,    0.000000
  50.002292,    0.000000
  50.891462,    0.000000
  51.789845,    0.000000
  52.700389,    0.000000
  53.620266,    0.000000
  54.548014,    0.000000
  55.488294,    0.000000
  56.438610,    0.000000
  57.408434,    0.000000
  58.385766,    0.000000
  59.370371,    0.000000
  60.365913,    0.000000
  61.379289,    0.000000
  62.389213,    0.000000
  63.423505,    0.000000
  64.463035,    0.000000
  65.513995,    0.000000
  66.577116,    0.000000
  67.651149,    0.000000
  68.734516,    0.000000
  69.826554,    0.000000
  70.926902,    0.000000
  72.041160,    0.000000
  73.167900,    0.000000
  74.306773,    0.000000
  75.467376,    0.000000
  76.633843,    0.000000
  77.809141,    0.000000
  78.997253,    0.000000
  80.197519,    0.000000
  81.410899,    0.000000
  82.633034,    0.000000
  83.870672,    0.000000
  85.116192,    0.000000
  86.373469,    0.000000
  87.642578,    0.000000
  88.921294,    0.000000
  90.211860,    0.000000
  91.522913,    0.000000
  92.844013,    0.000000
  94.177813,    0.000000
  95.524629,    0.000000
  96.890774,    0.000000
  98.258511,    0.000000
  99.637602,    0.000000
 101.033815,    0.000000
 102.439374,    0.000000
 103.861289,    0.000000
 104.147219,    0.000000
 104.341094,    0.000000
 104.495880,    0.000000
 104.518932,    0.000000
 104.524426,    0.000000
 104.526123,    0.000000
 104.526910,    0.000000
 104.527083,    0.000000
 104.527264,    0.000000
 104.529071,    0.000000
 104.545335,    0.000000
 104.639691,    0.000000
 104.976903,    0.000000
 106.129664,    0.000000
 107.448863,    0.000000
 108.782020,    0.000000
 110.126774,    0.000000
 111.485587,    0.000000
 112.857579,    0.000000
 114.232498,    0.000000
 115.627087,    0.000000
 117.025299,    0.000000
 118.429538,    0.000000
 119.849673,    0.000000
 121.280854,    0.000000
 122.724636,    0.000000
 124.175236,    0.000000
 125.645137,    0.000000
 127.123819,    0.000000
 128.606536,    0.000000
 130.101253,    0.000000
 131.612673,    0.000000
 133.134895,    0.000000
 134.662743,    0.000000
 136.203744,    0.000000
 137.761978,    0.000000
 139.327242,    0.000000
 140.902608,    0.000000
 142.494729,    0.000000
 144.099947,    0.000000
 145.710691,    0.000000
 147.333012,    0.000000
 148.962100,    0.000000
 150.611414,    0.000000
 152.268878,    0.000000
 153.933457,    0.000000
 155.615091,    0.000000
 157.310570,    0.000000
 159.024199,    0.000000
 160.742691,    0.000000
 162.471318,    0.000000
 164.211370,    0.000000
 165.965139,    0.000000
 167.730713,    0.000000
 169.504136,    0.000000
 171.289475,    0.000000
 173.092475,    0.000000
 174.905755,    0.000000
 176.736613,    0.000000
 178.577433,    0.000000
 180.426186,    0.000000
 182.292552,    0.000000
 184.168049,    0.000000
 186.052534,    0.000000
 187.953189,    0.000000
 189.864605,    0.000000
 191.788346,    0.000000
 193.723244,    0.000000
 195.670670,    0.000000
 197.631588,    0.000000
 199.600492,    0.000000
 201.578585,    0.000000
 203.575679,    0.000000
 205.591905,    0.000000
 207.624545,    0.000000
 209.671944,    0.000000
 211.722398,    0.000000
 213.780715,    0.000000
 215.852799,    0.000000
 217.930789,    0.000000
 220.026908,    0.000000
 222.141208,    0.000000
 224.269987,    0.000000
 226.407867,    0.000000
 228.556658,    0.000000
 230.718107,    0.000000
 232.896905,    0.000000
 235.094814,    0.000000
 237.303170,    0.000000
 239.512888,    0.000000
 241.745851,    0.000000
 243.989033,    0.000000
 246.242947,    0.000000
 246.696259,    0.000000
 248.417686,    0.000000
 248.435820,    0.000000
 248.441007,    0.000000
 248.449399,    0.000000
 248.452117,    0.000000
 248.457552,    0.000000
 248.458257,    0.000000
 248.458628,    0.000000
 248.458984,    0.000000
 248.459308,    0.000000
 248.462550,    0.000000
 248.494704,    0.000000
 248.719489,    0.000000
 249.725066,    0.000000
 251.719700,    0.000000
 253.779585,    0.000000
 255.845816,    0.000000
 257.926492,    0.000000
 260.018203,    0.000000
 262.117889,    0.000000
 264.225392,    0.000000
 266.347479,    0.000000
 268.479330,    0.000000
 270.619404,    0.000000
 272.778841,    0.000000
 274.941400,    0.000000
 277.112158,    0.000000
 279.296599,    0.000000
 281.490633,    0.000000
 283.701626,    0.000000
 285.922600,    0.000000
 288.150724,    0.000000
 290.393710,    0.000000
 292.643781,    0.000000
 294.906961,    0.000000
 297.183446,    0.000000
 299.465437,    0.000000
 301.764926,    0.000000
 304.067928,    0.000000
 306.389604,    0.000000
 308.720301,    0.000000
 311.065369,    0.000000
 313.420332,    0.000000
 315.784519,    0.000000
 318.159011,    0.000000
 320.545962,    0.000000
 322.943466,    0.000000
 325.352425,    0.000000
 327.766033,    0.000000
 330.197939,    0.000000
 332.633831,    0.000000
 335.088965,    0.000000
 337.555321,    0.000000
 340.031860,    0.000000
 342.519440,    0.000000
 345.023622,    0.000000
 347.538764,    0.000000
 350.058976,    0.000000
 352.593858,    0.000000
 355.142610,    0.000000
 357.699338,    0.000000
 360.270044,    0.000000
 362.850448,    0.000000
 365.446561,    0.000000
 368.049100,    0.000000
 370.663009,    0.000000
 373.293354,    0.000000
 375.929053,    0.000000
 378.574729,    0.000000
 381.235283,    0.000000
 383.903976,    0.000000
 386.590827,    0.000000
 389.287783,    0.000000
 391.994667,    0.000000
 394.706064,    0.000000
 397.440764,    0.000000
 400.181286,    0.000000
 402.936323,    0.000000
 405.704811,    0.000000
 408.488933,    0.000000
 411.284026,    0.000000
 414.084220,    0.000000
 416.889096,    0.000000
 419.708533,    0.000000
 422.545376,    0.000000
 425.398278,    0.000000
 428.257758,    0.000000
 431.132352,    0.000000
 434.019837,    0.000000
 436.919663,    0.000000
 439.821595,    0.000000
 442.743417,    0.000000
 445.676320,    0.000000
 448.620964,    0.000000
 451.574264,    0.000000
 454.535505,    0.000000
 457.511524,    0.000000
 460.507034,    0.000000
 463.511220,    0.000000
 466.526193,    0.000000
 469.548137,    0.000000
 472.589684,    0.000000
 475.638948,    0.000000
 476.251346,    0.000000
 476.720335,    0.000000
 477.065547,    0.000000
 477.120290,    0.000000
 477.136970,    0.000000
 477.165558,    0.000000
 477.175153,    0.000000
 477.176811,    0.000000
 477.178528,    0.000000
 477.195695,    0.000000
 477.346967,    0.000000
 478.209917,    0.000000
 480.851419,    0.000000
 483.929371,    0.000000
 487.011271,    0.000000
 490.096576,    0.000000
 493.199907,    0.000000
 496.318901,    0.000000
 499.445243,    0.000000
 502.589472,    0.000000
 505.741627,    0.000000
 508.909317,    0.000000
 512.088997,    0.000000
 515.278295,    0.000000
 518.478661,    0.000000
 521.689262,    0.000000
 524.917627,    0.000000
 528.156191,    0.000000
 531.404500,    0.000000
 534.665889,    0.000000
 537.942055,    0.000000
 541.228510,    0.000000
 544.523422,    0.000000
 547.837509,    0.000000
 551.167379,    0.000000
 554.502284,    0.000000
 557.850130,    0.000000
 561.210674,    0.000000
 564.587181,    0.000000
 567.973018,    0.000000
 571.371712,    0.000000
 574.776435,    0.000000
 578.195979,    0.000000
 581.627918,    0.000000
 585.077831,    0.000000
 588.539660,    0.000000
 592.010643,    0.000000
 595.491964,    0.000000
 598.985547,    0.000000
 602.491253,    0.000000
 606.006502,    0.000000
 609.534511,    0.000000
 613.078588,    0.000000
 616.637030,    0.000000
 620.210215,    0.000000
 623.792146,    0.000000
 627.388022,    0.000000
 630.987118,    0.000000
 634.607694,    0.000000
 638.239199,    0.000000
 641.885623,    0.000000
 645.541759,    0.000000
 649.206249,    0.000000
 652.891571,    0.000000
 656.587050,    0.000000
 660.292644,    0.000000
 664.016097,    0.000000
 667.742726,    0.000000
 671.481226,    0.000000
 675.242879,    0.000000
 679.003419,    0.000000
 682.786868,    0.000000
 686.585612,    0.000000
 690.392208,    0.000000
 694.213453,    0.000000
 698.039404,    0.000000
 701.880478,    0.000000
 705.740575,    0.000000
 709.601892,    0.000000
 713.488985,    0.000000
 717.379775,    0.000000
 721.284794,    0.000000
 723.174928,    0.000000
 725.212289,    0.000000
 729.149558,    0.109731
 733.087521,    0.320515
 737.042221,    0.529105
 741.008085,    0.736370
 744.992700,    0.942022
 748.983789,    1.146461
 752.991009,    1.349065
 757.010780,    1.550337
 761.042227,    1.750101
 765.083601,    1.948325
 769.142019,    2.144932
 773.212553,    2.340280
 777.292638,    2.534134
 781.381331,    2.726384
 785.482819,    2.917000
 789.591904,    3.106189
 793.707916,    3.293723
 797.843449,    3.479586
 801.990962,    3.664359
 806.141231,    3.847707
 810.303845,    4.029236
 814.479445,    4.209383
 818.666912,    4.388185
 822.865317,    4.565601
 827.070061,    4.741602
 827.238674,    4.916008
 827.246700,    4.922935
 827.252017,    4.923264
 827.255947,    4.923482
 827.258260,    4.923644
 827.259242,    4.923739
 827.260216,    4.923779
 827.269963,    4.923819
 827.367426,    4.924219
 827.956406,    4.928221
 830.575043,    4.952396
 834.897452,    5.059669
 839.275145,    5.235508
 843.659444,    5.411674
 848.060213,    5.586186
 852.472241,    5.759448
 856.888696,    5.931264
 861.321198,    6.101381
 865.757644,    6.270262
 870.199087,    6.437457
 874.655158,    6.603025
 879.114212,    6.767340
 883.589951,    6.929984
 888.073867,    7.091471
 888.427707,    7.254808
 888.782141,    7.270678
 889.136923,    7.286618
 889.491206,    7.302613
 889.846349,    7.318645
 890.201897,    7.334759
 890.554873,    7.350906
 890.910129,    7.367033
 891.265611,    7.383289
 891.619823,    7.399585
 891.977112,    7.415917
 892.329444,    7.432348
 892.686839,    7.448709
 893.044582,    7.465297
 893.403094,    7.481953
 893.761724,    7.498685
 894.117184,    7.515430
 894.473824,    7.532124
 894.833578,    7.548945
 895.192512,    7.565910
 895.552234,    7.582904
 895.912595,    7.599980
 896.272848,    7.617125
 896.634052,    7.634325
 896.993903,    7.651587
 897.356115,    7.668881
 897.717019,    7.686286
 898.078435,    7.703700
 898.438850,    7.721165
 898.802166,    7.738683
 899.164024,    7.756327
 899.526519,    7.773978
 899.891576,    7.791735
 900.255267,    7.809608
 900.618874,    7.827480
 900.982924,    7.845403
 901.347740,    7.863400
 901.713311,    7.881482
 902.077837,    7.899622
 902.444214,    7.917802
 902.811420,    7.936107
 903.174576,    7.954423
 903.543911,    7.972747
 903.913543,    7.991335
 904.282970,    8.009979
 904.653344,    8.028679
 905.024120,    8.047467
 905.394524,    8.066311
 905.765262,    8.085196
 906.135364,    8.104130
 906.506769,    8.123113
 906.879481,    8.142212
 907.251440,    8.161390
 907.625111,    8.180622
 907.996907,    8.199927
 908.371556,    8.219269
 908.746634,    8.238764
 909.121642,    8.258321
 909.497222,    8.277936
 909.871806,    8.297600
 910.246643,    8.317285
 910.624630,    8.337087
 910.999272,    8.356979
 911.377305,    8.376875
 911.756325,    8.396952
 912.136224,    8.417130
 912.516362,    8.437392
 912.893904,    8.457659
 913.275030,    8.477961
 913.654205,    8.498394
 914.033172,    8.518806
 914.416222,    8.539345
 914.798573,    8.560056
 915.184103,    8.580861
 915.567938,    8.601786
 915.953538,    8.622742
 916.336457,    8.643751
 916.723902,    8.664819
 917.110359,    8.686066
 917.494901,    8.707289
 917.881533,    8.728545
 918.270998,    8.749984
 918.659624,    8.771550
 919.051314,    8.793208
 919.440364,    8.814958
 919.833531,    8.836768
 920.225975,    8.858748
 920.618335,    8.880754
 921.012752,    8.902858
 921.406136,    8.925057
 921.800399,    8.947295
 922.193525,    8.969586
 922.588037,    8.991925
 922.982420,    9.014359
 923.381475,    9.024063
 923.778656,    9.033738
 924.177406,    9.043467
 924.575422,    9.053195
 924.975795,    9.062997
 925.374602,    9.072777
 925.774533,    9.082601
 926.176363,    9.092488
 926.579144,    9.102415
 926.983324,    9.112393
 927.386454,    9.122362
 927.788583,    9.132322
 928.191887,    9.142328
 928.595450,    9.152356
 928.999001,    9.162401
 929.406835,    9.172569
 929.815136,    9.182765
 930.223612,    9.192983
 930.632141,    9.203218
 931.040670,    9.213471
 931.450245,    9.223766
 931.860590,    9.234097
 932.271483,    9.244458
 932.684773,    9.254897
 933.097207,    9.265332
 933.512041,    9.275843
 933.924664,    9.286316
 934.338568,    9.296838
 934.753310,    9.307398
 935.169618,    9.318014
 935.583686,    9.328591
 935.999377,    9.339225
 936.416144,    9.349904
 936.834283,    9.360635
 937.251356,    9.371356
 937.671294,    9.382167
 938.091619,    9.393005
 938.510792,    9.403830
 938.932361,    9.414734
 939.355886,    9.425706
 939.777131,    9.436636
 940.198938,    9.447597
 940.626280,    9.458720
 941.053290,    9.469851
 941.482681,    9.481061
 941.911990,    9.492287
 942.342080,    9.503551
 942.772317,    9.514835
 943.200525,    9.526084
 943.633433,    9.537474
 944.067084,    9.548901
 944.500022,    9.560326
 944.935950,    9.571848
 945.372737,    9.583411
 945.806127,    9.594901
 946.242078,    9.606476
 946.680209,    9.618127
 947.116636,    9.629750
 947.554883,    9.641439
 947.993907,    9.653166
 948.435051,    9.664968
 948.876543,    9.676797
 949.317345,    9.688625
 949.761195,    9.700552
 950.202277,    9.712423
 950.646102,    9.724385
 951.090247,    9.736374
 951.535089,    9.748399
 951.983135,    9.760529
 952.432596,    9.772715
 952.881094,    9.784893
 953.329621,    9.797090
 953.686757,    9.806814
 953.779441,    9.809339
 954.229069,    9.821602
 954.681064,    9.833947
 955.134190,    9.846341
 955.586263,    9.858724
 956.040319,    9.871179
 956.496407,    9.883708
 956.954028,    9.896298
 957.411783,    9.908909
 957.868624,    9.921514
 958.327298,    9.934187
 958.789548,    9.946977
 959.249478,    9.959722
 959.713375,    9.972595
 960.178795,    9.985528
 960.641116,    9.998394
 961.106951,   10.011376
 961.573676,   10.024401
 962.043175,   10.037523
 962.511843,   10.050639
 962.983070,   10.063846
 963.455779,   10.077114
 963.931294,   10.090479
 964.406131,   10.103844
 964.879252,   10.117179
 965.356106,   10.130638
 965.832316,   10.144098
 966.308348,   10.157572
 966.786619,   10.171128
 967.267595,   10.184780
 967.745946,   10.198376
 968.232605,   10.212227
 968.713563,   10.225936
 969.198879,   10.239787
 969.684018,   10.253653
 970.172349,   10.267629
 970.658142,   10.281551
 971.146022,   10.295553
 971.634951,   10.309604
 972.123064,   10.323650
 972.612477,   10.337753
 973.103168,   10.351912
 973.595715,   10.366144
 974.087584,   10.380376
 974.582448,   10.394713
 975.077029,   10.409062
 975.574655,   10.423518
 976.070816,   10.437951
 976.567788,   10.452427
 977.066151,   10.466963
 977.570050,   10.481679
 978.071462,   10.496343
 978.576321,   10.511127
 979.083620,   10.526003
 979.590440,   10.540884
 980.097302,   10.555786
 980.607767,   10.570814
 981.116621,   10.585814
 981.626624,   10.600867
 982.138630,   10.616000
 982.652928,   10.631220
 983.165971,   10.646423
 983.684627,   10.661813
 984.199899,   10.677121
 984.719470,   10.692578
 985.237264,   10.708002
 985.757568,   10.723520
 986.276946,   10.739031
 986.800995,   10.754701
 987.322940,   10.770329
 987.844736,   10.785972
 988.371539,   10.801785
 988.894049,   10.817489
 989.422079,   10.833380
 989.949881,   10.849283
 990.477291,   10.865195
 991.004000,   10.881106
 991.533703,   10.897127
 992.062016,   10.913126
 992.597359,   10.929358
 993.128712,   10.945489
 993.661560,   10.961685
 994.195679,   10.977940
 994.733163,   10.994318
 995.273775,   11.010812
 995.812252,   11.027260
 996.350989,   11.043737
 996.888147,   11.060186
 997.433025,   11.076891
 997.975057,   11.093529
 998.517238,   11.110192
 999.068037,   11.127140
 999.612490,   11.143913
1000.157834,   11.160734
1000.709086,   11.177758
1001.259750,   11.194784
1001.814690,   11.211962
1002.367454,   11.229094
1002.918572,   11.246195
1003.472512,   11.263404
1004.022085,   11.280497
1004.577029,   11.297778
1005.135866,   11.315200
1005.701325,   11.332850
1006.262943,   11.350400
1006.827892,   11.368075
1007.390590,   11.385700
1007.953454,   11.403351
1008.519992,   11.421137
1009.084614,   11.438884
1009.654522,   11.456818
1010.216249,   11.474514
1010.782052,   11.492359
1011.346028,   11.510166
1011.921168,   11.528347
1012.495500,   11.546522
1013.068191,   11.564667
1013.640371,   11.582815
1014.216679,   11.601115
1014.796198,   11.619537
1015.375700,   11.637979
1015.954813,   11.656430
1016.533807,   11.674897
1017.115540,   11.693472
1017.703092,   11.712254
1018.284496,   11.730860
1018.870064,   11.749619
1019.448627,   11.768174
1020.042827,   11.787251
1020.626428,   11.806008
1021.215407,   11.824959
1021.808628,   11.844067
1022.394072,   11.862944
1022.984017,   11.881986
1023.578012,   11.901180
1024.171170,   11.920367
1024.768105,   11.939697
1025.357569,   11.958805
1025.951888,   11.978090
1026.545096,   11.997359
1027.137802,   12.016632
1027.737886,   12.036165
1028.339196,   12.055758
1028.944378,   12.075497
1029.548808,   12.095233
1030.152550,   12.114966
1030.759652,   12.134829
1031.356428,   12.154374
1031.968159,   12.174429
1032.574940,   12.194342
1033.186602,   12.214435
1033.794188,   12.234415
1034.403532,   12.254472
1035.013464,   12.274568
1035.623649,   12.294692
1036.236332,   12.314919
1036.858720,   12.335486
1037.467878,   12.355635
1038.075324,   12.375748
1038.695264,   12.396294
1039.314400,   12.416833
1039.936889,   12.437503
1040.558548,   12.458165
1041.176493,   12.478723
1041.799582,   12.499472
1042.419872,   12.520148
1043.043677,   12.540960
1043.668437,   12.561823
1044.291108,   12.582636
1044.917826,   12.603604
1045.545708,   12.624630
1046.168044,   12.645489
1046.799341,   12.666668
1047.421559,   12.687561
1048.058075,   12.708954
1048.695292,   12.730389
1049.326978,   12.751658
1049.960683,   12.773014
1050.588742,   12.794198
1051.220444,   12.815524
1051.853545,   12.836916
1052.489190,   12.858413
1053.118265,   12.879705
1053.756590,   12.901330
1054.393106,   12.922912
1055.024297,   12.944331
1055.663995,   12.966058
1056.305204,   12.987854
1056.948529,   13.009741
1057.583438,   13.031360
1058.225878,   13.053253
1058.866560,   13.075105
1059.505036,   13.096899
1060.149941,   13.118930
1060.792393,   13.140896
1061.429143,   13.162684
1062.074903,   13.184799
1062.718199,   13.206847
1063.370348,   13.229216
1064.022579,   13.251605
1064.673238,   13.273959
1065.324947,   13.296366
1065.969021,   13.318528
1066.621680,   13.341003
1067.274960,   13.363516
1067.922012,   13.385833
1068.572086,   13.408270
1069.220679,   13.430673
1069.877350,   13.453372
1070.536469,   13.476173
1071.190971,   13.498832
1071.841950,   13.521385
1072.503817,   13.544332
1073.160848,   13.567128
1073.825014,   13.590188
1074.487188,   13.613197
1075.146213,   13.636112
1075.802621,   13.658952
1076.467050,   13.682089
1077.130879,   13.705220
1077.791858,   13.728268
1078.449150,   13.751204
1079.117181,   13.774531
1079.777576,   13.797607
1080.442601,   13.820860
1081.105233,   13.844046
1081.771444,   13.867372
1082.438004,   13.890726
1083.102915,   13.914038
1083.764911,   13.937264
1084.427113,   13.960511
1085.090907,   13.983829
1085.758559,   14.007298
1086.423760,   14.030696
1087.092926,   14.054248
1087.763038,   14.077849
1088.434593,   14.101515
1089.105311,   14.125166
1089.775995,   14.148831
1090.453977,   14.172768
1091.129901,   14.196647
1091.801855,   14.220400
1092.471112,   14.244072
1093.143017,   14.267852
1093.823253,   14.291941
1094.498574,   14.315870
1095.180531,   14.340048
1095.858806,   14.364109
1096.536888,   14.388178
1097.214745,   14.412252
1097.887957,   14.436175
1098.563990,   14.460211
1099.242797,   14.484360
1099.918982,   14.508428
1100.597884,   14.532606
1101.279158,   14.556882
1101.957527,   14.581067
1102.638912,   14.605372
1103.317180,   14.629580
1103.999411,   14.653941
1104.680024,   14.678257
1105.360650,   14.702586
1106.044991,   14.727060
1106.625829,   14.747842
