Ground Distance, Angles
   0.000000,    0.000000
   0.000000,    0.000000
   0.000007,    0.000000
   0.000082,    0.000000
   0.000471,    0.000000
   0.002611,    0.000000
   0.007883,    0.000000
   0.016021,    0.000000
   0.027016,    0.000000
   0.040922,    0.000000
   0.057780,    0.000000
   0.077586,    0.000000
   0.100326,    0.000000
   0.125942,    0.000000
   0.154713,    0.000000
   0.186823,    0.000000
   0.222045,    0.000000
   0.260756,    0.000000
   0.302570,    0.000000
   0.347923,    0.000000
   0.396709,    0.000000
   0.449072,    0.000000
   0.505139,    0.000000
   0.565818,    0.000000
   0.629321,    0.000000
   0.696192,    0.000000
   0.767836,    0.000000
   0.842671,    0.000000
   0.922055,    0.000000
   1.006500,    0.000000
   1.095504,    0.000000
   1.189311,    0.000000
   1.287386,    0.000000
   1.389598,    0.000000
   1.495618,    0.000000
   1.607014,    0.000000
   1.724723,    0.000000
   1.846153,    0.000000
   1.972630,    0.000000
   2.107465,    0.000000
   2.244878,    0.000000
   2.390951,    0.000000
   2.541755,    0.000000
   2.696714,    0.000000
   2.860361,    0.000000
   3.029808,    0.000000
   3.206675,    0.000000
   3.388884,    0.000000
   3.575572,    0.000000
   3.771163,    0.000000
   3.972625,    0.000000
   4.179952,    0.000000
   4.393994,    0.000000
   4.613086,    0.000000
   4.840682,    0.000000
   5.075485,    0.000000
   5.320203,    0.000000
   5.568898,    0.000000
   5.828049,    0.000000
   6.097646,    0.000000
   6.369353,    0.000000
   6.654390,    0.000000
   6.944175,    0.000000
   7.242556,    0.000000
   7.553601,    0.000000
   7.870306,    0.000000
   8.195511,    0.000000
   8.527551,    0.000000
   8.870135,    0.000000
   9.222438,    0.000000
   9.587628,    0.000000
   9.959421,    0.000000
  10.339511,    0.000000
  10.731027,    0.000000
  11.132951,    0.000000
  11.543166,    0.000000
  11.961975,    0.000000
  12.395725,    0.000000
  12.834698,    0.000000
  13.285572,    0.000000
  13.747262,    0.000000
  14.217976,    0.000000
  14.698218,    0.000000
  15.197074,    0.000000
  15.699039,    0.000000
  16.215408,    0.000000
  16.748197,    0.000000
  17.289480,    0.000000
  17.843884,    0.000000
  18.404680,    0.000000
  18.988049,    0.000000
  19.574672,    0.000000
  20.173425,    0.000000
  20.783393,    0.000000
  21.401260,    0.000000
  22.039416,    0.000000
  22.688402,    0.000000
  23.350597,    0.000000
  24.023375,    0.000000
  24.708915,    0.000000
  24.848461,    0.000000
  24.918110,    0.000000
  24.960115,    0.000000
  24.987430,    0.000000
  25.081498,    0.000000
  25.082059,    0.000000
  25.082987,    0.000000
  25.083383,    0.000000
  25.083495,    0.000000
  25.083548,    0.000000
  25.083601,    0.000000
  25.084137,    0.000000
  25.088672,    0.000000
  25.116551,    0.000000
  25.219963,    0.000000
  25.527125,    0.000000
  26.141405,    0.000000
  26.785931,    0.000000
  27.447079,    0.000000
  28.115090,    0.000000
  28.795350,    0.000000
  29.485894,    0.000000
  30.187059,    0.000000
  30.898280,    0.000000
  31.625886,    0.000000
  32.364925,    0.000000
  33.122314,    0.000000
  33.887918,    0.000000
  34.664240,    0.000000
  35.453035,    0.000000
  36.253324,    0.000000
  37.061997,    0.000000
  37.887845,    0.000000
  38.726487,    0.000000
  39.568639,    0.000000
  40.432427,    0.000000
  41.301106,    0.000000
  42.184307,    0.000000
  43.076800,    0.000000
  43.989895,    0.000000
  44.913626,    0.000000
  45.848172,    0.000000
  46.797072,    0.000000
  47.758548,    0.000000
  48.728286,    0.000000
  49.715617,    0.000000
  50.715006,    0.000000
  51.729581,    0.000000
  52.759859,    0.000000
  53.800502,    0.000000
  54.861502,    0.000000
  55.940737,    0.000000
  57.025220,    0.000000
  58.120526,    0.000000
  59.239747,    0.000000
  60.369394,    0.000000
  61.517558,    0.000000
  62.678802,    0.000000
  63.844125,    0.000000
  65.034125,    0.000000
  66.232218,    0.000000
  67.455031,    0.000000
  68.684252,    0.000000
  69.936302,    0.000000
  71.197192,    0.000000
  72.473338,    0.000000
  73.766415,    0.000000
  75.076415,    0.000000
  76.403491,    0.000000
  77.734368,    0.000000
  79.090532,    0.000000
  80.452946,    0.000000
  81.833859,    0.000000
  83.234743,    0.000000
  84.649742,    0.000000
  86.076075,    0.000000
  87.529580,    0.000000
  89.002517,    0.000000
  90.487151,    0.000000
  91.983098,    0.000000
  93.490940,    0.000000
  95.029204,    0.000000
  96.585428,    0.000000
  98.148737,    0.000000
  99.729079,    0.000000
 101.324331,    0.000000
 102.941287,    0.000000
 103.265878,    0.000000
 103.458075,    0.000000
 103.568907,    0.000000
 103.670897,    0.000000
 103.750633,    0.000000
 103.815717,    0.000000
 103.862810,    0.000000
 103.908576,    0.000000
 103.960808,    0.000000
 103.970275,    0.000000
 103.972680,    0.000000
 103.973243,    0.000000
 103.973543,    0.000000
 103.973675,    0.000000
 103.973835,    0.000000
 103.975433,    0.000000
 103.991410,    0.000000
 104.104923,    0.000000
 104.512434,    0.000000
 105.920854,    0.000000
 107.399548,    0.000000
 108.888289,    0.000000
 110.397087,    0.000000
 111.913332,    0.000000
 113.444042,    0.000000
 114.980652,    0.000000
 116.546503,    0.000000
 118.122274,    0.000000
 119.709281,    0.000000
 121.305428,    0.000000
 122.924303,    0.000000
 124.551241,    0.000000
 126.193184,    0.000000
 127.856354,    0.000000
 129.529032,    0.000000
 131.216982,    0.000000
 132.918510,    0.000000
 134.630181,    0.000000
 136.359853,    0.000000
 138.111584,    0.000000
 139.881820,    0.000000
 141.656321,    0.000000
 143.451338,    0.000000
 145.260899,    0.000000
 147.084571,    0.000000
 148.920652,    0.000000
 150.771945,    0.000000
 152.644271,    0.000000
 154.530512,    0.000000
 156.437327,    0.000000
 158.353374,    0.000000
 160.280389,    0.000000
 162.228984,    0.000000
 164.199367,    0.000000
 166.177699,    0.000000
 168.179261,    0.000000
 170.188575,    0.000000
 172.217971,    0.000000
 174.265273,    0.000000
 176.323559,    0.000000
 178.395849,    0.000000
 180.478634,    0.000000
 182.589947,    0.000000
 184.709407,    0.000000
 186.847517,    0.000000
 188.999008,    0.000000
 191.170846,    0.000000
 193.354765,    0.000000
 195.557972,    0.000000
 197.785531,    0.000000
 200.028555,    0.000000
 202.289230,    0.000000
 204.561836,    0.000000
 206.857959,    0.000000
 209.160254,    0.000000
 211.485733,    0.000000
 213.824874,    0.000000
 216.184489,    0.000000
 218.564823,    0.000000
 220.954382,    0.000000
 223.374309,    0.000000
 225.802736,    0.000000
 228.246820,    0.000000
 230.714584,    0.000000
 233.196805,    0.000000
 235.698407,    0.000000
 238.223447,    0.000000
 240.757637,    0.000000
 243.307499,    0.000000
 243.819123,    0.000000
 244.160930,    0.000000
 245.234459,    0.000000
 245.255574,    0.000000
 245.260895,    0.000000
 245.269421,    0.000000
 245.270580,    0.000000
 245.271239,    0.000000
 245.271652,    0.000000
 245.272031,    0.000000
 245.275823,    0.000000
 245.308995,    0.000000
 245.489763,    0.000000
 246.397362,    0.000000
 248.642360,    0.000000
 250.910951,    0.000000
 253.194482,    0.000000
 255.489820,    0.000000
 257.796429,    0.000000
 260.112136,    0.000000
 262.444877,    0.000000
 264.792560,    0.000000
 267.152670,    0.000000
 269.527490,    0.000000
 271.920292,    0.000000
 274.327732,    0.000000
 276.754404,    0.000000
 279.196508,    0.000000
 281.639954,    0.000000
 284.109086,    0.000000
 286.587877,    0.000000
 289.079199,    0.000000
 291.592865,    0.000000
 294.118875,    0.000000
 296.647416,    0.000000
 299.192465,    0.000000
 301.757769,    0.000000
 304.342926,    0.000000
 306.942795,    0.000000
 309.557182,    0.000000
 312.176347,    0.000000
 314.815464,    0.000000
 317.466208,    0.000000
 320.132569,    0.000000
 322.817880,    0.000000
 325.520222,    0.000000
 328.230660,    0.000000
 330.963415,    0.000000
 333.704471,    0.000000
 336.468821,    0.000000
 339.248237,    0.000000
 342.033247,    0.000000
 344.844506,    0.000000
 347.663742,    0.000000
 350.492407,    0.000000
 353.334963,    0.000000
 356.196160,    0.000000
 359.073472,    0.000000
 361.965013,    0.000000
 364.876543,    0.000000
 367.798876,    0.000000
 370.741193,    0.000000
 373.695465,    0.000000
 376.672141,    0.000000
 379.647749,    0.000000
 382.645542,    0.000000
 385.664177,    0.000000
 388.695286,    0.000000
 391.744345,    0.000000
 394.807075,    0.000000
 397.895053,    0.000000
 400.984272,    0.000000
 404.087347,    0.000000
 407.216091,    0.000000
 410.358140,    0.000000
 413.516237,    0.000000
 416.692282,    0.000000
 419.882047,    0.000000
 423.087385,    0.000000
 426.311910,    0.000000
 429.545002,    0.000000
 432.802710,    0.000000
 436.070654,    0.000000
 439.358729,    0.000000
 442.666954,    0.000000
 445.986607,    0.000000
 449.316383,    0.000000
 452.668690,    0.000000
 456.031707,    0.000000
 459.419409,    0.000000
 462.816887,    0.000000
 463.500268,    0.000000
 463.991797,    0.000000
 464.329741,    0.000000
 464.642615,    0.000000
 464.904321,    0.000000
 464.952813,    0.000000
 465.008249,    0.000000
 465.020106,    0.000000
 465.031843,    0.000000
 465.035901,    0.000000
 465.037453,    0.000000
 465.039173,    0.000000
 465.056369,    0.000000
 465.197834,    0.000000
 465.963858,    0.000000
 468.810677,    0.000000
 472.227554,    0.000000
 475.673722,    0.000000
 479.138752,    0.000000
 482.604102,    0.000000
 486.092738,    0.000000
 489.599800,    0.000000
 493.128471,    0.000000
 496.674129,    0.000000
 500.224997,    0.000000
 503.801621,    0.000000
 507.396981,    0.000000
 510.995201,    0.000000
 514.609631,    0.000000
 518.246373,    0.000000
 521.897149,    0.000000
 525.566409,    0.000000
 529.253570,    0.000000
 532.958511,    0.000000
 536.673319,    0.000000
 540.412163,    0.000000
 544.167612,    0.000000
 547.932129,    0.000000
 551.718431,    0.000000
 555.522072,    0.000000
 559.340358,    0.000000
 563.178382,    0.000000
 567.036967,    0.000000
 570.907534,    0.000000
 574.798944,    0.000000
 578.708079,    0.000000
 582.627476,    0.000000
 586.567398,    0.000000
 590.532868,    0.000000
 594.507978,    0.000000
 598.500367,    0.000000
 602.505612,    0.000000
 606.535368,    0.000000
 610.575486,    0.000000
 614.631440,    0.000000
 618.706842,    0.000000
 622.797647,    0.000000
 626.902631,    0.000000
 631.027386,    0.000000
 635.183907,    0.000000
 639.346251,    0.000000
 643.521000,    0.000000
 647.714792,    0.000000
 651.924416,    0.000000
 656.166071,    0.000000
 660.409120,    0.000000
 664.678835,    0.000000
 664.967817,    0.000000
 668.963366,    0.000000
 673.262209,    0.218969
 677.582682,    0.451894
 681.917670,    0.683172
 686.289143,    0.912431
 690.675101,    1.140831
 695.073570,    1.367214
 699.497039,    1.591495
 703.941253,    1.814321
 708.395109,    2.035479
 712.878676,    2.254429
 717.375034,    2.472167
 721.883566,    2.687873
 726.419429,    2.901537
 730.954866,    3.113887
 735.508572,    3.323637
 740.077775,    3.531679
 744.677960,    3.737899
 749.282291,    3.943000
 753.896152,    4.145791
 758.526265,    4.346538
 763.166859,    4.545553
 767.818097,    4.742604
 772.484386,    4.937720
 777.155953,    5.131103
 781.847123,    5.322369
 786.542973,    5.512124
 787.485451,    5.699780
 788.358760,    5.737027
 788.683032,    5.773133
 789.007469,    5.787626
 789.072387,    5.800737
 789.259250,    5.804325
 789.262199,    5.811680
 789.266411,    5.811820
 789.267314,    5.811990
 789.267639,    5.812028
 789.268011,    5.812042
 789.270482,    5.812071
 789.283259,    5.812240
 789.333685,    5.813027
 789.469207,    5.815779
 789.690292,    5.822375
 790.014201,    5.832963
 790.338547,    5.847638
 790.663164,    5.862381
 790.988565,    5.877187
 791.314197,    5.892073
 791.639991,    5.907018
 791.965915,    5.922018
 792.292226,    5.937074
 792.617206,    5.952184
 792.942316,    5.967291
 793.268711,    5.982460
 793.595606,    5.997732
 793.923061,    6.013076
 794.250741,    6.028492
 794.578340,    6.043964
 794.906607,    6.059487
 795.234999,    6.075086
 795.563038,    6.090735
 795.891986,    6.106426
 796.221244,    6.122205
 796.550817,    6.138047
 796.880702,    6.153952
 797.209856,    6.169911
 797.539956,    6.185900
 797.869143,    6.201965
 798.200018,    6.218060
 798.531410,    6.234275
 798.863071,    6.250561
 799.192981,    6.266887
 799.525204,    6.283220
 799.857335,    6.299689
 800.188822,    6.316197
 800.521856,    6.332746
 800.855000,    6.349405
 801.188162,    6.366117
 801.521890,    6.382886
 801.856241,    6.399734
 802.190830,    6.416657
 802.524934,    6.433632
 802.859611,    6.450646
 803.194311,    6.467730
 803.528590,    6.484859
 803.862758,    6.502020
 804.199411,    6.519259
 804.535815,    6.536638
 804.873037,    6.554069
 805.210660,    6.571586
 805.547169,    6.589152
 805.885571,    6.606752
 806.223888,    6.624473
 806.562061,    6.642237
 806.901421,    6.660064
 807.239101,    6.677960
 807.577748,    6.695857
 807.918003,    6.713865
 808.258604,    6.731989
 808.599629,    6.750182
 808.939017,    6.768415
 809.280545,    6.786672
 809.622895,    6.805072
 809.965792,    6.823562
 810.309339,    6.842134
 810.649953,    6.860731
 810.993768,    6.879324
 811.336323,    6.898064
 811.680620,    6.916839
 812.023747,    6.935707
 812.369246,    6.954625
 812.712720,    6.973646
 813.058009,    6.992674
 813.404167,    7.011837
 813.750703,    7.031090
 814.097846,    7.050419
 814.445955,    7.069839
 814.794100,    7.089348
 815.141499,    7.108894
 815.489020,    7.128467
 815.839095,    7.148145
 816.187112,    7.167927
 816.537315,    7.187729
 816.888845,    7.207690
 817.240292,    7.227750
 817.590644,    7.247835
 817.942030,    7.267954
 818.292602,    7.288145
 818.645283,    7.308402
 818.999495,    7.328820
 819.351915,    7.349309
 819.705468,    7.369808
 820.055631,    7.390326
 820.411636,    7.410901
 820.765108,    7.431684
 821.121913,    7.439625
 821.478414,    7.447577
 821.834556,    7.455538
 822.191878,    7.463542
 822.549467,    7.471571
 822.907309,    7.479622
 823.266705,    7.487727
 823.627411,    7.495878
 823.987385,    7.504031
 824.347238,    7.512198
 824.706783,    7.520376
 825.067265,    7.528593
 825.428164,    7.536837
 825.791241,    7.545148
 826.152910,    7.553445
 826.517250,    7.561821
 826.881875,    7.570222
 827.246017,    7.578629
 827.610386,    7.587059
 827.974336,    7.595497
 828.339939,    7.603991
 828.706051,    7.612515
 829.070723,    7.621024
 829.437443,    7.629597
 829.804734,    7.638202
 830.171239,    7.646807
 830.538886,    7.655456
 830.906634,    7.664125
 831.275686,    7.672843
 831.645262,    7.681591
 832.015966,    7.690384
 832.385941,    7.699178
 832.757302,    7.708022
 833.128418,    7.716879
 833.499824,    7.725760
 833.873455,    7.734713
 834.247141,    7.743686
 834.620515,    7.752669
 834.994111,    7.761675
 835.367293,    7.770689
 835.742370,    7.779767
 836.115558,    7.788818
 836.490737,    7.797935
 836.867146,    7.807100
 837.243819,    7.816289
 837.623738,    7.825576
 838.003123,    7.834868
 838.381957,    7.844165
 838.761124,    7.853489
 839.140840,    7.862844
 839.521059,    7.872230
 839.904094,    7.881704
 840.287107,    7.891196
 840.669194,    7.900684
 841.052109,    7.910210
 841.434547,    7.919743
 841.818844,    7.929341
 842.203121,    7.938957
 842.590598,    7.948671
 842.978239,    7.958409
 843.365805,    7.968163
 843.752366,    7.977910
 844.141553,    7.987742
 844.531453,    7.997611
 844.920042,    8.007466
 845.308530,    8.017337
 845.699247,    8.027283
 846.093096,    8.037327
 846.486041,    8.047368
 846.878757,    8.057421
 847.272204,    8.067513
 847.667664,    8.077674
 848.063251,    8.087859
 848.459136,    8.098069
 848.855046,    8.108300
 849.249708,    8.118517
 849.648055,    8.128848
 850.047655,    8.139231
 850.448721,    8.149672
 850.740545,    8.157281
 850.847552,    8.160073
 851.248550,    8.170551
 851.650954,    8.181084
 852.053005,    8.191627
 852.456173,    8.202219
 852.859529,    8.212835
 853.262937,    8.223472
 853.664658,    8.234083
 854.070406,    8.244821
 854.473980,    8.255520
 854.880962,    8.266328
 855.288779,    8.277178
 855.697257,    8.288066
 856.104986,    8.298953
 856.512307,    8.309848
 856.919107,    8.320749
 857.330117,    8.331782
 857.741155,    8.342835
 858.153223,    8.353936
 858.566155,    8.365080
 858.980851,    8.376291
 859.394845,    8.387503
 859.809368,    8.398749
 860.224052,    8.410018
 860.639071,    8.421317
 861.054911,    8.432658
 861.472031,    8.444053
 861.890595,    8.455508
 862.310521,    8.467020
 862.731861,    8.478591
 863.154442,    8.490216
 863.576251,    8.501839
 863.998267,    8.513489
 864.423658,    8.525252
 864.847615,    8.536995
 865.274313,    8.548834
 865.700553,    8.560682
 866.126290,    8.572535
 866.556278,    8.584527
 866.985867,    8.596528
 867.415383,    8.608548
 867.845905,    8.620616
 868.276104,    8.632695
 868.708725,    8.644863
 869.140451,    8.657027
 869.576537,    8.669333
 870.012846,    8.681667
 870.446832,    8.693956
 870.884445,    8.706368
 871.319061,    8.718715
 871.756899,    8.731175
 872.193985,    8.743634
 872.632207,    8.756146
 873.070710,    8.768687
 873.513333,    8.781366
 873.956834,    8.794091
 874.400492,    8.806842
 874.844860,    8.819634
 875.289620,    8.832459
 875.734848,    8.845318
 876.184686,    8.858331
 876.633802,    8.871345
 877.082341,    8.884363
 877.532087,    8.897437
 877.982566,    8.910554
 878.433219,    8.923697
 878.887957,    8.936981
 879.339902,    8.950204
 879.794161,    8.963517
 880.245220,    8.976757
 880.701407,    8.990168
 881.159159,    9.003647
 881.614355,    9.017072
 882.072952,    9.030619
 882.534446,    9.044273
 882.994437,    9.057905
 883.457255,    9.071641
 883.919050,    9.085369
 884.379512,    9.099079
 884.844358,    9.112941
 885.310555,    9.126865
 885.777754,    9.140841
 886.245476,    9.154855
 886.714606,    9.168933
 887.184203,    9.183046
 887.652873,    9.197154
 888.123872,    9.211353
 888.596293,    9.225618
 889.069097,    9.239916
 889.543247,    9.254277
 890.017522,    9.268664
 890.493877,    9.283135
 890.972369,    9.297695
 891.452438,    9.312324
 891.931618,    9.326949
 892.409608,    9.341560
 892.892330,    9.356337
 893.374647,    9.371125
 893.860088,    9.386031
 894.343580,    9.400899
 894.831197,    9.415917
 895.316950,    9.430901
 895.803820,    9.445941
 896.293957,    9.461104
 896.782697,    9.476247
 897.273072,    9.491464
 897.764624,    9.506739
 898.254797,    9.521995
 898.749174,    9.537404
 899.243593,    9.552837
 899.740672,    9.568375
 900.235296,    9.583860
 900.730890,    9.599398
 901.229199,    9.615044
 901.729354,    9.630771
 902.228191,    9.646479
 902.728166,    9.662246
 903.231582,    9.678144
 903.733718,    9.694025
 904.237947,    9.709996
 904.744920,    9.726076
 905.249575,    9.742105
 905.759700,    9.758332
 906.265723,    9.774451
 906.776079,    9.790732
 907.288803,    9.807111
 907.800335,    9.823476
 908.313752,    9.839924
 908.823663,    9.856283
 909.338923,    9.872836
 909.852405,    9.889356
 910.371377,    9.906076
 910.890248,    9.922816
 911.411131,    9.939645
 911.929621,    9.956419
 912.449235,    9.973254
 912.969317,    9.990126
 913.492172,   10.007112
 914.014535,   10.024106
 914.539564,   10.041210
 915.063629,   10.058306
 915.587586,   10.075421
 916.113105,   10.092611
 916.642982,   10.109967
 917.170475,   10.127269
 917.702607,   10.144746
 918.231010,   10.162124
 918.760753,   10.179569
 919.299081,   10.197322
 919.830790,   10.214879
 920.367982,   10.232641
 920.900765,   10.250281
 921.439635,   10.268146
 921.979190,   10.286058
 922.519948,   10.304033
 923.061489,   10.322058
 923.601951,   10.340071
 924.147714,   10.358284
 924.694114,   10.376543
 925.237346,   10.394719
 925.784711,   10.413058
 926.334331,   10.431496
 926.879394,   10.449805
 927.430473,   10.468340
 927.983365,   10.486960
 928.533587,   10.505513
 929.085306,   10.524141
 929.638016,   10.542827
 930.194363,   10.561659
 930.748403,   10.580437
 931.305107,   10.599329
 931.866458,   10.618403
 932.427950,   10.637506
 932.986301,   10.656526
 933.544443,   10.675562
 934.109659,   10.694864
 934.671689,   10.714081
 935.233143,   10.733302
 935.798453,   10.752679
 936.369820,   10.772288
 936.932199,   10.791612
 937.501779,   10.811207
 938.070120,   10.830784
 938.639947,   10.850436
 939.211626,   10.870175
 939.783597,   10.889949
 940.360123,   10.909904
 940.933846,   10.929786
 941.509572,   10.949761
 942.088454,   10.969870
 942.670036,   10.990097
 943.247443,   11.010203
 943.825673,   11.030361
 944.403519,   11.050530
 944.986854,   11.070914
 945.563568,   11.091090
 946.152355,   11.111712
 946.738586,   11.132270
 947.319510,   11.152664
 947.905926,   11.173275
 948.494704,   11.193993
 949.081513,   11.214666
 949.670868,   11.235452
 950.252091,   11.255974
 950.837512,   11.276668
 951.426090,   11.297496
 952.019675,   11.318526
 952.612582,   11.339555
 953.208737,   11.360723
 953.807557,   11.382009
 954.403160,   11.403205
 954.995900,   11.424322
 955.589353,   11.445487
 956.186068,   11.466793
 956.783145,   11.488134
 957.387695,   11.509766
 957.988632,   11.531292
 958.589317,   11.552832
 959.192254,   11.574477
 959.798146,   11.596250
 960.405852,   11.618113
 961.009918,   11.639868
 961.616263,   11.661727
 962.223086,   11.683628
 962.827901,   11.705478
 963.428300,   11.727192
 964.036335,   11.749204
 964.649807,   11.771437
 965.255081,   11.793394
 965.867752,   11.815644
 966.482198,   11.837980
 967.096803,   11.860345
 967.711758,   11.882746
 968.326052,   11.905145
 968.937397,   11.927459
 969.556214,   11.950068
 970.165572,   11.972354
 970.788245,   11.995150
 971.400805,   12.017597
 972.021428,   12.040362
 972.637726,   12.062991
 973.255395,   12.085692
 973.873419,   12.108428
 974.493826,   12.131274
 975.117351,   12.154256
 975.740910,   12.177262
 976.358558,   12.200072
 976.984981,   12.223227
 977.614777,   12.246530
 978.240673,   12.269709
 978.871688,   12.293101
 979.499599,   12.316399
 980.130994,   12.339848
 980.762547,   12.363324
 981.388682,   12.386621
 982.016994,   12.410020
 982.646575,   12.433487
 983.269067,   12.456711
 983.905965,   12.480494
 984.540656,   12.504215
 985.170190,   12.527765
 985.800926,   12.551381
 986.440157,   12.575336
 987.078359,   12.599273
 987.718820,   12.623316
 988.353429,   12.647160
 988.987872,   12.671018
 989.626455,   12.695053
 990.268259,   12.719230
 990.907085,   12.743315
 991.553088,   12.767691
 992.200075,   12.792125
 992.843347,   12.816439
 993.492028,   12.840978
 994.139021,   12.865474
 994.775608,   12.889596
 995.418036,   12.913959
 996.062950,   12.938435
 996.711661,   12.963076
 997.356270,   12.987581
 998.004036,   13.012226
 998.647701,   13.036734
 999.297063,   13.061479
 999.943786,   13.086142
1000.602845,   13.111296
1001.251571,   13.136074
1001.901280,   13.160910
1002.558782,   13.186062
1003.213927,   13.211144
1003.863771,   13.236042
1004.517961,   13.261125
1005.169035,   13.286107
1005.820142,   13.311110
1006.476638,   13.336337
1007.124224,   13.361241
1007.784955,   13.386669
1008.438285,   13.411830
1009.100166,   13.437340
1009.714017,   13.461014
