Ground Distance, Speed
   0.000000,    0.000310
   0.015373,    0.309655
   0.168785,    0.617773
   0.339218,    0.925701
   0.509650,    1.233629
   0.680083,    1.541556
   0.850515,    1.849484
   1.020948,    2.157412
   1.191380,    2.465340
   1.361813,    2.773268
   1.532245,    3.081195
   1.702678,    3.389123
   2.119185,    3.694230
   2.566417,    3.998984
   3.013649,    4.303738
   3.460881,    4.608492
   3.908113,    4.913246
   4.355345,    5.218000
   4.802576,    5.522754
   5.249808,    5.827509
   5.697040,    6.132263
   6.144272,    6.437017
   6.834992,    6.738868
   7.556114,    7.040357
   8.277236,    7.341845
   8.998358,    7.643334
   9.719480,    7.944823
  10.440601,    8.246312
  11.161723,    8.547800
  11.882845,    8.849289
  12.603967,    9.150778
  13.325089,    9.452267
  14.287041,    9.750775
  15.279063,   10.048912
  16.271085,   10.347049
  17.263106,   10.645185
  18.255128,   10.943322
  19.247150,   11.241459
  20.239172,   11.539595
  21.231194,   11.837732
  22.223216,   12.135868
  23.215238,   12.434005
  24.445364,   12.729089
  25.705220,   13.023792
  26.965075,   13.318495
  28.224931,   13.613197
  29.484787,   13.907900
  30.744643,   14.202603
  32.004499,   14.497306
  33.264354,   14.792009
  34.524210,   15.086711
  35.784066,   15.381414
  37.279237,   15.672996
  38.803789,   15.964189
  40.328341,   16.255381
  41.852893,   16.546573
  43.377445,   16.837765
  44.901997,   17.128958
  46.426549,   17.420150
  47.951101,   17.711342
  49.475653,   18.002535
  51.000206,   18.293727
  52.757125,   18.581338
  54.543057,   18.868502
  56.328989,   19.155666
  58.114921,   19.442831
  59.900854,   19.729995
  61.686786,   20.017159
  63.472718,   20.304323
  65.258650,   20.591487
  67.044583,   20.878651
  68.830515,   21.165815
  70.845145,   21.448606
  72.888330,   21.730850
  74.931515,   22.013094
  76.974701,   22.295338
  79.017886,   22.577582
  81.061071,   22.859826
  83.104256,   23.142071
  85.147441,   23.424315
  87.190626,   23.706559
  89.233812,   23.988803
  91.501718,   24.266637
  93.797684,   24.543921
  96.093649,   24.821205
  98.389614,   25.098489
 100.685580,   25.375773
 102.981545,   25.653056
 105.277510,   25.930340
 107.573476,   26.207624
 109.869441,   26.484908
 112.165406,   26.762192
 114.682102,   27.035052
 117.226359,   27.307361
 119.770615,   27.579669
 122.314871,   27.851978
 124.859128,   28.124286
 127.403384,   28.396594
 129.947640,   28.668903
 132.491897,   28.941211
 135.036153,   29.213520
 137.580409,   29.485828
 140.341396,   29.753705
 143.129443,   30.021028
 145.917490,   30.288352
 148.705537,   30.555676
 151.493584,   30.822999
 154.281632,   31.090323
 157.069679,   31.357647
 159.857726,   31.624970
 162.645773,   31.892294
 165.433820,   32.159617
 168.434592,   32.422506
 171.461924,   32.684841
 174.489256,   32.947176
 177.516588,   33.209511
 180.543920,   33.471846
 183.571252,   33.734182
 186.598584,   33.996517
 189.625916,   34.258852
 192.653248,   34.521187
 195.680580,   34.783522
 198.916629,   35.041424
 202.178739,   35.298772
 205.440848,   35.556120
 208.702958,   35.813468
 211.965068,   36.070816
 215.227178,   36.328164
 218.489287,   36.585513
 221.751397,   36.842861
 225.013507,   37.100209
 228.275617,   37.357557
 231.742291,   37.609933
 235.234507,   37.861688
 238.726722,   38.113444
 242.218938,   38.365199
 245.711154,   38.616954
 249.203370,   38.868710
 252.695586,   39.120465
 256.187802,   39.372220
 259.680018,   39.623976
 263.172234,   39.875731
 266.864084,   40.121759
 270.580862,   40.367072
 274.297639,   40.612385
 278.014416,   40.857698
 281.731193,   41.103011
 285.447970,   41.348324
 289.164747,   41.593637
 292.881525,   41.838950
 296.598302,   42.084263
 300.315079,   42.329577
 304.226339,   42.569226
 308.161883,   42.808169
 312.097426,   43.047112
 316.032970,   43.286055
 319.968513,   43.524998
 323.904057,   43.763941
 327.839600,   44.002883
 331.775144,   44.241826
 335.710687,   44.480769
 339.646231,   44.719712
 343.771177,   44.953072
 347.919771,   45.185734
 352.068366,   45.418397
 356.216960,   45.651060
 360.365555,   45.883722
 364.514149,   46.116385
 368.662744,   46.349048
 372.811338,   46.581711
 376.959933,   46.814373
 381.108527,   47.047036
 385.441517,   47.274199
 389.797530,   47.500675
 394.153544,   47.727151
 398.509557,   47.953627
 402.865570,   48.180104
 407.221583,   48.406580
 411.577596,   48.633056
 415.933610,   48.859532
 420.289623,   49.086008
 424.645636,   49.312485
 429.181114,   49.533547
 433.739000,   49.753934
 438.296885,   49.974320
 442.854771,   50.194707
 447.412657,   50.415093
 451.970542,   50.635480
 456.528428,   50.855866
 461.086313,   51.076253
 465.644199,   51.296639
 470.202085,   51.517026
 474.934583,   51.732087
 479.688884,   51.946484
 484.443185,   52.160881
 489.197485,   52.375277
 493.951786,   52.589674
 498.706087,   52.804070
 503.460387,   53.018467
 508.214688,   53.232863
 512.968989,   53.447260
 517.723290,   53.661656
 522.647433,   53.870819
 527.592782,   54.079328
 532.538132,   54.287836
 537.483481,   54.496345
 542.428831,   54.704854
 547.374180,   54.913363
 552.319530,   55.121872
 557.264879,   55.330380
 562.210228,   55.538889
 567.155578,   55.747398
 572.266084,   55.950778
 577.397212,   56.153517
 582.528339,   56.356257
 587.659467,   56.558997
 592.790594,   56.761736
 597.921721,   56.964476
 603.052849,   57.167215
 608.183976,   57.369955
 613.315104,   57.572694
 618.446231,   57.775434
 623.737949,   57.973187
 629.049717,   58.170318
 634.361486,   58.367448
 639.673254,   58.564579
 644.985023,   58.761710
 650.296791,   58.958840
 655.608560,   59.155971
 660.920328,   59.353102
 666.232097,   59.550232
 671.543865,   59.747363
 677.011762,   59.939602
 682.499153,   60.131231
 687.986544,   60.322860
 693.473935,   60.514489
 698.961327,   60.706118
 704.448718,   60.897747
 709.936109,   61.089376
 715.423500,   61.281005
 720.910891,   61.472633
 726.398282,   61.664262
 732.037424,   61.851094
 737.695515,   62.037326
 743.353605,   62.223558
 749.011695,   62.409791
 754.669785,   62.596023
 760.327875,   62.782255
 765.985965,   62.968488
 771.644055,   63.154720
 777.302145,   63.340952
 782.960235,   63.527184
 788.700458,   63.710804
 789.596318,   63.739359
 795.428852,   63.920027
 801.261386,   64.100694
 807.093920,   64.281362
 812.926454,   64.462030
 818.758988,   64.642698
 824.591522,   64.823365
 830.424056,   65.004033
 836.256590,   65.184701
 842.095900,   65.365021
 848.079721,   65.537937
 854.063542,   65.710852
 860.047362,   65.883767
 866.031183,   66.056682
 872.015003,   66.229598
 877.998824,   66.402513
 883.982644,   66.575428
 889.966465,   66.748343
 895.950285,   66.921259
 901.940895,   67.093712
 908.076286,   67.256302
 914.211677,   67.418892
 920.347068,   67.581483
 926.482459,   67.744073
 932.617850,   67.906663
 938.753241,   68.069254
 944.888632,   68.231844
 951.024023,   68.394434
 957.159414,   68.557025
 963.301150,   68.719094
 969.578194,   68.870061
 975.855238,   69.021027
 982.132281,   69.171993
 988.409325,   69.322959
 994.686369,   69.473925
1000.963413,   69.624892
1007.240457,   69.775858
1013.517500,   69.926824
1019.794544,   70.077790
1025.790447,   70.221995
1032.174633,   70.291454
1038.558819,   70.360914
1044.943005,   70.430373
1051.327191,   70.499832
1057.711377,   70.569292
1064.095563,   70.638751
1070.479749,   70.708211
1076.863935,   70.777670
1083.248121,   70.847129
1089.632307,   70.916589
1096.044616,   70.928872
1102.456926,   70.941155
1108.869235,   70.953438
1115.281544,   70.965721
1121.693854,   70.978003
1128.105808,   70.960813
1134.517762,   70.943623
1140.929716,   70.926433
1147.341670,   70.909243
1153.753624,   70.892053
1160.151680,   70.845499
1166.549735,   70.798945
1172.947791,   70.752392
1179.345847,   70.705838
1185.743902,   70.659284
