Ground Distance, Speed
   0.000000,    0.000310
   0.015373,    0.309655
   0.168784,    0.617771
   0.339217,    0.925697
   0.509649,    1.233623
   0.680081,    1.541548
   0.850513,    1.849474
   1.020945,    2.157400
   1.191377,    2.465326
   1.361809,    2.773251
   1.532241,    3.081177
   1.702673,    3.389103
   2.119174,    3.694198
   2.566400,    3.998941
   3.013626,    4.303683
   3.460852,    4.608425
   3.908077,    4.913167
   4.355303,    5.217909
   4.802529,    5.522652
   5.249754,    5.827394
   5.696980,    6.132136
   6.144206,    6.436878
   6.834903,    6.738701
   7.556001,    7.040160
   8.277098,    7.341618
   8.998195,    7.643077
   9.719292,    7.944535
  10.440390,    8.245994
  11.161487,    8.547452
  11.882584,    8.848911
  12.603681,    9.150369
  13.324779,    9.451828
  14.286671,    9.750282
  15.278630,   10.048362
  16.270588,   10.346442
  17.262547,   10.644522
  18.254506,   10.942602
  19.246464,   11.240682
  20.238423,   11.538762
  21.230381,   11.836842
  22.222340,   12.134922
  23.214298,   12.433001
  24.444302,   12.727998
  25.704029,   13.022610
  26.963755,   13.317222
  28.223481,   13.611834
  29.483208,   13.906446
  30.742934,   14.201058
  32.002660,   14.495670
  33.262387,   14.790282
  34.522113,   15.084894
  35.781839,   15.379506
  37.276791,   15.670960
  38.801114,   15.962020
  40.325436,   16.253080
  41.849759,   16.544140
  43.374081,   16.835200
  44.898403,   17.126260
  46.422726,   17.417320
  47.947048,   17.708380
  49.471370,   17.999440
  50.995693,   18.290500
  52.752257,   18.577938
  54.537820,   18.864923
  56.323382,   19.151909
  58.108945,   19.438894
  59.894507,   19.725880
  61.680069,   20.012865
  63.465632,   20.299850
  65.251194,   20.586836
  67.036757,   20.873821
  68.822319,   21.160807
  70.836415,   21.443371
  72.879045,   21.725383
  74.921675,   22.007395
  76.964305,   22.289407
  79.006935,   22.571419
  81.049566,   22.853431
  83.092196,   23.135443
  85.134826,   23.417456
  87.177456,   23.699468
  89.220087,   23.981480
  91.487229,   24.259030
  93.782403,   24.536023
  96.077578,   24.813016
  98.372752,   25.090009
 100.667927,   25.367002
 102.963101,   25.643995
 105.258276,   25.920988
 107.553451,   26.197981
 109.848625,   26.474974
 112.143800,   26.751967
 114.659446,   27.024481
 117.202621,   27.296435
 119.745795,   27.568389
 122.288970,   27.840343
 124.832144,   28.112297
 127.375319,   28.384251
 129.918493,   28.656205
 132.461668,   28.928160
 135.004842,   29.200114
 137.548017,   29.472068
 140.307610,   29.739530
 143.094225,   30.006432
 145.880840,   30.273333
 148.667455,   30.540235
 151.454069,   30.807137
 154.240684,   31.074038
 157.027299,   31.340940
 159.813914,   31.607841
 162.600529,   31.874743
 165.387144,   32.141645
 168.386116,   32.404048
 171.411602,   32.665889
 174.437089,   32.927731
 177.462575,   33.189573
 180.488061,   33.451414
 183.513548,   33.713256
 186.539034,   33.975098
 189.564521,   34.236939
 192.590007,   34.498781
 195.615493,   34.760623
 198.849271,   35.017965
 202.109056,   35.274745
 205.368841,   35.531525
 208.628626,   35.788305
 211.888411,   36.045085
 215.148195,   36.301865
 218.407980,   36.558645
 221.667765,   36.815426
 224.927550,   37.072206
 228.187335,   37.328986
 231.651203,   37.580741
 235.140553,   37.831869
 238.629903,   38.082997
 242.119254,   38.334125
 245.608604,   38.585252
 249.097954,   38.836380
 252.587304,   39.087508
 256.076654,   39.338636
 259.566004,   39.589764
 263.055355,   39.840891
 266.743807,   40.086226
 270.457118,   40.330838
 274.170430,   40.575450
 277.883742,   40.820061
 281.597054,   41.064673
 285.310365,   41.309285
 289.023677,   41.553896
 292.736989,   41.798508
 296.450301,   42.043120
 300.163613,   42.287731
 304.070814,   42.526612
 308.002224,   42.764778
 311.933634,   43.002943
 315.865044,   43.241108
 319.796454,   43.479274
 323.727864,   43.717439
 327.659274,   43.955604
 331.590684,   44.193770
 335.522094,   44.431935
 339.453505,   44.670100
 343.573662,   44.902615
 347.717386,   45.134424
 351.861110,   45.366233
 356.004834,   45.598042
 360.148558,   45.829851
 364.292283,   46.061659
 368.436007,   46.293468
 372.579731,   46.525277
 376.723455,   46.757086
 380.867179,   46.988895
 385.194582,   47.215136
 389.544919,   47.440683
 393.895256,   47.666229
 398.245593,   47.891775
 402.595930,   48.117321
 406.946267,   48.342868
 411.296604,   48.568414
 415.646941,   48.793960
 419.997278,   49.019506
 424.347615,   49.245053
 428.876639,   49.465118
 433.427974,   49.684499
 437.979309,   49.903880
 442.530644,   50.123261
 447.081979,   50.342642
 451.633314,   50.562023
 456.184649,   50.781404
 460.735984,   51.000785
 465.287319,   51.220166
 469.838654,   51.439547
 474.563764,   51.653537
 479.310571,   51.866853
 484.057379,   52.080170
 488.804187,   52.293486
 493.550994,   52.506802
 498.297802,   52.720119
 503.044610,   52.933435
 507.791417,   53.146752
 512.538225,   53.360068
 517.285033,   53.573384
 522.200785,   53.781401
 527.137633,   53.988757
 532.074480,   54.196112
 537.011327,   54.403467
 541.948174,   54.610823
 546.885022,   54.818178
 551.821869,   55.025533
 556.758716,   55.232889
 561.695563,   55.440244
 566.632411,   55.647599
 571.733460,   55.849761
 576.855010,   56.051275
 581.976561,   56.252789
 587.098112,   56.454303
 592.219663,   56.655817
 597.341214,   56.857331
 602.462765,   57.058845
 607.584316,   57.260359
 612.705867,   57.461873
 617.827418,   57.663387
 623.108544,   57.859849
 628.409594,   58.055680
 633.710645,   58.251511
 639.011695,   58.447342
 644.312746,   58.643174
 649.613796,   58.839005
 654.914847,   59.034836
 660.215897,   59.230667
 665.516948,   59.426498
 670.817998,   59.622329
 676.274106,   59.813209
 681.749573,   60.003470
 687.225041,   60.193731
 692.700509,   60.383993
 698.175977,   60.574254
 703.651445,   60.764515
 709.126913,   60.954776
 714.602381,   61.145037
 720.077849,   61.335299
 725.553317,   61.525560
 731.160236,   61.711586
 736.783568,   61.897084
 742.406900,   62.082582
 748.030231,   62.268080
 753.653563,   62.453578
 759.276895,   62.639076
 764.900227,   62.824573
 767.831788,   62.921277
 773.538409,   63.104075
 779.245031,   63.286873
 784.993421,   63.467354
 790.801836,   63.644505
 796.610252,   63.821655
 802.418668,   63.998806
 808.227084,   64.175957
 814.035500,   64.353107
 819.843916,   64.530258
 825.652331,   64.707408
 831.460747,   64.884559
 837.269163,   65.061710
 843.141569,   65.235127
 849.105934,   65.403178
 855.070300,   65.571230
 861.034666,   65.739282
 866.999032,   65.907334
 872.963398,   66.075385
 878.927764,   66.243437
 884.892130,   66.411489
 890.856496,   66.579541
 896.820862,   66.747592
 902.845657,   66.911497
 908.957295,   67.069442
 915.068934,   67.227388
 921.180572,   67.385333
 927.292211,   67.543278
 933.403849,   67.701223
 939.515488,   67.859168
 945.627126,   68.017113
 951.738765,   68.175059
 957.850404,   68.333004
 964.018606,   68.486541
 970.268096,   68.633745
 976.517586,   68.780948
 982.767076,   68.928152
 989.016567,   69.075355
 995.266057,   69.222559
1001.515547,   69.369762
1007.765038,   69.516966
1014.014528,   69.664169
1020.264018,   69.811373
1023.949212,   69.898176
1030.308103,   69.978882
1036.666995,   70.059588
1043.025887,   70.140294
1049.384779,   70.221000
1055.743670,   70.301706
1062.102562,   70.382412
1068.461454,   70.463118
1074.820345,   70.543824
1081.179237,   70.624530
1087.538129,   70.705236
1093.935156,   70.736227
1100.332183,   70.767217
1106.729211,   70.798208
1113.126238,   70.829199
1119.523265,   70.860190
1125.929505,   70.867369
1132.335745,   70.874548
1138.741986,   70.881728
1145.148226,   70.888907
1151.554466,   70.896086
1157.955528,   70.871537
1164.356589,   70.846987
1170.757651,   70.822437
1177.158713,   70.797888
1183.559774,   70.773338
1189.960836,   70.748788
1196.361898,   70.724239
1202.762959,   70.699689
