Speed, Power
 160.258924, 1791.444471
 161.528630, 1794.446784
 162.798335, 1796.761993
 164.068041, 1799.287352
 165.337747, 1802.454440
 166.607452, 1805.755871
 167.877158, 1809.431818
 169.146863, 1813.543460
 170.416569, 1817.727604
 171.686274, 1822.633041
 172.955980, 1827.544506
 174.225685, 1833.043571
 175.495391, 1838.674740
 176.765097, 1844.785636
 178.034802, 1851.100934
 179.304508, 1857.861120
 180.574213, 1864.817650
 181.843919, 1872.262878
 183.113624, 1879.810190
 184.383330, 1887.974406
 185.653036, 1896.054270
 186.922741, 1904.969517
 188.192447, 1913.801909
 189.462152, 1923.212005
 190.731858, 1932.843491
 192.001563, 1942.655322
 193.271269, 1953.113732
 194.540974, 1963.524915
 195.810680, 1974.553185
 197.080386, 1985.834801
 198.350091, 1997.091304
 199.619797, 2009.266474
 200.889502, 2021.429988
 202.159208, 2033.735513
 203.428913, 2046.830923
 204.698619, 2059.932382
 205.968324, 2073.190860
 207.238030, 2087.259690
 208.507736, 2101.352276
 209.777441, 2115.468763
 211.047147, 2130.542252
 212.316852, 2145.676058
 213.586558, 2160.851539
 214.856263, 2176.643294
 216.125969, 2192.865103
 217.395674, 2209.146283
 218.665380, 2225.501598
 219.935086, 2242.854662
 221.204791, 2260.284679
 222.474497, 2277.792095
 223.744202, 2295.552753
 225.013908, 2314.170954
 226.283613, 2332.884076
 227.553319, 2351.692654
 228.823024, 2370.680772
 230.092730, 2390.634742
 231.362436, 2410.701586
 232.632141, 2430.881927
 233.901847, 2451.176387
 235.171552, 2472.241561
 236.441258, 2493.728071
 237.710963, 2515.346052
 238.980669, 2537.096208
 240.250375, 2558.979246
 241.520080, 2581.904332
 242.789786, 2605.020714
 244.059491, 2628.287207
 245.329197, 2651.704596
 246.598902, 2675.273667
 247.868608, 2699.788511
 249.138313, 2724.626422
 250.408019, 2749.633069
 251.677725, 2774.809314
 252.947430, 2800.156016
 254.217136, 2825.934784
 255.486841, 2852.579592
 256.756547, 2879.411686
 258.026252, 2906.431997
 259.295958, 2933.641454
 260.565663, 2961.040989
 261.835369, 2988.830130
 263.105075, 3017.565996
 264.374780, 3046.508554
 265.644486, 3075.658802
 266.914191, 3105.017736
 268.183897, 3134.586355
 269.453602, 3164.365656
 270.723308, 3194.884037
 271.993013, 3226.045404
 273.262719, 3257.433854
 274.532425, 3289.050447
 275.802130, 3320.896244
 277.071836, 3352.972303
 278.341541, 3385.279686
 279.611247, 3418.021690
 280.880952, 3451.747710
 282.150658, 3485.721172
 283.420364, 3519.943194
 284.690069, 3554.414895
 285.959775, 3589.137394
