Speed, Power
 129.409423, 3064.470828
 131.084667, 3082.710719
 132.759911, 3100.402849
 134.435155, 3119.915236
 136.110399, 3138.997601
 137.785643, 3157.592668
 139.460887, 3175.700437
 141.136131, 3193.320909
 142.811375, 3210.454084
 144.486619, 3227.099961
 146.161863, 3243.258541
 147.837106, 3258.929823
 149.512350, 3274.113807
 151.187594, 3288.810495
 152.862838, 3303.019884
 154.538082, 3316.741976
 156.213326, 3332.014564
 157.888570, 3347.479449
 159.563814, 3362.514238
 161.239058, 3377.118929
 162.914302, 3391.293525
 164.589545, 3405.038023
 166.264789, 3418.352425
 167.940033, 3431.236730
 169.615277, 3443.690939
 171.290521, 3455.715051
 172.965765, 3467.309066
 174.641009, 3478.472985
 176.316253, 3489.206807
 177.991497, 3500.811738
 179.666741, 3513.076661
 181.341984, 3524.955852
 183.017228, 3536.449313
 184.692472, 3547.557041
 186.367716, 3558.279039
 188.042960, 3568.615305
 189.718204, 3578.565840
 191.393448, 3588.130643
 193.068692, 3597.309715
 194.743936, 3606.103056
 196.419180, 3614.510665
 198.094423, 3622.532543
 199.769667, 3630.873558
 201.444911, 3640.219836
 203.120155, 3649.215143
 204.795399, 3657.859479
 206.470643, 3666.152845
 208.145887, 3674.095239
 209.821131, 3681.686663
 211.496375, 3688.927117
 213.171619, 3695.816599
 214.846862, 3702.355111
 216.522106, 3708.542652
 218.197350, 3714.379223
 219.872594, 3719.864822
 221.547838, 3725.389488
 223.223082, 3733.244260
 224.898326, 3740.794114
 226.573570, 3748.039049
 228.248814, 3754.979065
 229.924058, 3761.614162
 231.599301, 3767.944340
 233.274545, 3773.969600
 234.949789, 3779.689941
 236.625033, 3785.105363
 238.300277, 3790.215866
 239.975521, 3795.021450
 241.650765, 3799.522116
 243.326009, 3803.717863
 245.001253, 3810.117671
 246.676497, 3816.478265
 248.351740, 3822.571394
 250.026984, 3828.397058
 251.702228, 3833.955257
 253.377472, 3839.245992
 255.052716, 3844.269262
 256.727960, 3849.025068
 258.403204, 3853.513409
 260.078448, 3857.734286
 261.753692, 3861.687697
 263.428936, 3865.373645
 265.104180, 3868.792127
 266.779423, 3873.610549
 268.454667, 3878.887654
 270.129911, 3883.927037
 271.805155, 3888.728698
 273.480399, 3893.292637
 275.155643, 3897.618853
 276.830887, 3901.707347
 278.506131, 3905.558119
 280.181375, 3909.171168
 281.856619, 3912.546496
 283.531862, 3915.684101
 285.207106, 3918.583984
 286.882350, 3921.246144
 288.557594, 3924.627971
 290.232838, 3928.777135
 291.908082, 3932.711167
 293.583326, 3936.430068
 295.258570, 3939.933837
