Speed, Power
 121.265867, 3257.868345
 123.069266, 3281.317997
 124.872665, 3304.034985
 126.676064, 3326.019309
 128.479463, 3347.270970
 130.282862, 3367.789967
 132.086261, 3387.576300
 133.889660, 3406.629970
 135.693059, 3427.059385
 137.496458, 3449.211640
 139.299857, 3470.750217
 141.103256, 3491.675116
 142.906655, 3511.986335
 144.710054, 3531.683877
 146.513453, 3550.767740
 148.316852, 3569.237924
 150.120251, 3587.094430
 151.923650, 3604.337257
 153.727049, 3620.966406
 155.530448, 3636.981876
 157.333847, 3652.404325
 159.137246, 3669.509183
 160.940645, 3686.052866
 162.744044, 3702.035373
 164.547443, 3717.456705
 166.350842, 3732.316861
 168.154241, 3746.615842
 169.957639, 3760.353647
 171.761038, 3773.530277
 173.564437, 3786.145731
 175.367836, 3798.200010
 177.171235, 3809.693113
 178.974634, 3820.625040
 180.778033, 3831.991761
 182.581432, 3843.650125
 184.384831, 3854.783640
 186.188230, 3865.392305
 187.991629, 3875.476120
 189.795028, 3885.035085
 191.598427, 3894.069199
 193.401826, 3902.578464
 195.205225, 3910.562879
 197.008624, 3918.022444
 198.812023, 3924.957159
 200.615422, 3931.367024
 202.418821, 3937.372940
 204.222220, 3944.168514
 206.025619, 3950.464570
 207.829018, 3956.261109
 209.632417, 3961.558129
 211.435816, 3966.355631
 213.239215, 3970.653615
 215.042614, 3974.452081
 216.846013, 3977.751029
 218.649412, 3980.550459
 220.452811, 3982.850371
 222.256210, 3984.650765
 224.059609, 3985.951641
 225.863008, 3989.215574
 227.666407, 3993.521117
 229.469806, 3997.390260
 231.273205, 4000.823001
 233.076604, 4003.819341
 234.880003, 4006.379281
 236.683402, 4008.502819
 238.486801, 4010.189957
 240.290200, 4011.440693
 242.093599, 4012.255029
 243.896998, 4012.632963
 245.700397, 4012.574497
 247.503796, 4012.595533
 249.307195, 4014.894566
 251.110594, 4016.803876
 252.913993, 4018.323465
 254.717392, 4019.453332
 256.520791, 4020.193478
 258.324190, 4020.543902
 260.127589, 4020.504604
 261.930988, 4020.075584
 263.734387, 4019.256843
 265.537786, 4018.048380
 267.341185, 4016.450196
 269.144584, 4014.462289
 270.947983, 4013.884979
 272.751382, 4013.722085
 274.554781, 4013.203752
 276.358180, 4012.329980
 278.161579, 4011.100769
 279.964978, 4009.516117
 281.768377, 4007.576027
 283.571776, 4005.280497
 285.375175, 4002.629527
 287.178574, 3999.623118
 288.981973, 3996.261270
 290.785372, 3992.543982
 292.588771, 3988.675061
 294.392170, 3985.113114
 296.195569, 3981.206324
 297.998968, 3976.954693
 299.802367, 3972.358219
