Speed, Power
 138.379129, 2396.759957
 139.917175, 2303.592739
 141.455221, 2197.801146
 142.993266, 2122.172617
 144.531312, 2080.572350
 146.069357, 2042.027337
 147.607403, 2011.439740
 149.145448, 1990.571269
 150.683494, 1968.402072
 152.221539, 1949.219001
 153.759585, 1934.793733
 155.297631, 1919.339414
 156.835676, 1902.845750
 158.373722, 1891.867086
 159.911767, 1880.744610
 161.449813, 1868.766955
 162.987858, 1855.925897
 164.525904, 1848.744133
 166.063950, 1841.101316
 167.601995, 1832.762715
 169.140041, 1823.721884
 170.678086, 1817.203244
 172.216132, 1812.968862
 173.754177, 1808.179809
 175.292223, 1802.831129
 176.830269, 1796.917871
 178.368314, 1793.432139
 179.906360, 1792.783130
 181.444405, 1791.719075
 182.982451, 1790.236427
 184.520496, 1788.331638
 186.058542, 1786.001159
 187.596587, 1787.810241
 189.134633, 1791.777054
 190.672679, 1795.481987
 192.210724, 1798.922911
 193.748770, 1802.097695
 195.286815, 1805.004211
 196.824861, 1807.640328
 198.362906, 1815.265426
 199.900952, 1823.790321
 201.438998, 1832.186613
 202.977043, 1840.453312
 204.515089, 1848.589429
 206.053134, 1856.593975
 207.591180, 1864.465959
 209.129225, 1872.204393
 210.667271, 1883.953829
 212.205317, 1897.362889
 213.743362, 1910.764411
 215.281408, 1924.158342
 216.819453, 1937.544627
 218.357499, 1950.923211
 219.895544, 1964.294040
 221.433590, 1977.657059
 222.971636, 1991.012213
 224.509681, 2004.359448
 226.047727, 2022.482787
 227.585772, 2041.911483
 229.123818, 2061.455475
 230.661863, 2081.115542
 232.199909, 2100.892462
 233.737954, 2120.787015
 235.276000, 2140.799981
 236.814046, 2160.932138
 238.352091, 2181.184266
 239.890137, 2201.557143
 241.428182, 2222.051550
 242.966228, 2242.668264
 244.504273, 2265.680064
 246.042319, 2293.469051
 247.580365, 2321.512695
 249.118410, 2349.812589
 250.656456, 2378.370324
 252.194501, 2407.187492
 253.732547, 2436.265686
 255.270592, 2465.606496
 256.808638, 2495.211515
 258.346684, 2525.082335
 259.884729, 2555.220548
 261.422775, 2585.627745
 262.960820, 2616.305518
 264.498866, 2647.255460
 266.036911, 2678.479162
 267.574957, 2709.978217
 269.113003, 2741.754215
 270.651048, 2779.660904
 272.189094, 2818.017999
 273.727139, 2856.758630
 275.265185, 2895.884964
 276.803230, 2935.399168
 278.341276, 2975.303410
 279.879321, 3015.599856
 281.417367, 3056.290674
 282.955413, 3097.378030
 284.493458, 3138.864093
 286.031504, 3180.751030
 287.569549, 3223.041007
 289.107595, 3265.736192
 290.645640, 3308.838752
