Speed, Power
 128.326939, 3345.501952
 129.795683, 3362.319091
 131.264427, 3378.650255
 132.733171, 3394.495445
 134.201915, 3409.854661
 135.670659, 3426.780372
 137.139403, 3444.874437
 138.608147, 3462.561450
 140.076891, 3479.841411
 141.545635, 3496.714321
 143.014379, 3513.180179
 144.483123, 3529.238986
 145.951867, 3544.890741
 147.420611, 3560.135444
 148.889355, 3574.973096
 150.358099, 3589.403696
 151.826843, 3603.427245
 153.295587, 3617.043742
 154.764331, 3630.253187
 156.233075, 3643.055581
 157.701819, 3655.940033
 159.170563, 3669.819910
 160.639307, 3683.327561
 162.108051, 3696.462985
 163.576795, 3709.226182
 165.045539, 3721.617153
 166.514283, 3733.635897
 167.983027, 3745.282415
 169.451771, 3756.556706
 170.920515, 3767.458771
 172.389259, 3777.988609
 173.858003, 3788.146221
 175.326747, 3797.931606
 176.795491, 3807.344765
 178.264235, 3816.385697
 179.732979, 3825.054403
 181.201723, 3834.777939
 182.670467, 3844.212108
 184.139211, 3853.298145
 185.607955, 3862.036050
 187.076699, 3870.425823
 188.545443, 3878.467464
 190.014187, 3886.160974
 191.482931, 3893.506351
 192.951675, 3900.503597
 194.420419, 3907.152711
 195.889163, 3913.453693
 197.357907, 3919.406544
 198.826651, 3925.011262
 200.295395, 3930.267848
 201.764139, 3935.176303
 203.232883, 3940.502340
 204.701627, 3945.890972
 206.170371, 3950.948274
 207.639115, 3955.674247
 209.107859, 3960.068891
 210.576603, 3964.132206
 212.045347, 3967.864191
 213.514091, 3971.264847
 214.982835, 3974.334174
 216.451579, 3977.072172
 217.920323, 3979.478841
 219.389067, 3981.554180
 220.857811, 3983.298190
 222.326555, 3984.710871
 223.795299, 3985.792222
 225.264043, 3987.689028
 226.732787, 3991.346619
 228.201531, 3994.714746
 229.670275, 3997.793409
 231.139019, 4000.582608
 232.607763, 4003.082344
 234.076507, 4005.292615
 235.545251, 4007.213423
 237.013995, 4008.844767
 238.482739, 4010.186647
 239.951483, 4011.239064
 241.420227, 4012.002016
 242.888971, 4012.475505
 244.357715, 4012.659530
 245.826459, 4012.554091
 247.295203, 4012.304467
 248.763947, 4014.243033
 250.232691, 4015.923097
 251.701435, 4017.344659
 253.170179, 4018.507721
 254.638923, 4019.412280
 256.107667, 4020.058338
 257.576411, 4020.445895
 259.045155, 4020.574949
 260.513900, 4020.445503
 261.982644, 4020.057554
 263.451388, 4019.411105
 264.920132, 4018.506153
 266.388876, 4017.342700
 267.857620, 4015.920746
 269.326364, 4014.240290
 270.795108, 4013.882445
 272.263852, 4013.801178
 273.732596, 4013.484149
