Speed, Power
 121.640963, 2504.824989
 123.092793, 2595.587736
 124.544623, 2688.516955
 125.996452, 2783.638199
 127.448282, 2880.977020
 128.900112, 2980.558971
 130.351942, 3082.409605
 131.803771, 3186.554474
 133.255601, 3293.019131
 134.707431, 3401.829128
 136.159260, 3513.010019
 137.611090, 3611.773870
 139.062920, 3674.249776
 140.514750, 3704.958279
 141.966579, 3011.819401
 143.418409, 2629.106114
 144.870239, 2473.777070
 146.322069, 2394.506970
 147.773898, 2319.205424
 149.225728, 2281.515080
 150.677558, 2242.050986
 152.129387, 2211.911290
 153.581217, 2191.077668
 155.033047, 2169.048920
 156.484877, 2147.601701
 157.936706, 2133.444858
 159.388536, 2118.343788
 160.840366, 2102.289809
 162.292196, 2087.629279
 163.744025, 2077.074842
 165.195855, 2065.739444
 166.647685, 2053.616164
 168.099515, 2040.794081
 169.551344, 2033.889863
 171.003174, 2026.352802
 172.455004, 2018.177478
 173.906833, 2009.358472
 175.358663, 2000.852380
 176.810493, 1996.880845
 178.262323, 1992.401323
 179.714152, 1987.409643
 181.165982, 1981.901633
 182.617812, 1975.873124
 184.069642, 1973.276895
 185.521471, 1972.608851
 186.973301, 1971.558230
 188.425131, 1970.122039
 189.876960, 1968.297282
 191.328790, 1966.080967
 192.780620, 1965.259689
 194.232450, 1969.411034
 195.684279, 1973.322688
 197.136109, 1976.992860
 198.587939, 1980.419759
 200.039769, 1983.601592
 201.491598, 1986.536569
 202.943428, 1989.222897
 204.395258, 1996.671831
 205.847088, 2005.291484
 207.298917, 2013.793018
 208.750747, 2022.175601
 210.202577, 2030.438397
 211.654406, 2038.580576
 213.106236, 2046.601303
 214.558066, 2054.499745
 216.009896, 2062.275069
 217.461725, 2075.202030
 218.913555, 2088.684545
 220.365385, 2102.159633
 221.817215, 2115.627245
 223.269044, 2129.087331
 224.720874, 2142.539843
 226.172704, 2155.984730
 227.624533, 2169.421944
 229.076363, 2182.851435
 230.528193, 2196.273154
 231.980023, 2210.013429
 233.431852, 2229.429948
 234.883682, 2248.951005
 236.335512, 2268.577251
 237.787342, 2288.309336
 239.239171, 2308.147910
 240.691001, 2328.093624
 242.142831, 2348.147127
 243.594661, 2368.309070
 245.046490, 2388.580103
 246.498320, 2408.960876
 247.950150, 2429.452039
 249.401979, 2450.054243
 250.853809, 2470.768137
 252.305639, 2494.427920
 253.757469, 2522.363244
 255.209298, 2550.532353
 256.661128, 2578.936586
 258.112958, 2607.577281
 259.564788, 2636.455773
 261.016617, 2665.573402
 262.468447, 2694.931505
 263.920277, 2724.531419
 265.372106, 2754.374482
