Speed, Power
 128.326939, 1320.436464
 129.795683, 1323.661696
 131.264427, 1327.449829
 132.733171, 1331.791220
 134.201915, 1336.672931
 135.670659, 1342.078645
 137.139403, 1347.988574
 138.608147, 1354.379371
 140.076891, 1361.289607
 141.545635, 1368.893097
 143.014379, 1376.937690
 144.483123, 1385.387190
 145.951867, 1394.476137
 147.420611, 1404.126052
 148.889355, 1414.109082
 150.358099, 1424.786549
 151.826843, 1435.939109
 153.295587, 1447.434662
 154.764331, 1459.746804
 156.233075, 1472.241277
 157.701819, 1485.574111
 159.170563, 1499.143362
 160.639307, 1513.448912
 162.108051, 1528.050751
 163.576795, 1543.384315
 165.045539, 1558.964026
 166.514283, 1575.377939
 167.983027, 1591.867785
 169.451771, 1609.411202
 170.920515, 1627.049292
 172.389259, 1645.448611
 173.858003, 1664.288970
 175.326747, 1683.437041
 176.795491, 1703.521630
 178.264235, 1723.755933
 179.732979, 1744.671939
 181.201723, 1766.215303
 182.670467, 1787.936565
 184.139211, 1810.531404
 185.607955, 1833.622031
 187.076699, 1856.918804
 188.545443, 1881.074245
 190.014187, 1905.795756
 191.482931, 1930.751643
 192.951675, 1956.318881
 194.420419, 1982.749548
 195.889163, 2009.442724
 197.357907, 2036.400392
 198.826651, 2064.453203
 200.295395, 2092.955932
 201.764139, 2121.751271
 203.232883, 2150.841366
 204.701627, 2181.208987
 206.170371, 2211.907603
 207.639115, 2242.928978
 209.107859, 2274.275413
 210.576603, 2306.731584
 212.045347, 2339.742536
 213.514091, 2373.106340
 214.982835, 2406.825439
 216.451579, 2441.085261
 217.920323, 2476.516770
 219.389067, 2512.331058
 220.857811, 2548.530704
 222.326555, 2585.118289
 223.795299, 2622.198704
 225.264043, 2660.562339
 226.732787, 2699.341115
 228.201531, 2738.537739
 229.670275, 2778.154916
 231.139019, 2818.195353
 232.607763, 2859.111521
 234.076507, 2901.005214
 235.545251, 2943.349091
 237.013995, 2986.145978
 238.482739, 3029.398698
 239.951483, 3073.110077
 241.420227, 3117.410662
 242.888971, 3163.039877
 244.357715, 3209.154262
 245.826459, 3255.756751
 247.295203, 3302.850277
 248.763947, 3350.437774
 250.232691, 3398.522177
 251.701435, 3447.106418
 253.170179, 3497.159483
 254.638923, 3547.758397
 256.107667, 3598.883316
 257.576411, 3650.537273
 259.045155, 3702.723302
 260.513900, 3755.444438
 261.982644, 3808.703714
 263.451388, 3862.504164
 264.920132, 3917.637664
 266.388876, 3973.531661
 267.857620, 4029.992482
 269.326364, 4087.023253
 270.795108, 4144.627099
 272.263852, 4202.807145
 273.732596, 4261.566517
