Speed, Power
 130.352269, 2447.444931
 131.672894, 2459.795651
 132.993519, 2471.896737
 134.314144, 2483.748190
 135.634769, 2495.350010
 136.955393, 2506.702197
 138.276018, 2517.804750
 139.596643, 2528.657671
 140.917268, 2539.260959
 142.237893, 2549.614613
 143.558517, 2559.718635
 144.879142, 2569.573023
 146.199767, 2579.177779
 147.520392, 2588.532901
 148.841017, 2597.638390
 150.161641, 2606.671805
 151.482266, 2617.479049
 152.802891, 2628.075010
 154.123516, 2638.459688
 155.444141, 2648.633083
 156.764765, 2658.595194
 158.085390, 2668.346022
 159.406015, 2677.885567
 160.726640, 2687.213828
 162.047265, 2696.330807
 163.367889, 2705.236502
 164.688514, 2713.930914
 166.009139, 2722.414042
 167.329764, 2730.685888
 168.650389, 2738.746450
 169.971013, 2746.595729
 171.291638, 2754.233725
 172.612263, 2763.415206
 173.932888, 2772.725515
 175.253513, 2781.856148
 176.574137, 2790.807106
 177.894762, 2799.578389
 179.215387, 2808.169997
 180.536012, 2816.581929
 181.856637, 2824.814185
 183.177261, 2832.866766
 184.497886, 2840.739672
 185.818511, 2848.432902
 187.139136, 2855.946457
 188.459761, 2863.280337
 189.780385, 2870.434541
 191.101010, 2877.409070
 192.421635, 2884.203923
 193.742260, 2891.975256
 195.062885, 2900.303514
 196.383510, 2908.477619
 197.704134, 2916.497570
 199.024759, 2924.363368
 200.345384, 2932.075013
 201.666009, 2939.632504
 202.986634, 2947.035843
 204.307258, 2954.285028
 205.627883, 2961.380059
 206.948508, 2968.320938
 208.269133, 2975.107663
 209.589758, 2981.740235
 210.910382, 2988.218654
 212.231007, 2994.542919
 213.551632, 3000.713031
 214.872257, 3007.259154
 216.192882, 3014.507499
 217.513506, 3021.618591
 218.834131, 3028.592430
 220.154756, 3035.429014
 221.475381, 3042.128345
 222.796006, 3048.690423
 224.116630, 3055.115247
 225.437255, 3061.402817
 226.757880, 3067.553134
 228.078505, 3073.566197
 229.399130, 3079.442007
 230.719754, 3085.180563
 232.040379, 3090.781866
 233.361004, 3096.245915
 234.681629, 3101.572710
 236.002254, 3106.994444
 237.322878, 3113.567284
 238.643503, 3120.019778
 239.964128, 3126.351926
 241.284753, 3132.563730
 242.605378, 3138.655188
 243.926002, 3144.626300
 245.246627, 3150.477068
 246.567252, 3156.207490
 247.887877, 3161.817567
 249.208502, 3167.307299
 250.529126, 3172.676685
 251.849751, 3177.925726
 253.170376, 3183.054422
 254.491001, 3188.062772
 255.811626, 3192.950777
 257.132250, 3197.718437
 258.452875, 3203.710544
 259.773500, 3209.710808
 261.094125, 3215.605636
