Vfailure/VsTO, Distance
   0.500000,  274.080114
   0.500551,  274.691258
   0.501101,  275.302402
   0.501652,  275.913546
   0.502202,  276.524690
   0.502753,  277.135835
   0.503303,  277.746979
   0.503854,  278.358123
   0.504404,  278.969267
   0.504955,  279.580411
   0.505506,  280.191555
   0.506056,  280.802699
   0.506607,  281.413843
   0.507157,  282.024987
   0.507708,  282.636132
   0.508258,  283.247276
   0.508809,  283.858420
   0.509359,  284.469564
   0.509910,  285.080708
   0.510460,  285.691852
   0.511011,  286.302996
   0.511562,  286.914140
   0.512112,  287.525285
   0.512663,  288.136429
   0.513213,  288.747573
   0.513764,  289.358717
   0.514314,  289.969861
   0.514865,  290.581005
   0.515415,  291.192149
   0.515966,  291.803293
   0.516517,  292.414438
   0.517067,  293.025582
   0.517618,  293.636726
   0.518168,  294.247870
   0.518719,  294.859014
   0.519269,  295.470158
   0.519820,  296.081302
   0.520370,  296.692446
   0.520921,  297.303590
   0.521471,  297.914735
   0.522022,  298.525879
   0.522573,  299.137023
   0.523123,  299.748167
   0.523674,  300.359311
   0.524224,  300.970455
   0.524775,  301.581599
   0.525325,  302.192743
   0.525876,  302.803888
   0.526426,  303.415032
   0.526977,  304.026176
   0.527528,  304.637320
   0.528078,  305.248464
   0.528629,  305.859608
   0.529179,  306.470752
   0.529730,  307.081896
   0.530280,  307.693040
   0.530831,  308.304185
   0.531381,  308.915329
   0.531932,  309.526473
   0.532482,  310.137617
   0.533033,  310.748761
   0.533584,  311.359905
   0.534134,  311.971049
   0.534685,  312.582193
   0.535235,  313.193338
   0.535786,  313.804482
   0.536336,  314.415626
   0.536887,  315.026770
   0.537437,  315.637914
   0.537988,  316.249058
   0.538539,  316.860202
   0.539089,  317.471346
   0.539640,  318.082490
   0.540190,  318.693635
   0.540741,  319.304779
   0.541291,  319.915923
   0.541842,  320.527067
   0.542392,  321.138211
   0.542943,  321.749355
   0.543493,  322.360499
   0.544044,  322.971643
   0.544595,  323.582788
   0.545145,  324.193932
   0.545696,  324.805076
   0.546246,  325.416220
   0.546797,  326.027364
   0.547347,  326.638508
   0.547898,  327.249652
   0.548448,  327.860796
   0.548999,  328.471941
   0.549550,  329.083085
   0.550100,  329.694229
   0.550651,  330.305373
   0.551201,  330.916517
   0.551752,  331.527661
   0.552302,  332.138805
   0.552853,  332.749949
   0.553403,  333.361093
   0.553954,  333.972238
   0.554505,  334.583382
   0.555055,  335.194526
   0.555606,  335.805670
   0.556156,  336.416814
   0.556707,  337.027958
   0.557257,  337.639102
   0.557808,  338.250246
   0.558358,  338.861391
   0.558909,  339.472535
   0.559459,  340.083679
   0.560010,  340.694823
   0.560561,  341.305967
   0.561111,  341.917111
   0.561662,  342.528255
   0.562212,  343.139399
   0.562763,  343.750543
   0.563313,  344.361688
   0.563864,  344.972832
   0.564414,  345.583976
   0.564965,  346.195120
   0.565516,  346.806264
   0.566066,  347.417408
   0.566617,  348.028552
   0.567167,  348.639696
   0.567718,  349.250841
   0.568268,  349.861985
   0.568819,  350.473129
   0.569369,  351.084273
   0.569920,  351.695417
   0.570470,  352.306561
   0.571021,  352.917705
   0.571572,  353.528849
   0.572122,  354.139994
   0.572673,  354.751138
   0.573223,  355.362282
   0.573774,  355.973426
   0.574324,  356.584570
   0.574875,  357.195714
   0.575425,  357.806858
   0.575976,  358.418002
   0.576527,  359.029146
   0.577077,  359.640291
   0.577628,  360.251435
   0.578178,  360.862579
   0.578729,  361.473723
   0.579279,  362.084867
   0.579830,  362.696011
   0.580380,  363.307155
   0.580931,  363.918299
   0.581481,  364.529444
   0.582032,  365.140588
   0.582583,  365.751732
   0.583133,  366.362876
   0.583684,  366.974020
   0.584234,  367.585164
   0.584785,  368.196308
   0.585335,  368.807452
   0.585886,  369.418596
   0.586436,  370.029741
   0.586987,  370.640885
   0.587538,  371.252029
   0.588088,  371.863173
   0.588639,  372.474317
   0.589189,  373.085461
   0.589740,  373.696605
   0.590290,  374.307749
   0.590841,  374.918894
   0.591391,  375.530038
   0.591942,  376.141182
   0.592492,  376.752326
   0.593043,  377.363470
   0.593594,  377.974614
   0.594144,  378.585758
   0.594695,  379.196902
   0.595245,  379.808047
   0.595796,  380.419191
   0.596346,  381.030335
   0.596897,  381.641479
   0.597447,  382.252623
   0.597998,  382.863767
   0.598549,  383.474911
   0.599099,  384.086055
   0.599650,  384.697199
   0.600200,  385.308344
   0.600751,  385.919488
   0.601301,  386.530632
   0.601852,  387.141776
   0.602402,  387.752920
   0.602953,  388.364064
   0.603504,  388.975208
   0.604054,  389.586352
   0.604605,  390.197497
   0.605155,  390.808641
   0.605706,  391.419785
   0.606256,  392.030929
   0.606807,  392.642073
   0.607357,  393.253217
   0.607908,  393.864361
   0.608458,  394.475505
   0.609009,  395.086649
   0.609560,  395.697794
   0.610110,  396.308938
   0.610661,  396.920082
   0.611211,  397.531226
   0.611762,  398.142370
   0.612312,  398.753514
   0.612863,  399.364658
   0.613413,  399.975802
   0.613964,  400.586947
   0.614515,  401.198091
   0.615065,  401.809235
   0.615616,  402.420379
   0.616166,  403.031523
   0.616717,  403.642667
   0.617267,  404.253811
   0.617818,  404.864955
   0.618368,  405.476099
   0.618919,  406.087244
   0.619469,  406.698388
   0.620020,  407.309532
   0.620571,  407.920676
   0.621121,  408.531820
   0.621672,  409.142964
   0.622222,  409.754108
   0.622773,  410.365252
   0.623323,  410.976397
   0.623874,  411.587541
   0.624424,  412.198685
   0.624975,  412.809829
   0.625526,  413.420973
   0.626076,  414.032117
   0.626627,  414.643261
   0.627177,  415.254405
   0.627728,  415.865550
   0.628278,  416.476694
   0.628829,  417.087838
   0.629379,  417.698982
   0.629930,  418.310126
   0.630480,  418.921270
   0.631031,  419.532414
   0.631582,  420.143558
   0.632132,  420.754702
   0.632683,  421.365847
   0.633233,  421.976991
   0.633784,  422.588135
   0.634334,  423.199279
   0.634885,  423.810423
   0.635435,  424.421567
   0.635986,  425.032711
   0.636537,  425.643855
   0.637087,  426.255000
   0.637638,  426.866144
   0.638188,  427.477288
   0.638739,  428.088432
   0.639289,  428.699576
   0.639840,  429.310720
   0.640390,  429.921864
   0.640941,  430.533008
   0.641491,  431.144152
   0.642042,  431.755297
   0.642593,  432.366441
   0.643143,  432.977585
   0.643694,  433.588729
   0.644244,  434.199873
   0.644795,  434.811017
   0.645345,  435.422161
   0.645896,  436.033305
   0.646446,  436.644450
   0.646997,  437.255594
   0.647548,  437.866738
   0.648098,  438.477882
   0.648649,  439.089026
   0.649199,  439.700170
   0.649750,  440.311314
   0.650300,  440.922458
   0.650851,  441.533603
   0.651401,  442.144747
   0.651952,  442.755891
   0.652503,  443.367035
   0.653053,  443.978179
   0.653604,  444.589323
   0.654154,  445.200467
   0.654705,  445.811611
   0.655255,  446.422755
   0.655806,  447.033900
   0.656356,  447.645044
   0.656907,  448.256188
   0.657457,  448.867332
   0.658008,  449.478476
   0.658559,  450.089620
   0.659109,  450.700764
   0.659660,  451.311908
   0.660210,  451.923053
   0.660761,  452.534197
   0.661311,  453.145341
   0.661862,  453.756485
   0.662412,  454.367629
   0.662963,  454.978773
   0.663514,  455.589917
   0.664064,  456.201061
   0.664615,  456.812205
   0.665165,  457.423350
   0.665716,  458.034494
   0.666266,  458.645638
   0.666817,  459.256782
   0.667367,  459.867926
   0.667918,  460.479070
   0.668468,  461.090214
   0.669019,  461.701358
   0.669570,  462.312503
   0.670120,  462.923647
   0.670671,  463.534791
   0.671221,  464.145935
   0.671772,  464.757079
   0.672322,  465.368223
   0.672873,  465.979367
   0.673423,  466.590511
   0.673974,  467.201655
   0.674525,  467.812800
   0.675075,  468.423944
   0.675626,  469.035088
   0.676176,  469.646232
   0.676727,  470.257376
   0.677277,  470.868520
   0.677828,  471.479664
   0.678378,  472.090808
   0.678929,  472.701953
   0.679479,  473.313097
   0.680030,  473.924241
   0.680581,  474.535385
   0.681131,  475.146529
   0.681682,  475.757673
   0.682232,  476.368817
   0.682783,  476.979961
   0.683333,  477.591106
   0.683884,  478.449105
   0.684434,  479.307104
   0.684985,  480.165104
   0.685536,  481.023103
   0.686086,  481.881102
   0.686637,  482.739102
   0.687187,  483.597101
   0.687738,  484.455100
   0.688288,  485.313100
   0.688839,  486.171099
   0.689389,  487.029098
   0.689940,  487.887098
   0.690490,  488.745097
   0.691041,  489.603096
   0.691592,  490.461096
   0.692142,  491.319095
   0.692693,  492.177094
   0.693243,  493.035094
   0.693794,  493.893093
   0.694344,  494.751093
   0.694895,  495.609092
   0.695445,  496.467091
   0.695996,  497.325091
   0.696547,  498.183090
   0.697097,  499.041089
   0.697648,  499.899089
   0.698198,  500.757088
   0.698749,  501.615087
   0.699299,  502.473087
   0.699850,  503.331086
   0.700400,  504.189085
   0.700951,  505.047085
   0.701502,  505.905084
   0.702052,  506.763083
   0.702603,  507.621083
   0.703153,  508.479082
   0.703704,  509.337081
   0.704254,  510.195081
   0.704805,  511.053080
   0.705355,  511.911080
   0.705906,  512.769079
   0.706456,  513.627078
   0.707007,  514.485078
   0.707558,  515.343077
   0.708108,  516.201076
   0.708659,  517.059076
   0.709209,  517.917075
   0.709760,  518.775074
   0.710310,  519.633074
   0.710861,  520.491073
   0.711411,  521.349072
   0.711962,  522.207072
   0.712513,  523.065071
   0.713063,  523.923070
   0.713614,  524.781070
   0.714164,  525.639069
   0.714715,  526.497068
   0.715265,  527.355068
   0.715816,  528.213067
   0.716366,  529.071067
   0.716917,  529.929066
   0.717467,  530.787065
   0.718018,  531.645065
   0.718569,  532.503064
   0.719119,  533.361063
   0.719670,  534.219063
   0.720220,  535.077062
   0.720771,  535.935061
   0.721321,  536.793061
   0.721872,  537.651060
   0.722422,  538.509059
   0.722973,  539.367059
   0.723524,  540.225058
   0.724074,  541.083057
   0.724625,  541.941057
   0.725175,  542.799056
   0.725726,  543.657055
   0.726276,  544.515055
   0.726827,  545.373054
   0.727377,  546.231054
   0.727928,  547.089053
   0.728478,  547.947052
   0.729029,  548.805052
   0.729580,  549.663051
   0.730130,  550.521050
   0.730681,  551.379050
   0.731231,  552.237049
   0.731782,  553.095048
   0.732332,  553.953048
   0.732883,  554.811047
   0.733433,  555.669046
   0.733984,  556.527046
   0.734535,  557.385045
   0.735085,  558.243044
   0.735636,  559.101044
   0.736186,  559.959043
   0.736737,  560.817042
   0.737287,  561.675042
   0.737838,  562.533041
   0.738388,  563.391041
   0.738939,  564.249040
   0.739489,  565.107039
   0.740040,  565.965039
   0.740591,  566.823038
   0.741141,  567.681037
   0.741692,  568.539037
   0.742242,  569.397036
   0.742793,  570.255035
   0.743343,  571.113035
   0.743894,  571.971034
   0.744444,  572.829033
   0.744995,  573.687033
   0.745546,  574.545032
   0.746096,  575.403031
   0.746647,  576.261031
   0.747197,  577.119030
   0.747748,  577.977029
   0.748298,  578.835029
   0.748849,  579.693028
   0.749399,  580.551028
   0.749950,  581.409027
   0.750501,  582.267026
   0.751051,  583.125026
   0.751602,  583.983025
   0.752152,  584.841024
   0.752703,  585.699024
   0.753253,  586.557023
   0.753804,  587.415022
   0.754354,  588.273022
   0.754905,  589.131021
   0.755455,  589.989020
   0.756006,  590.847020
   0.756557,  591.705019
   0.757107,  592.563018
   0.757658,  593.421018
   0.758208,  594.279017
   0.758759,  595.137016
   0.759309,  595.995016
   0.759860,  596.853015
   0.760410,  597.711015
   0.760961,  598.569014
   0.761512,  599.427013
   0.762062,  600.285013
   0.762613,  601.143012
   0.763163,  602.001011
   0.763714,  602.859011
   0.764264,  603.717010
   0.764815,  604.575009
   0.765365,  605.433009
   0.765916,  606.291008
   0.766466,  607.149007
   0.767017,  608.007007
   0.767568,  608.865006
   0.768118,  609.723005
   0.768669,  610.581005
   0.769219,  611.439004
   0.769770,  612.297003
   0.770320,  613.155003
   0.770871,  614.013002
   0.771421,  614.871002
   0.771972,  615.729001
   0.772523,  616.587000
   0.773073,  617.445000
   0.773624,  618.302999
   0.774174,  619.160998
   0.774725,  620.018998
   0.775275,  620.876997
   0.775826,  621.734996
   0.776376,  622.592996
   0.776927,  623.450995
   0.777477,  624.308994
   0.778028,  625.166994
   0.778579,  626.024993
   0.779129,  626.882992
   0.779680,  627.740992
   0.780230,  628.598991
   0.780781,  629.456990
   0.781331,  630.314990
   0.781882,  631.172989
   0.782432,  632.030989
   0.782983,  632.888988
   0.783534,  633.746987
   0.784084,  634.604987
   0.784635,  635.462986
   0.785185,  636.320985
   0.785736,  637.178985
   0.786286,  638.036984
   0.786837,  638.894983
   0.787387,  639.752983
   0.787938,  640.610982
   0.788488,  641.468981
   0.789039,  642.326981
   0.789590,  643.184980
   0.790140,  644.042979
   0.790691,  644.900979
   0.791241,  645.758978
   0.791792,  646.616977
   0.792342,  647.474977
   0.792893,  648.332976
   0.793443,  649.190976
   0.793994,  650.048975
   0.794545,  650.906974
   0.795095,  651.764974
   0.795646,  652.622973
   0.796196,  653.480972
   0.796747,  654.338972
   0.797297,  655.196971
   0.797848,  656.054970
   0.798398,  656.912970
   0.798949,  657.770969
   0.799499,  658.628968
   0.800050,  659.486968
   0.800601,  660.344967
   0.801151,  661.202966
   0.801702,  662.060966
   0.802252,  662.918965
   0.802803,  663.776964
   0.803353,  664.634964
   0.803904,  665.492963
   0.804454,  666.350963
   0.805005,  667.208962
   0.805556,  668.066961
   0.806106,  668.924961
   0.806657,  669.782960
   0.807207,  670.640959
   0.807758,  671.498959
   0.808308,  672.356958
   0.808859,  673.214957
   0.809409,  674.072957
   0.809960,  674.930956
   0.810511,  675.788955
   0.811061,  676.646955
   0.811612,  677.504954
   0.812162,  678.362953
   0.812713,  679.220953
   0.813263,  680.078952
   0.813814,  680.936951
   0.814364,  681.794951
   0.814915,  682.652950
   0.815465,  683.510950
   0.816016,  684.368949
   0.816567,  685.226948
   0.817117,  686.084948
   0.817668,  686.942947
   0.818218,  687.800946
   0.818769,  688.658946
   0.819319,  689.516945
   0.819870,  690.374944
   0.820420,  691.232944
   0.820971,  692.090943
   0.821522,  692.948942
   0.822072,  693.806942
   0.822623,  694.664941
   0.823173,  695.522940
   0.823724,  696.380940
   0.824274,  697.238939
   0.824825,  698.096938
   0.825375,  698.954938
   0.825926,  699.812937
   0.826476,  700.670937
   0.827027,  701.528936
   0.827578,  702.386935
   0.828128,  703.244935
   0.828679,  704.102934
   0.829229,  704.960933
   0.829780,  705.818933
   0.830330,  706.676932
   0.830881,  707.534931
   0.831431,  708.392931
   0.831982,  709.250930
   0.832533,  710.108929
   0.833083,  710.966929
   0.833634,  711.824928
   0.834184,  712.682927
   0.834735,  713.540927
   0.835285,  714.398926
   0.835836,  715.256925
   0.836386,  716.114925
   0.836937,  716.972924
   0.837487,  717.830924
   0.838038,  718.688923
   0.838589,  719.546922
   0.839139,  720.404922
   0.839690,  721.262921
   0.840240,  722.120920
   0.840791,  722.978920
   0.841341,  723.836919
   0.841892,  724.694918
   0.842442,  725.552918
   0.842993,  726.410917
   0.843544,  727.268916
   0.844094,  728.126916
   0.844645,  728.984915
   0.845195,  729.842914
   0.845746,  730.700914
   0.846296,  731.558913
   0.846847,  732.416912
   0.847397,  733.274912
   0.847948,  734.132911
   0.848498,  734.990911
   0.849049,  735.848910
   0.849600,  736.706909
   0.850150,  737.564909
   0.850701,  738.422908
   0.851251,  739.280907
   0.851802,  740.138907
   0.852352,  740.996906
   0.852903,  741.854905
   0.853453,  742.712905
   0.854004,  743.570904
   0.854555,  744.428903
   0.855105,  745.286903
   0.855656,  746.144902
   0.856206,  747.002901
   0.856757,  747.860901
   0.857307,  748.718900
   0.857858,  749.576899
   0.858408,  750.434899
   0.858959,  751.292898
   0.859510,  752.150898
   0.860060,  753.008897
   0.860611,  753.866896
   0.861161,  754.724896
   0.861712,  755.582895
   0.862262,  756.440894
   0.862813,  757.298894
   0.863363,  758.156893
   0.863914,  759.014892
   0.864464,  759.872892
   0.865015,  760.730891
   0.865566,  761.588890
   0.866116,  762.446890
   0.866667,  763.304889
   0.867217,  764.520552
   0.867768,  765.736215
   0.868318,  766.951878
   0.868869,  768.167541
   0.869419,  769.383203
   0.869970,  770.598866
   0.870521,  771.814529
   0.871071,  773.030192
   0.871622,  774.245855
   0.872172,  775.461518
   0.872723,  776.677181
   0.873273,  777.892844
   0.873824,  779.108506
   0.874374,  780.324169
   0.874925,  781.539832
   0.875475,  782.755495
   0.876026,  783.971158
   0.876577,  785.186821
   0.877127,  786.402484
   0.877678,  787.618146
   0.878228,  788.833809
   0.878779,  790.049472
   0.879329,  791.265135
   0.879880,  792.480798
   0.880430,  793.696461
   0.880981,  794.912124
   0.881532,  796.127787
   0.882082,  797.343449
   0.882633,  798.559112
   0.883183,  799.774775
   0.883734,  800.990438
   0.884284,  802.206101
   0.884835,  803.421764
   0.885385,  804.637427
   0.885936,  805.853090
   0.886486,  807.068752
   0.887037,  808.284415
   0.887588,  809.500078
   0.888138,  810.715741
   0.888689,  811.931404
   0.889239,  813.147067
   0.889790,  814.362730
   0.890340,  815.578392
   0.890891,  816.794055
   0.891441,  818.009718
   0.891992,  819.225381
   0.892543,  820.441044
   0.893093,  821.656707
   0.893644,  822.872370
   0.894194,  824.088033
   0.894745,  825.303695
   0.895295,  826.519358
   0.895846,  827.735021
   0.896396,  828.950684
   0.896947,  830.166347
   0.897497,  831.382010
   0.898048,  832.597673
   0.898599,  833.813336
   0.899149,  835.028998
   0.899700,  836.244661
   0.900250,  837.460324
   0.900801,  838.675987
   0.901351,  839.891650
   0.901902,  841.107313
   0.902452,  842.322976
   0.903003,  843.538638
   0.903554,  844.754301
   0.904104,  845.969964
   0.904655,  847.185627
   0.905205,  848.401290
   0.905756,  849.616953
   0.906306,  850.832616
   0.906857,  852.048279
   0.907407,  853.263941
   0.907958,  854.479604
   0.908509,  855.695267
   0.909059,  856.910930
   0.909610,  858.126593
   0.910160,  859.342256
   0.910711,  860.557919
   0.911261,  861.773582
   0.911812,  862.989244
   0.912362,  864.204907
   0.912913,  865.420570
   0.913463,  866.636233
   0.914014,  867.851896
   0.914565,  869.067559
   0.915115,  870.283222
   0.915666,  871.498885
   0.916216,  872.714547
   0.916767,  873.930210
   0.917317,  875.145873
   0.917868,  876.361536
   0.918418,  877.577199
   0.918969,  878.792862
   0.919520,  880.008525
   0.920070,  881.224187
   0.920621,  882.439850
   0.921171,  883.655513
   0.921722,  884.871176
   0.922272,  886.086839
   0.922823,  887.302502
   0.923373,  888.518165
   0.923924,  889.733828
   0.924474,  890.949490
   0.925025,  892.165153
   0.925576,  893.380816
   0.926126,  894.596479
   0.926677,  895.812142
   0.927227,  897.027805
   0.927778,  898.243468
   0.928328,  899.459131
   0.928879,  900.674793
   0.929429,  901.890456
   0.929980,  903.106119
   0.930531,  904.321782
   0.931081,  905.537445
   0.931632,  906.753108
   0.932182,  907.968771
   0.932733,  909.184433
   0.933283,  910.400096
   0.933834,  911.615759
   0.934384,  912.831422
   0.934935,  914.047085
   0.935485,  915.262748
   0.936036,  916.478411
   0.936587,  917.694074
   0.937137,  918.909736
   0.937688,  920.125399
   0.938238,  921.341062
   0.938789,  922.556725
   0.939339,  923.772388
   0.939890,  924.988051
   0.940440,  926.203714
   0.940991,  927.419377
   0.941542,  928.635039
   0.942092,  929.850702
   0.942643,  931.066365
   0.943193,  932.282028
   0.943744,  933.497691
   0.944294,  934.713354
   0.944845,  935.929017
   0.945395,  937.144679
   0.945946,  938.360342
   0.946496,  939.576005
   0.947047,  940.791668
   0.947598,  942.007331
   0.948148,  943.222994
   0.948699,  944.438657
   0.949249,  945.654320
   0.949800,  946.869982
   0.950350,  948.085645
   0.950901,  949.301308
   0.951451,  950.516971
   0.952002,  951.732634
   0.952553,  952.948297
   0.953103,  954.163960
   0.953654,  955.379623
   0.954204,  956.595285
   0.954755,  957.810948
   0.955305,  959.026611
   0.955856,  960.242274
   0.956406,  961.457937
   0.956957,  962.673600
   0.957508,  963.889263
   0.958058,  965.104925
   0.958609,  966.320588
   0.959159,  967.536251
   0.959710,  968.751914
   0.960260,  969.967577
   0.960811,  971.183240
   0.961361,  972.398903
   0.961912,  973.614566
   0.962462,  974.830228
   0.963013,  976.045891
   0.963564,  977.261554
   0.964114,  978.477217
   0.964665,  979.692880
   0.965215,  980.908543
   0.965766,  982.124206
   0.966316,  983.339869
   0.966867,  984.555531
   0.967417,  985.771194
   0.967968,  986.986857
   0.968519,  988.202520
   0.969069,  989.418183
   0.969620,  990.633846
   0.970170,  991.849509
   0.970721,  993.065171
   0.971271,  994.280834
   0.971822,  995.496497
   0.972372,  996.712160
   0.972923,  997.927823
   0.973473,  999.143486
   0.974024, 1000.359149
   0.974575, 1001.574812
   0.975125, 1002.790474
   0.975676, 1004.006137
   0.976226, 1005.221800
   0.976777, 1006.437463
   0.977327, 1007.653126
   0.977878, 1008.868789
   0.978428, 1010.084452
   0.978979, 1011.300115
   0.979530, 1012.515777
   0.980080, 1013.731440
   0.980631, 1014.947103
   0.981181, 1016.162766
   0.981732, 1017.378429
   0.982282, 1018.594092
   0.982833, 1019.809755
   0.983383, 1021.025418
   0.983934, 1022.241080
   0.984484, 1023.456743
   0.985035, 1024.672406
   0.985586, 1025.888069
   0.986136, 1027.103732
   0.986687, 1028.319395
   0.987237, 1029.535058
   0.987788, 1030.750720
   0.988338, 1031.966383
   0.988889, 1033.182046
   0.989439, 1034.397709
   0.989990, 1035.613372
   0.990541, 1036.829035
   0.991091, 1038.044698
   0.991642, 1039.260361
   0.992192, 1040.476023
   0.992743, 1041.691686
   0.993293, 1042.907349
   0.993844, 1044.123012
   0.994394, 1045.338675
   0.994945, 1046.554338
   0.995495, 1047.770001
   0.996046, 1048.985664
   0.996597, 1050.201326
   0.997147, 1051.416989
   0.997698, 1052.632652
   0.998248, 1053.848315
   0.998799, 1055.063978
   0.999349, 1056.279641
   0.999900, 1057.495304
   1.000450, 1058.710966
   1.001001, 1059.926629
   1.001552, 1061.142292
   1.002102, 1062.357955
   1.002653, 1063.573618
   1.003203, 1064.789281
   1.003754, 1066.004944
   1.004304, 1067.220607
   1.004855, 1068.436269
   1.005405, 1069.651932
   1.005956, 1070.867595
   1.006507, 1072.083258
   1.007057, 1073.298921
   1.007608, 1074.514584
   1.008158, 1075.730247
   1.008709, 1076.945910
   1.009259, 1078.161572
   1.009810, 1079.377235
   1.010360, 1080.592898
   1.010911, 1081.808561
   1.011461, 1083.024224
   1.012012, 1084.239887
   1.012563, 1085.455550
   1.013113, 1086.671212
   1.013664, 1087.886875
   1.014214, 1089.102538
   1.014765, 1090.318201
   1.015315, 1091.533864
   1.015866, 1092.749527
   1.016416, 1093.965190
   1.016967, 1095.180853
   1.017518, 1096.396515
   1.018068, 1097.612178
   1.018619, 1098.827841
   1.019169, 1100.043504
   1.019720, 1101.259167
   1.020270, 1102.474830
   1.020821, 1103.690493
   1.021371, 1104.906156
   1.021922, 1106.121818
   1.022472, 1107.337481
   1.023023, 1108.553144
   1.023574, 1109.768807
   1.024124, 1110.984470
   1.024675, 1112.200133
   1.025225, 1113.415796
   1.025776, 1114.631458
   1.026326, 1115.847121
   1.026877, 1117.062784
   1.027427, 1118.278447
   1.027978, 1119.494110
   1.028529, 1120.709773
   1.029079, 1121.925436
   1.029630, 1123.141099
   1.030180, 1124.356761
   1.030731, 1125.572424
   1.031281, 1126.788087
   1.031832, 1128.003750
   1.032382, 1129.219413
   1.032933, 1130.435076
   1.033483, 1131.650739
   1.034034, 1132.866402
   1.034585, 1134.082064
   1.035135, 1135.297727
   1.035686, 1136.513390
   1.036236, 1137.729053
   1.036787, 1138.944716
   1.037337, 1140.160379
   1.037888, 1141.376042
   1.038438, 1142.591705
   1.038989, 1143.807367
   1.039540, 1145.023030
   1.040090, 1146.238693
   1.040641, 1147.454356
   1.041191, 1148.670019
   1.041742, 1149.885682
   1.042292, 1151.101345
   1.042843, 1152.317007
   1.043393, 1153.532670
   1.043944, 1154.748333
   1.044494, 1155.963996
   1.045045, 1157.179659
   1.045596, 1158.395322
   1.046146, 1159.610985
   1.046697, 1160.826648
   1.047247, 1162.042310
   1.047798, 1163.257973
   1.048348, 1164.473636
   1.048899, 1165.689299
   1.049449, 1166.904962
   1.050000, 1168.120625
