Speed, Power
 133.372703, 3107.560537
 135.007914, 3126.494238
 136.643125, 3144.963653
 138.278336, 3162.968782
 139.913546, 3180.509625
 141.548757, 3197.586182
 143.183968, 3214.198453
 144.819179, 3230.346438
 146.454389, 3246.030137
 148.089600, 3261.249550
 149.724811, 3276.004678
 151.360022, 3290.295519
 152.995233, 3304.122074
 154.630443, 3317.484343
 156.265654, 3332.504134
 157.900865, 3347.591360
 159.536076, 3362.268798
 161.171286, 3376.536451
 162.806497, 3390.394317
 164.441708, 3403.842397
 166.076919, 3416.880690
 167.712129, 3429.509198
 169.347340, 3441.727919
 170.982551, 3453.536853
 172.617762, 3464.936001
 174.252973, 3475.925363
 175.888183, 3486.504939
 177.523394, 3497.315680
 179.158605, 3509.397215
 180.793816, 3521.111234
 182.429026, 3532.457737
 184.064237, 3543.436723
 185.699448, 3554.048194
 187.334659, 3564.292148
 188.969870, 3574.168587
 190.605080, 3583.677509
 192.240291, 3592.818915
 193.875502, 3601.592805
 195.510713, 3609.999179
 197.145923, 3618.038037
 198.781134, 3625.709379
 200.416345, 3634.523000
 202.051556, 3643.517779
 203.686766, 3652.178162
 205.321977, 3660.504148
 206.957188, 3668.495737
 208.592399, 3676.152929
 210.227610, 3683.475725
 211.862820, 3690.464123
 213.498031, 3697.118124
 215.133242, 3703.437729
 216.768453, 3709.422936
 218.403663, 3715.073747
 220.038874, 3720.390161
 221.674085, 3725.992049
 223.309296, 3733.640244
 224.944507, 3740.997918
 226.579717, 3748.065073
 228.214928, 3754.841708
 229.850139, 3761.327824
 231.485350, 3767.523420
 233.120560, 3773.428496
 234.755771, 3779.043052
 236.390982, 3784.367089
 238.026193, 3789.400606
 239.661403, 3794.143603
 241.296614, 3798.596081
 242.931825, 3802.758039
 244.567036, 3808.425382
 246.202247, 3814.704766
 247.837457, 3820.729315
 249.472668, 3826.499030
 251.107879, 3832.013911
 252.743090, 3837.273958
 254.378300, 3842.279170
 256.013511, 3847.029548
 257.648722, 3851.525092
 259.283933, 3855.765802
 260.919144, 3859.751678
 262.554354, 3863.482719
 264.189565, 3866.958926
 265.824776, 3870.497028
 267.459987, 3875.783029
 269.095197, 3880.842534
 270.730408, 3885.675543
 272.365619, 3890.282055
 274.000830, 3894.662072
 275.636040, 3898.815591
 277.271251, 3902.742615
 278.906462, 3906.443142
 280.541673, 3909.917173
 282.176884, 3913.164707
 283.812094, 3916.185745
 285.447305, 3918.980287
 287.082516, 3921.548332
 288.717727, 3925.033878
 290.352937, 3929.066327
 291.988148, 3932.893803
 293.623359, 3936.516306
 295.258570, 3939.933837
