Speed, Power
 124.979743, 2317.312293
 126.745628, 2176.857279
 128.511513, 2076.646391
 130.277398, 2009.566843
 132.043283, 1962.428618
 133.809168, 1929.206141
 135.575053, 1902.799038
 137.340938, 1877.546117
 139.106824, 1859.878788
 140.872709, 1840.609092
 142.638594, 1823.998910
 144.404479, 1810.574228
 146.170364, 1795.820494
 147.936249, 1782.868784
 149.702134, 1773.794148
 151.468019, 1763.638887
 153.233904, 1752.390256
 154.999789, 1746.727285
 156.765674, 1740.993846
 158.531560, 1734.389253
 160.297445, 1726.903691
 162.063330, 1725.684332
 163.829215, 1724.468365
 165.595100, 1722.601531
 167.360985, 1720.076814
 169.126870, 1719.716612
 170.892755, 1724.585032
 172.658640, 1729.045636
 174.424525, 1733.094208
 176.190410, 1736.726536
 177.956296, 1739.938405
 179.722181, 1750.182187
 181.488066, 1760.480830
 183.253951, 1770.577135
 185.019836, 1780.469133
 186.785721, 1790.154856
 188.551606, 1799.632334
 190.317491, 1812.972611
 192.083376, 1829.294209
 193.849261, 1845.601946
 195.615146, 1861.895693
 197.381031, 1878.175324
 199.146917, 1894.440710
 200.912802, 1910.691725
 202.678687, 1926.928241
 204.444572, 1948.823335
 206.210457, 1972.542490
 207.976342, 1996.439318
 209.742227, 2020.515339
 211.508112, 2044.772075
 213.273997, 2069.211047
 215.039882, 2093.833777
 216.805767, 2118.641786
 218.571653, 2143.636597
 220.337538, 2168.819729
 222.103423, 2202.342913
 223.869308, 2236.576530
 225.635193, 2271.207456
 227.401078, 2306.238826
 229.166963, 2341.673774
 230.932848, 2377.515434
 232.698733, 2413.766940
 234.464618, 2450.431425
 236.230503, 2487.512024
 237.996389, 2525.011871
 239.762274, 2562.934100
 241.528159, 2601.281845
 243.294044, 2640.784359
 245.059929, 2687.248930
 246.825814, 2734.305738
 248.591699, 2781.959052
 250.357584, 2830.213139
 252.123469, 2879.072266
 253.889354, 2928.540702
 255.655239, 2978.622714
 257.421124, 3029.322569
 259.187010, 3080.644536
 260.952895, 3132.592881
 262.718780, 3185.171873
 264.484665, 3238.385778
 266.250550, 3292.238866
 268.016435, 3346.735402
 269.782320, 3401.879656
 271.548205, 3457.675894
 273.314090, 3514.128384
 275.079975, 3572.503211
 276.845860, 3637.016327
 278.611746, 3702.327640
 280.377631, 3768.442242
 282.143516, 3835.365223
 283.909401, 3903.101677
 285.675286, 3971.656693
 287.441171, 4041.035363
 289.207056, 4111.242778
 290.972941, 4182.284031
 292.738826, 4254.164212
 294.504711, 4326.888412
 296.270596, 4400.461724
 298.036482, 4474.889238
 299.802367, 4550.176045
