Time, Horizontal Forces
   0.000000,    0.000000
   0.000001,    0.000005
   0.000008,    0.000085
   0.000068,    0.000723
   0.000376,    0.003989
   0.001629,    0.017270
   0.005674,    0.060143
   0.012932,    0.137036
   0.023139,    0.245150
   0.036371,    0.385257
   0.052579,    0.556837
   0.071901,    0.761302
   0.094179,    0.996980
   0.119921,    1.269212
   0.148605,    1.572472
   0.180406,    1.908577
   0.215577,    2.280174
   0.253934,    2.685318
   0.296115,    3.130702
   0.341469,    3.609434
   0.390948,    4.131531
   0.443519,    4.686080
   0.500353,    5.285392
   0.560612,    5.920609
   0.624614,    6.595063
   0.693288,    7.318504
   0.766233,    8.086672
   0.843465,    8.899705
   0.924873,    9.756396
   1.010687,   10.659135
   1.099421,   11.592268
   1.195421,   12.601443
   1.294466,   13.642255
   1.397412,   14.723673
   1.507318,   15.877784
   1.620683,   17.067773
   1.739840,   18.318095
   1.863999,   19.620412
   1.992648,   20.969316
   2.127114,   22.378681
   2.266895,   23.843192
   2.416500,   25.410013
   2.572025,   27.038182
   2.730648,   28.698115
   2.895777,   30.425448
   3.066435,   32.209888
   3.247398,   34.101301
   3.433364,   36.044203
   3.626345,   38.059541
   3.823491,   40.117514
   4.030598,   42.278546
   4.242461,   44.488252
   4.464191,   46.799870
   4.689186,   49.144510
   4.923861,   51.588943
   5.165146,   54.101125
   5.414923,   56.700562
   5.675699,   59.413235
   5.941125,   62.173018
   6.216093,   65.030704
   6.502196,   68.002735
   6.794785,   71.040703
   7.094353,   74.149673
   7.409885,   77.422749
   7.727555,   80.716414
   8.053259,   84.091752
   8.389857,   87.578286
   8.734597,   91.147412
   9.091072,   94.836202
   9.457180,   98.622790
   9.833751,  102.515616
  10.215639,  106.461425
  10.610860,  110.542907
  11.015879,  114.723431
  11.435818,  119.055702
  11.863083,  123.461226
  12.297256,  127.935641
  12.744259,  132.539833
  13.197995,  137.210901
  13.667272,  142.039374
  14.144232,  146.944260
  14.634496,  151.983220
  15.142782,  157.204532
  15.661756,  162.532661
  16.188372,  167.936232
  16.724372,  173.433020
  17.275894,  179.085795
  17.834685,  184.809833
  18.405777,  190.656563
  18.992572,  196.660609
  19.592063,  202.791004
  20.201946,  209.024048
  20.820330,  215.340296
  21.458507,  221.854876
  22.115148,  228.553949
  22.774651,  235.278190
  23.451818,  242.178397
  24.138564,  249.172001
  24.845499,  256.366819
  24.989075,  257.827531
  25.058761,  258.536433
  25.099251,  258.948310
  25.129408,  259.255069
  25.155407,  259.519517
  25.176955,  259.738697
  25.193538,  259.907367
  25.206344,  260.037622
  25.217821,  260.154354
  25.218449,  260.160750
  25.219410,  260.170520
  25.219589,  260.172339
  25.219681,  260.173273
  25.219737,  260.173842
  25.219795,  260.174438
  25.220382,  260.180405
  25.225945,  260.236988
  25.253033,  260.512494
  25.369592,  261.697909
  25.682392,  264.878360
  26.335498,  271.515448
  26.991817,  278.180456
  27.666389,  285.025971
  28.352585,  291.984440
  29.046467,  299.015786
  29.758262,  306.223426
  30.473459,  313.460245
  31.204356,  320.850533
  31.942410,  328.307719
  32.697867,  335.935121
  33.470302,  343.728123
  34.250494,  351.593482
  35.042717,  359.574144
  35.847304,  367.673247
  36.660426,  375.852067
  37.487874,  384.168675
  38.323114,  392.557204
  39.175468,  401.111070
  40.042342,  409.803943
  40.923066,  418.628849
  41.810544,  427.514522
  42.714569,  436.558803
  43.634369,  445.753683
  44.566333,  455.062787
  45.510094,  464.482270
  46.470033,  474.055582
  47.441570,  483.736793
  48.425957,  493.538185
  49.429581,  503.523030
  50.442012,  513.587314
  51.467577,  523.773872
  52.505204,  534.071824
  53.561282,  544.544280
  54.628860,  555.122052
  55.720969,  565.933894
  56.819577,  576.800977
  57.929597,  587.771780
  59.056437,  598.899484
  60.198197,  610.165025
  61.354754,  621.566914
  62.525326,  633.097156
  63.710512,  644.761401
  64.904166,  656.498952
  66.126181,  668.505056
  67.357491,  680.591998
  68.608279,  692.859487
  69.866102,  705.185239
  71.144085,  717.697604
  72.438592,  730.360626
  73.752854,  743.205525
  75.088809,  756.250828
  76.432812,  769.362993
  77.791291,  782.604545
  79.164793,  795.980532
  80.554034,  809.497638
  81.970057,  823.262844
  83.402546,  837.175410
  84.843731,  851.159647
  86.299112,  865.268722
  87.778572,  879.598055
  89.268872,  894.019056
  90.773572,  908.565946
  92.298460,  923.294341
  93.844971,  938.217645
  95.408815,  953.294036
  96.993151,  968.553600
  98.587746,  983.897450
 100.202161,  999.417308
 101.833396, 1015.083942
 103.482491, 1030.907000
 103.813863, 1034.084685
 104.051008, 1036.358414
 104.211425, 1037.896299
 104.345400, 1039.180586
 104.453769, 1040.219340
 104.469663, 1040.371685
 104.485368, 1040.522215
 104.502447, 1040.685913
 104.502965, 1040.690875
 104.503252, 1040.693633
 104.503464, 1040.695664
 104.503655, 1040.697492
 104.505562, 1040.715771
 104.524634, 1040.898573
 104.629701, 1041.905557
 105.038476, 1045.822622
 106.450865, 1059.347819
 107.947940, 1073.668902
 109.456912, 1088.088206
 110.992216, 1102.743183
 112.535201, 1117.455390
 114.084924, 1132.215722
 115.658160, 1147.183605
 117.240514, 1162.221692
 118.839148, 1177.397760
 120.456883, 1192.738149
 122.081395, 1208.125723
 123.728372, 1223.708739
 125.389436, 1239.407450
 127.061857, 1255.195797
 128.760337, 1271.212096
 130.465178, 1287.270204
 132.187618, 1303.475717
 133.930351, 1319.853501
 135.686106, 1336.334821
 137.457931, 1352.947953
 139.239018, 1369.628780
 141.043136, 1386.505863
 142.852713, 1403.414499
 144.682498, 1420.492218
 146.533217, 1437.745260
 148.393215, 1455.064618
 150.261111, 1472.437286
 152.151711, 1490.000601
 154.052750, 1507.640233
 155.977073, 1525.474954
 157.915876, 1543.422669
 159.869524, 1561.486442
 161.848105, 1579.759020
 163.837914, 1598.113375
 165.852250, 1616.671746
 167.872997, 1635.266849
 169.912365, 1654.010775
 171.962175, 1672.828015
 174.027893, 1691.768448
 176.124800, 1710.971547
 178.236722, 1730.288582
 180.357537, 1749.663297
 182.497926, 1769.192945
 184.653282, 1788.835065
 186.819851, 1808.555153
 189.006739, 1828.435710
 191.216099, 1848.495751
 193.431656, 1868.587176
 195.672350, 1888.881365
 197.928128, 1909.286745
 200.197984, 1929.793872
 202.494163, 1950.512843
 204.806358, 1971.350107
 207.130950, 1992.272729
 209.474190, 2013.336589
 211.836270, 2034.542944
 214.213488, 2055.858140
 216.608548, 2077.306024
 219.025254, 2098.920141
 221.460514, 2120.672311
 223.907832, 2142.504162
 226.374008, 2164.475992
 228.852303, 2186.527379
 231.356668, 2208.781983
 233.872045, 2231.105512
 236.425095, 2253.733913
 238.984424, 2276.388344
 241.558891, 2299.147020
 244.149772, 2322.020842
 244.671889, 2326.626777
 245.022365, 2329.717881
 245.330565, 2332.435662
 246.302470, 2341.003405
 246.321825, 2341.173989
 246.346073, 2341.387686
 246.351889, 2341.438940
 246.361934, 2341.527467
 246.364983, 2341.554339
 246.365553, 2341.559365
 246.365808, 2341.561613
 246.366112, 2341.564292
 246.369152, 2341.591079
 246.396320, 2341.830514
 246.564389, 2343.311592
 247.533544, 2351.848950
 249.877048, 2372.471014
 252.176161, 2392.672246
 254.491104, 2412.982508
 256.829919, 2433.471756
 259.182640, 2454.052098
 261.541597, 2474.656213
 263.919913, 2495.398389
 266.305130, 2516.169627
 268.712648, 2537.103630
 271.131854, 2558.107620
 273.568807, 2579.233780
 276.019994, 2600.451206
 278.484319, 2621.750041
 280.962469, 2643.135858
 283.452571, 2664.592167
 285.962368, 2686.185221
 288.491267, 2707.909346
 291.032476, 2729.705730
 293.579384, 2751.517508
 296.140140, 2773.414233
 298.721718, 2795.455048
 301.317600, 2817.583785
 303.937486, 2839.882551
 306.565522, 2862.215935
 309.210387, 2884.657393
 311.872199, 2907.207426
 314.550448, 2929.861231
 317.231256, 2952.501240
 319.937107, 2975.316949
 322.661609, 2998.253791
 325.394459, 3021.224667
 328.138867, 3044.256352
 330.906650, 3067.447494
 333.686274, 3090.700945
 336.476507, 3114.006139
 339.290491, 3137.472347
 342.110386, 3160.950384
 344.954065, 3184.588660
 347.819875, 3208.372715
 350.690516, 3232.158609
 353.580792, 3256.068722
 356.486489, 3280.067679
 359.412403, 3304.194566
 362.341742, 3328.310651
 365.288033, 3352.527070
 368.255069, 3376.874437
 371.234634, 3401.284875
 374.230612, 3425.789808
 377.248301, 3450.432007
 380.277962, 3475.131466
 383.327919, 3499.955592
 386.389159, 3524.830603
 389.480902, 3549.912031
 392.579162, 3575.004744
 395.692346, 3600.176615
 398.824193, 3625.457395
 401.965686, 3650.773926
 405.123853, 3676.182520
 408.300007, 3701.693256
 411.497532, 3727.332729
 414.707614, 3753.029774
 417.923558, 3778.730640
 421.174388, 3804.666658
 424.432838, 3830.619657
 427.704970, 3856.637690
 430.996582, 3882.766400
 434.312487, 3909.043317
 437.633702, 3935.317639
 440.971227, 3961.676148
 444.326033, 3988.126052
 447.698309, 4014.668357
 451.089574, 4041.314489
 454.498450, 4068.053099
 457.927534, 4094.904019
 461.365119, 4121.775201
 464.825593, 4148.778705
 465.518998, 4154.184030
 466.100752, 4158.717553
 466.554708, 4162.254256
 466.572646, 4162.393986
 466.607714, 4162.667160
 466.618385, 4162.750288
 466.621308, 4162.773055
 466.623775, 4162.792275
 466.626009, 4162.809672
 466.648342, 4162.983639
 466.819267, 4164.315025
 467.780252, 4171.798260
 470.792177, 4195.228893
 474.284343, 4222.351216
 477.780734, 4249.458974
 481.304371, 4276.730232
 484.830261, 4303.971187
 488.384410, 4331.382342
 491.943789, 4358.785648
 495.526631, 4386.321101
 499.125529, 4413.931211
 502.742248, 4441.629043
 506.385023, 4469.477009
 510.047754, 4497.427749
 513.720257, 4525.403191
 517.400191, 4553.385360
 521.112418, 4581.562737
 524.829275, 4609.724822
 528.577370, 4638.072722
 532.337284, 4666.458916
 536.112850, 4694.912016
 539.908712, 4723.466527
 543.722086, 4752.100955
 547.544190, 4780.749072
 551.387281, 4809.502371
 555.246574, 4838.324524
 559.123308, 4867.224342
 563.021507, 4896.231261
 566.936677, 4925.311298
 570.869174, 4954.466647
 574.816288, 4983.676786
 578.775214, 5012.920674
 582.759106, 5042.294963
 586.757901, 5071.724882
 590.781255, 5101.280933
 594.819222, 5130.889508
 598.868666, 5160.527315
 602.936836, 5190.247037
 607.033950, 5220.122603
 611.135697, 5249.976289
 615.264779, 5279.972937
 619.407469, 5310.012233
 623.571907, 5340.152732
 624.648329, 5347.934247
 627.752257, 5370.351670
 631.945457, 5443.729000
 636.164179, 5532.695086
 640.410585, 5622.111675
 644.680623, 5711.974867
 648.962625, 5807.054028
 653.265189, 5908.933615
 657.592216, 6011.189960
 661.948888, 6113.922284
 666.310983, 6217.069383
 670.703998, 6331.452647
 675.107859, 6446.305473
 679.537475, 6561.374325
 683.982555, 6676.842343
 688.448277, 6797.003706
 692.931519, 6923.311145
 697.430580, 7049.869972
 701.933542, 7176.539191
 706.459170, 7303.238690
 710.988691, 7437.524435
 715.543385, 7575.131279
 720.110498, 7713.110098
 724.691959, 7851.194990
 729.288077, 7989.424778
 733.901559, 8135.416773
 738.521323, 8284.187282
 743.150146, 8432.846297
 747.791912, 8581.489739
 748.105212, 8688.871668
 748.418775, 8698.794939
 748.730957, 8708.707976
 749.043925, 8718.594605
 749.358038, 8728.506371
 749.671672, 8738.435956
 749.986153, 8748.359700
 750.301275, 8758.664863
 750.616368, 8769.408312
 750.931755, 8780.150392
 751.247401, 8790.898701
 751.563142, 8801.650792
 751.879212, 8812.404812
 752.195366, 8823.164206
 752.510635, 8833.913754
 752.827835, 8844.656122
 753.143948, 8855.432141
 753.461489, 8866.191234
 753.777218, 8876.964685
 754.095264, 8887.711761
 754.412828, 8898.507464
 754.729443, 8909.278643
 755.046852, 8920.030273
 755.364169, 8930.796690
 755.681648, 8941.558584
 756.001009, 8952.338316
 756.320458, 8963.161055
 756.641032, 8973.992628
 756.961708, 8984.848703
 757.282220, 8995.701705
 757.603383, 9006.552801
 757.925146, 9017.421378
 758.247257, 9028.303777
 758.569224, 9039.189161
 758.892048, 9050.074960
 759.214526, 9060.974160
 759.537987, 9071.869972
 759.861140, 9082.782556
 760.184278, 9093.683215
 760.506942, 9104.574748
 760.831703, 9115.470139
 761.155906, 9126.406853
 761.480734, 9137.331483
 761.806456, 9148.275240
 762.132202, 9159.236432
 762.457006, 9170.184814
 762.782189, 9181.109393
 763.105866, 9192.024417
 763.432624, 9202.927392
 763.760622, 9213.911969
 764.088015, 9224.916125
 764.416658, 9235.912665
 764.745870, 9246.939996
 765.074391, 9257.969746
 765.402838, 9268.977268
 765.732063, 9279.985457
 766.061791, 9291.012241
 766.392275, 9302.053297
 766.723634, 9313.115783
 767.053551, 9324.180764
 767.383952, 9335.210528
 767.715658, 9346.259098
 768.046470, 9357.325555
 768.378868, 9368.380240
 768.713112, 9379.485083
 769.047100, 9390.626557
 769.379121, 9401.738180
 769.714026, 9412.824304
 770.048081, 9423.966205
 770.382123, 9435.082243
 770.717381, 9446.203893
 771.053506, 9457.357252
 771.390694, 9468.535733
 771.728668, 9479.741349
 772.065294, 9490.947494
 772.403231, 9502.128034
 772.742778, 9513.349147
 773.081711, 9524.597140
 773.420782, 9527.751945
 773.761509, 9530.918784
 774.100728, 9534.068229
 774.440831, 9537.222511
 774.781830, 9540.381690
 775.123251, 9543.541360
 775.463784, 9546.689397
 775.806130, 9549.850750
 776.148807, 9553.011700
 776.493060, 9556.183692
 776.835403, 9559.334606
 777.178569, 9562.489616
 777.523109, 9565.653744
 777.869173, 9568.828308
 778.214658, 9571.994016
 778.560211, 9575.156778
 778.906779, 9578.325259
 779.253378, 9581.490418
 779.600625, 9584.657903
 779.947830, 9587.821380
 780.293879, 9590.970726
 780.641777, 9594.133268
 780.991480, 9597.308551
 781.339686, 9600.466567
 781.689281, 9603.633505
 782.040371, 9606.810260
 782.390143, 9609.971375
 782.740572, 9613.134705
 783.091651, 9616.300164
 783.443433, 9619.468204
 783.794962, 9622.630197
 784.147915, 9625.801198
 784.501943, 9628.978042
 784.856288, 9632.153882
 785.211966, 9635.337809
 785.566034, 9638.503461
 785.921279, 9641.675772
 786.275665, 9644.836531
 786.631716, 9648.008254
 786.988559, 9651.183104
 787.347048, 9654.368632
 787.704191, 9657.538245
 788.060765, 9660.698869
 788.419526, 9663.874894
 788.778652, 9667.050142
 789.138158, 9670.224729
 789.498606, 9673.403591
 789.858885, 9676.576919
 790.221053, 9679.762787
 790.582298, 9682.936449
 790.944030, 9686.110295
 791.307343, 9689.293881
 791.671256, 9692.478566
 792.034091, 9695.649664
 792.399456, 9698.838682
 792.764340, 9702.019305
 793.129415, 9705.197378
 793.494539, 9708.371665
 793.567598, 9709.006309
 793.731212, 9710.426971
 793.745009, 9710.546738
 793.756054, 9710.642608
 793.765263, 9710.722533
 793.771464, 9710.776356
 793.776909, 9710.823611
 793.782055, 9710.868275
 793.786610, 9710.907807
 793.788225, 9710.921820
 793.789208, 9710.930349
 793.789796, 9710.935452
 793.790331, 9710.940098
 793.794364, 9710.975102
 793.810256, 9711.113010
 793.860316, 9711.547388
 794.053992, 9713.227205
 794.372697, 9715.988854
 794.741757, 9719.182848
 795.109766, 9722.363454
 795.479173, 9725.551849
 795.849199, 9728.741241
 796.218708, 9731.921850
 796.588130, 9735.097384
 796.957792, 9738.270628
 797.327920, 9741.443516
 797.699270, 9744.622492
 798.070587, 9747.796788
 798.445248, 9750.995198
 798.817615, 9754.169574
 799.190734, 9757.345905
 799.565124, 9760.528569
 799.940980, 9763.719158
 800.316651, 9766.903643
 800.695113, 9770.107180
 801.071684, 9773.290132
 801.448411, 9776.469810
 801.826798, 9779.658891
 802.206703, 9782.856089
 802.334249, 9783.928442
 802.587507, 9786.056161
 802.968177, 9789.250403
 803.350358, 9792.452578
 803.731213, 9795.638913
 804.113142, 9798.829488
 804.496881, 9802.030388
 804.879592, 9805.217923
 805.264264, 9808.416962
 805.650432, 9811.623557
 806.037807, 9814.835265
 806.423715, 9818.029904
 806.810224, 9821.224614
 807.197539, 9824.421047
 807.586066, 9827.622519
 807.975144, 9830.823526
 808.366637, 9834.039361
 808.758068, 9837.249607
 809.147954, 9840.442144
 809.540655, 9843.652623
 809.932450, 9846.850592
 810.324488, 9850.045435
 810.718004, 9853.247172
 811.113362, 9856.458692
 811.508717, 9859.664976
 811.906878, 9862.888732
 812.306004, 9866.114976
 812.703768, 9869.324893
 813.102384, 9872.536364
 813.501185, 9875.743991
 813.903598, 9878.975236
 814.306651, 9882.206159
 814.709440, 9885.429493
 815.111955, 9888.645159
 815.516583, 9891.872188
 815.923205, 9895.109535
 816.329489, 9898.338600
 816.737313, 9901.574270
 817.143573, 9904.791913
 817.550588, 9908.009908
 817.959408, 9911.236496
 818.369868, 9914.470291
 818.781531, 9917.707799
 819.193060, 9920.938460
 819.606844, 9924.180978
 820.019205, 9927.406517
 820.432436, 9930.633003
 820.845850, 9933.855057
 821.260172, 9937.078292
 821.676382, 9940.310268
 822.093487, 9943.543204
 822.509788, 9946.763921
 822.928176, 9949.994764
 823.345254, 9953.209456
 823.763822, 9956.429580
 824.187300, 9959.681307
 824.610071, 9962.921391
 825.031598, 9966.145763
 825.454987, 9969.378148
 825.881223, 9972.625972
 826.306693, 9975.861647
 826.733100, 9979.098103
 827.159100, 9982.325129
 827.583243, 9985.531782
 828.010643, 9988.756688
 828.441249, 9991.999305
 828.872208, 9995.238066
 829.303775, 9998.474858
 829.734926, 10001.701986
 830.167918, 10004.936308
 830.600368, 10008.159979
 831.030414, 10011.359191
 831.468112, 10014.608607
 831.900604, 10017.812728
 832.339892, 10021.060412
 832.779344, 10024.302468
 833.216829, 10027.523200
 833.656336, 10030.751971
 834.095315, 10033.970003
 834.536657, 10037.198443
 834.978378, 10040.422696
 835.424951, 10043.675299
 835.870136, 10046.910694
 836.318280, 10050.160435
 836.766405, 10053.402847
 837.212508, 10056.623480
 837.659293, 10059.841876
 838.109989, 10063.081192
 838.560623, 10066.312749
 839.011997, 10069.542284
 839.460966, 10072.747338
 839.912970, 10075.966706
 840.365940, 10079.185552
 840.821713, 10082.416828
 841.275586, 10085.627170
 841.734095, 10088.862717
 842.190218, 10092.073870
 842.648987, 10095.296028
 843.105017, 10098.491367
 843.564025, 10101.699939
 844.025111, 10104.915309
 844.486170, 10108.122736
 844.950928, 10111.348051
 845.415087, 10114.561331
 845.879878, 10117.771094
 846.346671, 10120.986723
 846.806892, 10124.149258
 847.277042, 10127.372004
 847.746086, 10130.579076
 848.217440, 10133.793801
 848.688404, 10136.997708
 849.157708, 10140.182187
 849.631007, 10143.385558
 850.107441, 10146.601787
 850.582596, 10149.801043
 851.056193, 10152.981494
 851.532774, 10156.173605
 852.008429, 10159.351123
 852.483119, 10162.513824
 852.960368, 10165.685147
 853.441080, 10168.870924
 853.921398, 10172.045511
 854.401813, 10175.212138
 854.887283, 10178.403351
 855.370906, 10181.573680
 855.856863, 10184.750507
 856.346203, 10187.940538
 856.835727, 10191.122795
 857.319962, 10194.261847
 857.805904, 10197.403130
 858.299046, 10200.581891
 858.789236, 10203.732576
 859.280475, 10206.880944
 859.775092, 10210.041781
 860.265230, 10213.164907
 860.758829, 10216.300932
 861.254388, 10219.440164
 861.751973, 10222.582900
 862.249459, 10225.715647
 862.747001, 10228.839388
 863.245191, 10231.957799
 863.746069, 10235.083547
 864.245856, 10238.193004
 864.745210, 10241.290290
 865.251532, 10244.421114
 865.757155, 10247.537888
 866.261224, 10250.635391
 866.767475, 10253.736553
 867.278323, 10256.855964
 867.788915, 10259.963852
 868.299922, 10263.064289
 868.810266, 10266.150737
 869.322512, 10269.238662
 869.833255, 10272.307515
 870.344841, 10275.371397
 870.863235, 10278.465811
 871.379336, 10281.536280
 871.897334, 10284.607734
 872.411296, 10287.645050
 872.930124, 10290.700802
 873.450732, 10293.756605
 873.967955, 10296.782185
 874.494118, 10299.849457
 875.017390, 10302.889266
 875.540870, 10305.919684
 876.066708, 10308.953069
 876.590180, 10311.962164
 877.112773, 10314.955605
 877.639078, 10317.959593
 878.162731, 10320.937769
 878.691365, 10323.933459
 879.220907, 10326.923395
 879.751535, 10329.908507
 880.282408, 10332.884011
 880.810986, 10335.835737
 881.345190, 10338.807796
 881.879122, 10341.767204
 882.414548, 10344.723701
 882.949219, 10347.664829
 883.487219, 10350.612976
 884.026324, 10353.555797
 884.565138, 10356.485641
 885.103770, 10359.403100
 885.645452, 10362.325590
 886.186214, 10365.231610
 886.729206, 10368.138040
 887.269536, 10371.018693
 887.815597, 10373.918214
 888.364929, 10376.823239
 888.913714, 10379.713481
 889.459070, 10382.573883
 890.011205, 10385.457866
 890.558450, 10388.304410
 891.106826, 10391.144947
 891.656656, 10393.981055
 892.210458, 10396.825538
 892.763750, 10399.655252
 893.317575, 10402.475520
 893.873613, 10405.294807
 894.426931, 10408.088095
 894.984400, 10410.890025
 895.540647, 10413.673484
 896.101787, 10416.468934
 896.658396, 10419.229412
 897.220362, 10422.003923
 897.780649, 10424.757591
 898.345987, 10427.523373
 898.906446, 10430.252674
 899.467780, 10432.973640
 900.032940, 10435.700413
 900.595074, 10438.399894
 901.158427, 10441.092517
 901.725047, 10443.787922
 902.288282, 10446.454447
 902.860584, 10449.150853
 903.423843, 10451.791798
 903.986517, 10454.417261
 904.555921, 10457.061161
 905.124516, 10459.688273
 905.696832, 10462.319425
 906.269802, 10464.940354
 906.843726, 10467.552376
 907.416353, 10470.145238
 907.990985, 10472.733865
 908.571000, 10475.333208
 909.151263, 10477.920051
 909.732458, 10480.497389
 910.311303, 10483.050714
 910.892445, 10485.600515
 911.471130, 10488.125930
 912.054161, 10490.656575
 912.631192, 10493.147594
 913.216170, 10495.659113
 913.798182, 10498.144103
 914.388038, 10500.648532
 914.974533, 10503.124658
 915.556513, 10505.567883
 916.146517, 10508.030716
 916.730790, 10510.455641
 917.319315, 10512.884148
 917.913205, 10515.320472
 918.501529, 10517.719764
 919.095384, 10520.127280
 919.684982, 10522.503281
 920.274944, 10524.866528
 920.872535, 10527.245819
 921.465016, 10529.590338
 922.056361, 10531.916028
 922.644320, 10534.214201
 923.240918, 10536.531658
 923.838287, 10538.837486
 924.440139, 10541.145814
 925.034970, 10543.412603
 925.635612, 10545.686794
 926.232023, 10547.930298
 926.835044, 10550.183799
 927.437086, 10552.418722
 928.037633, 10554.633239
 928.634498, 10556.819464
 929.237805, 10559.014376
 929.842661, 10561.199869
 930.451003, 10563.382748
 931.051104, 10565.521100
 931.655920, 10567.661218
 932.260898, 10569.786804
 932.867338, 10571.902357
 933.476806, 10574.013167
 934.085816, 10576.107054
 934.697941, 10578.196195
 935.311406, 10580.274361
 935.922838, 10582.330143
 936.535993, 10584.376173
 937.149532, 10586.407898
 937.758889, 10588.410336
 938.372892, 10590.412472
 938.985178, 10592.393443
 939.592719, 10594.343693
 940.204810, 10596.293054
 940.818906, 10598.233173
 941.434460, 10600.162179
 942.051231, 10602.079208
 942.672380, 10603.993869
 943.290709, 10605.883901
 943.905504, 10607.747369
 944.522793, 10609.602574
 945.140199, 10611.442266
 945.754720, 10613.257601
 946.366242, 10615.048462
 946.996196, 10616.877012
 947.614714, 10618.656278
 948.241655, 10620.443494
 948.861677, 10622.194866
 949.484005, 10623.936626
 950.105207, 10625.659116
 950.730858, 10627.377661
 951.356555, 10629.079986
 951.984190, 10630.771155
 952.610922, 10632.443469
 953.233857, 10634.089383
 953.861441, 10635.731181
 954.487366, 10637.352231
 955.118360, 10638.969823
 955.326366, 10639.499410
