Time, Horizontal Forces
   0.000000, 6491.576795
   0.000001, 6491.576792
   0.000008, 6491.576734
   0.000068, 6491.576277
   0.000376, 6491.573935
   0.001629, 6491.564414
   0.005674, 6491.533678
   0.012932, 6491.478553
   0.023139, 6491.401044
   0.036371, 6491.300600
   0.052579, 6491.177592
   0.071901, 6491.031009
   0.094179, 6490.862048
   0.119921, 6490.666883
   0.148605, 6490.449472
   0.180406, 6490.208514
   0.215577, 6489.942112
   0.253934, 6489.651660
   0.296115, 6489.332358
   0.341469, 6488.989150
   0.390948, 6488.614852
   0.443519, 6488.217290
   0.500353, 6487.787636
   0.560612, 6487.332242
   0.624614, 6486.848718
   0.693288, 6486.330074
   0.766233, 6485.779366
   0.843465, 6485.196493
   0.924873, 6484.582321
   1.010687, 6483.935137
   1.099421, 6483.266163
   1.195421, 6482.542674
   1.294466, 6481.796503
   1.397412, 6481.021222
   1.507318, 6480.193827
   1.620683, 6479.340710
   1.739840, 6478.444339
   1.863999, 6477.510694
   1.992648, 6476.543648
   2.127114, 6475.533258
   2.266895, 6474.483333
   2.416500, 6473.360061
   2.572025, 6472.192807
   2.730648, 6471.002782
   2.895777, 6469.764437
   3.066435, 6468.485151
   3.247398, 6467.129175
   3.433364, 6465.736286
   3.626345, 6464.291467
   3.823491, 6462.816082
   4.030598, 6461.266813
   4.242461, 6459.682649
   4.464191, 6458.025423
   4.689186, 6456.344523
   4.923861, 6454.592081
   5.165146, 6452.791068
   5.414923, 6450.927502
   5.675699, 6448.982754
   5.941125, 6447.004234
   6.216093, 6444.955526
   6.502196, 6442.824842
   6.794785, 6440.646887
   7.094353, 6438.418031
   7.409885, 6436.071524
   7.727555, 6433.710258
   8.053259, 6431.290438
   8.389857, 6428.790901
   8.734597, 6426.232153
   9.091072, 6423.587617
   9.457180, 6420.872967
   9.833751, 6418.082155
  10.215639, 6415.253359
  10.610860, 6412.327296
  11.015879, 6409.330230
  11.435818, 6406.224375
  11.863083, 6403.066003
  12.297256, 6399.858243
  12.744259, 6396.557444
  13.197995, 6393.208701
  13.667272, 6389.747112
  14.144232, 6386.230743
  14.634496, 6382.618253
  15.142782, 6378.875034
  15.661756, 6375.055236
  16.188372, 6371.181353
  16.724372, 6367.240642
  17.275894, 6363.188102
  17.834685, 6359.084471
  18.405777, 6354.892883
  18.992572, 6350.588512
  19.592063, 6346.193560
  20.201946, 6341.725019
  20.820330, 6337.196827
  21.458507, 6332.526448
  22.115148, 6327.723805
  22.774651, 6322.903118
  23.451818, 6317.956279
  24.138564, 6312.942483
  24.845499, 6307.784435
  24.989075, 6306.737233
  25.058761, 6306.229013
  25.099251, 6305.933733
  25.129408, 6305.713814
  25.155407, 6305.524229
  25.176955, 6305.367096
  25.193538, 6305.246174
  25.206344, 6305.152793
  25.217821, 6305.069106
  25.218449, 6305.064521
  25.219410, 6305.057517
  25.219589, 6305.056212
  25.219681, 6305.055543
  25.219737, 6305.055135
  25.219795, 6305.054707
  25.220382, 6305.050430
  25.225945, 6305.009865
  25.253033, 6304.812351
  25.369592, 6303.962514
  25.682392, 6301.682411
  26.335498, 6296.924205
  26.991817, 6292.145984
  27.666389, 6287.238354
  28.352585, 6282.249747
  29.046467, 6277.208892
  29.758262, 6272.041652
  30.473459, 6266.853491
  31.204356, 6261.555308
  31.942410, 6256.209165
  32.697867, 6250.740991
  33.470302, 6245.154097
  34.250494, 6239.515329
  35.042717, 6233.793900
  35.847304, 6227.987559
  36.660426, 6222.124067
  37.487874, 6216.161794
  38.323114, 6210.147959
  39.175468, 6204.015593
  40.042342, 6197.783571
  40.923066, 6191.456894
  41.810544, 6185.086650
  42.714569, 6178.602700
  43.634369, 6172.010784
  44.566333, 6165.336978
  45.510094, 6158.584041
  46.470033, 6151.720822
  47.441570, 6144.780249
  48.425957, 6137.753517
  49.429581, 6130.595265
  50.442012, 6123.380063
  51.467577, 6116.077200
  52.505204, 6108.694479
  53.561282, 6101.186653
  54.628860, 6093.603325
  55.720969, 6085.852190
  56.819577, 6078.061451
  57.929597, 6070.196354
  59.056437, 6062.218773
  60.198197, 6054.142376
  61.354754, 6045.968229
  62.525326, 6037.702064
  63.710512, 6029.339831
  64.904166, 6020.925044
  66.126181, 6012.317728
  67.357491, 6003.652458
  68.608279, 5994.857752
  69.866102, 5986.021276
  71.144085, 5977.051016
  72.438592, 5967.972748
  73.752854, 5958.764090
  75.088809, 5949.411760
  76.432812, 5940.011497
  77.791291, 5930.518474
  79.164793, 5920.929072
  80.554034, 5911.238502
  81.970057, 5901.370065
  83.402546, 5891.395985
  84.843731, 5881.370522
  86.299112, 5871.255562
  87.778572, 5860.982696
  89.268872, 5850.644112
  90.773572, 5840.215277
  92.298460, 5829.656319
  93.844971, 5818.957629
  95.408815, 5808.149188
  96.993151, 5797.209428
  98.587746, 5786.209243
 100.202161, 5775.082876
 101.833396, 5763.851284
 103.482491, 5752.507549
 103.813863, 5750.229429
 104.051008, 5748.599367
 104.211425, 5747.496839
 104.345400, 5746.576119
 104.453769, 5745.831424
 104.469663, 5745.722206
 104.485368, 5745.614290
 104.502447, 5745.496933
 104.502965, 5745.493375
 104.503252, 5745.491398
 104.503464, 5745.489942
 104.503655, 5745.488631
 104.505562, 5745.475527
 104.524634, 5745.344474
 104.629701, 5744.622555
 105.038476, 5741.814366
 106.450865, 5732.117994
 107.947940, 5721.851043
 109.456912, 5711.513676
 110.992216, 5701.007352
 112.535201, 5690.460000
 114.084924, 5679.878146
 115.658160, 5669.147495
 117.240514, 5658.366516
 118.839148, 5647.486616
 120.456883, 5636.488912
 122.081395, 5625.457380
 123.728372, 5614.285735
 125.389436, 5603.031146
 127.061857, 5591.712296
 128.760337, 5580.230024
 130.465178, 5568.717779
 132.187618, 5557.099859
 133.930351, 5545.358434
 135.686106, 5533.542784
 137.457931, 5521.632635
 139.239018, 5509.673957
 141.043136, 5497.574579
 142.852713, 5485.452580
 144.682498, 5473.209365
 146.533217, 5460.840458
 148.393215, 5448.424008
 150.261111, 5435.969340
 152.151711, 5423.377995
 154.052750, 5410.731937
 155.977073, 5397.946017
 157.915876, 5385.079091
 159.869524, 5372.128962
 161.848105, 5359.029137
 163.837914, 5345.870687
 165.852250, 5332.565974
 167.872997, 5319.234928
 169.912365, 5305.797189
 171.962175, 5292.306890
 174.027893, 5278.728273
 176.124800, 5264.961347
 178.236722, 5251.112740
 180.357537, 5237.222781
 182.497926, 5223.221748
 184.653282, 5209.140083
 186.819851, 5195.002523
 189.006739, 5180.749920
 191.216099, 5166.368643
 193.431656, 5151.964866
 195.672350, 5137.415725
 197.928128, 5122.786870
 200.197984, 5108.085072
 202.494163, 5093.231400
 204.806358, 5078.292922
 207.130950, 5063.293250
 209.474190, 5048.192324
 211.836270, 5032.989241
 214.213488, 5017.708129
 216.608548, 5002.331890
 219.025254, 4986.836478
 221.460514, 4971.242094
 223.907832, 4955.590585
 226.374008, 4939.838724
 228.852303, 4924.029828
 231.356668, 4908.075243
 233.872045, 4892.071244
 236.425095, 4875.848680
 238.984424, 4859.607454
 241.558891, 4843.291494
 244.149772, 4826.892985
 244.671889, 4823.590936
 245.022365, 4821.374887
 245.330565, 4819.426479
 246.302470, 4813.284163
 246.321825, 4813.161870
 246.346073, 4813.008668
 246.351889, 4812.971924
 246.361934, 4812.908458
 246.364983, 4812.889193
 246.365553, 4812.885590
 246.365808, 4812.883978
 246.366112, 4812.882058
 246.369152, 4812.862853
 246.396320, 4812.691200
 246.564389, 4811.629398
 247.533544, 4805.508866
 249.877048, 4790.724668
 252.176161, 4776.242170
 254.491104, 4761.681506
 256.829919, 4746.992525
 259.182640, 4732.238238
 261.541597, 4717.466907
 263.919913, 4702.596600
 266.305130, 4687.705457
 268.712648, 4672.697627
 271.131854, 4657.639621
 273.568807, 4642.494031
 276.019994, 4627.283011
 278.484319, 4612.013627
 280.962469, 4596.681886
 283.452571, 4581.299608
 285.962368, 4565.819296
 288.491267, 4550.245017
 291.032476, 4534.618936
 293.579384, 4518.981818
 296.140140, 4503.283801
 298.721718, 4487.482483
 301.317600, 4471.618133
 303.937486, 4455.631888
 306.565522, 4439.620825
 309.210387, 4423.532282
 311.872199, 4407.365901
 314.550448, 4391.125124
 317.231256, 4374.894237
 319.937107, 4358.537390
 322.661609, 4342.093700
 325.394459, 4325.625611
 328.138867, 4309.113928
 330.906650, 4292.487928
 333.686274, 4275.817258
 336.476507, 4259.109492
 339.290491, 4242.286294
 342.110386, 4225.454616
 344.954065, 4208.508060
 347.819875, 4191.456994
 350.690516, 4174.404609
 353.580792, 4157.263171
 356.486489, 4140.058038
 359.412403, 4122.761192
 362.341742, 4105.472089
 365.288033, 4088.111056
 368.255069, 4070.656145
 371.234634, 4053.156018
 374.230612, 4035.588146
 377.248301, 4017.921866
 380.277962, 4000.214536
 383.327919, 3982.417831
 386.389159, 3964.584645
 389.480902, 3946.603477
 392.579162, 3928.614218
 395.692346, 3910.568210
 398.824193, 3892.444125
 401.965686, 3874.294408
 405.123853, 3856.078692
 408.300007, 3837.789747
 411.497532, 3819.408510
 414.707614, 3800.985999
 417.923558, 3782.560749
 421.174388, 3763.966915
 424.432838, 3745.360907
 427.704970, 3726.708276
 430.996582, 3707.976299
 434.312487, 3689.138071
 437.633702, 3670.301703
 440.971227, 3651.404981
 444.326033, 3632.442737
 447.698309, 3613.414248
 451.089574, 3594.311326
 454.498450, 3575.142105
 457.927534, 3555.892367
 461.365119, 3536.628104
 464.825593, 3517.268977
 465.518998, 3513.393836
 466.100752, 3510.143701
 466.554708, 3507.608198
 466.572646, 3507.508023
 466.607714, 3507.312181
 466.618385, 3507.252586
 466.621308, 3507.236264
 466.623775, 3507.222485
 466.626009, 3507.210013
 466.648342, 3507.085294
 466.819267, 3506.130808
 467.780252, 3500.765989
 470.792177, 3483.968296
 474.284343, 3464.523986
 477.780734, 3445.090118
 481.304371, 3425.539036
 484.830261, 3406.009677
 488.384410, 3386.358301
 491.943789, 3366.712551
 495.526631, 3346.972064
 499.125529, 3327.178054
 502.742248, 3307.321155
 506.385023, 3287.356624
 510.047754, 3267.318413
 513.720257, 3247.262492
 517.400191, 3227.201749
 521.112418, 3207.001059
 524.829275, 3186.811332
 528.577370, 3166.488392
 532.337284, 3146.137998
 536.112850, 3125.739639
 539.908712, 3105.268577
 543.722086, 3084.740223
 547.544190, 3064.202053
 551.387281, 3043.588478
 555.246574, 3022.925541
 559.123308, 3002.206924
 563.021507, 2981.411526
 566.936677, 2960.563708
 570.869174, 2939.661899
 574.816288, 2918.720809
 578.775214, 2897.755526
 582.759106, 2876.696755
 586.757901, 2855.598103
 590.781255, 2834.409026
 594.819222, 2813.182293
 598.868666, 2791.934604
 602.936836, 2770.628189
 607.033950, 2749.210047
 611.135697, 2727.807591
 615.264779, 2706.302645
 619.407469, 2684.767123
 623.571907, 2663.159048
 624.648329, 2657.580389
 627.752257, 2641.509077
 631.945457, 2561.728481
 636.164179, 2461.433765
 640.410585, 2360.632619
 644.680623, 2259.311758
 648.962625, 2157.619490
 653.265189, 2055.729905
 657.592216, 1953.466919
 661.948888, 1850.733758
 666.310983, 1747.586805
 670.703998, 1644.317455
 675.107859, 1540.599299
 679.537475, 1436.699635
 683.982555, 1332.425948
 688.448277, 1227.932645
 692.931519, 1123.158956
 697.430580, 1018.174678
 701.933542,  913.092331
 706.459170,  807.992157
 710.988691,  702.694653
 715.543385,  597.375054
 720.110498,  491.772558
 724.691959,  386.088994
 729.288077,  280.294812
 733.901559,  174.376272
 738.521323,   68.376030
 743.150146,  -37.544449
 747.791912,    0.000000
 748.105212,    0.000000
 748.418775,    0.000000
 748.730957,    0.000000
 749.043925,    0.000000
 749.358038,    0.000000
 749.671672,    0.000000
 749.986153,    0.000000
 750.301275,    0.000000
 750.616368,    0.000000
 750.931755,    0.000000
 751.247401,    0.000000
 751.563142,    0.000000
 751.879212,    0.000000
 752.195366,    0.000000
 752.510635,    0.000000
 752.827835,    0.000000
 753.143948,    0.000000
 753.461489,    0.000000
 753.777218,    0.000000
 754.095264,    0.000000
 754.412828,    0.000000
 754.729443,    0.000000
 755.046852,    0.000000
 755.364169,    0.000000
 755.681648,    0.000000
 756.001009,    0.000000
 756.320458,    0.000000
 756.641032,    0.000000
 756.961708,    0.000000
 757.282220,    0.000000
 757.603383,    0.000000
 757.925146,    0.000000
 758.247257,    0.000000
 758.569224,    0.000000
 758.892048,    0.000000
 759.214526,    0.000000
 759.537987,    0.000000
 759.861140,    0.000000
 760.184278,    0.000000
 760.506942,    0.000000
 760.831703,    0.000000
 761.155906,    0.000000
 761.480734,    0.000000
 761.806456,    0.000000
 762.132202,    0.000000
 762.457006,    0.000000
 762.782189,    0.000000
 763.105866,    0.000000
 763.432624,    0.000000
 763.760622,    0.000000
 764.088015,    0.000000
 764.416658,    0.000000
 764.745870,    0.000000
 765.074391,    0.000000
 765.402838,    0.000000
 765.732063,    0.000000
 766.061791,    0.000000
 766.392275,    0.000000
 766.723634,    0.000000
 767.053551,    0.000000
 767.383952,    0.000000
 767.715658,    0.000000
 768.046470,    0.000000
 768.378868,    0.000000
 768.713112,    0.000000
 769.047100,    0.000000
 769.379121,    0.000000
 769.714026,    0.000000
 770.048081,    0.000000
 770.382123,    0.000000
 770.717381,    0.000000
 771.053506,    0.000000
 771.390694,    0.000000
 771.728668,    0.000000
 772.065294,    0.000000
 772.403231,    0.000000
 772.742778,    0.000000
 773.081711,    0.000000
 773.420782,    0.000000
 773.761509,    0.000000
 774.100728,    0.000000
 774.440831,    0.000000
 774.781830,    0.000000
 775.123251,    0.000000
 775.463784,    0.000000
 775.806130,    0.000000
 776.148807,    0.000000
 776.493060,    0.000000
 776.835403,    0.000000
 777.178569,    0.000000
 777.523109,    0.000000
 777.869173,    0.000000
 778.214658,    0.000000
 778.560211,    0.000000
 778.906779,    0.000000
 779.253378,    0.000000
 779.600625,    0.000000
 779.947830,    0.000000
 780.293879,    0.000000
 780.641777,    0.000000
 780.991480,    0.000000
 781.339686,    0.000000
 781.689281,    0.000000
 782.040371,    0.000000
 782.390143,    0.000000
 782.740572,    0.000000
 783.091651,    0.000000
 783.443433,    0.000000
 783.794962,    0.000000
 784.147915,    0.000000
 784.501943,    0.000000
 784.856288,    0.000000
 785.211966,    0.000000
 785.566034,    0.000000
 785.921279,    0.000000
 786.275665,    0.000000
 786.631716,    0.000000
 786.988559,    0.000000
 787.347048,    0.000000
 787.704191,    0.000000
 788.060765,    0.000000
 788.419526,    0.000000
 788.778652,    0.000000
 789.138158,    0.000000
 789.498606,    0.000000
 789.858885,    0.000000
 790.221053,    0.000000
 790.582298,    0.000000
 790.944030,    0.000000
 791.307343,    0.000000
 791.671256,    0.000000
 792.034091,    0.000000
 792.399456,    0.000000
 792.764340,    0.000000
 793.129415,    0.000000
 793.494539,    0.000000
 793.567598,    0.000000
 793.731212,    0.000000
 793.745009,    0.000000
 793.756054,    0.000000
 793.765263,    0.000000
 793.771464,    0.000000
 793.776909,    0.000000
 793.782055,    0.000000
 793.786610,    0.000000
 793.788225,    0.000000
 793.789208,    0.000000
 793.789796,    0.000000
 793.790331,    0.000000
 793.794364,    0.000000
 793.810256,    0.000000
 793.860316,    0.000000
 794.053992,    0.000000
 794.372697,    0.000000
 794.741757,    0.000000
 795.109766,    0.000000
 795.479173,    0.000000
 795.849199,    0.000000
 796.218708,    0.000000
 796.588130,    0.000000
 796.957792,    0.000000
 797.327920,    0.000000
 797.699270,    0.000000
 798.070587,    0.000000
 798.445248,    0.000000
 798.817615,    0.000000
 799.190734,    0.000000
 799.565124,    0.000000
 799.940980,    0.000000
 800.316651,    0.000000
 800.695113,    0.000000
 801.071684,    0.000000
 801.448411,    0.000000
 801.826798,    0.000000
 802.206703,    0.000000
 802.334249,    0.000000
 802.587507,    0.000000
 802.968177,    0.000000
 803.350358,    0.000000
 803.731213,    0.000000
 804.113142,    0.000000
 804.496881,    0.000000
 804.879592,    0.000000
 805.264264,    0.000000
 805.650432,    0.000000
 806.037807,    0.000000
 806.423715,    0.000000
 806.810224,    0.000000
 807.197539,    0.000000
 807.586066,    0.000000
 807.975144,    0.000000
 808.366637,    0.000000
 808.758068,    0.000000
 809.147954,    0.000000
 809.540655,    0.000000
 809.932450,    0.000000
 810.324488,    0.000000
 810.718004,    0.000000
 811.113362,    0.000000
 811.508717,    0.000000
 811.906878,    0.000000
 812.306004,    0.000000
 812.703768,    0.000000
 813.102384,    0.000000
 813.501185,    0.000000
 813.903598,    0.000000
 814.306651,    0.000000
 814.709440,    0.000000
 815.111955,    0.000000
 815.516583,    0.000000
 815.923205,    0.000000
 816.329489,    0.000000
 816.737313,    0.000000
 817.143573,    0.000000
 817.550588,    0.000000
 817.959408,    0.000000
 818.369868,    0.000000
 818.781531,    0.000000
 819.193060,    0.000000
 819.606844,    0.000000
 820.019205,    0.000000
 820.432436,    0.000000
 820.845850,    0.000000
 821.260172,    0.000000
 821.676382,    0.000000
 822.093487,    0.000000
 822.509788,    0.000000
 822.928176,    0.000000
 823.345254,    0.000000
 823.763822,    0.000000
 824.187300,    0.000000
 824.610071,    0.000000
 825.031598,    0.000000
 825.454987,    0.000000
 825.881223,    0.000000
 826.306693,    0.000000
 826.733100,    0.000000
 827.159100,    0.000000
 827.583243,    0.000000
 828.010643,    0.000000
 828.441249,    0.000000
 828.872208,    0.000000
 829.303775,    0.000000
 829.734926,    0.000000
 830.167918,    0.000000
 830.600368,    0.000000
 831.030414,    0.000000
 831.468112,    0.000000
 831.900604,    0.000000
 832.339892,    0.000000
 832.779344,    0.000000
 833.216829,    0.000000
 833.656336,    0.000000
 834.095315,    0.000000
 834.536657,    0.000000
 834.978378,    0.000000
 835.424951,    0.000000
 835.870136,    0.000000
 836.318280,    0.000000
 836.766405,    0.000000
 837.212508,    0.000000
 837.659293,    0.000000
 838.109989,    0.000000
 838.560623,    0.000000
 839.011997,    0.000000
 839.460966,    0.000000
 839.912970,    0.000000
 840.365940,    0.000000
 840.821713,    0.000000
 841.275586,    0.000000
 841.734095,    0.000000
 842.190218,    0.000000
 842.648987,    0.000000
 843.105017,    0.000000
 843.564025,    0.000000
 844.025111,    0.000000
 844.486170,    0.000000
 844.950928,    0.000000
 845.415087,    0.000000
 845.879878,    0.000000
 846.346671,    0.000000
 846.806892,    0.000000
 847.277042,    0.000000
 847.746086,    0.000000
 848.217440,    0.000000
 848.688404,    0.000000
 849.157708,    0.000000
 849.631007,    0.000000
 850.107441,    0.000000
 850.582596,    0.000000
 851.056193,    0.000000
 851.532774,    0.000000
 852.008429,    0.000000
 852.483119,    0.000000
 852.960368,    0.000000
 853.441080,    0.000000
 853.921398,    0.000000
 854.401813,    0.000000
 854.887283,    0.000000
 855.370906,    0.000000
 855.856863,    0.000000
 856.346203,    0.000000
 856.835727,    0.000000
 857.319962,    0.000000
 857.805904,    0.000000
 858.299046,    0.000000
 858.789236,    0.000000
 859.280475,    0.000000
 859.775092,    0.000000
 860.265230,    0.000000
 860.758829,    0.000000
 861.254388,    0.000000
 861.751973,    0.000000
 862.249459,    0.000000
 862.747001,    0.000000
 863.245191,    0.000000
 863.746069,    0.000000
 864.245856,    0.000000
 864.745210,    0.000000
 865.251532,    0.000000
 865.757155,    0.000000
 866.261224,    0.000000
 866.767475,    0.000000
 867.278323,    0.000000
 867.788915,    0.000000
 868.299922,    0.000000
 868.810266,    0.000000
 869.322512,    0.000000
 869.833255,    0.000000
 870.344841,    0.000000
 870.863235,    0.000000
 871.379336,    0.000000
 871.897334,    0.000000
 872.411296,    0.000000
 872.930124,    0.000000
 873.450732,    0.000000
 873.967955,    0.000000
 874.494118,    0.000000
 875.017390,    0.000000
 875.540870,    0.000000
 876.066708,    0.000000
 876.590180,    0.000000
 877.112773,    0.000000
 877.639078,    0.000000
 878.162731,    0.000000
 878.691365,    0.000000
 879.220907,    0.000000
 879.751535,    0.000000
 880.282408,    0.000000
 880.810986,    0.000000
 881.345190,    0.000000
 881.879122,    0.000000
 882.414548,    0.000000
 882.949219,    0.000000
 883.487219,    0.000000
 884.026324,    0.000000
 884.565138,    0.000000
 885.103770,    0.000000
 885.645452,    0.000000
 886.186214,    0.000000
 886.729206,    0.000000
 887.269536,    0.000000
 887.815597,    0.000000
 888.364929,    0.000000
 888.913714,    0.000000
 889.459070,    0.000000
 890.011205,    0.000000
 890.558450,    0.000000
 891.106826,    0.000000
 891.656656,    0.000000
 892.210458,    0.000000
 892.763750,    0.000000
 893.317575,    0.000000
 893.873613,    0.000000
 894.426931,    0.000000
 894.984400,    0.000000
 895.540647,    0.000000
 896.101787,    0.000000
 896.658396,    0.000000
 897.220362,    0.000000
 897.780649,    0.000000
 898.345987,    0.000000
 898.906446,    0.000000
 899.467780,    0.000000
 900.032940,    0.000000
 900.595074,    0.000000
 901.158427,    0.000000
 901.725047,    0.000000
 902.288282,    0.000000
 902.860584,    0.000000
 903.423843,    0.000000
 903.986517,    0.000000
 904.555921,    0.000000
 905.124516,    0.000000
 905.696832,    0.000000
 906.269802,    0.000000
 906.843726,    0.000000
 907.416353,    0.000000
 907.990985,    0.000000
 908.571000,    0.000000
 909.151263,    0.000000
 909.732458,    0.000000
 910.311303,    0.000000
 910.892445,    0.000000
 911.471130,    0.000000
 912.054161,    0.000000
 912.631192,    0.000000
 913.216170,    0.000000
 913.798182,    0.000000
 914.388038,    0.000000
 914.974533,    0.000000
 915.556513,    0.000000
 916.146517,    0.000000
 916.730790,    0.000000
 917.319315,    0.000000
 917.913205,    0.000000
 918.501529,    0.000000
 919.095384,    0.000000
 919.684982,    0.000000
 920.274944,    0.000000
 920.872535,    0.000000
 921.465016,    0.000000
 922.056361,    0.000000
 922.644320,    0.000000
 923.240918,    0.000000
 923.838287,    0.000000
 924.440139,    0.000000
 925.034970,    0.000000
 925.635612,    0.000000
 926.232023,    0.000000
 926.835044,    0.000000
 927.437086,    0.000000
 928.037633,    0.000000
 928.634498,    0.000000
 929.237805,    0.000000
 929.842661,    0.000000
 930.451003,    0.000000
 931.051104,    0.000000
 931.655920,    0.000000
 932.260898,    0.000000
 932.867338,    0.000000
 933.476806,    0.000000
 934.085816,    0.000000
 934.697941,    0.000000
 935.311406,    0.000000
 935.922838,    0.000000
 936.535993,    0.000000
 937.149532,    0.000000
 937.758889,    0.000000
 938.372892,    0.000000
 938.985178,    0.000000
 939.592719,    0.000000
 940.204810,    0.000000
 940.818906,    0.000000
 941.434460,    0.000000
 942.051231,    0.000000
 942.672380,    0.000000
 943.290709,    0.000000
 943.905504,    0.000000
 944.522793,    0.000000
 945.140199,    0.000000
 945.754720,    0.000000
 946.366242,    0.000000
 946.996196,    0.000000
 947.614714,    0.000000
 948.241655,    0.000000
 948.861677,    0.000000
 949.484005,    0.000000
 950.105207,    0.000000
 950.730858,    0.000000
 951.356555,    0.000000
 951.984190,    0.000000
 952.610922,    0.000000
 953.233857,    0.000000
 953.861441,    0.000000
 954.487366,    0.000000
 955.118360,    0.000000
 955.326366,    0.000000
