Time, Horizontal Forces
   0.000000, 61911.362739
   0.000001, 61911.071418
   0.000008, 61910.020042
   0.000068, 61907.335640
   0.000376, 61901.826030
   0.001629, 61891.454437
   0.005674, 61874.152257
   0.012932, 61855.151748
   0.023139, 61836.142381
   0.036371, 61817.029496
   0.052579, 61797.913810
   0.071901, 61778.669300
   0.094179, 61759.468899
   0.119921, 61739.932888
   0.148605, 61720.496598
   0.180406, 61701.029687
   0.215577, 61681.403566
   0.253934, 61661.744033
   0.296115, 61641.766909
   0.341469, 61621.812740
   0.390948, 61601.497840
   0.443519, 61581.272076
   0.500353, 61560.707978
   0.560612, 61540.138329
   0.624614, 61519.462923
   0.693288, 61498.419310
   0.766233, 61477.173763
   0.843465, 61455.749051
   0.924873, 61434.197177
   1.010687, 61412.476678
   1.099421, 61390.960393
   1.195421, 61368.632678
   1.294466, 61346.511369
   1.397412, 61324.392205
   1.507318, 61301.652729
   1.620683, 61279.043951
   1.739840, 61256.110368
   1.863999, 61233.028290
   1.992648, 61209.902005
   2.127114, 61186.507766
   2.266895, 61162.953076
   2.416500, 61138.526778
   2.572025, 61113.915231
   2.730648, 61089.561074
   2.895777, 61064.940597
   3.066435, 61040.215216
   3.247398, 61014.729295
   3.433364, 60989.260055
   3.626345, 60963.541164
   3.823491, 60937.956295
   4.030598, 60911.771197
   4.242461, 60885.663587
   4.464191, 60859.020426
   4.689186, 60832.644390
   4.923861, 60805.790748
   5.165146, 60778.830956
   5.414923, 60751.568707
   5.675699, 60723.759507
   5.941125, 60696.093704
   6.216093, 60668.068127
   6.502196, 60639.548318
   6.794785, 60611.014053
   7.094353, 60582.418976
   7.409885, 60552.935361
   7.727555, 60523.869374
   8.053259, 60494.672035
   8.389857, 60465.101833
   8.734597, 60435.414569
   9.091072, 60405.316053
   9.457180, 60375.001486
   9.833751, 60344.415924
  10.215639, 60313.979989
  10.610860, 60283.063752
  11.015879, 60251.961566
  11.435818, 60220.300149
  11.863083, 60188.666097
  12.297256, 60157.087383
  12.744259, 60125.141158
  13.197995, 60093.270105
  13.667272, 60060.866833
  14.144232, 60028.486304
  14.634496, 59995.754714
  15.142782, 59962.381377
  15.661756, 59928.866772
  16.188372, 59895.409058
  16.724372, 59861.896956
  17.275894, 59827.957735
  17.834685, 59794.106642
  18.405777, 59760.041238
  18.992572, 59725.572379
  19.592063, 59690.890298
  20.201946, 59656.134193
  20.820330, 59621.412197
  21.458507, 59586.102079
  22.115148, 59550.300535
  22.774651, 59514.860601
  23.451818, 59478.987812
  24.138564, 59443.119041
  24.845499, 59406.711010
  24.989075, 59399.378499
  25.058761, 59395.827001
  25.099251, 59393.765666
  25.129408, 59392.231427
  25.155407, 59390.909491
  25.176955, 59389.814322
  25.193538, 59388.971832
  25.206344, 59388.321396
  25.217821, 59387.738619
  25.218449, 59387.706691
  25.219410, 59387.657922
  25.219589, 59387.648840
  25.219681, 59387.644181
  25.219737, 59387.640809
  25.219795, 59387.636968
  25.220382, 59387.598554
  25.225945, 59387.234303
  25.253033, 59385.461281
  25.369592, 59377.842735
  25.682392, 59357.483382
  26.335498, 59315.369440
  26.991817, 59273.570243
  27.666389, 59231.133671
  28.352585, 59188.492291
  29.046467, 59145.893672
  29.758262, 59102.719567
  30.473459, 59059.854883
  31.204356, 59016.564576
  31.942410, 58973.360572
  32.697867, 58929.650395
  33.470302, 58885.475572
  34.250494, 58841.370276
  35.042717, 58797.094496
  35.847304, 58752.635662
  36.660426, 58708.207936
  37.487874, 58663.499001
  38.323114, 58618.865339
  39.175468, 58573.814377
  40.042342, 58528.494480
  40.923066, 58482.948728
  41.810544, 58437.545378
  42.714569, 58391.786884
  43.634369, 58345.722758
  44.566333, 58299.540670
  45.510094, 58253.262040
  46.470033, 58206.678417
  47.441570, 58160.018002
  48.425957, 58113.223808
  49.429581, 58066.000945
  50.442012, 58018.845641
  51.467577, 57971.557307
  52.505204, 57924.188632
  53.561282, 57876.454647
  54.628860, 57828.675534
  55.720969, 57780.277943
  56.819577, 57732.067399
  57.929597, 57683.825956
  59.056437, 57635.322861
  60.198197, 57586.646160
  61.354754, 57537.805911
  62.525326, 57488.839342
  63.710512, 57439.725212
  64.904166, 57390.718839
  66.126181, 57341.011779
  67.357491, 57291.388209
  68.608279, 57241.441011
  69.866102, 57191.669135
  71.144085, 57141.555595
  72.438592, 57091.250166
  73.752854, 57040.634186
  75.088809, 56989.642212
  76.432812, 56938.798220
  77.791291, 56887.858370
  79.164793, 56836.804969
  80.554034, 56785.614699
  81.970057, 56733.889519
  83.402546, 56682.015201
  84.843731, 56630.273386
  86.299112, 56578.465833
  87.778572, 56526.246857
  89.268872, 56474.088293
  90.773572, 56421.865658
  92.298460, 56369.382181
  93.844971, 56316.595613
  95.408815, 56263.658156
  96.993151, 56210.467863
  98.587746, 56157.370426
 100.202161, 56104.049118
 101.833396, 56050.607335
 103.482491, 55997.014339
 103.813863, 55986.297013
 104.051008, 55978.637703
 104.211425, 55973.461525
 104.345400, 55969.141591
 104.453769, 55965.649342
 104.469663, 55965.137300
 104.485368, 55964.631390
 104.502447, 55964.081263
 104.502965, 55964.064588
 104.503252, 55964.055318
 104.503464, 55964.046908
 104.503655, 55964.039122
 104.505562, 55963.961264
 104.524634, 55963.182685
 104.629701, 55958.894926
 105.038476, 55942.234355
 106.450865, 55884.929898
 107.947940, 55824.624162
 109.456912, 55764.282582
 110.992216, 55703.335432
 112.535201, 55642.528652
 114.084924, 55581.896440
 115.658160, 55520.786191
 117.240514, 55459.761744
 118.839148, 55398.548491
 120.456883, 55337.044024
 122.081395, 55275.718488
 123.728372, 55213.982592
 125.389436, 55152.156234
 127.061857, 55090.342230
 128.760337, 55028.003078
 130.465178, 54965.865628
 132.187618, 54903.520827
 133.930351, 54840.876909
 135.686106, 54778.199167
 137.457931, 54715.381068
 139.239018, 54652.664895
 141.043136, 54589.569145
 142.852713, 54526.710292
 144.682498, 54463.576885
 146.533217, 54400.150117
 148.393215, 54336.831787
 150.261111, 54273.666788
 152.151711, 54210.156870
 154.052750, 54146.717224
 155.977073, 54082.922533
 157.915876, 54019.069327
 159.869524, 53955.147256
 161.848105, 53890.831349
 163.837914, 53826.570960
 165.852250, 53761.940143
 167.872997, 53697.522248
 169.912365, 53632.928200
 171.962175, 53568.418458
 174.027893, 53503.821578
 176.124800, 53438.666421
 178.236722, 53373.461854
 180.357537, 53308.396602
 182.497926, 53243.143965
 184.653282, 53177.847107
 186.819851, 53112.620078
 189.006739, 53047.190524
 191.216099, 52981.498892
 193.431656, 52916.030002
 195.672350, 52850.225782
 197.928128, 52784.385445
 200.197984, 52718.539314
 202.494163, 52652.336081
 204.806358, 52586.077223
 207.130950, 52519.867062
 209.474190, 52453.528887
 211.836270, 52387.060141
 214.213488, 52320.566972
 216.608548, 52253.975410
 219.025254, 52187.182978
 221.460514, 52120.278519
 223.907832, 52053.441437
 226.374008, 51986.487042
 228.852303, 51919.599365
 231.356668, 51852.404539
 233.872045, 51785.309028
 236.425095, 51717.606711
 238.984424, 51650.134001
 241.558891, 51582.655983
 244.149772, 51515.140193
 244.671889, 51501.581448
 245.022365, 51492.488796
 245.330565, 51484.498799
 246.302470, 51459.337997
 246.321825, 51458.837470
 246.346073, 51458.210461
 246.351889, 51458.060080
 246.361934, 51457.800343
 246.364983, 51457.721502
 246.365553, 51457.706756
 246.365808, 51457.700015
 246.366112, 51457.689889
 246.369152, 51457.588626
 246.396320, 51456.683538
 246.564389, 51451.085850
 247.533544, 51418.851028
 249.877048, 51341.210014
 252.176161, 51265.455361
 254.491104, 51189.589266
 256.829919, 51113.352960
 259.182640, 51037.075593
 261.541597, 50961.005423
 263.919913, 50884.720260
 266.305130, 50808.620866
 268.712648, 50732.217794
 271.131854, 50655.850903
 273.568807, 50579.330853
 276.019994, 50502.770401
 278.484319, 50426.205093
 280.962469, 50349.614788
 283.452571, 50273.058216
 285.962368, 50196.299651
 288.491267, 50119.361112
 291.032476, 50042.451459
 293.579384, 49965.769647
 296.140140, 49889.069735
 298.721718, 49812.145609
 301.317600, 49735.194403
 303.937486, 49657.932166
 306.565522, 49580.828632
 309.210387, 49503.629599
 311.872199, 49426.334104
 314.550448, 49348.959285
 317.231256, 49271.905151
 319.937107, 49194.526521
 322.661609, 49117.010632
 325.394459, 49039.651472
 328.138867, 48962.357453
 330.906650, 48884.798296
 333.686274, 48807.299699
 336.476507, 48729.895818
 339.290491, 48652.224364
 342.110386, 48574.779089
 344.954065, 48497.070375
 347.819875, 48419.147944
 350.690516, 48341.482902
 353.580792, 48263.674822
 356.486489, 48185.839428
 359.412403, 48107.850618
 362.341742, 48030.155874
 365.288033, 47952.395765
 368.255069, 47874.472875
 371.234634, 47796.604728
 374.230612, 47718.690791
 377.248301, 47640.595942
 380.277962, 47562.574020
 383.327919, 47484.412175
 386.389159, 47406.342708
 389.480902, 47327.878708
 392.579162, 47249.631234
 395.692346, 47171.387343
 398.824193, 47093.054723
 401.965686, 47014.859579
 405.123853, 46936.627275
 408.300007, 46858.327030
 411.497532, 46779.878010
 414.707614, 46701.498089
 417.923558, 46623.349589
 421.174388, 46544.729975
 424.432838, 46466.301663
 427.704970, 46387.918111
 430.996582, 46309.441804
 434.312487, 46230.761158
 437.633702, 46152.327295
 440.971227, 46073.879862
 444.326033, 45995.397408
 447.698309, 45916.877042
 451.089574, 45838.285239
 454.498450, 45759.655735
 457.927534, 45680.930584
 461.365119, 45602.379095
 464.825593, 45523.673378
 465.518998, 45507.946564
 466.100752, 45494.763380
 466.554708, 45484.483388
 466.572646, 45484.077320
 466.607714, 45483.283471
 466.618385, 45483.041906
 466.621308, 45482.975745
 466.623775, 45482.919380
 466.626009, 45482.868292
 466.648342, 45482.357406
 466.819267, 45478.447884
 467.780252, 45456.484379
 470.792177, 45387.829659
 474.284343, 45308.573703
 477.780734, 45229.589648
 481.304371, 45150.358345
 484.830261, 45071.442342
 488.384410, 44992.260365
 491.943789, 44913.326609
 495.526631, 44834.237214
 499.125529, 44755.157719
 502.742248, 44676.050574
 506.385023, 44596.738301
 510.047754, 44517.356732
 513.720257, 44438.127043
 517.400191, 44359.098458
 521.112418, 44279.738998
 524.829275, 44200.641598
 528.577370, 44121.241390
 532.337284, 44041.952154
 536.112850, 43962.693190
 539.908712, 43883.368325
 543.722086, 43804.037364
 547.544190, 43724.882897
 551.387281, 43645.651530
 555.246574, 43566.443383
 559.123308, 43487.233962
 563.021507, 43407.942726
 566.936677, 43328.662651
 570.869174, 43249.387501
 574.816288, 43170.172624
 578.775214, 43091.074195
 582.759106, 43011.830707
 586.757901, 42932.644030
 590.781255, 42853.324572
 594.819222, 42774.069950
 598.868666, 42694.941582
 602.936836, 42615.798193
 607.033950, 42536.443597
 611.135697, 42457.349487
 615.264779, 42378.078623
 619.407469, 42298.896254
 623.571907, 42219.647765
 624.648329, 42199.220242
 627.752257, 42140.445486
 631.945457, 42076.051845
 636.164179, 42015.646037
 640.410585, 41954.316094
 644.680623, 41892.166575
 648.962625, 41824.504021
 653.265189, 41749.471412
 657.592216, 41673.620811
 661.948888, 41596.882848
 666.310983, 41519.668805
 670.703998, 41430.528499
 675.107859, 41340.860473
 679.537475, 41250.466637
 683.982555, 41159.514175
 688.448277, 41063.520070
 692.931519, 40961.161054
 697.430580, 40858.315017
 701.933542, 40755.219345
 706.459170, 40651.631436
 710.988691, 40540.448616
 715.543385, 40425.507406
 720.110498, 40310.172549
 724.691959, 40194.531642
 729.288077, 40078.582131
 733.901559, 39954.708501
 738.521323, 39828.029349
 743.150146, 39701.282114
 747.791912, 39574.388750
 748.105212, 39509.182062
 748.418775, 39489.096588
 748.730957, 39468.861412
 749.043925, 39448.377419
 749.358038, 39427.600506
 749.671672, 39406.616642
 749.986153, 39385.368104
 750.301275, 39363.491759
 750.616368, 39340.960156
 750.931755, 39318.189262
 751.247401, 39295.176689
 751.563142, 39271.932577
 751.879212, 39248.444651
 752.195366, 39224.724778
 752.510635, 39200.837176
 752.827835, 39176.617355
 753.143948, 39152.219244
 753.461489, 39127.520862
 753.777218, 39102.699926
 754.095264, 39077.528128
 754.412828, 39052.135403
 754.729443, 39026.590799
 755.046852, 39000.783331
 755.364169, 38974.750272
 755.681648, 38948.485874
 756.001009, 38921.865330
 756.320458, 38894.990628
 756.641032, 38867.810360
 756.961708, 38840.383497
 757.282220, 38812.742815
 757.603383, 38784.831994
 757.925146, 38756.643191
 758.247257, 38728.195214
 758.569224, 38699.528223
 758.892048, 38670.572328
 759.214526, 38641.406383
 759.537987, 38611.942832
 759.861140, 38582.264801
 760.184278, 38552.366440
 760.506942, 38522.281346
 760.831703, 38491.808119
 761.155906, 38461.126646
 761.480734, 38430.175107
 761.806456, 38398.914752
 762.132202, 38367.413601
 762.457006, 38335.764805
 762.782189, 38303.870495
 763.105866, 38271.875166
 763.432624, 38239.408833
 763.760622, 38206.567250
 764.088015, 38173.534344
 764.416658, 38140.170684
 764.745870, 38106.511046
 765.074391, 38072.676993
 765.402838, 38038.630378
 765.732063, 38004.285644
 766.061791, 37969.655916
 766.392275, 37934.720457
 766.723634, 37899.463653
 767.053551, 37864.101062
 767.383952, 37828.482740
 767.715658, 37792.504545
 768.046470, 37756.365551
 768.378868, 37719.855441
 768.713112, 37682.913841
 769.047100, 37645.740944
 769.379121, 37608.534348
 769.714026, 37570.836029
 770.048081, 37532.953272
 770.382123, 37494.851551
 770.717381, 37456.395079
 771.053506, 37417.601646
 771.390694, 37378.453965
 771.728668, 37338.976637
 772.065294, 37299.395278
 772.403231, 37259.460059
 772.742778, 37219.102785
 773.081711, 37178.554083
 773.420782, 37142.291657
 773.761509, 37105.789564
 774.100728, 37069.387006
 774.440831, 37032.827376
 774.781830, 36996.109225
 775.123251, 36959.283235
 775.463784, 36922.490994
 775.806130, 36885.440559
 776.148807, 36848.291794
 776.493060, 36810.909387
 776.835403, 36773.672112
 777.178569, 36736.283010
 777.523109, 36698.681618
 777.869173, 36660.851036
 778.214658, 36623.020770
 778.560211, 36585.120512
 778.906779, 36547.045978
 779.253378, 36508.905394
 779.600625, 36470.630463
 779.947830, 36432.297494
 780.293879, 36394.029765
 780.641777, 36355.494974
 780.991480, 36316.697035
 781.339686, 36278.002526
 781.689281, 36239.090673
 782.040371, 36199.949192
 782.390143, 36160.891731
 782.740572, 36121.698057
 783.091651, 36082.368675
 783.443433, 36042.897406
 783.794962, 36003.391608
 784.147915, 35963.662677
 784.501943, 35923.749159
 784.856288, 35883.736492
 785.211966, 35843.509407
 785.566034, 35803.401173
 785.921279, 35763.096150
 786.275665, 35722.825616
 786.631716, 35682.302401
 786.988559, 35641.625501
 787.347048, 35600.697079
 787.704191, 35559.858720
 788.060765, 35519.022181
 788.419526, 35477.871607
 788.778652, 35436.615434
 789.138158, 35395.251892
 789.498606, 35353.716061
 789.858885, 35312.135805
 790.221053, 35270.273521
 790.582298, 35228.453974
 790.944030, 35186.514163
 791.307343, 35144.326883
 791.671256, 35102.005614
 792.034091, 35059.745826
 792.399456, 35017.126996
 792.764340, 34974.499845
 793.129415, 34931.786251
 793.494539, 34889.002775
 793.567598, 34880.434438
 793.731212, 34861.236499
 793.745009, 34859.616935
 793.756054, 34858.320398
 793.765263, 34857.239410
 793.771464, 34856.511414
 793.776909, 34855.872213
 793.782055, 34855.268055
 793.786610, 34854.733283
 793.788225, 34854.543717
 793.789208, 34854.428341
 793.789796, 34854.359741
 793.790331, 34854.297404
 793.794364, 34853.827731
 793.810256, 34851.977231
 793.860316, 34846.147063
 794.053992, 34823.579405
 794.372697, 34786.403800
 794.741757, 34743.293213
 795.109766, 34700.240324
 795.479173, 34656.958364
 795.849199, 34613.538579
 796.218708, 34570.114121
 796.588130, 34526.634752
 796.957792, 34483.062320
 797.327920, 34439.369980
 797.699270, 34395.468187
 798.070587, 34351.505122
 798.445248, 34307.080367
 798.817615, 34262.862212
 799.190734, 34218.489480
 799.565124, 34173.900059
 799.940980, 34129.070287
 800.316651, 34084.196693
 800.695113, 34038.923483
 801.071684, 33993.810447
 801.448411, 33948.613187
 801.826798, 33903.150635
 802.206703, 33857.439510
 802.334249, 33842.077934
 802.587507, 33811.553575
 802.968177, 33765.617302
 803.350358, 33719.432107
 803.731213, 33673.340848
 804.113142, 33627.053238
 804.496881, 33580.479548
 804.879592, 33533.964123
 805.264264, 33487.143601
 805.650432, 33440.074007
 806.037807, 33392.789797
 806.423715, 33345.617757
 806.810224, 33298.305326
 807.197539, 33250.827344
 807.586066, 33203.133532
 807.975144, 33155.305005
 808.366637, 33107.111694
 808.758068, 33058.858336
 809.147954, 33010.728087
 809.540655, 32962.182829
 809.932450, 32913.682033
 810.324488, 32865.083831
 810.718004, 32816.234916
 811.113362, 32767.089427
 811.508717, 32717.876223
 811.906878, 32668.245268
 812.306004, 32618.425185
 812.703768, 32568.706805
 813.102384, 32518.813549
 813.501185, 32468.828752
 813.903598, 32418.322361
 814.306651, 32367.666215
 814.709440, 32316.974105
 815.111955, 32266.247664
 815.516583, 32215.185674
 815.923205, 32163.802376
 816.329489, 32112.392068
 816.737313, 32060.717122
 817.143573, 32009.171016
 817.550588, 31957.459841
 817.959408, 31905.449771
 818.369868, 31853.161146
 818.781531, 31800.648881
 819.193060, 31748.083672
 819.606844, 31695.159982
 820.019205, 31642.348080
 820.432436, 31589.354846
 820.845850, 31536.268061
 821.260172, 31482.994683
 821.676382, 31429.408111
 822.093487, 31375.635763
 822.509788, 31321.896844
 822.928176, 31267.817816
 823.345254, 31213.838115
 823.763822, 31159.595278
 824.187300, 31104.644579
 824.610071, 31049.714279
 825.031598, 30994.874667
 825.454987, 30939.721908
 825.881223, 30884.126439
 826.306693, 30828.559243
 826.733100, 30772.798247
 827.159100, 30717.019114
 827.583243, 30661.412524
 828.010643, 30605.307837
 828.441249, 30548.710439
 828.872208, 30491.994529
 829.303775, 30435.126522
 829.734926, 30378.241582
 830.167918, 30321.041693
 830.600368, 30263.841683
 831.030414, 30206.888546
 831.468112, 30148.849783
 831.900604, 30091.429582
 832.339892, 30033.034567
 832.779344, 29974.544668
 833.216829, 29916.244331
 833.656336, 29857.602114
 834.095315, 29798.958124
 834.536657, 29739.925838
 834.978378, 29680.770359
 835.424951, 29620.891236
 835.870136, 29561.124901
 836.318280, 29500.887450
 836.766405, 29440.578692
 837.212508, 29380.468947
 837.659293, 29320.194443
 838.109989, 29259.318423
 838.560623, 29198.377198
 839.011997, 29137.262219
 839.460966, 29076.399748
 839.912970, 29015.052702
 840.365940, 28953.501075
 840.821713, 28891.494556
 841.275586, 28829.672869
 841.734095, 28767.145589
 842.190218, 28704.869684
 842.648987, 28642.158582
 843.105017, 28579.748546
 843.564025, 28516.857206
 844.025111, 28453.607119
 844.486170, 28390.286812
 844.950928, 28326.383710
 845.415087, 28262.488474
 845.879878, 28198.431765
 846.346671, 28134.024481
 846.806892, 28070.451023
 847.277042, 28005.431331
 847.746086, 27940.489792
 848.217440, 27875.153238
 848.688404, 27809.795690
 849.157708, 27744.594459
 849.631007, 27678.763237
 850.107441, 27612.420569
 850.582596, 27546.180500
 851.056193, 27480.083204
 851.532774, 27413.494579
 852.008429, 27346.960702
 852.483119, 27280.487884
 852.960368, 27213.582303
 853.441080, 27146.116227
 853.921398, 27078.630369
 854.401813, 27011.056374
 854.887283, 26942.695712
 855.370906, 26874.519868
 855.856863, 26805.939712
 856.346203, 26736.805884
 856.835727, 26667.570173
 857.319962, 26599.007780
 857.805904, 26530.129319
 858.299046, 26460.154662
 858.789236, 26390.523377
 859.280475, 26320.667915
 859.775092, 26250.256511
 860.265230, 26180.408055
 860.758829, 26109.991614
 861.254388, 26039.220283
 861.751973, 25968.084032
 862.249459, 25896.886711
 862.747001, 25825.606117
 863.245191, 25754.157855
 863.746069, 25682.248875
 864.245856, 25610.421456
 864.745210, 25538.581852
 865.251532, 25465.664204
 865.757155, 25392.771328
 866.261224, 25320.027446
 866.767475, 25246.893609
 867.278323, 25173.019705
 867.788915, 25099.106917
 868.299922, 25025.058379
 868.810266, 24951.030548
 869.322512, 24876.651461
 869.833255, 24802.415805
 870.344841, 24727.983179
 870.863235, 24652.484066
 871.379336, 24577.243415
 871.897334, 24501.650855
 872.411296, 24426.572919
 872.930124, 24350.709393
 873.450732, 24274.510419
 873.967955, 24198.732565
 874.494118, 24121.569413
 875.017390, 24044.754825
 875.540870, 23967.834936
 876.066708, 23890.493602
 876.590180, 23813.425916
 877.112773, 23736.414056
 877.639078, 23658.781212
 878.162731, 23581.466075
 878.691365, 23503.341638
 879.220907, 23425.008829
 879.751535, 23346.441417
 880.282408, 23267.764019
 880.810986, 23189.353567
 881.345190, 23110.034912
 881.879122, 23030.682892
 882.414548, 22951.035213
 882.949219, 22871.426799
 883.487219, 22791.249038
 884.026324, 22710.833113
 884.565138, 22630.387306
 885.103770, 22549.895980
 885.645452, 22468.875690
 886.186214, 22387.920273
 886.729206, 22306.558193
 887.269536, 22225.523113
 887.815597, 22143.555835
 888.364929, 22061.024303
 888.913714, 21978.501913
 889.459070, 21896.423185
 890.011205, 21813.251525
 890.558450, 21730.744658
 891.106826, 21647.995962
 891.656656, 21564.956615
 892.210458, 21481.245572
 892.763750, 21397.540099
 893.317575, 21313.682783
 893.873613, 21229.418828
 894.426931, 21145.496693
 894.984400, 21060.874087
 895.540647, 20976.366445
 896.101787, 20891.044630
 896.658396, 20806.341755
 897.220362, 20720.753231
 897.780649, 20635.350523
 898.345987, 20549.107538
 898.906446, 20463.539444
 899.467780, 20377.768918
 900.032940, 20291.344418
 900.595074, 20205.314137
 901.158427, 20119.029304
 901.725047, 20032.175381
 902.288282, 19945.772922
 902.860584, 19857.910742
 903.423843, 19771.369725
 903.986517, 19684.852506
 904.555921, 19597.233415
 905.124516, 19509.672202
 905.696832, 19421.470931
 906.269802, 19333.102045
 906.843726, 19244.519140
 907.416353, 19156.070493
 907.990985, 19067.246187
 908.571000, 18977.523203
 909.151263, 18887.695211
 909.732458, 18797.656764
 910.311303, 18707.916743
 910.892445, 18617.755306
 911.471130, 18527.910496
 912.054161, 18437.326075
 912.631192, 18347.610216
 913.216170, 18256.594711
 913.798182, 18165.976815
 914.388038, 18074.073265
 914.974533, 17982.629494
 915.556513, 17891.827167
 916.146517, 17799.709657
 916.730790, 17708.424968
 917.319315, 17616.413609
 917.913205, 17523.500616
 918.501529, 17431.396796
 919.095384, 17338.365102
 919.684982, 17245.939294
 920.274944, 17153.395776
 920.872535, 17059.594412
 921.465016, 16966.534690
 922.056361, 16873.593967
 922.644320, 16781.126744
 923.240918, 16687.241744
 923.838287, 16593.176046
 924.440139, 16498.344812
 925.034970, 16404.561546
 925.635612, 16309.803651
 926.232023, 16215.655670
 926.835044, 16120.406423
 927.437086, 16025.254175
 928.037633, 15930.281247
 928.634498, 15835.834862
 929.237805, 15740.312921
 929.842661, 15644.489485
 930.451003, 15548.057358
 931.051104, 15452.876782
 931.655920, 15356.893745
 932.260898, 15260.830463
 932.867338, 15164.480877
 933.476806, 15067.595864
 934.085816, 14970.729917
 934.697941, 14873.314813
 935.311406, 14775.632747
 935.922838, 14678.221436
 936.535993, 14580.483122
 937.149532, 14482.631371
 937.758889, 14385.395304
 938.372892, 14287.366777
 938.985178, 14189.561627
 939.592719, 14092.464674
 940.204810, 13994.591247
 940.818906, 13896.347691
 941.434460, 13797.821672
 942.051231, 13699.051986
 942.672380, 13599.532025
 943.290709, 13500.415649
 943.905504, 13401.818140
 944.522793, 13302.773637
 945.140199, 13203.663642
 945.754720, 13104.970889
 946.366242, 13006.714817
 946.996196, 12905.450581
 947.614714, 12805.979178
 948.241655, 12705.107874
 948.861677, 12605.305286
 949.484005, 12505.087398
 950.105207, 12405.007407
 950.730858, 12304.167163
 951.356555, 12203.276399
 951.984190, 12102.030354
 952.610922, 12000.887634
 953.233857, 11900.316341
 953.861441, 11798.953023
 954.487366, 11697.817090
 955.118360, 11595.821348
 955.326366, 11562.189647
