Time, Horizontal Forces
   0.000000,    0.000000
   0.000001,    0.000000
   0.000008,    0.000000
   0.000068,    0.000000
   0.000376,    0.000000
   0.001629,    0.000000
   0.005674,    0.000000
   0.012932,    0.000000
   0.023139,    0.000000
   0.036371,    0.000000
   0.052579,    0.000000
   0.071901,    0.000000
   0.094179,    0.000000
   0.119921,    0.000000
   0.148605,    0.000000
   0.180406,    0.000000
   0.215577,    0.000000
   0.253934,    0.000000
   0.296115,    0.000000
   0.341469,    0.000000
   0.390948,    0.000000
   0.443519,    0.000000
   0.500353,    0.000000
   0.560612,    0.000000
   0.624614,    0.000000
   0.693288,    0.000000
   0.766233,    0.000000
   0.843465,    0.000000
   0.924873,    0.000000
   1.010687,    0.000000
   1.099421,    0.000000
   1.195421,    0.000000
   1.294466,    0.000000
   1.397412,    0.000000
   1.507318,    0.000000
   1.620683,    0.000000
   1.739840,    0.000000
   1.863999,    0.000000
   1.992648,    0.000000
   2.127114,    0.000000
   2.266895,    0.000000
   2.416500,    0.000000
   2.572025,    0.000000
   2.730648,    0.000000
   2.895777,    0.000000
   3.066435,    0.000000
   3.247398,    0.000000
   3.433364,    0.000000
   3.626345,    0.000000
   3.823491,    0.000000
   4.030598,    0.000000
   4.242461,    0.000000
   4.464191,    0.000000
   4.689186,    0.000000
   4.923861,    0.000000
   5.165146,    0.000000
   5.414923,    0.000000
   5.675699,    0.000000
   5.941125,    0.000000
   6.216093,    0.000000
   6.502196,    0.000000
   6.794785,    0.000000
   7.094353,    0.000000
   7.409885,    0.000000
   7.727555,    0.000000
   8.053259,    0.000000
   8.389857,    0.000000
   8.734597,    0.000000
   9.091072,    0.000000
   9.457180,    0.000000
   9.833751,    0.000000
  10.215639,    0.000000
  10.610860,    0.000000
  11.015879,    0.000000
  11.435818,    0.000000
  11.863083,    0.000000
  12.297256,    0.000000
  12.744259,    0.000000
  13.197995,    0.000000
  13.667272,    0.000000
  14.144232,    0.000000
  14.634496,    0.000000
  15.142782,    0.000000
  15.661756,    0.000000
  16.188372,    0.000000
  16.724372,    0.000000
  17.275894,    0.000000
  17.834685,    0.000000
  18.405777,    0.000000
  18.992572,    0.000000
  19.592063,    0.000000
  20.201946,    0.000000
  20.820330,    0.000000
  21.458507,    0.000000
  22.115148,    0.000000
  22.774651,    0.000000
  23.451818,    0.000000
  24.138564,    0.000000
  24.845499,    0.000000
  24.989075,    0.000000
  25.058761,    0.000000
  25.099251,    0.000000
  25.129408,    0.000000
  25.155407,    0.000000
  25.176955,    0.000000
  25.193538,    0.000000
  25.206344,    0.000000
  25.217821,    0.000000
  25.218449,    0.000000
  25.219410,    0.000000
  25.219589,    0.000000
  25.219681,    0.000000
  25.219737,    0.000000
  25.219795,    0.000000
  25.220382,    0.000000
  25.225945,    0.000000
  25.253033,    0.000000
  25.369592,    0.000000
  25.682392,    0.000000
  26.335498,    0.000000
  26.991817,    0.000000
  27.666389,    0.000000
  28.352585,    0.000000
  29.046467,    0.000000
  29.758262,    0.000000
  30.473459,    0.000000
  31.204356,    0.000000
  31.942410,    0.000000
  32.697867,    0.000000
  33.470302,    0.000000
  34.250494,    0.000000
  35.042717,    0.000000
  35.847304,    0.000000
  36.660426,    0.000000
  37.487874,    0.000000
  38.323114,    0.000000
  39.175468,    0.000000
  40.042342,    0.000000
  40.923066,    0.000000
  41.810544,    0.000000
  42.714569,    0.000000
  43.634369,    0.000000
  44.566333,    0.000000
  45.510094,    0.000000
  46.470033,    0.000000
  47.441570,    0.000000
  48.425957,    0.000000
  49.429581,    0.000000
  50.442012,    0.000000
  51.467577,    0.000000
  52.505204,    0.000000
  53.561282,    0.000000
  54.628860,    0.000000
  55.720969,    0.000000
  56.819577,    0.000000
  57.929597,    0.000000
  59.056437,    0.000000
  60.198197,    0.000000
  61.354754,    0.000000
  62.525326,    0.000000
  63.710512,    0.000000
  64.904166,    0.000000
  66.126181,    0.000000
  67.357491,    0.000000
  68.608279,    0.000000
  69.866102,    0.000000
  71.144085,    0.000000
  72.438592,    0.000000
  73.752854,    0.000000
  75.088809,    0.000000
  76.432812,    0.000000
  77.791291,    0.000000
  79.164793,    0.000000
  80.554034,    0.000000
  81.970057,    0.000000
  83.402546,    0.000000
  84.843731,    0.000000
  86.299112,    0.000000
  87.778572,    0.000000
  89.268872,    0.000000
  90.773572,    0.000000
  92.298460,    0.000000
  93.844971,    0.000000
  95.408815,    0.000000
  96.993151,    0.000000
  98.587746,    0.000000
 100.202161,    0.000000
 101.833396,    0.000000
 103.482491,    0.000000
 103.813863,    0.000000
 104.051008,    0.000000
 104.211425,    0.000000
 104.345400,    0.000000
 104.453769,    0.000000
 104.469663,    0.000000
 104.485368,    0.000000
 104.502447,    0.000000
 104.502965,    0.000000
 104.503252,    0.000000
 104.503464,    0.000000
 104.503655,    0.000000
 104.505562,    0.000000
 104.524634,    0.000000
 104.629701,    0.000000
 105.038476,    0.000000
 106.450865,    0.000000
 107.947940,    0.000000
 109.456912,    0.000000
 110.992216,    0.000000
 112.535201,    0.000000
 114.084924,    0.000000
 115.658160,    0.000000
 117.240514,    0.000000
 118.839148,    0.000000
 120.456883,    0.000000
 122.081395,    0.000000
 123.728372,    0.000000
 125.389436,    0.000000
 127.061857,    0.000000
 128.760337,    0.000000
 130.465178,    0.000000
 132.187618,    0.000000
 133.930351,    0.000000
 135.686106,    0.000000
 137.457931,    0.000000
 139.239018,    0.000000
 141.043136,    0.000000
 142.852713,    0.000000
 144.682498,    0.000000
 146.533217,    0.000000
 148.393215,    0.000000
 150.261111,    0.000000
 152.151711,    0.000000
 154.052750,    0.000000
 155.977073,    0.000000
 157.915876,    0.000000
 159.869524,    0.000000
 161.848105,    0.000000
 163.837914,    0.000000
 165.852250,    0.000000
 167.872997,    0.000000
 169.912365,    0.000000
 171.962175,    0.000000
 174.027893,    0.000000
 176.124800,    0.000000
 178.236722,    0.000000
 180.357537,    0.000000
 182.497926,    0.000000
 184.653282,    0.000000
 186.819851,    0.000000
 189.006739,    0.000000
 191.216099,    0.000000
 193.431656,    0.000000
 195.672350,    0.000000
 197.928128,    0.000000
 200.197984,    0.000000
 202.494163,    0.000000
 204.806358,    0.000000
 207.130950,    0.000000
 209.474190,    0.000000
 211.836270,    0.000000
 214.213488,    0.000000
 216.608548,    0.000000
 219.025254,    0.000000
 221.460514,    0.000000
 223.907832,    0.000000
 226.374008,    0.000000
 228.852303,    0.000000
 231.356668,    0.000000
 233.872045,    0.000000
 236.425095,    0.000000
 238.984424,    0.000000
 241.558891,    0.000000
 244.149772,    0.000000
 244.671889,    0.000000
 245.022365,    0.000000
 245.330565,    0.000000
 246.302470,    0.000000
 246.321825,    0.000000
 246.346073,    0.000000
 246.351889,    0.000000
 246.361934,    0.000000
 246.364983,    0.000000
 246.365553,    0.000000
 246.365808,    0.000000
 246.366112,    0.000000
 246.369152,    0.000000
 246.396320,    0.000000
 246.564389,    0.000000
 247.533544,    0.000000
 249.877048,    0.000000
 252.176161,    0.000000
 254.491104,    0.000000
 256.829919,    0.000000
 259.182640,    0.000000
 261.541597,    0.000000
 263.919913,    0.000000
 266.305130,    0.000000
 268.712648,    0.000000
 271.131854,    0.000000
 273.568807,    0.000000
 276.019994,    0.000000
 278.484319,    0.000000
 280.962469,    0.000000
 283.452571,    0.000000
 285.962368,    0.000000
 288.491267,    0.000000
 291.032476,    0.000000
 293.579384,    0.000000
 296.140140,    0.000000
 298.721718,    0.000000
 301.317600,    0.000000
 303.937486,    0.000000
 306.565522,    0.000000
 309.210387,    0.000000
 311.872199,    0.000000
 314.550448,    0.000000
 317.231256,    0.000000
 319.937107,    0.000000
 322.661609,    0.000000
 325.394459,    0.000000
 328.138867,    0.000000
 330.906650,    0.000000
 333.686274,    0.000000
 336.476507,    0.000000
 339.290491,    0.000000
 342.110386,    0.000000
 344.954065,    0.000000
 347.819875,    0.000000
 350.690516,    0.000000
 353.580792,    0.000000
 356.486489,    0.000000
 359.412403,    0.000000
 362.341742,    0.000000
 365.288033,    0.000000
 368.255069,    0.000000
 371.234634,    0.000000
 374.230612,    0.000000
 377.248301,    0.000000
 380.277962,    0.000000
 383.327919,    0.000000
 386.389159,    0.000000
 389.480902,    0.000000
 392.579162,    0.000000
 395.692346,    0.000000
 398.824193,    0.000000
 401.965686,    0.000000
 405.123853,    0.000000
 408.300007,    0.000000
 411.497532,    0.000000
 414.707614,    0.000000
 417.923558,    0.000000
 421.174388,    0.000000
 424.432838,    0.000000
 427.704970,    0.000000
 430.996582,    0.000000
 434.312487,    0.000000
 437.633702,    0.000000
 440.971227,    0.000000
 444.326033,    0.000000
 447.698309,    0.000000
 451.089574,    0.000000
 454.498450,    0.000000
 457.927534,    0.000000
 461.365119,    0.000000
 464.825593,    0.000000
 465.518998,    0.000000
 466.100752,    0.000000
 466.554708,    0.000000
 466.572646,    0.000000
 466.607714,    0.000000
 466.618385,    0.000000
 466.621308,    0.000000
 466.623775,    0.000000
 466.626009,    0.000000
 466.648342,    0.000000
 466.819267,    0.000000
 467.780252,    0.000000
 470.792177,    0.000000
 474.284343,    0.000000
 477.780734,    0.000000
 481.304371,    0.000000
 484.830261,    0.000000
 488.384410,    0.000000
 491.943789,    0.000000
 495.526631,    0.000000
 499.125529,    0.000000
 502.742248,    0.000000
 506.385023,    0.000000
 510.047754,    0.000000
 513.720257,    0.000000
 517.400191,    0.000000
 521.112418,    0.000000
 524.829275,    0.000000
 528.577370,    0.000000
 532.337284,    0.000000
 536.112850,    0.000000
 539.908712,    0.000000
 543.722086,    0.000000
 547.544190,    0.000000
 551.387281,    0.000000
 555.246574,    0.000000
 559.123308,    0.000000
 563.021507,    0.000000
 566.936677,    0.000000
 570.869174,    0.000000
 574.816288,    0.000000
 578.775214,    0.000000
 582.759106,    0.000000
 586.757901,    0.000000
 590.781255,    0.000000
 594.819222,    0.000000
 598.868666,    0.000000
 602.936836,    0.000000
 607.033950,    0.000000
 611.135697,    0.000000
 615.264779,    0.000000
 619.407469,    0.000000
 623.571907,    0.000000
 624.648329,    0.000000
 627.752257,    0.000000
 631.945457,    0.000000
 636.164179,    0.000000
 640.410585,    0.000000
 644.680623,    0.000000
 648.962625,    0.000000
 653.265189,    0.000000
 657.592216,    0.000000
 661.948888,    0.000000
 666.310983,    0.000000
 670.703998,    0.000000
 675.107859,    0.000000
 679.537475,    0.000000
 683.982555,    0.000000
 688.448277,    0.000000
 692.931519,    0.000000
 697.430580,    0.000000
 701.933542,    0.000000
 706.459170,    0.000000
 710.988691,    0.000000
 715.543385,    0.000000
 720.110498,    0.000000
 724.691959,    0.000000
 729.288077,    0.000000
 733.901559,    0.000000
 738.521323,    0.000000
 743.150146,    0.000000
 747.791912,    0.000000
 748.105212,   11.358436
 748.418775,   22.952049
 748.730957,   34.719131
 749.043925,   46.739864
 749.358038,   59.029849
 749.671672,   71.526425
 749.986153,   84.282251
 750.301275,   97.290372
 750.616368,  110.523773
 750.931755,  123.995962
 751.247401,  137.705796
 751.563142,  151.646343
 751.879212,  165.828147
 752.195366,  180.240421
 752.510635,  194.838153
 752.827835,  209.751908
 753.143948,  224.841211
 753.461489,  240.225617
 753.777218,  255.748311
 754.095264,  271.611547
 754.412828,  287.678146
 754.729443,  303.922890
 755.046852,  320.434227
 755.364169,  337.166942
 755.681648,  354.134097
 756.001009,  371.429139
 756.320458,  388.957283
 756.641032,  406.776203
 756.961708,  424.830329
 757.282220,  443.104470
 757.603383,  461.645134
 757.925146,  480.450526
 758.247257,  499.506671
 758.569224,  518.784684
 758.892048,  538.344604
 759.214526,  558.114244
 759.537987,  578.175157
 759.861140,  598.448049
 760.184278,  618.950702
 760.506942,  639.653203
 760.831703,  660.721403
 761.155906,  681.985165
 761.480734,  703.521524
 761.806456,  725.349700
 762.132202,  747.412269
 762.457006,  769.642854
 762.782189,  792.130588
 763.105866,  814.744206
 763.432624,  837.804486
 763.760622,  861.186187
 764.088015,  884.758715
 764.416658,  908.655660
 764.745870,  932.829293
 765.074391,  957.186984
 765.402838,  981.773297
 765.732063, 1006.652308
 766.061791, 1031.804362
 766.392275, 1057.249794
 766.723634, 1082.999158
 767.053551, 1108.872120
 767.383952, 1135.017977
 767.715658, 1161.503150
 768.046470, 1188.152779
 768.378868, 1215.166430
 768.713112, 1242.568582
 769.047100, 1270.188872
 769.379121, 1297.883635
 769.714026, 1326.056802
 770.048081, 1354.397316
 770.382123, 1382.974649
 770.717381, 1411.894661
 771.053506, 1441.129298
 771.390694, 1470.697368
 771.728668, 1500.576185
 772.065294, 1530.576949
 772.403231, 1560.935582
 772.742778, 1591.681594
 773.081711, 1622.615087
 773.420782, 1653.629531
 773.761509, 1684.864324
 774.100728, 1716.029212
 774.440831, 1747.343827
 774.781830, 1778.809518
 775.123251, 1810.382930
 775.463784, 1841.942627
 775.806130, 1873.739084
 776.148807, 1905.635238
 776.493060, 1937.747384
 776.835403, 1969.750117
 777.178569, 2001.898566
 777.523109, 2034.244854
 777.869173, 2066.803702
 778.214658, 2099.377635
 778.560211, 2132.027150
 778.906779, 2164.842141
 779.253378, 2197.729392
 779.600625, 2230.747825
 779.947830, 2263.831641
 780.293879, 2296.874351
 780.641777, 2330.162920
 780.991480, 2363.694198
 781.339686, 2397.151376
 781.689281, 2430.811792
 782.040371, 2464.686251
 782.390143, 2498.503310
 782.740572, 2532.453599
 783.091651, 2566.536755
 783.443433, 2600.758209
 783.794962, 2635.024901
 784.147915, 2669.500488
 784.501943, 2704.151672
 784.856288, 2738.904359
 785.211966, 2773.858762
 785.566034, 2808.725264
 785.921279, 2843.778216
 786.275665, 2878.816485
 786.631716, 2914.089972
 786.988559, 2949.512652
 787.347048, 2985.169873
 787.704191, 3020.764051
 788.060765, 3056.371960
 788.419526, 3092.269109
 788.778652, 3128.273823
 789.138158, 3164.387685
 789.498606, 3200.667448
 789.858885, 3237.001468
 790.221053, 3273.597468
 790.582298, 3310.171589
 790.944030, 3346.866348
 791.307343, 3383.793162
 791.671256, 3420.852830
 792.034091, 3457.874143
 792.399456, 3495.225576
 792.764340, 3532.599876
 793.129415, 3570.065508
 793.494539, 3607.607949
 793.567598, 3615.128512
 793.731212, 3631.981088
 793.745009, 3633.402935
 793.756054, 3634.541207
 793.765263, 3635.490253
 793.771464, 3636.129397
 793.776909, 3636.690587
 793.782055, 3637.221014
 793.786610, 3637.690526
 793.788225, 3637.856959
 793.789208, 3637.958255
 793.789796, 3638.018863
 793.790331, 3638.074046
 793.794364, 3638.489816
 793.810256, 3640.127956
 793.860316, 3645.289244
 794.053992, 3665.270335
 794.372697, 3698.193951
 794.741757, 3736.387467
 795.109766, 3774.544514
 795.479173, 3812.919261
 795.849199, 3851.430917
 796.218708, 3889.961375
 796.588130, 3928.555168
 796.957792, 3967.246158
 797.327920, 4006.058213
 797.699270, 4045.070967
 798.070587, 4084.152801
 798.445248, 4123.659858
 798.817615, 4162.997879
 799.190734, 4202.488078
 799.565124, 4242.185841
 799.940980, 4282.112386
 800.316651, 4322.092742
 800.695113, 4362.444052
 801.071684, 4402.667424
 801.448411, 4442.980655
 801.826798, 4483.545342
 802.206703, 4524.346745
 802.334249, 4538.061717
 802.587507, 4565.319154
 802.968177, 4606.351461
 803.350358, 4647.621121
 803.731213, 4688.821765
 804.113142, 4730.212855
 804.496881, 4771.874787
 804.879592, 4813.499564
 805.264264, 4855.412391
 805.650432, 4897.563305
 806.037807, 4939.921602
 806.423715, 4982.194510
 806.810224, 5024.608301
 807.197539, 5067.185601
 807.586066, 5109.971605
 807.975144, 5152.893639
 808.366637, 5196.158334
 808.758068, 5239.492243
 809.147954, 5282.730779
 809.540655, 5326.357431
 809.932450, 5369.959384
 810.324488, 5413.664127
 810.718004, 5457.609618
 811.113362, 5501.837298
 811.508717, 5546.141306
 811.906878, 5590.836914
 812.306004, 5635.718443
 812.703768, 5680.523856
 813.102384, 5725.502362
 813.501185, 5770.578885
 813.903598, 5816.141459
 814.306651, 5861.854879
 814.709440, 5907.616470
 815.111955, 5953.424715
 815.516583, 5999.551722
 815.923205, 6045.984857
 816.329489, 6092.458259
 816.737313, 6139.186796
 817.143573, 6185.814643
 817.550588, 6232.607606
 817.959408, 6279.686922
 818.369868, 6327.034369
 818.781531, 6374.600376
 819.193060, 6422.230376
 819.606844, 6470.201334
 820.019205, 6518.087027
 820.432436, 6566.153190
 820.845850, 6614.320252
 821.260172, 6662.672687
 821.676382, 6711.325553
 822.093487, 6760.163312
 822.509788, 6808.986871
 822.928176, 6858.135666
 823.345254, 6907.210356
 823.763822, 6956.540466
 824.187300, 7006.530807
 824.610071, 7056.519089
 825.031598, 7106.441224
 825.454987, 7156.664858
 825.881223, 7207.308240
 826.306693, 7257.942446
 826.733100, 7308.769836
 827.159100, 7359.630307
 827.583243, 7410.349851
 828.010643, 7461.540238
 828.441249, 7513.196918
 828.872208, 7564.978555
 829.303775, 7616.915854
 829.734926, 7668.885374
 830.167918, 7721.159448
 830.600368, 7773.450425
 831.030414, 7825.532325
 831.468112, 7878.623973
 831.900604, 7931.166572
 832.339892, 7984.618230
 832.779344, 8038.173899
 833.216829, 8091.573012
 833.656336, 8145.302326
 834.095315, 8199.050303
 834.536657, 8253.171291
 834.978378, 8307.422390
 835.424951, 8362.354565
 835.870136, 8417.200675
 836.318280, 8472.496638
 836.766405, 8527.875600
 837.212508, 8583.089208
 837.659293, 8638.471513
 838.109989, 8694.424079
 838.560623, 8750.454183
 839.011997, 8806.661654
 839.460966, 8862.654351
 839.912970, 8919.110405
 840.365940, 8975.772365
 840.821713, 9032.870868
 841.275586, 9089.816866
 841.734095, 9147.430707
 842.190218, 9204.830742
 842.648987, 9262.649791
 843.105017, 9320.209010
 843.564025, 9378.229961
 844.025111, 9436.599861
 844.486170, 9495.052552
 844.950928, 9554.061410
 845.415087, 9613.081181
 845.879878, 9672.268273
 846.346671, 9731.797555
 846.806892, 9790.574049
 847.277042, 9850.705957
 847.746086, 9910.783990
 848.217440, 9971.245938
 848.688404, 10031.745787
 849.157708, 10092.119271
 849.631007, 10153.094602
 850.107441, 10214.562386
 850.582596, 10275.953794
 851.056193, 10337.231416
 851.532774, 10398.983186
 852.008429, 10460.702802
 852.483119, 10522.384287
 852.960368, 10584.485948
 853.441080, 10647.126689
 853.921398, 10709.804636
 854.401813, 10772.583246
 854.887283, 10836.111767
 855.370906, 10899.487561
 855.856863, 10963.258298
 856.346203, 11027.563184
 856.835727, 11091.982190
 857.319962, 11155.793730
 857.805904, 11219.918410
 858.299046, 11285.083027
 858.789236, 11349.947208
 859.280475, 11415.039520
 859.775092, 11480.669356
 860.265230, 11545.793731
 860.758829, 11611.467017
 861.254388, 11677.490779
 861.751973, 11743.874597
 862.249459, 11810.335022
 862.747001, 11876.892765
 863.245191, 11943.626658
 863.746069, 12010.810598
 864.245856, 12077.938022
 864.745210, 12145.096438
 865.251532, 12213.282626
 865.757155, 12281.465688
 866.261224, 12349.529281
 866.767475, 12417.977703
 867.278323, 12487.139027
 867.788915, 12556.357043
 868.299922, 12625.722461
 868.810266, 12695.088693
 869.322512, 12764.804339
 869.833255, 12834.405739
 870.344841, 12904.211991
 870.863235, 12975.039011
 871.379336, 13045.644096
 871.897334, 13116.599975
 872.411296, 13187.093128
 872.930124, 13258.344404
 873.450732, 13329.931410
 873.967955, 13401.143263
 874.494118, 13473.677852
 875.017390, 13545.905667
 875.540870, 13618.253298
 876.066708, 13691.018239
 876.590180, 13763.546510
 877.112773, 13836.042900
 877.639078, 13909.144690
 878.162731, 13981.968025
 878.691365, 14055.574564
 879.220907, 14129.398465
 879.751535, 14203.464557
 880.282408, 14277.655428
 880.810986, 14351.615506
 881.345190, 14426.453427
 881.879122, 14501.344079
 882.414548, 14576.535068
 882.949219, 14651.710244
 883.487219, 14727.444468
 884.026324, 14803.425160
 884.565138, 14879.455563
 885.103770, 14955.550416
 885.645452, 15032.166914
 886.186214, 15108.743614
 886.729206, 15185.726612
 887.269536, 15262.421695
 887.815597, 15340.020791
 888.364929, 15418.176092
 888.913714, 15496.344755
 889.459070, 15574.114936
 890.011205, 15652.942753
 890.558450, 15731.162387
 891.106826, 15809.633109
 891.656656, 15888.401361
 892.210458, 15967.828898
 892.763750, 16047.273308
 893.317575, 16126.883977
 893.873613, 16206.902951
 894.426931, 16286.619432
 894.984400, 16367.023551
 895.540647, 16447.340687
 896.101787, 16528.454111
 896.658396, 16609.001405
 897.220362, 16690.413378
 897.780649, 16771.671059
 898.345987, 16853.750930
 898.906446, 16935.210960
 899.467780, 17016.886100
 900.032940, 17099.206601
 900.595074, 17181.174079
 901.158427, 17263.406547
 901.725047, 17346.204027
 902.288282, 17428.593609
 902.860584, 17512.398043
 903.423843, 17594.964866
 903.986517, 17677.531274
 904.555921, 17761.171889
 905.124516, 17844.779962
 905.696832, 17929.022081
 906.269802, 18013.447259
 906.843726, 18098.099915
 907.416353, 18182.647191
 907.990985, 18267.576542
 908.571000, 18353.388484
 909.151263, 18439.324271
 909.732458, 18525.484839
 910.311303, 18611.383127
 910.892445, 18697.708146
 911.471130, 18783.753233
 912.054161, 18870.530058
 912.631192, 18956.497933
 913.216170, 19043.734594
 913.798182, 19130.613538
 914.388038, 19218.748859
 914.974533, 19306.466948
 915.556513, 19393.593056
 916.146517, 19482.004791
 916.730790, 19569.640687
 917.319315, 19657.997799
 917.913205, 19747.244710
 918.501529, 19835.738092
 919.095384, 19925.146886
 919.684982, 20013.997126
 920.274944, 20102.984167
 920.872535, 20193.204800
 921.465016, 20282.736005
 922.056361, 20372.176428
 922.644320, 20461.184635
 923.240918, 20551.581458
 923.838287, 20642.176335
 924.440139, 20733.532829
 925.034970, 20823.903722
 925.635612, 20915.237931
 926.232023, 21006.008247
 926.835044, 21097.864593
 927.437086, 21189.651713
 928.037633, 21281.290040
 928.634498, 21372.444217
 929.237805, 21464.660650
 929.842661, 21557.192537
 930.451003, 21650.336813
 931.051104, 21742.296364
 931.655920, 21835.055465
 932.260898, 21927.916441
 932.867338, 22021.078570
 933.476806, 22114.782991
 934.085816, 22208.493560
 934.697941, 22302.760139
 935.311406, 22397.309912
 935.922838, 22491.622351
 936.535993, 22586.276168
 937.149532, 22681.064654
 937.758889, 22775.281270
 938.372892, 22870.290453
 938.985178, 22965.107818
 939.592719, 23059.262955
 940.204810, 23154.195532
 940.818906, 23249.511795
 941.434460, 23345.126888
 942.051231, 23441.003314
 942.672380, 23537.633166
 943.290709, 23633.896177
 943.905504, 23729.679989
 944.522793, 23825.922826
 945.140199, 23922.254124
 945.754720, 24018.204505
 946.366242, 24113.754709
 946.996196, 24212.255633
 947.614714, 24309.037700
 948.241655, 24407.207132
 948.861677, 24504.361514
 949.484005, 24601.945196
 950.105207, 24699.419580
 950.730858, 24797.659626
 951.356555, 24895.974161
 951.984190, 24994.660273
 952.610922, 25093.271004
 953.233857, 25191.349677
 953.861441, 25290.225991
 954.487366, 25388.905720
 955.118360, 25488.449848
 955.326366, 25521.278764
