Time, Horizontal Forces
   0.000000,    0.000000
   0.000001,    0.000000
   0.000017,    0.000000
   0.000255,    0.000000
   0.002467,    0.000000
   0.007750,    0.000000
   0.015959,    0.000000
   0.027137,    0.000000
   0.041254,    0.000000
   0.058408,    0.000000
   0.078561,    0.000000
   0.101951,    0.000000
   0.128563,    0.000000
   0.158279,    0.000000
   0.191119,    0.000000
   0.226989,    0.000000
   0.266463,    0.000000
   0.309271,    0.000000
   0.356037,    0.000000
   0.406380,    0.000000
   0.460071,    0.000000
   0.517529,    0.000000
   0.578467,    0.000000
   0.643393,    0.000000
   0.713008,    0.000000
   0.786968,    0.000000
   0.865394,    0.000000
   0.947628,    0.000000
   1.034972,    0.000000
   1.126468,    0.000000
   1.223765,    0.000000
   1.323474,    0.000000
   1.427744,    0.000000
   1.539258,    0.000000
   1.656041,    0.000000
   1.777219,    0.000000
   1.901956,    0.000000
   2.035541,    0.000000
   2.171958,    0.000000
   2.315495,    0.000000
   2.462520,    0.000000
   2.618731,    0.000000
   2.782166,    0.000000
   2.951571,    0.000000
   3.128011,    0.000000
   3.306491,    0.000000
   3.492216,    0.000000
   3.685102,    0.000000
   3.885058,    0.000000
   4.091914,    0.000000
   4.307990,    0.000000
   4.529082,    0.000000
   4.758750,    0.000000
   4.998555,    0.000000
   5.246563,    0.000000
   5.498612,    0.000000
   5.759659,    0.000000
   6.024581,    0.000000
   6.302768,    0.000000
   6.587963,    0.000000
   6.880423,    0.000000
   7.182638,    0.000000
   7.494247,    0.000000
   7.813722,    0.000000
   8.146740,    0.000000
   8.484523,    0.000000
   8.835726,    0.000000
   9.195778,    0.000000
   9.565990,    0.000000
   9.941763,    0.000000
  10.328643,    0.000000
  10.725944,    0.000000
  11.136037,    0.000000
  11.556321,    0.000000
  11.983383,    0.000000
  12.422011,    0.000000
  12.878082,    0.000000
  13.345818,    0.000000
  13.819351,    0.000000
  14.305407,    0.000000
  14.801299,    0.000000
  15.301561,    0.000000
  15.820471,    0.000000
  16.345555,    0.000000
  16.883176,    0.000000
  17.430886,    0.000000
  17.993900,    0.000000
  18.569241,    0.000000
  19.158773,    0.000000
  19.759306,    0.000000
  20.367591,    0.000000
  20.990672,    0.000000
  21.629373,    0.000000
  22.282321,    0.000000
  22.949992,    0.000000
  23.630059,    0.000000
  24.318486,    0.000000
  25.029145,    0.000000
  25.173378,    0.000000
  25.188905,    0.000000
  25.202393,    0.000000
  25.215028,    0.000000
  25.217716,    0.000000
  25.218371,    0.000000
  25.219681,    0.000000
  25.219769,    0.000000
  25.219947,    0.000000
  25.220111,    0.000000
  25.221746,    0.000000
  25.232282,    0.000000
  25.282756,    0.000000
  25.478586,    0.000000
  25.958376,    0.000000
  26.611884,    0.000000
  27.277827,    0.000000
  27.953232,    0.000000
  28.644698,    0.000000
  29.339141,    0.000000
  30.047994,    0.000000
  30.765539,    0.000000
  31.500691,    0.000000
  32.249390,    0.000000
  33.006053,    0.000000
  33.780350,    0.000000
  34.569074,    0.000000
  35.362586,    0.000000
  36.174676,    0.000000
  36.995868,    0.000000
  37.832162,    0.000000
  38.673925,    0.000000
  39.530810,    0.000000
  40.402492,    0.000000
  41.285628,    0.000000
  42.178556,    0.000000
  43.087960,    0.000000
  44.010630,    0.000000
  44.947107,    0.000000
  45.899917,    0.000000
  46.860352,    0.000000
  47.840451,    0.000000
  48.838804,    0.000000
  49.845897,    0.000000
  50.854911,    0.000000
  51.883263,    0.000000
  52.927618,    0.000000
  53.984773,    0.000000
  55.065146,    0.000000
  56.151595,    0.000000
  57.257791,    0.000000
  58.376309,    0.000000
  59.512760,    0.000000
  60.661241,    0.000000
  61.824384,    0.000000
  63.005557,    0.000000
  64.200518,    0.000000
  65.410485,    0.000000
  66.636564,    0.000000
  67.873699,    0.000000
  69.120170,    0.000000
  70.394835,    0.000000
  71.678802,    0.000000
  72.978929,    0.000000
  74.296693,    0.000000
  75.633479,    0.000000
  76.979364,    0.000000
  78.350272,    0.000000
  79.727807,    0.000000
  81.125676,    0.000000
  82.541232,    0.000000
  83.972526,    0.000000
  85.415697,    0.000000
  86.885005,    0.000000
  88.363049,    0.000000
  89.869540,    0.000000
  91.378737,    0.000000
  92.909923,    0.000000
  94.458758,    0.000000
  96.026552,    0.000000
  97.604164,    0.000000
  99.206718,    0.000000
 100.818558,    0.000000
 102.457913,    0.000000
 104.113139,    0.000000
 104.445670,    0.000000
 104.485463,    0.000000
 104.493304,    0.000000
 104.496288,    0.000000
 104.501933,    0.000000
 104.503796,    0.000000
 104.504318,    0.000000
 104.504550,    0.000000
 104.504918,    0.000000
 104.505253,    0.000000
 104.508600,    0.000000
 104.534841,    0.000000
 104.691129,    0.000000
 105.287713,    0.000000
 106.781555,    0.000000
 108.283360,    0.000000
 109.794029,    0.000000
 111.326500,    0.000000
 112.874280,    0.000000
 114.436413,    0.000000
 116.013378,    0.000000
 117.603289,    0.000000
 119.209536,    0.000000
 120.826994,    0.000000
 122.459989,    0.000000
 124.112435,    0.000000
 125.774368,    0.000000
 127.454219,    0.000000
 129.145975,    0.000000
 130.857381,    0.000000
 132.583634,    0.000000
 134.315875,    0.000000
 136.068820,    0.000000
 137.840843,    0.000000
 139.627519,    0.000000
 141.422901,    0.000000
 143.240681,    0.000000
 145.070923,    0.000000
 146.921858,    0.000000
 148.782838,    0.000000
 150.656333,    0.000000
 152.546934,    0.000000
 154.455011,    0.000000
 156.384002,    0.000000
 158.327845,    0.000000
 160.283892,    0.000000
 162.263596,    0.000000
 164.257907,    0.000000
 166.261760,    0.000000
 168.282175,    0.000000
 170.325250,    0.000000
 172.378165,    0.000000
 174.452665,    0.000000
 176.542314,    0.000000
 178.649208,    0.000000
 180.772169,    0.000000
 182.918861,    0.000000
 185.080120,    0.000000
 187.249169,    0.000000
 189.433720,    0.000000
 191.646193,    0.000000
 193.868494,    0.000000
 196.108664,    0.000000
 198.371146,    0.000000
 200.643063,    0.000000
 202.937959,    0.000000
 205.253088,    0.000000
 207.584292,    0.000000
 209.926108,    0.000000
 212.290700,    0.000000
 214.672591,    0.000000
 217.073425,    0.000000
 219.498429,    0.000000
 221.936667,    0.000000
 224.385422,    0.000000
 226.854951,    0.000000
 229.344430,    0.000000
 231.845408,    0.000000
 234.373241,    0.000000
 236.918280,    0.000000
 239.472076,    0.000000
 242.061401,    0.000000
 244.655126,    0.000000
 245.178202,    0.000000
 245.525963,    0.000000
 245.807041,    0.000000
 246.015277,    0.000000
 246.179781,    0.000000
 246.220123,    0.000000
 246.278080,    0.000000
 246.344385,    0.000000
 246.359208,    0.000000
 246.363379,    0.000000
 246.371722,    0.000000
 246.372421,    0.000000
 246.372948,    0.000000
 246.373149,    0.000000
 246.373379,    0.000000
 246.375677,    0.000000
 246.396109,    0.000000
 246.511073,    0.000000
 247.015681,    0.000000
 249.063039,    0.000000
 251.363044,    0.000000
 253.682942,    0.000000
 256.010641,    0.000000
 258.354513,    0.000000
 260.710223,    0.000000
 263.082284,    0.000000
 265.463729,    0.000000
 267.872028,    0.000000
 270.297303,    0.000000
 272.724031,    0.000000
 275.173148,    0.000000
 277.634148,    0.000000
 280.109651,    0.000000
 282.592366,    0.000000
 285.085595,    0.000000
 287.601677,    0.000000
 290.125010,    0.000000
 292.674027,    0.000000
 295.237084,    0.000000
 297.805362,    0.000000
 300.395551,    0.000000
 303.000628,    0.000000
 305.620327,    0.000000
 308.261604,    0.000000
 310.910642,    0.000000
 313.572746,    0.000000
 316.252244,    0.000000
 318.943579,    0.000000
 321.655360,    0.000000
 324.377621,    0.000000
 327.119918,    0.000000
 329.879168,    0.000000
 332.655198,    0.000000
 335.449935,    0.000000
 338.250530,    0.000000
 341.066686,    0.000000
 343.907420,    0.000000
 346.760218,    0.000000
 349.631279,    0.000000
 352.509553,    0.000000
 355.413508,    0.000000
 358.328246,    0.000000
 361.258124,    0.000000
 364.207589,    0.000000
 367.171726,    0.000000
 370.144577,    0.000000
 373.142474,    0.000000
 376.149799,    0.000000
 379.174534,    0.000000
 382.217267,    0.000000
 385.275058,    0.000000
 388.353354,    0.000000
 391.441803,    0.000000
 394.542724,    0.000000
 397.661268,    0.000000
 400.797138,    0.000000
 403.950422,    0.000000
 407.123842,    0.000000
 410.313786,    0.000000
 413.520413,    0.000000
 416.740260,    0.000000
 419.973927,    0.000000
 423.227911,    0.000000
 426.501601,    0.000000
 429.793011,    0.000000
 433.088002,    0.000000
 436.409353,    0.000000
 439.747571,    0.000000
 443.095956,    0.000000
 446.461655,    0.000000
 449.845688,    0.000000
 453.248885,    0.000000
 456.664749,    0.000000
 460.099236,    0.000000
 463.547532,    0.000000
 464.238893,    0.000000
 466.577639,    0.000000
 466.605310,    0.000000
 466.625298,    0.000000
 466.635065,    0.000000
 466.642104,    0.000000
 466.648906,    0.000000
 466.656131,    0.000000
 466.662731,    0.000000
 466.728409,    0.000000
 467.103564,    0.000000
 469.224836,    0.000000
 472.700549,    0.000000
 476.197204,    0.000000
 479.705616,    0.000000
 483.221541,    0.000000
 486.759524,    0.000000
 490.319986,    0.000000
 493.894007,    0.000000
 497.490614,    0.000000
 501.108666,    0.000000
 504.739704,    0.000000
 508.381814,    0.000000
 512.044970,    0.000000
 515.724748,    0.000000
 519.421489,    0.000000
 523.131816,    0.000000
 526.856522,    0.000000
 530.604726,    0.000000
 534.368610,    0.000000
 538.154571,    0.000000
 541.948915,    0.000000
 545.770910,    0.000000
 549.608236,    0.000000
 553.462340,    0.000000
 557.326949,    0.000000
 561.208644,    0.000000
 565.118384,    0.000000
 569.040337,    0.000000
 572.973337,    0.000000
 576.935591,    0.000000
 580.912943,    0.000000
 584.903275,    0.000000
 588.919244,    0.000000
 592.954910,    0.000000
 596.999087,    0.000000
 601.058177,    0.000000
 605.137398,    0.000000
 609.233231,    0.000000
 613.345544,    0.000000
 617.479870,    0.000000
 621.640568,    0.000000
 625.816177,    0.000000
 627.892271,    0.000000
 630.012567,    0.000000
 634.224936,    0.000000
 638.455333,    0.000000
 642.700056,    0.000000
 646.967203,    0.000000
 651.252981,    0.000000
 655.560997,    0.000000
 659.898597,    0.000000
 664.247651,    0.000000
 668.621948,    0.000000
 673.014815,    0.000000
 677.427671,    0.000000
 681.865246,    0.000000
 686.323841,    0.000000
 690.794244,    0.000000
 695.274110,    0.000000
 699.769376,    0.000000
 704.296786,    0.000000
 708.829236,    0.000000
 713.383207,    0.000000
 717.946703,    0.000000
 722.526989,    0.000000
 727.114036,    0.000000
 731.732906,    0.000000
 736.354242,    0.000000
 740.992586,    0.000000
 745.641065,    0.000000
 750.298075,    0.000000
 750.612109,   11.405841
 750.926043,   23.034170
 751.240488,   34.907674
 751.555148,   47.015796
 751.870158,   59.364092
 752.184878,   71.927489
 752.500376,   84.748566
 752.815916,   97.798339
 753.132005,  111.097982
 753.448043,  124.622758
 753.764383,  138.387686
 754.079609,  152.330383
 754.396295,  166.564223
 754.713693,  181.057868
 755.030782,  195.765088
 755.348687,  210.738169
 755.666822,  225.950554
 755.983714,  241.330772
 756.301667,  256.989667
 756.620315,  272.910932
 756.939644,  289.095160
 757.258424,  305.480191
 757.575412,  321.999649
 757.895644,  338.916138
 758.215520,  356.043109
 758.536137,  373.439272
 758.857182,  391.088730
 759.178453,  408.980866
 759.499239,  427.075760
 759.820524,  445.428349
 760.140469,  463.933026
 760.462904,  482.811221
 760.784332,  501.860443
 761.107287,  521.230532
 761.429367,  540.778469
 761.752599,  560.626833
 762.075763,  580.701940
 762.399389,  601.036697
 762.722844,  621.591554
 763.047066,  642.426321
 763.371725,  663.520838
 763.696608,  684.861804
 764.021711,  706.449124
 764.347439,  728.310347
 764.674200,  750.474194
 765.001384,  772.900757
 765.328401,  795.549774
 765.655942,  818.468983
 765.983039,  841.590860
 766.311462,  865.040603
 766.638159,  888.600410
 766.966213,  912.491258
 767.295484,  936.705309
 767.625536,  961.212703
 767.955914,  985.980505
 768.285288, 1010.908491
 768.615954, 1036.169749
 768.947722, 1061.752155
 769.277652, 1087.428715
 769.608996, 1113.451028
 769.942305, 1139.865378
 770.274033, 1166.392003
 770.607086, 1193.261878
 770.938498, 1220.235778
 771.273404, 1247.732184
 771.607635, 1275.412572
 771.940820, 1303.244208
 772.276191, 1331.497169
 772.612700, 1360.086567
 772.947699, 1388.787696
 773.284930, 1417.920500
 773.620330, 1447.135129
 773.958161, 1476.802259
 774.294306, 1506.561802
 774.633147, 1536.801433
 774.970656, 1566.990045
 775.310450, 1597.451405
 775.650498, 1628.004046
 775.989929, 1658.569539
 776.330242, 1689.282805
 776.670776, 1720.084409
 777.012483, 1751.060860
 777.354883, 1782.168950
 777.696825, 1813.304058
 778.038452, 1844.479020
 778.382072, 1875.904672
 778.725436, 1907.375875
 779.068718, 1938.908241
 779.408450, 1970.182093
 779.753800, 2002.041846
 780.099044, 2033.960966
 780.444956, 2066.011120
 780.790587, 2098.104344
 781.133644, 2130.026747
 781.479820, 2162.308154
 781.826461, 2194.702082
 782.173980, 2227.247246
 782.523017, 2260.004230
 782.870331, 2292.668863
 783.219320, 2325.560349
 783.567999, 2358.492007
 783.916464, 2391.472645
 784.266432, 2424.664957
 784.615414, 2457.833078
 784.967131, 2491.330782
 785.317406, 2524.760843
 785.669876, 2558.470203
 786.021939, 2592.210496
 786.374941, 2626.110888
 786.726518, 2659.943908
 787.078563, 2693.891353
 787.431962, 2728.039202
 787.786649, 2762.381645
 788.142230, 2796.880989
 788.496758, 2831.348274
 788.851579, 2865.913931
 789.209105, 2900.813745
 789.566161, 2935.738357
 789.922699, 2970.682547
 790.281245, 3005.894332
 790.639432, 3041.141456
 790.997555, 3076.452768
 791.357737, 3112.038163
 791.716368, 3147.540837
 792.076200, 3183.233044
 792.434554, 3218.848927
 792.796159, 3254.858768
 793.156656, 3290.829076
 793.229135, 3298.069528
 793.279469, 3303.099487
 793.315390, 3306.689927
 793.344960, 3309.646067
 793.428315, 3317.981723
 793.438330, 3318.983558
 793.439712, 3319.121749
 793.440133, 3319.163856
 793.440562, 3319.206831
 793.443597, 3319.510436
 793.459422, 3321.093516
 793.516551, 3326.809607
 793.656040, 3340.773959
 793.968120, 3372.054617
 794.328921, 3408.284394
 794.692620, 3444.876260
 795.056752, 3481.583050
 795.422984, 3518.573431
 795.788527, 3555.566053
 796.154951, 3592.719685
 796.522528, 3630.062422
 796.889074, 3667.372207
 797.256267, 3704.819568
 797.625482, 3742.545462
 797.994031, 3780.275580
 798.363718, 3818.194351
 798.733638, 3856.209451
 799.104428, 3894.386382
 799.475930, 3932.709173
 799.849319, 3971.299918
 800.220889, 4009.775139
 800.593947, 4048.477270
 800.967769, 4087.331600
 801.341404, 4126.239359
 801.716554, 4165.378123
 802.092188, 4204.640522
 802.467806, 4243.974498
 802.843927, 4283.434380
 803.222956, 4323.273237
 803.600776, 4363.058774
 803.910735, 4395.753175
 803.979244, 4402.986158
 804.358314, 4443.050827
 804.737110, 4483.160108
 805.118906, 4523.661406
 805.500278, 4564.191981
 805.883132, 4604.954609
 806.265543, 4645.744538
 806.647335, 4686.542433
 807.031355, 4727.652904
 807.416929, 4769.004671
 807.803661, 4810.556047
 808.190425, 4852.186163
 808.577259, 4893.899103
 808.965453, 4935.833982
 809.353219, 4977.797985
 809.742998, 5020.055469
 810.133323, 5062.447923
 810.523261, 5104.874196
 810.913114, 5147.366508
 811.304478, 5190.099295
 811.697860, 5233.128638
 812.091025, 5276.210612
 812.484576, 5319.411030
 812.879698, 5362.860380
 813.274438, 5406.344166
 813.669740, 5449.966318
 814.065915, 5493.761177
 814.463202, 5537.755798
 814.862314, 5582.029659
 815.260649, 5626.294422
 815.660994, 5670.859891
 816.060578, 5715.417885
 816.460997, 5760.146063
 816.862109, 5805.028967
 817.266514, 5850.358548
 817.671040, 5895.779840
 818.074529, 5941.162676
 818.478589, 5986.687479
 818.882768, 6032.303422
 819.288649, 6078.189381
 819.696903, 6124.422211
 820.101783, 6170.350863
 820.511723, 6216.932177
 820.920397, 6263.448245
 821.331255, 6310.291935
 821.740692, 6357.052267
 822.152015, 6404.106882
 822.563458, 6451.254064
 822.978052, 6498.841851
 823.390576, 6546.271381
 823.805956, 6594.108707
 824.220430, 6641.921248
 824.637245, 6690.083549
 825.056186, 6738.572128
 825.473890, 6786.997597
 825.895433, 6835.949093
 826.315493, 6884.808970
 826.737645, 6933.993241
 827.156871, 6982.916790
 827.580342, 7032.416596
 828.003964, 7082.015217
 828.428904, 7131.849422
 828.853380, 7181.710344
 829.278541, 7231.732887
 829.703827, 7281.851166
 830.130148, 7332.172581
 830.559665, 7382.953168
 830.987628, 7433.631569
 831.418616, 7484.750282
 831.850620, 7536.072085
 832.279824, 7587.142774
 832.714774, 7638.980053
 833.145520, 7690.398129
 833.581693, 7742.546976
 834.014926, 7794.426563
 834.450429, 7846.660493
 834.886699, 7899.069213
 835.322941, 7951.557035
 835.763082, 8004.597532
 836.203536, 8057.759469
 836.646482, 8111.306422
 837.086407, 8164.571678
 837.526688, 8217.962987
 837.966394, 8271.367268
 838.409052, 8325.213411
 838.853339, 8379.341429
 839.299556, 8433.788738
 839.746195, 8488.371978
 840.192249, 8542.967778
 840.642623, 8598.177247
 841.095364, 8653.762647
 841.544714, 8709.016618
 841.995376, 8764.516539
 842.446045, 8820.101970
 842.899833, 8876.157310
 843.356055, 8932.599209
 843.809790, 8988.818789
 844.265177, 9045.328297
 844.722391, 9102.150226
 845.182224, 9159.384054
 845.641470, 9216.630986
 846.101852, 9274.105918
 846.564824, 9331.991009
 847.026808, 9389.839150
 847.491961, 9448.171195
 847.956311, 9506.489620
 848.419609, 9564.762317
 848.887748, 9623.731224
 849.353540, 9682.491433
 849.823705, 9741.890933
 850.294031, 9801.398857
 850.762000, 9860.695394
 851.233866, 9920.573459
 851.704754, 9980.414746
 852.178773, 10040.742044
 852.652850, 10101.164688
 853.131265, 10162.229385
 853.610585, 10223.498809
 854.088694, 10284.702466
 854.565959, 10345.886289
 855.042662, 10407.085832
 855.522816, 10468.816988
 856.001731, 10530.476871
 856.487444, 10593.101649
 856.969937, 10655.400435
 857.450888, 10717.588254
 857.932106, 10779.898412
 858.415832, 10842.621488
 858.900823, 10905.597211
 859.384215, 10968.453251
 859.874333, 11032.273334
 860.359880, 11095.586567
 860.849177, 11159.477734
 861.343012, 11224.051555
 861.835296, 11288.512406
 862.328919, 11353.238313
 862.824747, 11418.343618
 863.317980, 11483.197611
 863.814884, 11548.624122
 864.310314, 11613.946192
 864.804901, 11679.246039
 865.304793, 11745.336391
 865.806957, 11811.817754
 866.305097, 11877.856029
 866.802265, 11943.854201
 867.302978, 12010.412287
 867.803297, 12077.007200
 868.301717, 12143.437745
 868.810490, 12211.338738
 869.314096, 12278.640172
 869.822111, 12346.621196
 870.330170, 12414.698448
 870.836668, 12482.656355
 871.351770, 12551.860347
 871.865411, 12620.959678
 872.375309, 12689.645546
 872.886073, 12758.538061
 873.402076, 12828.228138
 873.918891, 12898.119301
 874.434062, 12967.878648
 874.947833, 13037.538367
 875.463748, 13107.578775
 875.983028, 13178.166686
 876.502951, 13248.932898
 877.024392, 13319.996810
 877.545781, 13391.144381
 878.066112, 13462.237806
 878.588742, 13533.735684
 879.117774, 13606.201443
 879.639065, 13677.696956
 880.167680, 13750.287940
 880.698983, 13823.340160
 881.230891, 13896.567754
 881.760735, 13969.602393
 882.290286, 14042.687308
 882.820692, 14115.980961
 883.352038, 14189.494995
 883.881898, 14262.893180
 884.415946, 14336.962272
 884.950901, 14411.247821
 885.484989, 14485.503223
 886.026517, 14560.884769
 886.559943, 14635.228597
 887.095052, 14709.896266
 887.638940, 14785.880411
 888.181396, 14861.755880
 888.724139, 14937.762616
 889.265944, 15013.728291
 889.807252, 15089.714315
 890.359034, 15167.262680
 890.906086, 15244.237871
 891.450348, 15320.910332
 892.003869, 15398.978908
 892.550503, 15476.166657
 893.101495, 15554.060306
 893.650070, 15631.702200
 894.210249, 15711.078694
 894.762347, 15789.400842
 895.314448, 15867.813388
 895.872588, 15947.174481
 896.427085, 16026.107829
 896.982856, 16105.312258
 897.545480, 16185.584462
 898.106295, 16265.689488
 898.661118, 16345.027630
 899.221903, 16425.307785
 899.783457, 16505.787969
 900.342527, 16586.000957
 900.900924, 16666.205485
 901.464052, 16747.178373
 902.028116, 16828.375025
 902.594647, 16910.016061
 903.160401, 16991.634076
 903.727311, 17073.507571
 904.292135, 17155.167866
 904.855878, 17236.758922
 905.425601, 17319.303781
 905.995177, 17401.915356
 906.569032, 17485.236284
 907.139583, 17568.165443
 907.715339, 17651.939507
 908.292192, 17735.961944
 908.865973, 17819.624434
 909.441313, 17903.601830
 910.021702, 17988.404257
 910.600565, 18073.071667
 911.181081, 18158.068574
 911.763913, 18243.492475
 912.340765, 18328.126248
 912.924546, 18413.863742
 913.511419, 18500.143089
 914.093883, 18585.861062
 914.668405, 18670.494438
 915.246196, 18755.693246
 915.836834, 18842.872888
 916.423127, 18929.497412
 917.005072, 19015.564052
 917.589012, 19102.009779
 918.174412, 19188.755876
 918.756361, 19275.073691
 919.347030, 19362.769201
 919.939133, 19450.762652
 920.526837, 19538.185696
 921.116623, 19626.001918
 921.712234, 19714.769636
 922.304148, 19803.069784
 922.897491, 19891.666233
 923.488545, 19980.003050
 924.080794, 20068.600462
 924.673249, 20157.310206
 925.263823, 20245.819153
 925.861724, 20335.507902
 926.459042, 20425.190864
 927.052956, 20514.443303
 927.655935, 20605.139636
 928.258691, 20695.884320
 928.856432, 20785.954254
 929.456766, 20876.495124
 930.062516, 20967.933763
 930.668415, 21059.475585
 931.267238, 21150.027355
 931.871859, 21241.535278
 932.473723, 21332.704432
 933.081668, 21424.873834
 933.691765, 21517.449149
 934.296742, 21609.325770
 934.903355, 21701.528630
 935.508017, 21793.512091
 936.118393, 21886.442278
 936.731540, 21979.872257
 937.344881, 22073.409738
 937.952278, 22166.116802
 938.566704, 22259.973375
 939.174445, 22352.884129
 939.788160, 22446.783931
 940.401627, 22540.721248
 941.013744, 22634.526464
 941.626806, 22728.551109
 942.245854, 22823.568767
 942.867458, 22919.054351
 943.477847, 23012.890080
 944.102012, 23108.918142
 944.718323, 23203.811224
 945.333065, 23298.534963
 945.949696, 23393.621602
 946.572379, 23489.714178
 947.189466, 23585.014772
 947.808121, 23680.628436
 948.428479, 23776.576296
 949.048934, 23872.609770
 949.671379, 23969.021588
 950.290745, 24065.026174
 950.922111, 24162.961652
 951.546234, 24259.843524
 952.177467, 24357.899365
 952.806680, 24455.711221
 953.431007, 24552.831811
 954.056801, 24650.248405
 954.681363, 24747.540669
 955.307273, 24845.109794
 955.933379, 24942.775932
 956.564495, 25041.290545
 957.191797, 25139.275770
 957.820511, 25237.547261
 958.447223, 25335.570642
 958.845357, 25397.875737
