Speed, Forces
  76.364867, 13167.147079
  77.174666, 13064.768871
  77.984465, 12962.871398
  78.794264, 12867.481633
  79.604063, 12778.229034
  80.413862, 12694.729725
  81.223661, 12616.586491
  82.033460, 12546.172140
  82.843259, 12480.701745
  83.653058, 12419.690011
  84.462857, 12364.132082
  85.272656, 12314.808137
  86.082455, 12268.963192
  86.892254, 12228.291961
  87.702053, 12193.031944
  88.511852, 12160.189025
  89.321651, 12134.354742
  90.131450, 12110.876079
  90.941250, 12092.333682
  91.751049, 12077.543260
  92.560848, 12066.317511
  93.370647, 12059.499304
  94.180446, 12055.601630
  94.990245, 12055.999600
  95.800044, 12059.428089
  96.609843, 12066.246188
  97.419642, 12076.985592
  98.229441, 12089.387762
  99.039240, 12107.409495
  99.849039, 12125.579189
 100.658838, 12149.781805
 101.468637, 12175.248000
 102.278436, 12203.131180
 103.088235, 12235.836394
 103.898034, 12268.799534
 104.707833, 12306.306347
 105.517632, 12346.489334
 106.327431, 12386.981896
 107.137230, 12432.882940
 107.947029, 12480.558395
 108.756828, 12528.592850
 109.566627, 12581.578702
 110.376426, 12636.741315
 111.186226, 12692.310130
 111.996025, 12750.991343
 112.805824, 12813.615797
 113.615623, 12876.691432
 114.425422, 12940.218249
 115.235221, 13009.639512
 116.045020, 13080.174424
 116.854819, 13151.203273
 117.664618, 13223.150099
 118.474417, 13301.076736
 119.284216, 13379.537846
 120.094015, 13458.533427
 120.903814, 13538.063482
 121.713613, 13623.399559
 122.523412, 13709.775933
 123.333211, 13796.725091
 124.143010, 13884.247033
 124.952809, 13974.491134
 125.762608, 14068.745166
 126.572407, 14163.608069
 127.382206, 14259.079845
 128.192005, 14355.160493
 129.001804, 14454.088629
 129.811603, 14556.798773
 130.621402, 14660.151656
 131.431201, 14764.147276
 132.241001, 14868.785634
 133.050800, 14974.066730
 133.860599, 15084.838812
 134.670398, 15196.651781
 135.480197, 15309.139130
 136.289996, 15422.300860
 137.099795, 15536.136970
 137.909594, 15650.647461
 138.719393, 15770.020105
 139.529192, 15890.933725
 140.338991, 16012.551146
 141.148790, 16134.872367
 141.958589, 16257.897388
 142.768388, 16381.626210
 143.578187, 16506.075956
 144.387986, 16636.048043
 145.197785, 16766.751128
 146.007584, 16898.185211
 146.817383, 17030.350291
 147.627182, 17163.246368
 148.436981, 17296.873443
 149.246780, 17431.231515
 150.056579, 17567.622369
 150.866378, 17708.082673
 151.676177, 17849.298948
 152.485977, 17991.271194
 153.295776, 18133.999413
 154.105575, 18277.483603
 154.915374, 18421.723765
 155.725173, 18566.719899
 156.534972, 18712.472004
