Speed, Forces
  74.213413, 12435.673086
  75.044944, 12333.143335
  75.876475, 12231.908866
  76.708005, 12137.658082
  77.539536, 12050.035809
  78.371067, 11968.672810
  79.202598, 11893.185788
  80.034129, 11823.177378
  80.865660, 11760.360695
  81.697191, 11703.071663
  82.528722, 11650.362744
  83.360253, 11602.307080
  84.191784, 11561.333909
  85.023314, 11523.955631
  85.854845, 11490.702768
  86.686376, 11463.952391
  87.517907, 11439.724969
  88.349438, 11421.232315
  89.180969, 11406.400726
  90.012500, 11395.193833
  90.844031, 11389.074025
  91.675562, 11385.179123
  92.507093, 11387.044856
  93.338623, 11390.474115
  94.170154, 11399.556962
  95.001685, 11410.308487
  95.833216, 11425.797834
  96.664747, 11443.855670
  97.496278, 11464.898714
  98.327809, 11490.232842
  99.159340, 11515.934596
  99.990871, 11548.500934
 100.822402, 11581.339228
 101.653932, 11617.664626
 102.485463, 11657.731445
 103.316994, 11698.124676
 104.148525, 11743.893142
 104.980056, 11791.492462
 105.811587, 11839.470309
 106.643118, 11893.416891
 107.474649, 11948.559641
 108.306180, 12004.130687
 109.137711, 12064.906059
 109.969241, 12127.582073
 110.800772, 12190.733809
 111.632303, 12256.904270
 112.463834, 12327.082288
 113.295365, 12397.781111
 114.126896, 12469.000739
 114.958427, 12545.456255
 115.789958, 12623.647468
 116.621489, 12702.402226
 117.453019, 12781.720527
 118.284550, 12866.581192
 119.116081, 12952.792945
 119.947612, 13039.608636
 120.779143, 13127.028265
 121.610674, 13218.273553
 122.442205, 13312.485062
 123.273736, 13407.338562
 124.105267, 13502.834052
 124.936798, 13598.971532
 125.768328, 13700.465167
 126.599859, 13803.305225
 127.431390, 13906.822981
 128.262921, 14011.018435
 129.094452, 14115.891587
 129.925983, 14224.996848
 130.757514, 14336.455152
 131.589045, 14448.624517
 132.420576, 14561.504944
 133.252107, 14675.096432
 134.083637, 14789.398982
 134.915168, 14908.996750
 135.746699, 15029.769921
 136.578230, 15151.285173
 137.409761, 15273.542507
 138.241292, 15396.541924
 139.072823, 15520.283421
 139.904354, 15646.934383
 140.735885, 15776.999158
 141.567416, 15907.834692
 142.398946, 16039.440983
 143.230477, 16171.818032
 144.062008, 16304.965840
 144.893539, 16438.884406
 145.725070, 16574.226302
 146.556601, 16714.314321
 147.388132, 16855.199432
 148.219663, 16996.881633
 149.051194, 17139.360925
 149.882725, 17282.637308
 150.714255, 17426.710782
 151.545786, 17571.581346
 152.377317, 17717.249002
 153.208848, 17867.183352
 154.040379, 18018.877115
 154.871910, 18171.391959
 155.703441, 18324.727882
 156.534972, 18478.884885
