Speed, Forces
  78.457539, 13898.689428
  79.246200, 13796.624073
  80.034861, 13694.195374
  80.823522, 13597.770635
  81.612183, 13506.965636
  82.400844, 13421.383510
  83.189504, 13343.364327
  83.978165, 13270.395777
  84.766826, 13201.754088
  85.555487, 13138.686965
  86.344148, 13081.672631
  87.132809, 13028.011139
  87.921470, 12979.914832
  88.710131, 12936.782733
  89.498792, 12895.974552
  90.287453, 12862.768814
  91.076114, 12831.257222
  91.864775, 12805.374694
  92.653436, 12782.514403
  93.442097, 12763.955089
  94.230758, 12749.039758
  95.019419, 12737.814113
  95.808079, 12730.099452
  96.596740, 12726.205282
  97.385401, 12724.909052
  98.174062, 12728.331512
  98.962723, 12732.633524
  99.751384, 12743.345121
 100.540045, 12754.141743
 101.328706, 12770.347825
 102.117367, 12788.448752
 102.906028, 12808.390744
 103.694689, 12833.741073
 104.483350, 12859.284944
 105.272011, 12889.006576
 106.060672, 12921.783393
 106.849333, 12954.804846
 107.637994, 12993.109983
 108.426655, 13033.331059
 109.215315, 13073.845759
 110.003976, 13119.462367
 110.792637, 13167.126501
 111.581298, 13215.131137
 112.369959, 13266.711281
 113.158620, 13321.798296
 113.947281, 13377.270583
 114.735942, 13433.390431
 115.524603, 13495.861175
 116.313264, 13558.759853
 117.101925, 13622.086466
 117.890586, 13687.716019
 118.679247, 13757.980854
 119.467908, 13828.714178
 120.256569, 13899.915990
 121.045230, 13973.201645
 121.833890, 14051.260361
 122.622551, 14129.826011
 123.411212, 14208.898596
 124.199873, 14288.478114
 124.988534, 14373.687339
 125.777195, 14460.057698
 126.565856, 14546.971329
 127.354517, 14634.428230
 128.143178, 14723.047035
 128.931839, 14817.169185
 129.720500, 14911.868835
 130.509161, 15007.145986
 131.297822, 15103.000637
 132.086483, 15199.432789
 132.875144, 15301.123365
 133.663805, 15404.138331
 134.452465, 15507.762918
 135.241126, 15611.997126
 136.029787, 15716.840955
 136.818448, 15822.709818
 137.607109, 15933.994499
 138.395770, 16045.918813
 139.184431, 16158.482761
 139.973092, 16271.686342
 140.761753, 16385.529557
 141.550414, 16500.012405
 142.339075, 16618.394114
 143.127736, 16739.206360
 143.916397, 16860.686143
 144.705058, 16982.833463
 145.493719, 17105.648321
 146.282380, 17229.130717
 147.071040, 17353.280650
 147.859701, 17480.241304
 148.648362, 17610.575448
 149.437023, 17741.602924
 150.225684, 17873.323734
 151.014345, 18005.737877
 151.803006, 18138.845353
 152.591667, 18272.646163
 153.380328, 18407.140306
 154.168989, 18543.703766
 154.957650, 18684.226887
 155.746311, 18825.467028
 156.534972, 18967.424190
