Speed, Forces
  71.997487, 25191.157115
  72.713909, 25050.591542
  73.430330, 24910.025968
  74.146752, 24769.460394
  74.863174, 24628.894820
  75.579595, 24488.329246
  76.296017, 24347.763672
  77.012439, 24207.198098
  77.728860, 24066.632524
  78.445282, 23926.066950
  79.161704, 23785.501377
  79.878126, 23644.935803
  80.594547, 23531.913953
  81.310969, 23422.026076
  82.027391, 23312.138199
  82.743812, 23202.250322
  83.460234, 23092.362445
  84.176656, 22982.474568
  84.893077, 22872.586691
  85.609499, 22762.698814
  86.325921, 22652.810937
  87.042343, 22542.923060
  87.758764, 22433.035183
  88.475186, 22323.147306
  89.191608, 22213.259429
  89.908029, 22103.371552
  90.624451, 21993.483675
  91.340873, 21883.595798
  92.057294, 21773.707921
  92.773716, 21663.820044
  93.490138, 21553.932167
  94.206560, 21444.044290
  94.922981, 21334.156413
  95.639403, 21224.268536
  96.355825, 21128.167461
  97.072246, 21042.123180
  97.788668, 20956.078899
  98.505090, 20870.034617
  99.221511, 20783.990336
  99.937933, 20697.946055
 100.654355, 20611.901774
 101.370777, 20525.857493
 102.087198, 20439.813212
 102.803620, 20353.768931
 103.520042, 20267.724650
 104.236463, 20181.680369
 104.952885, 20095.636088
 105.669307, 20009.591807
 106.385728, 19923.547526
 107.102150, 19837.503245
 107.818572, 19751.458964
 108.534994, 19665.414683
 109.251415, 19579.370402
 109.967837, 19493.326120
 110.684259, 19407.281839
 111.400680, 19321.237558
 112.117102, 19238.901019
 112.833524, 19167.194793
 113.549945, 19095.488568
 114.266367, 19023.782342
 114.982789, 18952.076116
 115.699210, 18880.369891
 116.415632, 18808.663665
 117.132054, 18736.957439
 117.848476, 18665.251213
 118.564897, 18593.544988
 119.281319, 18521.838762
 119.997741, 18450.132536
 120.714162, 18378.426311
 121.430584, 18306.720085
 122.147006, 18235.013859
 122.863427, 18163.307634
 123.579849, 18091.601408
 124.296271, 18019.895182
 125.012693, 17948.188956
 125.729114, 17876.482731
 126.445536, 17804.776505
 127.161958, 17733.070279
 127.878379, 17661.364054
 128.594801, 17601.765555
 129.311223, 17542.954010
 130.027644, 17484.142465
 130.744066, 17425.330919
 131.460488, 17366.519374
 132.176910, 17307.707829
 132.893331, 17248.896284
 133.609753, 17190.084739
 134.326175, 17131.273193
 135.042596, 17072.461648
 135.759018, 17013.650103
 136.475440, 16954.838558
 137.191861, 16896.027013
 137.908283, 16837.215467
 138.624705, 16778.403922
 139.341127, 16719.592377
 140.057548, 16660.780832
 140.773970, 16601.969287
 141.490392, 16543.157741
 142.206813, 16484.346196
 142.923235, 16425.534651
