Ground Distance, Angular Velocity
   0.000000,    0.000000
   0.000002,    0.000000
   0.000026,    0.000000
   0.000224,    0.000000
   0.001234,    0.000000
   0.005345,    0.000000
   0.018617,    0.000000
   0.042427,    0.000000
   0.075915,    0.000000
   0.119326,    0.000000
   0.172505,    0.000000
   0.235896,    0.000000
   0.308987,    0.000000
   0.393440,    0.000000
   0.487549,    0.000000
   0.591884,    0.000000
   0.707272,    0.000000
   0.833118,    0.000000
   0.971507,    0.000000
   1.120307,    0.000000
   1.282638,    0.000000
   1.455116,    0.000000
   1.641578,    0.000000
   1.839277,    0.000000
   2.049258,    0.000000
   2.274567,    0.000000
   2.513888,    0.000000
   2.767274,    0.000000
   3.034360,    0.000000
   3.315901,    0.000000
   3.607024,    0.000000
   3.921984,    0.000000
   4.246934,    0.000000
   4.584684,    0.000000
   4.945269,    0.000000
   5.317202,    0.000000
   5.708137,    0.000000
   6.115482,    0.000000
   6.537558,    0.000000
   6.978720,    0.000000
   7.437320,    0.000000
   7.928149,    0.000000
   8.438402,    0.000000
   8.958817,    0.000000
   9.500581,    0.000000
  10.060482,    0.000000
  10.654191,    0.000000
  11.264318,    0.000000
  11.897457,    0.000000
  12.544263,    0.000000
  13.223748,    0.000000
  13.918836,    0.000000
  14.646296,    0.000000
  15.384470,    0.000000
  16.154398,    0.000000
  16.946016,    0.000000
  17.765494,    0.000000
  18.621058,    0.000000
  19.491878,    0.000000
  20.394004,    0.000000
  21.332665,    0.000000
  22.292601,    0.000000
  23.275436,    0.000000
  24.310646,    0.000000
  25.352871,    0.000000
  26.421455,    0.000000
  27.525777,    0.000000
  28.656815,    0.000000
  29.826351,    0.000000
  31.027495,    0.000000
  32.262961,    0.000000
  33.515876,    0.000000
  34.812531,    0.000000
  36.141334,    0.000000
  37.519088,    0.000000
  38.920874,    0.000000
  40.345329,    0.000000
  41.811873,    0.000000
  43.300508,    0.000000
  44.840131,    0.000000
  46.404962,    0.000000
  48.013439,    0.000000
  49.681044,    0.000000
  51.383713,    0.000000
  53.111457,    0.000000
  54.869988,    0.000000
  56.679441,    0.000000
  58.512745,    0.000000
  60.386408,    0.000000
  62.311588,    0.000000
  64.278421,    0.000000
  66.279350,    0.000000
  68.308170,    0.000000
  70.401925,    0.000000
  72.556260,    0.000000
  74.719983,    0.000000
  76.941659,    0.000000
  79.194764,    0.000000
  81.514104,    0.000000
  81.985156,    0.000000
  82.213784,    0.000000
  82.346625,    0.000000
  82.445566,    0.000000
  82.530862,    0.000000
  82.601558,    0.000000
  82.655963,    0.000000
  82.697978,    0.000000
  82.735632,    0.000000
  82.737695,    0.000000
  82.740846,    0.000000
  82.741433,    0.000000
  82.741734,    0.000000
  82.741918,    0.000000
  82.742110,    0.000000
  82.744035,    0.000000
  82.762287,    0.000000
  82.851157,    0.000000
  83.233569,    0.000000
  84.259815,    0.000000
  86.402554,    0.000000
  88.555829,    0.000000
  90.768993,    0.000000
  93.020292,    0.000000
  95.296808,    0.000000
  97.632094,    0.000000
  99.978541,    0.000000
 102.376498,    0.000000
 104.797934,    0.000000
 107.276468,    0.000000
 109.810703,    0.000000
 112.370386,    0.000000
 114.969543,    0.000000
 117.609266,    0.000000
 120.276989,    0.000000
 122.991714,    0.000000
 125.732002,    0.000000
 128.528439,    0.000000
 131.372513,    0.000000
 134.262027,    0.000000
 137.173702,    0.000000
 140.139661,    0.000000
 143.157379,    0.000000
 146.215002,    0.000000
 149.311333,    0.000000
 152.460740,    0.000000
 155.648195,    0.000000
 158.877812,    0.000000
 162.170540,    0.000000
 165.492164,    0.000000
 168.856881,    0.000000
 172.261169,    0.000000
 175.725989,    0.000000
 179.228542,    0.000000
 182.811579,    0.000000
 186.415934,    0.000000
 190.057733,    0.000000
 193.754714,    0.000000
 197.500645,    0.000000
 201.295125,    0.000000
 205.135583,    0.000000
 209.023990,    0.000000
 212.940178,    0.000000
 216.949414,    0.000000
 220.989142,    0.000000
 225.092777,    0.000000
 229.219495,    0.000000
 233.412352,    0.000000
 237.659423,    0.000000
 241.971304,    0.000000
 246.354361,    0.000000
 250.763820,    0.000000
 255.220772,    0.000000
 259.727011,    0.000000
 264.284889,    0.000000
 268.930634,    0.000000
 273.630401,    0.000000
 278.358699,    0.000000
 283.133570,    0.000000
 287.987442,    0.000000
 292.876877,    0.000000
 297.813556,    0.000000
 302.816470,    0.000000
 307.890326,    0.000000
 313.021045,    0.000000
 318.219001,    0.000000
 323.450611,    0.000000
 328.747249,    0.000000
 334.099068,    0.000000
 339.509486,    0.000000
 340.596663,    0.000000
 341.374699,    0.000000
 341.901000,    0.000000
 342.340551,    0.000000
 342.696093,    0.000000
 342.748239,    0.000000
 342.799764,    0.000000
 342.855797,    0.000000
 342.857496,    0.000000
 342.858440,    0.000000
 342.859135,    0.000000
 342.859761,    0.000000
 342.866018,    0.000000
 342.928591,    0.000000
 343.273297,    0.000000
 344.614422,    0.000000
 349.248244,    0.000000
 354.159907,    0.000000
 359.110604,    0.000000
 364.147691,    0.000000
 369.209979,    0.000000
 374.294370,    0.000000
 379.455906,    0.000000
 384.647357,    0.000000
 389.892219,    0.000000
 395.199746,    0.000000
 400.529510,    0.000000
 405.932980,    0.000000
 411.382663,    0.000000
 416.869609,    0.000000
 422.442051,    0.000000
 428.035362,    0.000000
 433.686411,    0.000000
 439.404038,    0.000000
 445.164389,    0.000000
 450.977464,    0.000000
 456.820925,    0.000000
 462.739946,    0.000000
 468.676878,    0.000000
 474.680110,    0.000000
 480.752023,    0.000000
 486.854380,    0.000000
 492.982648,    0.000000
 499.185402,    0.000000
 505.422407,    0.000000
 511.735805,    0.000000
 518.096705,    0.000000
 524.506312,    0.000000
 530.997721,    0.000000
 537.525964,    0.000000
 544.134678,    0.000000
 550.764426,    0.000000
 557.455266,    0.000000
 564.180366,    0.000000
 570.957656,    0.000000
 577.837270,    0.000000
 584.766149,    0.000000
 591.724203,    0.000000
 598.746476,    0.000000
 605.817855,    0.000000
 612.926021,    0.000000
 620.100849,    0.000000
 627.349405,    0.000000
 634.618292,    0.000000
 641.969651,    0.000000
 649.370500,    0.000000
 656.817534,    0.000000
 664.350928,    0.000000
 671.936869,    0.000000
 679.563485,    0.000000
 687.251279,    0.000000
 695.000885,    0.000000
 702.800157,    0.000000
 710.657967,    0.000000
 718.586793,    0.000000
 726.576489,    0.000000
 734.605747,    0.000000
 742.696878,    0.000000
 750.827766,    0.000000
 759.044188,    0.000000
 767.296736,    0.000000
 775.672884,    0.000000
 784.069633,    0.000000
 792.516047,    0.000000
 801.016311,    0.000000
 802.729294,    0.000000
 803.879151,    0.000000
 804.890305,    0.000000
 808.078970,    0.000000
 808.142472,    0.000000
 808.222024,    0.000000
 808.241105,    0.000000
 808.274061,    0.000000
 808.284065,    0.000000
 808.285936,    0.000000
 808.286773,    0.000000
 808.287770,    0.000000
 808.297742,    0.000000
 808.386878,    0.000000
 808.938286,    0.000000
 812.117925,    0.000000
 819.806588,    0.000000
 827.349610,    0.000000
 834.944566,    0.000000
 842.617844,    0.000000
 850.336745,    0.000000
 858.076105,    0.000000
 865.878978,    0.000000
 873.704493,    0.000000
 881.603174,    0.000000
 889.540204,    0.000000
 897.535456,    0.000000
 905.577409,    0.000000
 913.662465,    0.000000
 921.792877,    0.000000
 929.962504,    0.000000
 938.196744,    0.000000
 946.493659,    0.000000
 954.830957,    0.000000
 963.186957,    0.000000
 971.588385,    0.000000
 980.058128,    0.000000
 988.574803,    0.000000
 997.170231,    0.000000
1005.792395,    0.000000
1014.469774,    0.000000
1023.202753,    0.000000
1031.989657,    0.000000
1040.784961,    0.000000
1049.662423,    0.000000
1058.601079,    0.000000
1067.567123,    0.000000
1076.571087,    0.000000
1085.651738,    0.000000
1094.771239,    0.000000
1103.925547,    0.000000
1113.157780,    0.000000
1122.409403,    0.000000
1131.739058,    0.000000
1141.141323,    0.000000
1150.559435,    0.000000
1160.041968,    0.000000
1169.575096,    0.000000
1179.174549,    0.000000
1188.785244,    0.000000
1198.451553,    0.000000
1208.185921,    0.000000
1217.961398,    0.000000
1227.790722,    0.000000
1237.691277,    0.000000
1247.631110,    0.000000
1257.637529,    0.000000
1267.680968,    0.000000
1277.824482,    0.000000
1287.989376,    0.000000
1298.203235,    0.000000
1308.478325,    0.000000
1318.785060,    0.000000
1329.146498,    0.000000
1339.566951,    0.000000
1350.057520,    0.000000
1360.589285,    0.000000
1371.140283,    0.000000
1381.805734,    0.000000
1392.496188,    0.000000
1403.231530,    0.000000
1414.030782,    0.000000
1424.909733,    0.000000
1435.806109,    0.000000
1446.755995,    0.000000
1457.762575,    0.000000
1468.826474,    0.000000
1479.952671,    0.000000
1491.136646,    0.000000
1502.386923,    0.000000
1513.665088,    0.000000
1525.018350,    0.000000
1527.293302,    0.000000
1529.201943,    0.000000
1530.691301,    0.000000
1530.750150,    0.000000
1530.865203,    0.000000
1530.900214,    0.000000
1530.909803,    0.000000
1530.917898,    0.000000
1530.925225,    0.000000
1530.998497,    0.000000
1531.559277,    0.000000
1534.712113,    0.000000
1544.593758,    0.000000
1556.050995,    0.000000
1567.522093,    0.000000
1579.082580,    0.000000
1590.650464,    0.000000
1602.311056,    0.000000
1613.988811,    0.000000
1625.743540,    0.000000
1637.550949,    0.000000
1649.416823,    0.000000
1661.368186,    0.000000
1673.385018,    0.000000
1685.433915,    0.000000
1697.507189,    0.000000
1709.686412,    0.000000
1721.880825,    0.000000
1734.177725,    0.000000
1746.513400,    0.000000
1758.900426,    0.000000
1771.354043,    0.000000
1783.865110,    0.000000
1796.404823,    0.000000
1809.013390,    0.000000
1821.675113,    0.000000
1834.394057,    0.000000
1847.183422,    0.000000
1860.028466,    0.000000
1872.930362,    0.000000
1885.880209,    0.000000
1898.868812,    0.000000
1911.939325,    0.000000
1925.058731,    0.000000
1938.258709,    0.000000
1951.506634,    0.000000
1964.792212,    0.000000
1978.139226,    0.000000
1991.581202,    0.000000
2005.038375,    0.000000
2018.585232,    0.000000
2032.176735,    0.000000
2045.839591,    0.000000
2049.371158,    0.000000
2059.554650,    0.000000
2073.311865,    0.000000
2087.152819,    0.000000
2101.084596,    0.000000
2115.093908,    0.000000
2129.142469,    0.000000
2143.258494,    0.000000
2157.454777,    0.000000
2171.748319,    0.000000
2186.059656,    0.000000
2200.472433,    0.000000
2214.920798,    0.000000
2229.453657,    0.000000
2244.037254,    0.000000
2258.688573,    0.000000
2273.397372,    0.000000
2288.158071,    0.000000
2302.931569,    0.000000
2317.779429,    0.000000
2332.640062,    0.000000
2347.583284,    0.000000
2362.567251,    0.000000
2377.598290,    0.000000
2392.677419,    0.000000
2407.813514,    0.000000
2422.970220,    0.000000
2438.156648,    0.000000
2453.385536,    0.000000
2454.413426,    0.552256
2455.442174,    0.563283
2456.466395,    0.574294
2457.493191,    0.585272
2458.523746,    0.596274
2459.552729,    0.607291
2460.584492,    0.618298
2461.618355,    0.629325
2462.652126,    0.640359
2463.686861,    0.651388
2464.722444,    0.662419
2465.758339,    0.673450
2466.795316,    0.684478
2467.832567,    0.695508
2468.866914,    0.706522
2469.907597,    0.717527
2470.944712,    0.728560
2471.986513,    0.739574
2473.022369,    0.750595
2474.065826,    0.761588
2475.107702,    0.772625
2476.146468,    0.783632
2477.187834,    0.794617
2478.228902,    0.805611
2479.270499,    0.816597
2480.318270,    0.827598
2481.366331,    0.838638
2482.418084,    0.849683
2483.470171,    0.860749
2484.521720,    0.871806
2485.575404,    0.882858
2486.631057,    0.893924
2487.687850,    0.905000
2488.744175,    0.916074
2489.803307,    0.927145
2490.861305,    0.938224
2491.922529,    0.949297
2492.982742,    0.960382
2494.042908,    0.971450
2495.101516,    0.982505
2496.167004,    0.993562
2497.230662,    1.004654
2498.296370,    1.015731
2499.365013,    1.026823
2500.433733,    1.037928
2501.499365,    1.049016
2502.566237,    1.060076
2503.628168,    1.071121
2504.700212,    1.082153
2505.776320,    1.093262
2506.850443,    1.104386
2507.928669,    1.115498
2509.008761,    1.126638
2510.086584,    1.137775
2511.164165,    1.148886
2512.244300,    1.159994
2513.326086,    1.171116
2514.410352,    1.182249
2515.497488,    1.193399
2516.579892,    1.204547
2517.663883,    1.215656
2518.752158,    1.226781
2519.837500,    1.237918
2520.928045,    1.249040
2522.024646,    1.260210
2523.120407,    1.271410
2524.209716,    1.282576
2525.308483,    1.293715
2526.404464,    1.304904
2527.500403,    1.316063
2528.600330,    1.327224
2529.703103,    1.338413
2530.809365,    1.349624
2531.918201,    1.360857
2533.022618,    1.372086
2534.131337,    1.383286
2535.245335,    1.394524
2536.357320,    1.405783
2537.469757,    1.409120
2538.587628,    1.412469
2539.700550,    1.415799
2540.816376,    1.419133
2541.935138,    1.422471
2543.055286,    1.425809
2544.172520,    1.429134
2545.295702,    1.432472
2546.419971,    1.435810
2547.549409,    1.439157
2548.672580,    1.442482
2549.798454,    1.445811
2550.928836,    1.449148
2552.064215,    1.452495
2553.197698,    1.455832
2554.331400,    1.459166
2555.468436,    1.462504
2556.605569,    1.465839
2557.744833,    1.469174
2558.883956,    1.472505
2560.019288,    1.475821
2561.160685,    1.479149
2562.308006,    1.482490
2563.450413,    1.485812
2564.597380,    1.489143
2565.749250,    1.492483
2566.896795,    1.495806
2568.046496,    1.499131
2569.198330,    1.502457
2570.352472,    1.505785
2571.505782,    1.509106
2572.663763,    1.512436
2573.825273,    1.515771
2574.987820,    1.519104
2576.154745,    1.522445
2577.316384,    1.525766
2578.481888,    1.529094
2579.644569,    1.532408
2580.812717,    1.535734
2581.983463,    1.539061
2583.159607,    1.542400
2584.331335,    1.545721
2585.501198,    1.549031
2586.678236,    1.552358
2587.856471,    1.555682
2589.035951,    1.559006
2590.218523,    1.562333
2591.400542,    1.565653
2592.588756,    1.568986
2593.773943,    1.572306
2594.960728,    1.575625
2596.152701,    1.578953
2597.346642,    1.582282
2598.537044,    1.585597
2599.735747,    1.588929
2600.932874,    1.592251
2602.130626,    1.595571
2603.328541,    1.598886
2603.568234,    1.599548
2604.105025,    1.601032
2604.150293,    1.601157
2604.186530,    1.601257
2604.216742,    1.601340
2604.237087,    1.601396
2604.254951,    1.601446
2604.271834,    1.601492
2604.286779,    1.601534
2604.292076,    1.601548
2604.295300,    1.601557
2604.297230,    1.601562
2604.298986,    1.601567
2604.312219,    1.601604
2604.364356,    1.601748
2604.528595,    1.602202
2605.164017,    1.603956
2606.209635,    1.606840
2607.420463,    1.610175
2608.627840,    1.613496
2609.839808,    1.616824
2611.053801,    1.620152
2612.266101,    1.623470
2613.478118,    1.626783
2614.690919,    1.630092
2615.905249,    1.633401
2617.123589,    1.636715
2618.341822,    1.640024
2619.571024,    1.643357
2620.792700,    1.646665
2622.016843,    1.649974
2623.245158,    1.653289
2624.478280,    1.656612
2625.710798,    1.659927
2626.952470,    1.663262
2628.187941,    1.666575
2629.423919,    1.669884
2630.665349,    1.673202
2631.911755,    1.676528
2632.330213,    1.677669
2633.161112,    1.679857
2634.410031,    1.683179
2635.663904,    1.686508
2636.913427,    1.689821
2638.166475,    1.693137
2639.425461,    1.696464
2640.681076,    1.699776
2641.943125,    1.703099
2643.210078,    1.706430
2644.480994,    1.709766
2645.747095,    1.713083
2647.015170,    1.716400
2648.285888,    1.719718
2649.560585,    1.723041
2650.837085,    1.726363
2652.121513,    1.729699
2653.405734,    1.733030
2654.684890,    1.736341
2655.973278,    1.739671
2657.258695,    1.742987
2658.544909,    1.746300
2659.835972,    1.749619
2661.133076,    1.752948
2662.430174,    1.756271
2663.736477,    1.759611
2665.045946,    1.762954
2666.350944,    1.766279
2667.658739,    1.769606
2668.967144,    1.772928
2670.287395,    1.776274
2671.609748,    1.779619
2672.931235,    1.782956
2674.251822,    1.786285
2675.579342,    1.789625
2676.913402,    1.792975
2678.246356,    1.796316
2679.584362,    1.799664
2680.917235,    1.802993
2682.252586,    1.806321
2683.593859,    1.809659
2684.940511,    1.813003
2686.291113,    1.816351
2687.641274,    1.819691
2688.998832,    1.823043
2690.351724,    1.826377
2691.707467,    1.829712
2693.063812,    1.833042
2694.423136,    1.836373
2695.788655,    1.839712
2697.157110,    1.843053
2698.522925,    1.846380
2699.895592,    1.849717
2701.263956,    1.853038
2702.637210,    1.856363
2704.026576,    1.859722
2705.413619,    1.863067
2706.796583,    1.866397
2708.185651,    1.869734
2709.584064,    1.873087
2710.979964,    1.876427
2712.378936,    1.879768
2713.776574,    1.883099
2715.168120,    1.886408
2716.570352,    1.889736
2717.983100,    1.893083
2719.397007,    1.896425
2720.812910,    1.899764
2722.227447,    1.903094
2723.648026,    1.906431
2725.066823,    1.909757
2726.477738,    1.913057
2727.913752,    1.916409
2729.332690,    1.919714
2730.773923,    1.923064
2732.215697,    1.926408
2733.651015,    1.929729
2735.092967,    1.933059
2736.533186,    1.936378
2737.981159,    1.939708
2739.430373,    1.943033
2740.895510,    1.946387
2742.356090,    1.949723
2743.826379,    1.953074
2745.296605,    1.956418
2746.760197,    1.959739
2748.226025,    1.963057
2749.704690,    1.966397
2751.183147,    1.969729
2752.664031,    1.973059
2754.137029,    1.976364
2755.619981,    1.979684
2757.106103,    1.983003
2758.601420,    1.986335
2760.090506,    1.989645
2761.594799,    1.992982
2763.091267,    1.996293
2764.596414,    1.999616
2766.092574,    2.002911
2767.598508,    2.006220
2769.111258,    2.009536
2770.623917,    2.012844
2772.148714,    2.016170
2773.671545,    2.019484
2775.196451,    2.022795
2776.727925,    2.026112
2778.237835,    2.029375
2779.780322,    2.032699
2781.319178,    2.036008
2782.865615,    2.039325
2784.410776,    2.042631
2785.950485,    2.045917
2787.503305,    2.049223
2789.066406,    2.052542
2790.625316,    2.055844
2792.179112,    2.059127
2793.742697,    2.062422
2795.303246,    2.065703
2796.860625,    2.068969
2798.426403,    2.072243
2800.003542,    2.075533
2801.579391,    2.078812
2803.155555,    2.082083
2804.748305,    2.085380
2806.334995,    2.088656
2807.929340,    2.091939
2809.534788,    2.095236
2811.140835,    2.098525
2812.729533,    2.101770
2814.323833,    2.105018
2815.941751,    2.108305
2817.549987,    2.111563
2819.161665,    2.114820
2820.784423,    2.118090
2822.392487,    2.121322
2824.011905,    2.124568
2825.637755,    2.127817
2827.270253,    2.131071
2828.902423,    2.134315
2830.534781,    2.137550
2832.169263,    2.140780
2833.812562,    2.144019
2835.452284,    2.147242
2837.090585,    2.150452
2838.751744,    2.153698
2840.410614,    2.156930
2842.064384,    2.160143
2843.725313,    2.163361
2845.401324,    2.166598
2847.076493,    2.169824
2848.753024,    2.173043
2850.427381,    2.176249
2852.107979,    2.179456
2853.783646,    2.182645
2855.462075,    2.185830
2857.162844,    2.189047
2858.856090,    2.192241
2860.555558,    2.195436
2862.241785,    2.198597
2863.943976,    2.201777
2865.652007,    2.204959
2867.348934,    2.208111
2869.075189,    2.211307
2870.791962,    2.214475
2872.509416,    2.217635
2874.234606,    2.220799
2875.952035,    2.223939
2877.666578,    2.227063
2879.393299,    2.230200
2881.111321,    2.233311
2882.845685,    2.236441
2884.583030,    2.239567
2886.323935,    2.242689
2888.065642,    2.245802
2889.799822,    2.248891
2891.552459,    2.252003
2893.304206,    2.255103
2895.060854,    2.258202
2896.815021,    2.261286
2898.580115,    2.264378
2900.348833,    2.267466
2902.116596,    2.270543
2903.883759,    2.273607
2905.660931,    2.276679
2907.435085,    2.279734
2909.216556,    2.282792
2910.989291,    2.285824
2912.780830,    2.288878
2914.583100,    2.291939
2916.383575,    2.294986
2918.172801,    2.298003
2919.984268,    2.301047
2921.779692,    2.304053
2923.578827,    2.307054
2925.382731,    2.310053
2927.199667,    2.313062
2929.014928,    2.316058
2930.831937,    2.319045
2932.656212,    2.322033
2934.471558,    2.324996
2936.300524,    2.327969
2938.125483,    2.330925
2939.966492,    2.333896
2941.792637,    2.336832
2943.636359,    2.339784
2945.474571,    2.342717
2947.329354,    2.345665
2949.168130,    2.348575
2951.009776,    2.351479
2952.863976,    2.354392
2954.708249,    2.357278
2956.556518,    2.360158
2958.415510,    2.363044
2960.263392,    2.365901
2962.141024,    2.368792
2963.988987,    2.371627
2965.835029,    2.374447
2967.703154,    2.377289
2969.568622,    2.380116
2971.446299,    2.382950
2973.326121,    2.385775
2975.209076,    2.388593
2977.087773,    2.391394
2978.973047,    2.394192
2980.875983,    2.397004
2982.779734,    2.399806
2984.686541,    2.402600
2986.585640,    2.405371
2988.492275,    2.408141
2990.390847,    2.410888
2992.303678,    2.413643
2994.196825,    2.416357
2996.116042,    2.419097
2998.025531,    2.421812
2999.960753,    2.424550
3001.884950,    2.427261
3003.794333,    2.429938
3005.730044,    2.432641
3007.646947,    2.435305
3009.577804,    2.437976
3011.526265,    2.440659
3013.456460,    2.443305
3015.404804,    2.445963
3017.339179,    2.448590
3019.274752,    2.451206
3021.235352,    2.453843
3023.179187,    2.456445
3025.119294,    2.459031
3027.048294,    2.461589
3029.005635,    2.464172
3030.965507,    2.466746
3032.940088,    2.469326
3034.891633,    2.471864
3036.862245,    2.474414
3038.818974,    2.476934
3040.797389,    2.479468
3042.772592,    2.481986
3044.742892,    2.484485
3046.701109,    2.486956
3048.680461,    2.489441
3050.664897,    2.491920
3052.660772,    2.494399
3054.629607,    2.496833
3056.613910,    2.499273
3058.598746,    2.501701
3060.588378,    2.504121
3062.587946,    2.506541
3064.586010,    2.508946
3066.594293,    2.511350
3068.606974,    2.513747
3070.612986,    2.516122
3072.624650,    2.518491
3074.637573,    2.520848
3076.636776,    2.523176
3078.651220,    2.525509
3080.660031,    2.527822
3082.653279,    2.530104
3084.661450,    2.532390
3086.676202,    2.534671
3088.695736,    2.536944
3090.719262,    2.539208
3092.757153,    2.541475
3094.785789,    2.543718
3096.802835,    2.545935
3098.828062,    2.548148
3100.853673,    2.550348
3102.869817,    2.552525
3104.876121,    2.554678
3106.942899,    2.556882
3108.972160,    2.559033
3111.029052,    2.561200
3113.063244,    2.563329
3115.105004,    2.565453
3117.143068,    2.567559
3119.195729,    2.569668
3121.248541,    2.571762
3123.307711,    2.573850
3125.363918,    2.575921
3127.407666,    2.577966
3129.466671,    2.580012
3131.520229,    2.582040
3133.590418,    2.584070
3134.272855,    2.585072
