Ground Distance, Altitude
   0.000000,    0.000000
   0.000001,    0.000000
   0.000022,    0.000000
   0.000269,    0.000000
   0.001546,    0.000000
   0.008568,    0.000000
   0.025861,    0.000000
   0.052564,    0.000000
   0.088636,    0.000000
   0.134260,    0.000000
   0.189567,    0.000000
   0.254546,    0.000000
   0.329154,    0.000000
   0.413194,    0.000000
   0.507589,    0.000000
   0.612937,    0.000000
   0.728495,    0.000000
   0.855500,    0.000000
   0.992684,    0.000000
   1.141479,    0.000000
   1.301537,    0.000000
   1.473335,    0.000000
   1.657281,    0.000000
   1.856357,    0.000000
   2.064703,    0.000000
   2.284095,    0.000000
   2.519148,    0.000000
   2.764670,    0.000000
   3.025114,    0.000000
   3.302165,    0.000000
   3.594172,    0.000000
   3.901938,    0.000000
   4.223707,    0.000000
   4.559049,    0.000000
   4.906882,    0.000000
   5.272356,    0.000000
   5.658541,    0.000000
   6.056934,    0.000000
   6.471883,    0.000000
   6.914256,    0.000000
   7.365086,    0.000000
   7.844327,    0.000000
   8.339092,    0.000000
   8.847488,    0.000000
   9.384387,    0.000000
   9.940316,    0.000000
  10.520586,    0.000000
  11.118386,    0.000000
  11.730878,    0.000000
  12.372581,    0.000000
  13.033546,    0.000000
  13.713755,    0.000000
  14.415991,    0.000000
  15.134796,    0.000000
  15.881504,    0.000000
  16.651854,    0.000000
  17.454734,    0.000000
  18.270663,    0.000000
  19.120896,    0.000000
  20.005401,    0.000000
  20.896828,    0.000000
  21.831988,    0.000000
  22.782725,    0.000000
  23.761666,    0.000000
  24.782155,    0.000000
  25.821214,    0.000000
  26.888161,    0.000000
  27.977529,    0.000000
  29.101494,    0.000000
  30.257344,    0.000000
  31.455474,    0.000000
  32.675265,    0.000000
  33.922279,    0.000000
  35.206782,    0.000000
  36.525429,    0.000000
  37.871281,    0.000000
  39.245326,    0.000000
  40.668389,    0.000000
  42.108591,    0.000000
  43.587833,    0.000000
  45.102566,    0.000000
  46.646903,    0.000000
  48.222500,    0.000000
  49.859166,    0.000000
  51.506035,    0.000000
  53.200157,    0.000000
  54.948154,    0.000000
  56.724014,    0.000000
  58.542927,    0.000000
  60.382809,    0.000000
  62.296748,    0.000000
  64.221366,    0.000000
  66.185778,    0.000000
  68.186983,    0.000000
  70.214108,    0.000000
  72.307794,    0.000000
  74.437013,    0.000000
  76.609570,    0.000000
  78.816847,    0.000000
  81.065995,    0.000000
  81.523823,    0.000000
  81.752331,    0.000000
  81.890141,    0.000000
  81.979757,    0.000000
  82.288379,    0.000000
  82.290218,    0.000000
  82.293266,    0.000000
  82.294563,    0.000000
  82.294931,    0.000000
  82.295104,    0.000000
  82.295280,    0.000000
  82.297037,    0.000000
  82.311917,    0.000000
  82.403383,    0.000000
  82.742660,    0.000000
  83.750408,    0.000000
  85.765766,    0.000000
  87.880349,    0.000000
  90.049472,    0.000000
  92.241110,    0.000000
  94.472934,    0.000000
  96.738497,    0.000000
  99.038907,    0.000000
 101.372310,    0.000000
 103.759468,    0.000000
 106.184136,    0.000000
 108.669010,    0.000000
 111.180834,    0.000000
 113.727822,    0.000000
 116.315732,    0.000000
 118.941353,    0.000000
 121.594479,    0.000000
 124.303954,    0.000000
 127.055404,    0.000000
 129.818370,    0.000000
 132.652319,    0.000000
 135.502317,    0.000000
 138.399958,    0.000000
 141.328085,    0.000000
 144.323802,    0.000000
 147.354415,    0.000000
 150.420513,    0.000000
 153.533701,    0.000000
 156.688149,    0.000000
 159.869704,    0.000000
 163.108979,    0.000000
 166.387815,    0.000000
 169.716474,    0.000000
 173.096650,    0.000000
 176.510832,    0.000000
 179.991805,    0.000000
 183.532600,    0.000000
 187.090616,    0.000000
 190.684141,    0.000000
 194.356124,    0.000000
 198.062317,    0.000000
 201.829259,    0.000000
 205.639115,    0.000000
 209.462352,    0.000000
 213.366553,    0.000000
 217.297304,    0.000000
 221.309155,    0.000000
 225.342035,    0.000000
 229.449810,    0.000000
 233.586588,    0.000000
 237.773418,    0.000000
 242.015797,    0.000000
 246.313696,    0.000000
 250.667623,    0.000000
 255.034014,    0.000000
 259.483373,    0.000000
 263.953234,    0.000000
 268.483789,    0.000000
 273.079864,    0.000000
 277.722250,    0.000000
 282.401820,    0.000000
 287.170539,    0.000000
 292.003009,    0.000000
 296.873854,    0.000000
 301.781817,    0.000000
 306.728806,    0.000000
 311.775603,    0.000000
 316.881327,    0.000000
 322.010292,    0.000000
 327.195141,    0.000000
 332.428907,    0.000000
 337.733883,    0.000000
 338.798812,    0.000000
 339.429380,    0.000000
 339.793002,    0.000000
 340.127613,    0.000000
 340.389217,    0.000000
 340.602746,    0.000000
 340.757250,    0.000000
 340.907402,    0.000000
 341.078768,    0.000000
 341.109825,    0.000000
 341.117717,    0.000000
 341.119563,    0.000000
 341.120548,    0.000000
 341.120982,    0.000000
 341.121506,    0.000000
 341.126748,    0.000000
 341.179168,    0.000000
 341.551583,    0.000000
 342.888562,    0.000000
 347.509362,    0.000000
 352.360722,    0.000000
 357.245043,    0.000000
 362.195167,    0.000000
 367.169723,    0.000000
 372.191739,    0.000000
 377.233110,    0.000000
 382.370418,    0.000000
 387.540271,    0.000000
 392.746985,    0.000000
 397.983687,    0.000000
 403.294958,    0.000000
 408.632681,    0.000000
 414.019632,    0.000000
 419.476226,    0.000000
 424.964014,    0.000000
 430.501911,    0.000000
 436.084350,    0.000000
 441.700069,    0.000000
 447.374846,    0.000000
 453.121995,    0.000000
 458.929855,    0.000000
 464.751711,    0.000000
 470.640873,    0.000000
 476.577751,    0.000000
 482.560927,    0.000000
 488.584817,    0.000000
 494.658612,    0.000000
 500.801416,    0.000000
 506.989869,    0.000000
 513.245823,    0.000000
 519.532068,    0.000000
 525.854295,    0.000000
 532.247322,    0.000000
 538.711834,    0.000000
 545.202425,    0.000000
 551.769230,    0.000000
 558.361466,    0.000000
 565.019589,    0.000000
 571.736462,    0.000000
 578.489367,    0.000000
 585.288218,    0.000000
 592.121504,    0.000000
 599.048383,    0.000000
 606.001993,    0.000000
 613.016788,    0.000000
 620.075486,    0.000000
 627.200938,    0.000000
 634.366026,    0.000000
 641.594396,    0.000000
 648.902659,    0.000000
 656.261662,    0.000000
 663.678577,    0.000000
 671.134632,    0.000000
 678.667845,    0.000000
 686.221305,    0.000000
 693.850830,    0.000000
 701.525176,    0.000000
 709.266697,    0.000000
 717.076192,    0.000000
 724.915951,    0.000000
 732.855346,    0.000000
 740.822625,    0.000000
 748.841274,    0.000000
 756.937612,    0.000000
 765.081381,    0.000000
 773.288737,    0.000000
 781.572988,    0.000000
 789.887260,    0.000000
 798.252951,    0.000000
 799.931507,    0.000000
 801.052919,    0.000000
 804.574996,    0.000000
 804.644271,    0.000000
 804.661729,    0.000000
 804.689703,    0.000000
 804.693503,    0.000000
 804.695667,    0.000000
 804.697021,    0.000000
 804.698265,    0.000000
 804.710704,    0.000000
 804.819537,    0.000000
 805.412610,    0.000000
 808.390296,    0.000000
 815.755773,    0.000000
 823.198659,    0.000000
 830.690559,    0.000000
 838.221195,    0.000000
 845.788810,    0.000000
 853.386272,    0.000000
 861.039621,    0.000000
 868.741994,    0.000000
 876.485137,    0.000000
 884.276542,    0.000000
 892.126942,    0.000000
 900.025367,    0.000000
 907.986891,    0.000000
 915.999041,    0.000000
 924.015597,    0.000000
 932.116424,    0.000000
 940.248941,    0.000000
 948.422568,    0.000000
 956.669505,    0.000000
 964.956937,    0.000000
 973.252676,    0.000000
 981.602575,    0.000000
 990.018928,    0.000000
 998.500415,    0.000000
1007.030168,    0.000000
1015.607553,    0.000000
1024.200615,    0.000000
1032.859135,    0.000000
1041.555800,    0.000000
1050.303704,    0.000000
1059.113780,    0.000000
1067.979729,    0.000000
1076.872243,    0.000000
1085.837976,    0.000000
1094.830943,    0.000000
1103.900330,    0.000000
1113.019149,    0.000000
1122.156321,    0.000000
1131.379614,    0.000000
1140.629076,    0.000000
1149.909471,    0.000000
1159.235442,    0.000000
1168.622571,    0.000000
1178.062574,    0.000000
1187.549256,    0.000000
1197.101518,    0.000000
1206.689224,    0.000000
1216.342495,    0.000000
1226.034989,    0.000000
1235.800986,    0.000000
1245.563482,    0.000000
1255.398759,    0.000000
1265.302418,    0.000000
1275.247001,    0.000000
1285.250477,    0.000000
1295.298804,    0.000000
1305.429965,    0.000000
1315.565197,    0.000000
1325.745889,    0.000000
1336.010797,    0.000000
1346.319357,    0.000000
1356.680569,    0.000000
1367.100663,    0.000000
1377.565770,    0.000000
1388.081973,    0.000000
1398.661123,    0.000000
1409.268380,    0.000000
1419.956398,    0.000000
1430.677998,    0.000000
1441.465645,    0.000000
1452.319402,    0.000000
1463.210653,    0.000000
1474.135114,    0.000000
1485.133499,    0.000000
1496.167017,    0.000000
1507.281527,    0.000000
1518.428108,    0.000000
1520.670171,    0.000000
1522.282798,    0.000000
1523.391538,    0.000000
1524.418028,    0.000000
1525.276645,    0.000000
1525.435737,    0.000000
1525.617616,    0.000000
1525.656517,    0.000000
1525.695023,    0.000000
1525.708337,    0.000000
1525.713428,    0.000000
1525.719070,    0.000000
1525.775488,    0.000000
1526.239614,    0.000000
1528.752816,    0.000000
1538.092773,    0.000000
1549.302998,    0.000000
1560.609325,    0.000000
1571.977531,    0.000000
1583.346792,    0.000000
1594.792449,    0.000000
1606.298556,    0.000000
1617.875562,    0.000000
1629.508299,    0.000000
1641.158126,    0.000000
1652.892457,    0.000000
1664.688258,    0.000000
1676.493441,    0.000000
1688.351807,    0.000000
1700.283377,    0.000000
1712.260987,    0.000000
1724.299242,    0.000000
1736.396226,    0.000000
1748.551544,    0.000000
1760.739235,    0.000000
1773.005785,    0.000000
1785.326812,    0.000000
1797.677590,    0.000000
1810.099839,    0.000000
1822.578976,    0.000000
1835.106161,    0.000000
1847.698104,    0.000000
1860.357504,    0.000000
1873.056215,    0.000000
1885.823307,    0.000000
1898.648553,    0.000000
1911.507467,    0.000000
1924.433722,    0.000000
1937.443794,    0.000000
1950.485492,    0.000000
1963.583883,    0.000000
1976.724447,    0.000000
1989.945433,    0.000000
2003.200414,    0.000000
2016.507350,    0.000000
2029.878092,    0.000000
2043.299367,    0.000000
2056.767164,    0.000000
2070.299823,    0.000000
2083.936703,    0.000000
2097.592688,    0.000000
2111.289369,    0.000000
2125.048530,    0.000000
2138.859633,    0.000000
2152.775822,    0.000000
2166.696588,    0.000000
2180.704840,    0.000000
2181.652943,    0.000000
2194.761700,    0.000000
2208.865517,    0.000000
2223.040296,    0.000000
2237.262696,    0.000000
2251.604799,    0.000000
2265.994426,    0.000000
2280.425097,    0.000000
2294.937791,    0.000000
2309.518545,    0.000000
2324.130937,    0.000000
2338.840799,    0.000000
2353.592632,    0.000000
2368.384404,    0.000000
2383.265842,    0.000000
2398.145886,    0.000000
2413.085865,    0.000000
2428.076690,    0.000000
2443.169160,    0.000000
2458.275233,    0.000000
2473.412573,    0.000000
2488.603231,    0.000000
2503.828277,    0.000000
2519.088245,    0.000000
2534.397591,    0.000000
2549.724255,    0.000000
2565.115232,    0.000000
2580.521564,    0.000000
2583.613685,    0.000000
2586.478870,    0.000000
2587.542756,    0.000016
2588.607182,    0.000063
2588.820167,    0.000076
2589.433236,    0.000122
2589.442911,    0.000123
2589.456728,    0.000124
2589.459692,    0.000124
2589.460758,    0.000124
2589.461977,    0.000124
2589.470087,    0.000125
2589.512005,    0.000129
2589.677446,    0.000143
2590.122070,    0.000187
2590.847414,    0.000271
2591.910109,    0.000424
2592.974237,    0.000613
2594.039253,    0.000839
2595.106842,    0.001105
2596.175187,    0.001410
2597.244065,    0.001756
2598.313370,    0.002145
2599.383945,    0.002577
2600.450152,    0.003051
2601.516786,    0.003571
2602.587634,    0.004139
2603.660124,    0.004756
2604.734454,    0.005422
2605.809519,    0.006140
2606.884317,    0.006908
2607.961310,    0.007730
2609.038710,    0.008607
2610.114954,    0.009537
2611.194181,    0.010526
2612.274423,    0.011573
2613.355698,    0.012680
2614.438000,    0.013847
2615.517900,    0.015073
2616.600904,    0.016364
2617.680917,    0.017715
2618.766463,    0.019137
2619.853706,    0.020627
2620.941833,    0.022186
2622.024215,    0.023804
2623.114186,    0.025503
2624.203856,    0.027273
2625.291412,    0.029111
2626.384041,    0.031030
2627.477033,    0.033025
2628.570084,    0.035096
2629.664992,    0.037248
2630.761945,    0.039482
2631.859679,    0.041798
2632.955820,    0.044191
2634.053842,    0.046670
2635.151939,    0.049234
2636.248656,    0.051878
2637.345006,    0.054607
2638.449512,    0.057443
2639.553199,    0.060367
2640.659571,    0.063388
2641.767258,    0.066504
2642.871290,    0.069703
2643.981534,    0.073014
2645.091495,    0.076420
2646.200989,    0.079921
2647.314373,    0.083533
2648.422246,    0.087227
2649.533292,    0.091032
2650.649617,    0.094957
2651.767072,    0.098990
2652.885922,    0.103134
2653.999400,    0.107364
2655.119898,    0.111729
2656.243093,    0.116214
2657.368085,    0.120818
2658.495206,    0.125544
2659.612706,    0.130342
2660.740709,    0.135301
2661.864577,    0.140358
2662.994159,    0.145559
2664.119904,    0.150861
2665.253433,    0.156322
2666.380316,    0.161873
2667.513151,    0.167576
2668.648842,    0.173420
2669.785771,    0.179398
2670.924692,    0.185515
2672.066780,    0.191781
2673.208991,    0.198179
2674.348750,    0.204697
2675.488910,    0.211351
2676.637451,    0.218192
2677.779239,    0.225130
2678.928200,    0.232251
2680.081511,    0.239542
2681.234555,    0.246975
2682.384002,    0.254529
2683.536843,    0.262251
2684.687016,    0.270102
2685.844104,    0.278151
2687.006218,    0.286386
2688.162450,    0.294732
2689.322401,    0.303259
2690.471231,    0.311858
2691.639227,    0.320758
2692.798909,    0.329754
2693.969532,    0.338996
2695.139155,    0.348392
2696.307599,    0.357941
2697.479913,    0.367685
2698.653108,    0.377601
2699.827129,    0.387688
2701.006249,    0.397985
2702.189669,    0.408488
2703.370685,    0.419137
2704.551306,    0.429951
2705.730915,    0.440924
2706.913598,    0.452094
2708.097652,    0.463448
2709.288848,    0.475042
2710.475426,    0.486763
2711.670766,    0.498745
2712.867044,    0.510911
2714.061737,    0.523237
2715.257172,    0.535745
2716.451233,    0.548416
2717.650720,    0.561320
2718.851873,    0.574422
2720.048302,    0.587649
2721.251453,    0.601130
2722.456478,    0.614813
2723.658920,    0.628647
2724.865112,    0.642706
2726.071634,    0.656950
2727.282434,    0.671430
2728.494954,    0.686114
2729.711175,    0.701029
2730.925004,    0.716102
2732.143378,    0.731418
2733.360951,    0.746913
2734.579475,    0.762608
2735.805297,    0.778587
2737.031301,    0.794761
2738.256284,    0.811114
2739.481992,    0.827668
2740.706340,    0.844397
2741.936910,    0.861405
2743.161281,    0.878521
2744.392181,    0.895923
2745.627118,    0.913580
2746.862925,    0.931446
2748.109376,    0.949668
2749.354077,    0.968066
2750.596973,    0.986639
2751.840957,    1.005430
2753.086744,    1.024451
2754.334182,    1.043702
2755.590859,    1.063302
2756.847463,    1.083108
2758.101029,    1.103075
2759.357313,    1.123293
2760.612030,    1.143695
2761.872848,    1.164406
2763.133600,    1.185328
2764.404849,    1.206638
2765.676639,    1.228173
2766.948180,    1.249920
2768.216423,    1.271827
2769.493283,    1.294100
2770.772485,    1.316635
2772.047382,    1.339313
2773.321949,    1.362204
2774.603829,    1.385448
2775.895984,    1.409104
2777.185172,    1.432932
2778.473613,    1.456972
2779.764449,    1.481283
2781.061890,    1.505948
2782.359748,    1.530851
2783.658583,    1.556005
2784.957500,    1.581391
2786.252323,    1.606928
2787.559237,    1.632939
2788.870258,    1.659267
2790.186092,    1.685932
2791.143519,    1.705485
2791.494592,    1.712686
2792.810204,    1.739825
2794.130426,    1.767301
2795.449490,    1.794996
2796.772223,    1.823011
2798.095569,    1.851284
2799.419086,    1.879807
2800.737067,    1.908454
2802.068260,    1.937637
2803.392321,    1.966911
2804.727567,    1.996682
2806.065548,    2.026768
2807.405699,    2.057156
2808.743394,    2.087743
2810.079748,    2.118553
2811.414392,    2.149578
2812.762850,    2.181181
2814.111401,    2.213047
2815.463332,    2.245254
2816.818093,    2.277791
2818.178646,    2.310733
2819.536894,    2.343884
2820.896876,    2.377344
2822.257389,    2.411085
2823.618998,    2.445121
2824.983303,    2.479494
2826.351809,    2.514244
2827.725050,    2.549388
2829.102759,    2.584922
2830.485108,    2.620854
2831.871528,    2.657173
2833.255418,    2.693706
2834.639984,    2.730538
2836.035624,    2.767950
2837.426560,    2.805521
2838.826488,    2.843623
2840.224911,    2.881972
2841.621685,    2.920566
2843.032407,    2.959838
2844.441820,    2.999368
2845.850995,    3.039188
2847.263469,    3.079397
2848.674883,    3.119873
2850.094243,    3.160878
2851.510666,    3.202098
2852.941394,    3.244040
2854.372855,    3.286311
2855.796694,    3.328663
2857.232431,    3.371678
2858.658336,    3.414706
2860.094813,    3.458365
2861.528821,    3.502260
2862.966558,    3.546582
2864.405216,    3.591247
2865.857392,    3.636651
2867.312447,    3.682468
2868.768018,    3.728624
2870.225920,    3.775179
2871.685103,    3.822101
2873.145828,    3.869400
2874.621673,    3.917521
2876.095150,    3.965900
2877.566735,    4.014550
2879.042280,    4.063668
2880.520228,    4.113203
2881.998751,    4.163096
2883.490673,    4.213785
2884.973431,    4.264505
2886.463783,    4.315830
2887.943635,    4.367136
2889.440312,    4.419373
2890.942123,    4.472142
2892.435548,    4.524966
2893.940132,    4.578540
2895.454220,    4.632810
2896.963377,    4.687263
2898.481809,    4.742413
2899.996883,    4.797804
2901.507585,    4.853397
2903.032670,    4.909886
2904.562189,    4.966909
2906.094992,    5.024428
2907.629513,    5.082386
2909.168656,    5.140895
2910.709328,    5.199842
2912.246957,    5.259050
2913.792231,    5.318934
2915.342168,    5.379384
2916.893362,    5.440269
2918.448972,    5.501716
2920.004993,    5.563569
2921.567838,    5.626087
2923.137692,    5.689283
2924.712722,    5.753088
2926.284838,    5.817175
2927.853044,    5.881504
2929.436779,    5.946875
2931.019184,    6.012599
2932.611837,    6.079161
2934.198097,    6.145867
2935.797892,    6.213560
2937.391567,    6.281411
2938.988911,    6.349836
2940.596970,    6.419143
2942.200449,    6.488677
2943.809290,    6.558869
2945.421994,    6.629658
2947.030175,    6.700677
2948.652147,    6.772738
2950.274256,    6.845242
2951.905092,    6.918576
2953.527873,    6.991987
2955.153837,    7.065981
2956.788712,    7.140826
2958.429637,    7.216396
2960.066242,    7.292216
2961.706581,    7.368658
2963.358207,    7.446083
2965.005636,    7.523767
2966.659930,    7.602235
2968.323228,    7.681594
2969.978922,    7.761053
2971.652559,    7.841845
2973.312738,    7.922455
2974.987135,    8.004228
2976.669300,    8.086859
2978.347555,    8.169777
2980.031994,    8.253482
2981.704931,    8.337094
2983.395417,    8.422069
2985.080067,    8.507235
2986.782734,    8.593806
2988.485065,    8.680856
2990.193999,    8.768743
2991.895081,    8.856725
2993.599851,    8.945397
2995.306158,    9.034650
2997.021561,    9.124885
2998.735351,    9.215543
3000.457889,    9.307175
3002.177261,    9.399151
3003.896279,    9.491621
3005.620423,    9.584882
3007.358866,    9.679440
3009.089486,    9.774094
3010.835324,    9.870111
3012.568932,    9.965981
3014.306933,   10.062621
3016.073101,   10.161369
3017.817554,   10.259440
3019.579994,   10.359065
3021.327968,   10.458411
3023.095916,   10.559439
3024.866110,   10.661147
3026.640251,   10.763636
3028.416958,   10.866831
3030.190127,   10.970377
3031.980688,   11.075504
3033.773339,   11.181324
3035.555597,   11.287095
3037.351414,   11.394242
3039.154630,   11.502409
3040.942893,   11.610251
3042.750896,   11.719863
3044.564845,   11.830423
3046.370037,   11.941034
3048.180139,   12.052532
3049.993491,   12.164820
3051.818776,   12.278443
3053.636494,   12.392190
3055.462948,   12.507083
3057.304653,   12.623544
3059.146818,   12.740648
3060.978678,   12.857704
3062.809854,   12.975323
3064.664235,   13.095052
3066.508166,   13.214725
3068.350206,   13.334892
3070.204900,   13.456507
3072.079462,   13.580062
3073.924538,   13.702299
3075.793240,   13.826734
3077.657876,   13.951534
3079.527387,   14.077300
3081.402972,   14.204117
3083.279518,   14.331645
3085.171008,   14.460842
3087.053299,   14.590064
3088.942166,   14.720393
3090.841384,   14.852099
3092.749463,   14.985090
3094.643842,   15.117790
3096.540923,   15.251345
3098.436741,   15.385477
3100.350570,   15.521558
3102.242679,   15.656763
3104.174394,   15.795484
3106.097723,   15.934293
3108.003643,   16.072524
3109.927578,   16.212748
3111.859264,   16.354232
3113.784492,   16.495937
3115.718072,   16.638954
3117.624970,   16.780683
3119.545644,   16.924125
3121.476673,   17.069038
3123.424130,   17.215893
3125.369363,   17.363292
3127.325253,   17.512217
3129.289886,   17.662534
3131.243962,   17.812765
3133.188647,   17.962990
3135.135673,   18.114112
3137.093398,   18.266788
3139.052313,   18.420283
3141.035746,   18.576441
3143.007322,   18.732406
3144.978074,   18.889044
3146.956213,   19.047013
3148.944047,   19.206506
3150.937835,   19.367234
3152.919678,   19.527750
3154.909000,   19.689627
3156.899890,   19.852390
3158.884191,   20.015369
3160.854001,   20.177903
3162.848868,   20.343264
3164.861571,   20.510878
3166.847377,   20.677016
3168.857455,   20.845956
3170.873353,   21.016167
3172.889773,   21.187206
3174.907344,   21.359128
3176.922742,   21.531650
3178.928468,   21.704124
3180.958708,   21.879499
3182.957914,   22.052973
3185.000805,   22.231038
3187.010514,   22.407002
3189.046679,   22.586082
3191.068654,   22.764712
3193.095128,   22.944538
3195.122767,   23.125269
3197.158221,   23.307502
3199.203907,   23.491466
3201.249705,   23.676258
3203.276108,   23.860105
3205.331303,   24.047385
3207.397563,   24.236508
3209.451028,   24.425288
3211.521286,   24.616451
3213.581361,   24.807509
3215.652868,   25.000469
3217.724891,   25.194321
3219.779139,   25.387345
3221.840530,   25.581877
3223.906086,   25.777643
3225.948383,   25.972033
3228.037941,   26.171774
3230.120264,   26.371683
3232.185664,   26.570816
3234.255008,   26.771176
3236.352222,   26.975102
3238.446061,   27.179570
3240.547311,   27.385637
3242.629359,   27.590688
3244.710865,   27.796547
3246.805954,   28.004621
3248.911609,   28.214625
3251.007498,   28.424534
3253.126930,   28.637693
3255.249589,   28.852076
3257.360061,   29.066121
3259.488280,   29.282868
3261.610961,   29.499956
3263.699501,   29.714433
3265.807205,   29.931765
3267.923065,   30.150835
3270.051381,   30.372102
3272.166240,   30.592872
3274.291456,   30.815630
3276.403218,   31.037878
3278.533670,   31.263004
3280.655466,   31.488125
3282.817733,   31.718474
3284.946099,   31.946135
3287.077689,   32.175057
3289.234850,   32.407662
3291.384276,   32.640369
3293.516310,   32.872117
3295.662601,   33.106346
3297.798672,   33.340387
3299.934847,   33.575366
3302.088706,   33.813228
3304.213334,   34.048786
3306.381087,   34.290072
3308.524558,   34.529595
3310.696084,   34.773207
3312.710029,   35.000000
