Speed, Forces
  71.188374, 24762.674633
  71.979613, 23538.472595
  72.770852, 22213.296855
  73.562091, 21218.209126
  74.353330, 20580.905737
  75.144569, 19986.927571
  75.935808, 19482.401653
  76.727047, 19081.448189
  77.518286, 18676.338508
  78.309525, 18307.461585
  79.100764, 17990.203616
  79.892003, 17669.756188
  80.683242, 17346.119300
  81.474481, 17078.554262
  82.265720, 16814.850402
  83.056959, 16548.597958
  83.848198, 16279.796932
  84.639437, 16065.199681
  85.430676, 15850.608189
  86.221915, 15634.019954
  87.013154, 15415.434976
  87.804393, 15221.916801
  88.595632, 15050.818548
  89.386871, 14878.185379
  90.178110, 14704.017294
  90.969349, 14528.314293
  91.760588, 14375.099051
  92.551827, 14247.046635
  93.343066, 14117.894781
  94.134305, 13987.643489
  94.925544, 13856.292758
  95.716783, 13723.842589
  96.508022, 13625.112338
  97.299261, 13544.298435
  98.090500, 13462.824669
  98.881739, 13380.691041
  99.672978, 13297.897550
 100.464217, 13214.444196
 101.255456, 13130.330979
 102.046695, 13083.480096
 102.837934, 13043.785524
 103.629173, 13003.784361
 104.420412, 12963.476607
 105.211651, 12922.862262
 106.002890, 12881.941326
 106.794129, 12840.713799
 107.585368, 12799.179681
 108.376607, 12785.472746
 109.167846, 12783.145917
 109.959085, 12780.802161
 110.750324, 12778.441480
 111.541563, 12776.063872
 112.332802, 12773.669339
 113.124041, 12771.257880
 113.915280, 12768.829494
 114.706519, 12766.384183
 115.497758, 12763.921945
 116.288997, 12791.700881
 117.080236, 12827.304620
 117.871475, 12863.149787
 118.662714, 12899.236384
 119.453953, 12935.564410
 120.245192, 12972.133865
 121.036431, 13008.944749
 121.827670, 13045.997062
 122.618909, 13083.290805
 123.410148, 13120.825976
 124.201387, 13158.602577
 124.992626, 13196.620607
 125.783865, 13248.165172
 126.575104, 13326.824458
 127.366343, 13405.976996
 128.157582, 13485.622786
 128.948821, 13565.761827
 129.740060, 13646.394121
 130.531299, 13727.519668
 131.322538, 13809.138466
 132.113777, 13891.250516
 132.905016, 13973.855818
 133.696255, 14056.954373
 134.487494, 14140.546179
 135.278733, 14224.631238
 136.069972, 14309.209549
 136.861211, 14394.281111
 137.652450, 14479.845926
 138.443689, 14565.903993
 139.234928, 14683.368920
 140.026167, 14801.872136
 140.817406, 14921.046871
 141.608645, 15040.893122
 142.399884, 15161.410892
 143.191123, 15282.600179
 143.982362, 15404.460983
 144.773601, 15526.993305
 145.564840, 15650.197145
 146.356079, 15774.072502
 147.147318, 15898.619377
 147.938557, 16023.837769
 148.729796, 16149.727679
 149.521035, 16276.289106
