Speed, Forces
  76.286523, 24762.674633
  77.001918, 23831.217827
  77.717314, 22522.109191
  78.432709, 21686.078564
  79.148104, 20949.013862
  79.863499, 20451.591757
  80.578895, 19949.693835
  81.294290, 19519.854717
  82.009685, 19182.164703
  82.725080, 18841.516012
  83.440476, 18497.908645
  84.155871, 18218.650982
  84.871266, 17950.427540
  85.586661, 17679.933625
  86.302057, 17407.169237
  87.017452, 17168.721819
  87.732847, 16947.137018
  88.448242, 16723.737963
  89.163638, 16498.524654
  89.879033, 16271.497091
  90.594428, 16092.000645
  91.309823, 15911.288133
  92.025219, 15729.154205
  92.740614, 15545.598860
  93.456009, 15360.622099
  94.171404, 15206.058829
  94.886800, 15061.680061
  95.602195, 14916.208635
  96.317590, 14769.644552
  97.032985, 14621.987813
  97.748381, 14473.238416
  98.463776, 14355.272255
  99.179171, 14247.159886
  99.894566, 14138.264864
 100.609962, 14028.587186
 101.325357, 13918.126855
 102.040752, 13806.883868
 102.756147, 13694.858228
 103.471543, 13620.165010
 104.186938, 13551.989792
 104.902333, 13483.344840
 105.617728, 13414.230152
 106.333124, 13344.645730
 107.048519, 13274.591572
 107.763914, 13204.067680
 108.479309, 13133.074053
 109.194705, 13090.938678
 109.910100, 13057.516518
 110.625495, 13023.876105
 111.340890, 12990.017441
 112.056286, 12955.940524
 112.771681, 12921.645354
 113.487076, 12887.131933
 114.202471, 12852.400259
 114.917867, 12817.450334
 115.633262, 12786.849787
 116.348657, 12784.896205
 117.064052, 12782.930574
 117.779448, 12780.952895
 118.494843, 12778.963166
 119.210238, 12776.961388
 119.925633, 12774.947561
 120.641028, 12772.921685
 121.356424, 12770.883760
 122.071819, 12768.833786
 122.787214, 12766.771763
 123.502609, 12764.697691
 124.218005, 12775.029522
 124.933400, 12804.957420
 125.648795, 12835.057184
 126.364190, 12865.328813
 127.079586, 12895.772308
 127.794981, 12926.387669
 128.510376, 12957.174895
 129.225771, 12988.133987
 129.941167, 13019.264944
 130.656562, 13050.567767
 131.371957, 13082.042455
 132.087352, 13113.689009
 132.802748, 13145.507429
 133.518143, 13177.497714
 134.233538, 13209.659865
 134.948933, 13262.699061
 135.664329, 13329.110242
 136.379724, 13395.872553
 137.095119, 13462.985995
 137.810514, 13530.450566
 138.525910, 13598.266268
 139.241305, 13666.433100
 139.956700, 13734.951062
 140.672095, 13803.820155
 141.387491, 13873.040377
 142.102886, 13942.611730
 142.818281, 14012.534213
 143.533676, 14082.807826
 144.249072, 14153.432570
 144.964467, 14224.408443
 145.679862, 14295.735447
 146.395257, 14367.413581
 147.110653, 14439.442845
