Speed, Forces
  66.573959, 24762.674633
  67.435779, 23229.408006
  68.297599, 21886.706377
  69.159419, 20879.006856
  70.021239, 20190.303023
  70.883059, 19552.741301
  71.744878, 19086.207177
  72.606698, 18614.035050
  73.468518, 18207.049752
  74.330338, 17836.054184
  75.192158, 17460.732041
  76.053978, 17127.928743
  76.915798, 16821.107784
  77.777618, 16510.829614
  78.639438, 16212.999203
  79.501258, 15964.487772
  80.363078, 15713.267715
  81.224898, 15459.339030
  82.086717, 15227.949992
  82.948537, 15028.588219
  83.810357, 14827.144298
  84.672177, 14623.618229
  85.533997, 14423.042654
  86.395817, 14274.277024
  87.257637, 14124.019981
  88.119457, 13972.271525
  88.981277, 13819.031656
  89.843097, 13669.530225
  90.704917, 13575.768211
  91.566737, 13481.111079
  92.428557, 13385.558827
  93.290376, 13289.111456
  94.152196, 13191.768966
  95.014016, 13105.769927
  95.875836, 13059.710046
  96.737656, 13013.234267
  97.599476, 12966.342591
  98.461296, 12919.035017
  99.323116, 12871.311545
 100.184936, 12823.172176
 101.046756, 12786.426611
 101.908576, 12783.723056
 102.770396, 12780.996540
 103.632215, 12778.247064
 104.494035, 12775.474627
 105.355855, 12772.679230
 106.217675, 12769.860873
 107.079495, 12767.019554
 107.941315, 12764.155276
 108.803135, 12794.193413
 109.664955, 12835.703939
 110.526775, 12877.541970
 111.388595, 12919.707504
 112.250415, 12962.200543
 113.112235, 13005.021086
 113.974054, 13048.169133
 114.835874, 13091.644684
 115.697694, 13135.447739
 116.559514, 13179.578298
 117.421334, 13226.010930
 118.283154, 13317.510137
 119.144974, 13409.678452
 120.006794, 13502.515875
 120.868614, 13596.022405
 121.730434, 13690.198043
 122.592254, 13785.042789
 123.454074, 13880.556642
 124.315893, 13976.739603
 125.177713, 14073.591672
 126.039533, 14171.112848
 126.901353, 14269.303132
 127.763173, 14368.162524
 128.624993, 14467.691023
 129.486813, 14568.239122
 130.348633, 14705.559922
 131.210453, 14843.791651
 132.072273, 14982.934308
 132.934093, 15122.987894
 133.795913, 15263.952410
 134.657733, 15405.827854
 135.519552, 15548.614227
 136.381372, 15692.311528
 137.243192, 15836.919759
 138.105012, 15982.438918
 138.966832, 16128.869006
 139.828652, 16276.210024
 140.690472, 16424.461969
 141.552292, 16573.624844
 142.414112, 16723.698648
 143.275932, 16874.683380
 144.137752, 17026.579041
 144.999572, 17179.385632
 145.861391, 17333.103151
 146.723211, 17501.615953
 147.585031, 17687.153825
 148.446851, 17873.778316
 149.308671, 18061.489423
 150.170491, 18250.287149
 151.032311, 18440.171491
 151.894131, 18631.142451
