Speed, Forces
  62.384551, 38409.491652
  63.312300, 38119.071683
  64.240049, 37828.651713
  65.167797, 37538.231744
  66.095546, 37247.811775
  67.023294, 36957.391805
  67.951043, 36666.971836
  68.878792, 36376.551867
  69.806540, 36108.346624
  70.734289, 35865.091106
  71.662037, 35621.835588
  72.589786, 35378.580071
  73.517535, 35135.324553
  74.445283, 34892.069036
  75.373032, 34648.813518
  76.300780, 34405.558001
  77.228529, 34162.302483
  78.156278, 33919.046965
  79.084026, 33675.791448
  80.011775, 33432.535930
  80.939523, 33189.468125
  81.867272, 32967.024215
  82.795020, 32744.580306
  83.722769, 32522.136396
  84.650518, 32299.692486
  85.578266, 32077.248577
  86.506015, 31854.804667
  87.433763, 31632.360757
  88.361512, 31409.916848
  89.289261, 31187.472938
  90.217009, 30965.029029
  91.144758, 30742.585119
  92.072506, 30520.141209
  93.000255, 30305.573987
  93.928004, 30097.529132
  94.855752, 29889.484276
  95.783501, 29681.439421
  96.711249, 29473.394566
  97.638998, 29265.349710
  98.566747, 29057.304855
  99.494495, 28849.260000
 100.422244, 28641.215145
 101.349992, 28433.170289
 102.277741, 28225.125434
 103.205489, 28017.080579
 104.133238, 27809.889656
 105.060987, 27611.886111
 105.988735, 27413.882566
 106.916484, 27215.879021
 107.844232, 27017.875476
 108.771981, 26819.871931
 109.699730, 26621.868386
 110.627478, 26423.864841
 111.555227, 26225.861296
 112.482975, 26027.857751
 113.410724, 25829.854206
 114.338473, 25631.850661
 115.266221, 25433.847116
 116.193970, 25251.431483
 117.121718, 25078.446853
 118.049467, 24905.462223
 118.977216, 24732.477593
 119.904964, 24559.492963
 120.832713, 24386.508333
 121.760461, 24213.523703
 122.688210, 24040.539073
 123.615958, 23867.554443
 124.543707, 23694.569813
 125.471456, 23521.585183
 126.399204, 23348.600553
 127.326953, 23178.596024
 128.254701, 23024.114562
 129.182450, 22869.633099
 130.110199, 22715.151637
 131.037947, 22560.670175
 131.965696, 22406.188713
 132.893444, 22251.707250
 133.821193, 22097.225788
 134.748942, 21942.744326
 135.676690, 21788.262864
 136.604439, 21633.781402
 137.532187, 21479.299939
 138.459936, 21324.818477
 139.387684, 21179.836646
 140.315433, 21038.944293
 141.243182, 20898.051941
 142.170930, 20757.159588
 143.098679, 20616.267236
 144.026427, 20475.374883
 144.954176, 20334.482531
 145.881925, 20193.590178
 146.809673, 20052.697826
 147.737422, 19911.805473
 148.665170, 19770.913121
 149.592919, 19630.020768
 150.520668, 19490.124286
 151.448416, 19353.432570
 152.376165, 19216.740854
 153.303913, 19080.049138
 154.231662, 18943.357422
