Speed, Forces
  71.188374, 29387.584613
  71.979613, 29210.881350
  72.770852, 29034.178086
  73.562091, 28857.474823
  74.353330, 28680.771560
  75.144569, 28504.068297
  75.935808, 28327.365034
  76.727047, 28150.661771
  77.518286, 27973.958508
  78.309525, 27797.255245
  79.100764, 27644.218331
  79.892003, 27496.707800
  80.683242, 27349.197269
  81.474481, 27201.686738
  82.265720, 27054.176207
  83.056959, 26906.665676
  83.848198, 26759.155146
  84.639437, 26611.644615
  85.430676, 26464.134084
  86.221915, 26316.623553
  87.013154, 26169.113022
  87.804393, 26021.602491
  88.595632, 25874.091960
  89.386871, 25726.581429
  90.178110, 25592.024715
  90.969349, 25464.598631
  91.760588, 25337.172548
  92.551827, 25209.746464
  93.343066, 25082.320381
  94.134305, 24954.894297
  94.925544, 24827.468213
  95.716783, 24700.042130
  96.508022, 24572.616046
  97.299261, 24445.189962
  98.090500, 24317.763879
  98.881739, 24190.337795
  99.672978, 24062.911711
 100.464217, 23935.485628
 101.255456, 23814.659256
 102.046695, 23701.004147
 102.837934, 23587.349038
 103.629173, 23473.693928
 104.420412, 23360.038819
 105.211651, 23246.383710
 106.002890, 23132.728600
 106.794129, 23019.073491
 107.585368, 22905.418381
 108.376607, 22791.763272
 109.167846, 22678.108163
 109.959085, 22564.453053
 110.750324, 22450.797944
 111.541563, 22337.142835
 112.332802, 22227.695109
 113.124041, 22127.459987
 113.915280, 22027.224865
 114.706519, 21926.989742
 115.497758, 21826.754620
 116.288997, 21726.519498
 117.080236, 21626.284376
 117.871475, 21526.049254
 118.662714, 21425.814131
 119.453953, 21325.579009
 120.245192, 21225.343887
 121.036431, 21125.108765
 121.827670, 21024.873642
 122.618909, 20924.638520
 123.410148, 20826.257026
 124.201387, 20738.563643
 124.992626, 20650.870260
 125.783865, 20563.176877
 126.575104, 20475.483495
 127.366343, 20387.790112
 128.157582, 20300.096729
 128.948821, 20212.403347
 129.740060, 20124.709964
 130.531299, 20037.016581
 131.322538, 19949.323198
 132.113777, 19861.629816
 132.905016, 19773.936433
 133.696255, 19686.243050
 134.487494, 19598.549668
 135.278733, 19521.385216
 136.069972, 19444.413051
 136.861211, 19367.440886
 137.652450, 19290.468721
 138.443689, 19213.496556
 139.234928, 19136.524390
 140.026167, 19059.552225
 140.817406, 18982.580060
 141.608645, 18905.607895
 142.399884, 18828.635729
 143.191123, 18751.663564
 143.982362, 18674.691399
 144.773601, 18597.719234
 145.564840, 18520.747069
 146.356079, 18450.761058
 147.147318, 18382.346736
 147.938557, 18313.932413
 148.729796, 18245.518090
 149.521035, 18177.103767
