Speed, Forces
  58.570026, 41525.093113
  59.559573, 41179.371825
  60.549120, 40831.907025
  61.538668, 40484.442225
  62.528215, 40136.977425
  63.517763, 39789.512625
  64.507310, 39442.047825
  65.496858, 39094.583024
  66.486405, 38747.118224
  67.475953, 38399.653424
  68.465500, 38052.188624
  69.455047, 37704.723824
  70.444595, 37358.844973
  71.434142, 37051.676820
  72.423690, 36744.508667
  73.413237, 36437.340514
  74.402785, 36130.172361
  75.392332, 35823.004208
  76.381879, 35515.836055
  77.371427, 35208.667902
  78.360974, 34901.499749
  79.350522, 34594.331596
  80.340069, 34287.163443
  81.329617, 33979.995290
  82.319164, 33678.862238
  83.308712, 33405.011890
  84.298259, 33131.161542
  85.287806, 32857.311194
  86.277354, 32583.460846
  87.266901, 32309.610498
  88.256449, 32035.760150
  89.245996, 31761.909802
  90.235544, 31488.059454
  91.225091, 31214.209106
  92.214638, 30940.358758
  93.204186, 30666.508410
  94.193733, 30402.708251
  95.183281, 30159.981436
  96.172828, 29917.254622
  97.162376, 29674.527807
  98.151923, 29431.800992
  99.141471, 29189.074178
 100.131018, 28946.347363
 101.120565, 28703.620549
 102.110113, 28460.893734
 103.099660, 28218.166919
 104.089208, 27975.440105
 105.078755, 27732.713290
 106.068303, 27503.298120
 107.057850, 27289.217384
 108.047398, 27075.136648
 109.036945, 26861.055912
 110.026492, 26646.975176
 111.016040, 26432.894440
 112.005587, 26218.813704
 112.995135, 26004.732968
 113.984682, 25790.652232
 114.974230, 25576.571496
 115.963777, 25362.490760
 116.953324, 25148.410024
 117.942872, 24950.522769
 118.932419, 24763.143514
 119.921967, 24575.764259
 120.911514, 24388.385004
 121.901062, 24201.005749
 122.890609, 24013.626494
 123.880157, 23826.247239
 124.869704, 23638.867984
 125.859251, 23451.488729
 126.848799, 23264.109474
 127.838346, 23076.730219
 128.827894, 22889.350964
 129.817441, 22715.244466
 130.806989, 22545.603744
 131.796536, 22375.963022
 132.786083, 22206.322300
 133.775631, 22036.681578
 134.765178, 21867.040856
 135.754726, 21697.400134
 136.744273, 21527.759412
 137.733821, 21358.118690
 138.723368, 21188.477968
 139.712916, 21018.837246
 140.702463, 20849.196524
 141.692010, 20689.582837
 142.681558, 20531.208262
 143.671105, 20372.833687
 144.660653, 20214.459111
 145.650200, 20056.084536
 146.639748, 19897.709960
 147.629295, 19739.335385
 148.618843, 19580.960810
 149.608390, 19422.586234
 150.597937, 19264.211659
 151.587485, 19105.837084
 152.577032, 18947.469258
 153.566580, 18789.306958
 154.556127, 18631.144659
 155.545675, 18472.982360
 156.535222, 18314.820060
