Speed, Forces
  76.286523, 25008.140817
  77.001918, 24865.854083
  77.717314, 24739.542018
  78.432709, 24619.114064
  79.148104, 24498.686110
  79.863499, 24378.258156
  80.578895, 24257.830202
  81.294290, 24137.402248
  82.009685, 24016.974295
  82.725080, 23896.546341
  83.440476, 23776.118387
  84.155871, 23655.690433
  84.871266, 23535.262479
  85.586661, 23414.834525
  86.302057, 23294.406572
  87.017452, 23173.978618
  87.732847, 23053.550664
  88.448242, 22938.813161
  89.163638, 22836.401146
  89.879033, 22733.989131
  90.594428, 22631.577115
  91.309823, 22529.165100
  92.025219, 22426.753085
  92.740614, 22324.341069
  93.456009, 22221.929054
  94.171404, 22119.517038
  94.886800, 22017.105023
  95.602195, 21914.693008
  96.317590, 21812.280992
  97.032985, 21709.868977
  97.748381, 21607.456962
  98.463776, 21505.044946
  99.179171, 21402.632931
  99.894566, 21313.326597
 100.609962, 21225.461785
 101.325357, 21137.596973
 102.040752, 21049.732162
 102.756147, 20961.867350
 103.471543, 20874.002538
 104.186938, 20786.137726
 104.902333, 20698.272915
 105.617728, 20610.408103
 106.333124, 20522.543291
 107.048519, 20434.678480
 107.763914, 20346.813668
 108.479309, 20258.948856
 109.194705, 20171.084044
 109.910100, 20083.219233
 110.625495, 20000.035303
 111.340890, 19921.803031
 112.056286, 19843.570760
 112.771681, 19765.338488
 113.487076, 19687.106217
 114.202471, 19608.873946
 114.917867, 19530.641674
 115.633262, 19452.409403
 116.348657, 19374.177131
 117.064052, 19295.944860
 117.779448, 19217.712589
 118.494843, 19139.480317
 119.210238, 19061.248046
 119.925633, 18983.015774
 120.641028, 18904.783503
 121.356424, 18827.235446
 122.071819, 18758.640617
 122.787214, 18690.045789
 123.502609, 18621.450961
 124.218005, 18552.856133
 124.933400, 18484.261305
 125.648795, 18415.666477
 126.364190, 18347.071649
 127.079586, 18278.476821
 127.794981, 18209.881993
 128.510376, 18141.287165
 129.225771, 18072.692337
 129.941167, 18004.097509
 130.656562, 17935.502680
 131.371957, 17866.907852
 132.087352, 17798.313024
 132.802748, 17735.293411
 133.518143, 17675.196961
 134.233538, 17615.100510
 134.948933, 17555.004060
 135.664329, 17494.907610
 136.379724, 17434.811159
 137.095119, 17374.714709
 137.810514, 17314.618259
 138.525910, 17254.521809
 139.241305, 17194.425358
 139.956700, 17134.328908
 140.672095, 17074.232458
 141.387491, 17014.136007
 142.102886, 16954.039557
 142.818281, 16893.943107
 143.533676, 16835.386909
 144.249072, 16781.679331
 144.964467, 16727.971754
 145.679862, 16674.264176
 146.395257, 16620.556599
 147.110653, 16566.849022
