Speed, Forces
  66.573959, 33855.808854
  67.435779, 33622.072560
  68.297599, 33388.336266
  69.159419, 33179.783441
  70.021239, 32971.847414
  70.883059, 32763.911387
  71.744878, 32555.975360
  72.606698, 32348.039332
  73.468518, 32140.103305
  74.330338, 31932.167278
  75.192158, 31724.231251
  76.053978, 31516.295223
  76.915798, 31308.359196
  77.777618, 31100.423169
  78.639438, 30892.487141
  79.501258, 30684.551114
  80.363078, 30495.265373
  81.224898, 30311.737663
  82.086717, 30128.209953
  82.948537, 29944.682243
  83.810357, 29761.154533
  84.672177, 29577.626823
  85.533997, 29394.099113
  86.395817, 29210.571402
  87.257637, 29027.043692
  88.119457, 28843.515982
  88.981277, 28659.988272
  89.843097, 28476.460562
  90.704917, 28292.932852
  91.566737, 28119.856927
  92.428557, 27955.260456
  93.290376, 27790.663984
  94.152196, 27626.067513
  95.014016, 27461.471041
  95.875836, 27296.874570
  96.737656, 27132.278099
  97.599476, 26967.681627
  98.461296, 26803.085156
  99.323116, 26638.488684
 100.184936, 26473.892213
 101.046756, 26309.295742
 101.908576, 26144.699270
 102.770396, 25985.147352
 103.632215, 25835.383693
 104.494035, 25685.620034
 105.355855, 25535.856375
 106.217675, 25386.092716
 107.079495, 25236.329058
 107.941315, 25086.565399
 108.803135, 24936.801740
 109.664955, 24787.038081
 110.526775, 24637.274422
 111.388595, 24487.510764
 112.250415, 24337.747105
 113.112235, 24187.983446
 113.974054, 24040.736775
 114.835874, 23910.624050
 115.697694, 23780.511325
 116.559514, 23650.398601
 117.421334, 23520.285876
 118.283154, 23390.173151
 119.144974, 23260.060426
 120.006794, 23129.947701
 120.868614, 22999.834977
 121.730434, 22869.722252
 122.592254, 22739.609527
 123.454074, 22609.496802
 124.315893, 22479.384077
 125.177713, 22349.271353
 126.039533, 22233.799691
 126.901353, 22119.669140
 127.763173, 22005.538589
 128.624993, 21891.408039
 129.486813, 21777.277488
 130.348633, 21663.146937
 131.210453, 21549.016386
 132.072273, 21434.885836
 132.934093, 21320.755285
 133.795913, 21206.624734
 134.657733, 21092.494184
 135.519552, 20978.363633
 136.381372, 20864.233082
 137.243192, 20759.038305
 138.105012, 20657.599213
 138.966832, 20556.160120
 139.828652, 20454.721028
 140.690472, 20353.281935
 141.552292, 20251.842843
 142.414112, 20150.403750
 143.275932, 20048.964658
 144.137752, 19947.525565
 144.999572, 19846.086472
 145.861391, 19744.647380
 146.723211, 19643.208287
 147.585031, 19541.769195
 148.446851, 19445.073604
 149.308671, 19353.274208
 150.170491, 19261.474812
 151.032311, 19169.675416
 151.894131, 19077.876020
