Ground distance, Vertical Forces
   0.000000, 49604.021547
   0.050435, 49604.021547
   0.553756, 49604.021547
   1.112918, 49604.021547
   1.672080, 49604.021547
   2.231242, 49604.021547
   2.790404, 49604.021547
   3.349566, 49604.021547
   3.908728, 49604.021547
   4.467890, 49604.021547
   5.027052, 49604.021547
   5.586214, 49604.021547
   6.952707, 49604.021547
   8.420003, 49604.021547
   9.887299, 49604.021547
  11.354596, 49604.021547
  12.821892, 49604.021547
  14.289188, 49604.021547
  15.756484, 49604.021547
  17.223780, 49604.021547
  18.691077, 49604.021547
  20.158373, 49604.021547
  22.424515, 49604.021547
  24.790400, 49604.021547
  27.156286, 49604.021547
  29.522171, 49604.021547
  31.888056, 49604.021547
  34.253942, 49604.021547
  36.619827, 49604.021547
  38.985712, 49604.021547
  41.351598, 49604.021547
  43.717483, 49604.021547
  46.873494, 49604.021547
  50.128158, 49604.021547
  53.382823, 49604.021547
  56.637488, 49604.021547
  59.892153, 49604.021547
  63.146818, 49604.021547
  66.401483, 49604.021547
  69.656148, 49604.021547
  72.910813, 49604.021547
  76.165478, 49604.021547
  80.201325, 49604.021547
  84.334710, 49604.021547
  88.468095, 49604.021547
  92.601480, 49604.021547
  96.734865, 49604.021547
 100.868251, 49604.021547
 105.001636, 49604.021547
 109.135021, 49604.021547
 113.268406, 49604.021547
 117.401791, 49604.021547
 122.307207, 49604.021547
 127.309019, 49604.021547
 132.310830, 49604.021547
 137.312641, 49604.021547
 142.314452, 49604.021547
 147.316264, 49604.021547
 152.318075, 49604.021547
 157.319886, 49604.021547
 162.321698, 49604.021547
 167.323509, 49604.021547
 173.087679, 49604.021547
 178.947037, 49604.021547
 184.806395, 49604.021547
 190.665753, 49604.021547
 196.525111, 49604.021547
 202.384468, 49604.021547
 208.243826, 49604.021547
 214.103184, 49604.021547
 219.962542, 49604.021547
 225.821900, 49604.021547
 232.431578, 49604.021547
 239.134942, 49604.021547
 245.838305, 49604.021547
 252.541669, 49604.021547
 259.245032, 49604.021547
 265.948396, 49604.021547
 272.651759, 49604.021547
 279.355122, 49604.021547
 286.058486, 49604.021547
 292.761849, 49604.021547
 300.202488, 49604.021547
 307.735183, 49604.021547
 315.267877, 49604.021547
 322.800572, 49604.021547
 330.333266, 49604.021547
 337.865961, 49604.021547
 345.398656, 49604.021547
 352.931350, 49604.021547
 360.464045, 49604.021547
 367.996740, 49604.021547
 376.253616, 49604.021547
 384.600914, 49604.021547
 392.948212, 49604.021547
 401.295509, 49604.021547
 409.642807, 49604.021547
 417.990105, 49604.021547
 426.337402, 49604.021547
 434.684700, 49604.021547
 443.031998, 49604.021547
 451.379296, 49604.021547
 460.437650, 49604.021547
 469.584786, 49604.021547
 478.731923, 49604.021547
 487.879059, 49604.021547
 497.026196, 49604.021547
 506.173332, 49604.021547
 515.320469, 49604.021547
 524.467605, 49604.021547
 533.614742, 49604.021547
 542.761878, 49604.021547
 552.606928, 49604.021547
 562.539120, 49604.021547
 572.471311, 49604.021547
 582.403503, 49604.021547
 592.335694, 49604.021547
 602.267886, 49604.021547
 612.200077, 49604.021547
 622.132269, 49604.021547
 632.064461, 49604.021547
 641.996652, 49604.021547
 652.613612, 49604.021547
 663.316072, 49604.021547
 674.018532, 49604.021547
 684.720991, 49604.021547
 695.423451, 49604.021547
 706.125911, 49604.021547
 716.828371, 49604.021547
 727.530830, 49604.021547
 738.233290, 49604.021547
 748.935750, 49604.021547
 760.309352, 49604.021547
 771.766754, 49604.021547
 783.224155, 49604.021547
 794.681556, 49604.021547
 806.138957, 49604.021547
 817.596359, 49604.021547
 829.053760, 49604.021547
 840.511161, 49604.021547
 851.968562, 49604.021547
 863.425963, 49604.021547
 875.538335, 49604.021547
 887.732486, 49604.021547
 899.926636, 49604.021547
 912.120787, 49604.021547
 924.314938, 49604.021547
 936.509089, 49604.021547
 948.703239, 49604.021547
 960.897390, 49604.021547
 973.091541, 49604.021547
 985.285692, 49604.021547
 998.117911, 49604.021547
1011.029799, 49604.021547
1023.941687, 49604.021547
1036.853575, 49604.021547
1049.765464, 49604.021547
1062.677352, 49604.021547
1075.589240, 49604.021547
1088.501128, 49604.021547
1101.413016, 49604.021547
1114.324904, 49604.021547
1127.858191, 49604.021547
1141.469066, 49604.021547
1155.079940, 49604.021547
1168.690814, 49604.021547
1182.301689, 49604.021547
1195.912563, 49604.021547
1209.523438, 49604.021547
1223.134312, 49604.021547
1236.745186, 49604.021547
1250.356061, 49604.021547
1264.571907, 49604.021547
1278.863288, 49604.021547
1293.154670, 49604.021547
1307.446052, 49604.021547
1321.737434, 49604.021547
1336.028816, 49604.021547
1350.320198, 49604.021547
1364.611580, 49604.021547
1378.902962, 49604.021547
1393.194344, 49604.021547
1408.074521, 49604.021547
1423.028214, 49604.021547
1437.981907, 49604.021547
1452.935600, 49604.021547
1467.889293, 49604.021547
1482.842986, 49604.021547
1497.796679, 49604.021547
1512.750372, 49604.021547
1527.704065, 49604.021547
1542.657759, 49604.021547
1558.184329, 49604.021547
1573.782428, 49604.021547
1589.380527, 49604.021547
1604.978627, 49604.021547
1620.576726, 49604.021547
1636.174826, 49604.021547
1651.772925, 49604.021547
1667.371024, 49604.021547
1682.969124, 49604.021547
1698.567223, 49604.021547
1714.722548, 49604.021547
1730.947448, 49604.021547
1747.172348, 49604.021547
1763.397248, 49604.021547
1779.622147, 49604.021547
1795.847047, 49604.021547
1812.071947, 49604.021547
1828.296847, 49604.021547
1844.521747, 49604.021547
1860.746647, 49604.021547
1877.513399, 49604.021547
1894.347807, 49604.021547
1911.182215, 49604.021547
1928.016622, 49604.021547
1944.851030, 49604.021547
1961.685438, 49604.021547
1978.519846, 49604.021547
1995.354253, 49604.021547
2012.188661, 49604.021547
2029.023069, 49604.021547
2046.384346, 49604.021547
2063.811408, 49604.021547
2081.238470, 49604.021547
2098.665532, 49604.021547
2116.092594, 49604.021547
2133.519656, 49604.021547
2150.946718, 49604.021547
2168.373780, 49604.021547
2185.800842, 49604.021547
2203.227904, 49604.021547
2221.167199, 49604.021547
2239.170450, 49604.021547
2257.173702, 49604.021547
2275.176954, 49604.021547
2293.180205, 49604.021547
2311.183457, 49604.021547
2329.186708, 49604.021547
2347.189960, 49604.021547
2365.193212, 49604.021547
2383.196463, 49604.021547
2401.697587, 49604.021547
2420.260874, 49604.021547
2438.824162, 49604.021547
2457.387450, 49604.021547
2475.950737, 49604.021547
2494.514025, 49604.021547
2513.077312, 49604.021547
2531.640600, 49604.021547
2550.203887, 49604.021547
2568.767175, 49604.021547
2587.599928, 49604.021547
2590.539102, 49604.021547
2609.674712, 49604.021547
2628.810322, 49604.021547
2647.945933, 49604.021547
2667.081543, 49604.021547
2686.217153, 49604.021547
2705.352764, 49604.021547
2724.488374, 49604.021547
2743.623985, 49604.021547
2762.781826, 49604.021547
2782.413783, 49604.021547
2802.045740, 49604.021547
2821.677697, 49604.021547
2841.309654, 49604.021547
2860.941612, 49604.021547
2880.573569, 49604.021547
2900.205526, 49604.021547
2919.837483, 49604.021547
2939.469440, 49604.021547
2959.123670, 49604.021547
2979.252906, 49604.021547
2999.382142, 49604.021547
3019.511377, 49604.021547
3039.640613, 49604.021547
3059.769849, 49604.021547
3079.899085, 49604.021547
3100.028321, 49604.021547
3120.157557, 49604.021547
3140.286792, 49604.021547
3160.436843, 49604.021547
3181.030819, 49604.021547
3201.624795, 49604.021547
3222.218771, 49604.021547
3242.812746, 49604.021547
3263.406722, 49604.021547
3284.000698, 49604.021547
3304.594674, 49604.021547
3325.188649, 49604.021547
3345.782625, 49604.021547
3365.454221, 49604.021547
3386.399713, 49603.363172
3407.345205, 49601.388065
3428.290698, 49598.096279
3449.236190, 49593.487901
3470.181682, 49587.563053
3491.127174, 49580.321892
3512.072666, 49571.764611
3533.018159, 49561.891437
3553.963651, 49550.702632
3574.909143, 49538.198492
3595.946904, 49523.872988
3616.984664, 49508.139437
3638.022425, 49490.998288
3659.060185, 49472.450029
3680.097946, 49452.495185
3701.134540, 49431.030076
3722.171135, 49408.146250
3743.207730, 49383.844365
3764.244324, 49358.125118
3785.280919, 49330.989247
3806.271915, 49302.656077
3827.262911, 49272.928938
3848.253908, 49241.808671
3869.244904, 49209.296156
3890.235900, 49175.392312
