Fuel used, Altitude
   0.000073,    0.000000
   0.073306,    0.000000
   0.146650,    0.000000
   0.219998,    0.000000
   0.293346,    0.000000
   0.366694,    0.000000
   0.440042,    0.000000
   0.513390,    0.000000
   0.586739,    0.000000
   0.660087,    0.000000
   0.733435,    0.000000
   0.806783,    0.000000
   0.880186,    0.000000
   0.953596,    0.000000
   1.027006,    0.000000
   1.100416,    0.000000
   1.173826,    0.000000
   1.247237,    0.000000
   1.320647,    0.000000
   1.394057,    0.000000
   1.467467,    0.000000
   1.540877,    0.000000
   1.614325,    0.000000
   1.687778,    0.000000
   1.761232,    0.000000
   1.834685,    0.000000
   1.908138,    0.000000
   1.981591,    0.000000
   2.055044,    0.000000
   2.128498,    0.000000
   2.201951,    0.000000
   2.275404,    0.000000
   2.348880,    0.000000
   2.422358,    0.000000
   2.495836,    0.000000
   2.569314,    0.000000
   2.642792,    0.000000
   2.716271,    0.000000
   2.789749,    0.000000
   2.863227,    0.000000
   2.936705,    0.000000
   3.010184,    0.000000
   3.083669,    0.000000
   3.157154,    0.000000
   3.230640,    0.000000
   3.304126,    0.000000
   3.377612,    0.000000
   3.451098,    0.000000
   3.524583,    0.000000
   3.598069,    0.000000
   3.671555,    0.000000
   3.745041,    0.000000
   3.818555,    0.000000
   3.892072,    0.000000
   3.965589,    0.000000
   4.039106,    0.000000
   4.112623,    0.000000
   4.186141,    0.000000
   4.259658,    0.000000
   4.333175,    0.000000
   4.406692,    0.000000
   4.480209,    0.000000
   4.553804,    0.000000
   4.627408,    0.000000
   4.701012,    0.000000
   4.774616,    0.000000
   4.848220,    0.000000
   4.921824,    0.000000
   4.995428,    0.000000
   5.069032,    0.000000
   5.142636,    0.000000
   5.216240,    0.000000
   5.289888,    0.000000
   5.363543,    0.000000
   5.437197,    0.000000
   5.510851,    0.000000
   5.584505,    0.000000
   5.658160,    0.000000
   5.731814,    0.000000
   5.805468,    0.000000
   5.879122,    0.000000
   5.952776,    0.000000
   6.026443,    0.000000
   6.100111,    0.000000
   6.173778,    0.000000
   6.247446,    0.000000
   6.321114,    0.000000
   6.394782,    0.000000
   6.468450,    0.000000
   6.542118,    0.000000
   6.615785,    0.000000
   6.689453,    0.000000
   6.763102,    0.000000
   6.836749,    0.000000
   6.910396,    0.000000
   6.984043,    0.000000
   7.057690,    0.000000
   7.131337,    0.000000
   7.204985,    0.000000
   7.278632,    0.000000
   7.352279,    0.000000
   7.425926,    0.000000
   7.499525,    0.000000
   7.573119,    0.000000
   7.646713,    0.000000
   7.720307,    0.000000
   7.793901,    0.000000
   7.867495,    0.000000
   7.941089,    0.000000
   8.014683,    0.000000
   8.088277,    0.000000
   8.161871,    0.000000
   8.235519,    0.000000
   8.309173,    0.000000
   8.382827,    0.000000
   8.456481,    0.000000
   8.530135,    0.000000
   8.603789,    0.000000
   8.677443,    0.000000
   8.751097,    0.000000
   8.824751,    0.000000
   8.898406,    0.000000
   8.972205,    0.000000
   9.046022,    0.000000
   9.119839,    0.000000
   9.193656,    0.000000
   9.267474,    0.000000
   9.341291,    0.000000
   9.415108,    0.000000
   9.488925,    0.000000
   9.562743,    0.000000
   9.636560,    0.000000
   9.710456,    0.000000
   9.784363,    0.000000
   9.858269,    0.000000
   9.932175,    0.000000
  10.006082,    0.000000
  10.079988,    0.000000
  10.153894,    0.000000
  10.227801,    0.000000
  10.301707,    0.000000
  10.375613,    0.000000
  10.449538,    0.000000
  10.523465,    0.000000
  10.597391,    0.000000
  10.671318,    0.000000
  10.745245,    0.000000
  10.819172,    0.000000
  10.893098,    0.000000
  10.967025,    0.000000
  11.040952,    0.000000
  11.114879,    0.000000
  11.188768,    0.000000
  11.262652,    0.000000
  11.336536,    0.000000
  11.410421,    0.000000
  11.484305,    0.000000
  11.558190,    0.000000
  11.632074,    0.000000
  11.705958,    0.000000
  11.779843,    0.000000
  11.853727,    0.000000
  11.927523,    0.000000
  12.001308,    0.000000
  12.075093,    0.000000
  12.148878,    0.000000
  12.222664,    0.000000
  12.296449,    0.000000
  12.370234,    0.000000
  12.444019,    0.000000
  12.517804,    0.000000
  12.591589,    0.000000
  12.665242,    0.000000
  12.738878,    0.000000
  12.812515,    0.000000
  12.886151,    0.000000
  12.959788,    0.000000
  13.033424,    0.000000
  13.107060,    0.000000
  13.180697,    0.000000
  13.254333,    0.000000
  13.327970,    0.000000
  13.401594,    0.000000
  13.475218,    0.000000
  13.548841,    0.000000
  13.622464,    0.000000
  13.696087,    0.000000
  13.769711,    0.000000
  13.800748,    0.000000
  13.874452,    0.000000
  13.948156,    0.000000
  14.021859,    0.000000
  14.095588,    0.000000
  14.169371,    0.000000
  14.243155,    0.000000
  14.316938,    0.000000
  14.390721,    0.000000
  14.464505,    0.000000
  14.538288,    0.000000
  14.612072,    0.000000
  14.685855,    0.000000
  14.759639,    0.000000
  14.833444,    0.000000
  14.907296,    0.000000
  14.981149,    0.000000
  15.055001,    0.000000
  15.128853,    0.000000
  15.202706,    0.000000
  15.276558,    0.000000
  15.350411,    0.000000
  15.424263,    0.000000
  15.498116,    0.000000
  15.571973,    0.000000
  15.645842,    0.000000
  15.719711,    0.000000
  15.793580,    0.000000
  15.867449,    0.000000
  15.941317,    0.000000
  16.015186,    0.000000
  16.089055,    0.000000
  16.162924,    0.000000
  16.236793,    0.000000
  16.287720,    0.000000
  16.361567,    0.502638
  16.435414,    1.005276
  16.509261,    1.507914
  16.583109,    2.010552
  16.656956,    2.513190
  16.730803,    3.015828
  16.804650,    3.518466
  16.878498,    4.021104
  16.952345,    4.523742
  17.026192,    5.026380
  17.100018,    6.338912
  17.173843,    7.651444
  17.247669,    8.963976
  17.321494,   10.276508
  17.395320,   11.589040
  17.469133,   13.472968
  17.542946,   15.356897
  17.616759,   17.240826
  17.690572,   19.124754
  17.764384,   21.008683
  17.838187,   23.507505
  17.911990,   26.006327
  17.985793,   28.505149
  18.059595,   31.003971
  18.133398,   33.502792
  18.133398,   35.000000
  63.132370, 1920.000000
 108.375634, 3805.000000
 154.090496, 5690.000000
 201.268115, 7575.000000
 250.818419, 9460.000000
 303.320613, 11345.000000
 359.604558, 13230.000000
 420.908222, 15115.000000
 490.269547, 17000.000000
 490.269547, 17000.000000
 513.186872, 17000.000000
 536.099988, 17000.000000
 559.008896, 17000.000000
 581.913596, 17000.000000
 604.814089, 17000.000000
 627.710373, 17000.000000
 650.602451, 17000.000000
 673.490320, 17000.000000
 696.373983, 17000.000000
 719.253438, 17000.000000
 742.128686, 17000.000000
 764.999727, 17000.000000
 787.866561, 17000.000000
 810.729188, 17000.000000
 833.587609, 17000.000000
 856.441823, 17000.000000
 879.291831, 17000.000000
 902.137632, 17000.000000
 924.979228, 17000.000000
 947.816617, 17000.000000
 970.649800, 17000.000000
 993.478777, 17000.000000
1016.303549, 17000.000000
1039.124115, 17000.000000
1061.940475, 17000.000000
1084.752631, 17000.000000
1107.560580, 17000.000000
1130.364325, 17000.000000
1153.163865, 17000.000000
1153.163865, 17000.000000
1172.804812, 15277.777778
1192.155790, 13555.555556
1211.340708, 11833.333333
1230.128646, 10111.111111
1248.534830, 8388.888889
1266.565246, 6666.666667
1283.940711, 4944.444444
1300.941360, 3222.222222
1317.683354, 1500.000000
1317.683354, 1500.000000
1339.348030, 2444.444444
1361.057585, 3388.888889
1382.798032, 4333.333333
1404.615382, 5277.777778
1426.720448, 6222.222222
1449.288044, 7166.666667
1472.369249, 8111.111111
1496.022510, 9055.555556
1520.307104, 10000.000000
1520.307104, 10000.000000
1559.004369, 10000.000000
1597.686729, 10000.000000
1636.354158, 10000.000000
1675.006630, 10000.000000
1713.644121, 10000.000000
1752.266606, 10000.000000
1790.874058, 10000.000000
1829.466452, 10000.000000
1868.043764, 10000.000000
1868.043764, 10000.000000
1879.749116, 9055.555556
1891.309093, 8111.111111
1901.656206, 7166.666667
1912.028423, 6222.222222
1922.395012, 5277.777778
1932.768156, 4333.333333
1943.185415, 3388.888889
1953.639208, 2444.444444
1964.105861, 1500.000000
1964.105861, 1500.000000
2064.263778, 1500.000000
2164.226048, 1500.000000
2263.992880, 1500.000000
2363.566344, 1500.000000
2462.951577, 1500.000000
2562.148777, 1500.000000
2661.158140, 1500.000000
2759.979864, 1500.000000
2858.614147, 1500.000000
2858.614147, 1500.000000
2858.645157, 1499.051170
2858.676166, 1498.102350
2858.707176, 1497.153530
2858.738189, 1496.205125
2858.769202, 1495.256800
2858.800215, 1494.308474
2858.831229, 1493.360149
2858.862242, 1492.411824
2858.893255, 1491.463499
2858.924268, 1490.515173
2858.955282, 1489.566848
2858.986295, 1488.618523
2859.017308, 1487.670198
2859.048326, 1486.722476
2859.079344, 1485.774872
2859.110363, 1484.827267
2859.141381, 1483.879662
2859.172399, 1482.932058
2859.203418, 1481.984453
2859.234436, 1481.036848
2859.265455, 1480.089244
2859.296473, 1479.141639
2859.327492, 1478.194034
2859.358515, 1477.246682
2859.389538, 1476.299378
2859.420562, 1475.352074
2859.451586, 1474.404770
2859.482609, 1473.457466
2859.513633, 1472.510163
2859.544657, 1471.562859
2859.575680, 1470.615555
2859.606704, 1469.668251
2859.637728, 1468.720947
2859.668756, 1467.774562
2859.699785, 1466.828354
2859.730814, 1465.882146
2859.761842, 1464.935938
2859.792871, 1463.989730
2859.823900, 1463.043522
2859.854929, 1462.097315
2859.885958, 1461.151107
2859.916987, 1460.204899
2859.948016, 1459.258691
2859.979049, 1458.312470
2860.010083, 1457.366247
2860.041117, 1456.420023
2860.072151, 1455.473800
2860.103185, 1454.527577
2860.134219, 1453.581353
2860.165253, 1452.635130
2860.196287, 1451.688907
2860.227321, 1450.742683
2860.258355, 1449.796460
2860.289393, 1448.850139
2860.320432, 1447.903799
2860.351472, 1446.957459
2860.382511, 1446.011119
2860.413550, 1445.064779
2860.444589, 1444.118439
2860.475628, 1443.172100
2860.506668, 1442.225760
2860.537707, 1441.279420
2860.568746, 1440.333080
2860.599789, 1439.387047
2860.630834, 1438.441072
2860.661878, 1437.495098
2860.692922, 1436.549124
2860.723967, 1435.603150
2860.755011, 1434.657176
2860.786056, 1433.711202
2860.817100, 1432.765227
2860.848144, 1431.819253
2860.879189, 1430.873279
2860.910237, 1429.926959
2860.941287, 1428.980572
2860.972336, 1428.034185
2861.003386, 1427.087798
2861.034435, 1426.141411
2861.065485, 1425.195024
2861.096534, 1424.248637
2861.127584, 1423.302250
2861.158633, 1422.355863
2861.189683, 1421.409477
2861.220737, 1420.463209
2861.251791, 1419.516964
2861.282846, 1418.570720
2861.313901, 1417.624475
2861.344955, 1416.678230
2861.376010, 1415.731986
2861.407065, 1414.785741
2861.438119, 1413.839496
2861.469174, 1412.893252
2861.500229, 1411.947007
2861.531288, 1411.001036
2861.562347, 1410.055119
2861.593407, 1409.109201
2861.624467, 1408.163283
2861.655527, 1407.217365
2861.686587, 1406.271447
2861.717647, 1405.325530
2861.748706, 1404.379612
2861.779766, 1403.433694
2861.810826, 1402.487776
2861.841890, 1401.542759
2861.872955, 1400.597916
2861.904020, 1399.653072
2861.935085, 1398.708229
2861.966150, 1397.763385
2861.997215, 1396.818542
2862.028280, 1395.873699
2862.059344, 1394.928855
2862.090409, 1393.984012
2862.121474, 1393.039168
2862.152543, 1392.094929
2862.183613, 1391.150806
2862.214683, 1390.206684
2862.245753, 1389.262561
2862.276823, 1388.318438
2862.307893, 1387.374316
2862.338963, 1386.430193
2862.370033, 1385.486070
2862.401103, 1384.541948
2862.432173, 1383.597825
2862.463247, 1382.654219
2862.494322, 1381.710714
2862.525397, 1380.767208
2862.556472, 1379.823702
2862.587547, 1378.880196
2862.618622, 1377.936690
2862.649697, 1376.993184
2862.680772, 1376.049679
2862.711847, 1375.106173
2862.742922, 1374.162667
2862.774001, 1373.218915
2862.805081, 1372.275115
2862.836161, 1371.331316
2862.867241, 1370.387516
2862.898321, 1369.443716
2862.929401, 1368.499917
2862.960481, 1367.556117
2862.991561, 1366.612317
2863.022641, 1365.668518
2863.053721, 1364.724718
2863.084806, 1363.781028
2863.115891, 1362.837358
2863.146976, 1361.893689
2863.178061, 1360.950019
2863.209146, 1360.006350
2863.240231, 1359.062681
2863.271316, 1358.119011
2863.302401, 1357.175342
2863.333486, 1356.231672
2863.364571, 1355.288003
2863.395661, 1354.344742
2863.426751, 1353.401561
2863.457841, 1352.458379
2863.488931, 1351.515197
2863.520021, 1350.572016
2863.551111, 1349.628834
2863.582201, 1348.685652
2863.613291, 1347.742471
2863.644381, 1346.799289
2863.675471, 1345.856107
2863.706565, 1344.912573
2863.737661, 1343.968970
2863.768756, 1343.025367
2863.799851, 1342.081764
2863.830946, 1341.138161
2863.862041, 1340.194558
2863.893136, 1339.250956
2863.924231, 1338.307353
2863.955326, 1337.363750
2863.986421, 1336.420147
2864.017521, 1335.476555
2864.048621, 1334.532966
2864.079721, 1333.589377
2864.110821, 1332.645787
2864.141921, 1331.702198
2864.173021, 1330.758608
2864.204121, 1329.815019
2864.235221, 1328.871429
2864.266321, 1327.927840
2864.297422, 1326.984250
2864.328526, 1326.040985
2864.359631, 1325.097782
2864.390736, 1324.154579
2864.421841, 1323.211376
2864.452946, 1322.268173
2864.484051, 1321.324970
2864.515157, 1320.381768
2864.546262, 1319.438565
2864.577367, 1318.495362
2864.608472, 1317.552159
2864.639581, 1316.608539
2864.670691, 1315.664839
2864.701802, 1314.721140
2864.732912, 1313.777440
2864.764022, 1312.833740
2864.795132, 1311.890040
2864.826242, 1310.946340
2864.857352, 1310.002640
2864.888462, 1309.058940
2864.919572, 1308.115241
2864.950687, 1307.171509
2864.981802, 1306.227772
2865.012917, 1305.284034
2865.044032, 1304.340297
2865.075147, 1303.396559
2865.106263, 1302.452822
2865.137378, 1301.509084
2865.168493, 1300.565347
2865.199608, 1299.621609
2865.230723, 1298.677872
2865.261843, 1297.734440
2865.292963, 1296.791066
2865.324083, 1295.847693
2865.355203, 1294.904319
2865.386323, 1293.960946
2865.417443, 1293.017572
2865.448564, 1292.074199
2865.479684, 1291.130825
2865.510804, 1290.187452
2865.541924, 1289.244079
2865.573048, 1288.300293
2865.604174, 1287.356428
2865.635299, 1286.412562
2865.666424, 1285.468697
2865.697549, 1284.524832
2865.728674, 1283.580966
2865.759800, 1282.637101
2865.790925, 1281.693236
2865.822050, 1280.749370
2865.853175, 1279.805505
2865.884304, 1278.861635
2865.915435, 1277.917765
2865.946565, 1276.973894
2865.977695, 1276.030023
2866.008825, 1275.086153
2866.039956, 1274.142282
2866.071086, 1273.198411
2866.102216, 1272.254541
2866.133346, 1271.310670
2866.164476, 1270.366799
2866.195611, 1269.423283
2866.226746, 1268.479834
2866.257881, 1267.536386
2866.289016, 1266.592938
2866.320152, 1265.649489
2866.351287, 1264.706041
2866.382422, 1263.762592
2866.413557, 1262.819144
2866.444692, 1261.875696
2866.475828, 1260.932247
2866.506967, 1259.988447
2866.538107, 1259.044579
2866.569247, 1258.100712
2866.600388, 1257.156844
2866.631528, 1256.212976
2866.662668, 1255.269108
2866.693808, 1254.325240
2866.724948, 1253.381372
2866.756089, 1252.437504
2866.787229, 1251.493636
2866.818373, 1250.549838
2866.849518, 1249.606054
2866.880664, 1248.662269
2866.911809, 1247.718484
2866.942954, 1246.774700
2866.974099, 1245.830915
2867.005245, 1244.887130
2867.036390, 1243.943346
2867.067535, 1242.999561
2867.098680, 1242.055776
2867.129830, 1241.112427
2867.160980, 1240.169161
2867.192130, 1239.225895
2867.223280, 1238.282629
2867.254430, 1237.339363
2867.285581, 1236.396097
2867.316731, 1235.452831
2867.347881, 1234.509565
2867.379031, 1233.566299
2867.410181, 1232.623033
2867.441336, 1231.679497
2867.472491, 1230.735909
2867.503646, 1229.792320
2867.534801, 1228.848732
2867.565957, 1227.905143
2867.597112, 1226.961555
2867.628267, 1226.017966
2867.659422, 1225.074378
2867.690577, 1224.130789
2867.721733, 1223.187200
2867.752892, 1222.243759
2867.784052, 1221.300347
2867.815212, 1220.356934
2867.846373, 1219.413521
2867.877533, 1218.470108
2867.908693, 1217.526696
2867.939853, 1216.583283
2867.971013, 1215.639870
2868.002174, 1214.696457
2868.033334, 1213.753045
2868.064498, 1212.809413
2868.095663, 1211.865740
2868.126828, 1210.922066
2868.157994, 1209.978393
2868.189159, 1209.034720
2868.220324, 1208.091046
2868.251489, 1207.147373
2868.282654, 1206.203699
2868.313819, 1205.260026
2868.344984, 1204.316352
2868.376154, 1203.371490
2868.407324, 1202.426397
2868.438494, 1201.481305
2868.469665, 1200.536213
2868.500835, 1199.591121
2868.532005, 1198.646029
2868.563175, 1197.700937
2868.594345, 1196.755844
2868.625516, 1195.810752
2868.656686, 1194.865660
2868.687860, 1193.920977
2868.719036, 1192.976372
2868.750211, 1192.031767
2868.781386, 1191.087163
2868.812561, 1190.142558
2868.843737, 1189.197954
2868.874912, 1188.253349
2868.906087, 1187.308744
2868.937263, 1186.364140
2868.968438, 1185.419535
2868.999617, 1184.475509
2869.030797, 1183.531595
2869.061978, 1182.587681
2869.093158, 1181.643767
2869.124338, 1180.699852
2869.155518, 1179.755938
2869.186699, 1178.812024
2869.217879, 1177.868110
2869.249059, 1176.924196
2869.280240, 1175.980282
2869.311424, 1175.036798
2869.342609, 1174.093398
2869.373794, 1173.149997
2869.404980, 1172.206597
2869.436165, 1171.263197
2869.467350, 1170.319796
2869.498535, 1169.376396
2869.529720, 1168.432996
2869.560906, 1167.489595
2869.592091, 1166.546195
2869.623280, 1165.602557
2869.654470, 1164.658873
2869.685661, 1163.715190
2869.716851, 1162.771506
2869.748041, 1161.827822
2869.779231, 1160.884139
2869.810421, 1159.940455
2869.841612, 1158.996771
2869.872802, 1158.053088
2869.903992, 1157.109404
2869.935186, 1156.165936
2869.966382, 1155.222511
2869.997577, 1154.279085
2870.028772, 1153.335659
2870.059967, 1152.392234
2870.091162, 1151.448808
2870.122357, 1150.505382
2870.153553, 1149.561956
2870.184748, 1148.618531
2870.215943, 1147.675105
2870.247142, 1146.732031
2870.278342, 1145.789024
2870.309543, 1144.846017
2870.340743, 1143.903011
2870.371943, 1142.960004
2870.403143, 1142.016997
2870.434343, 1141.073991
2870.465543, 1140.130984
2870.496743, 1139.187978
2870.527943, 1138.244971
2870.559148, 1137.302923
2870.590353, 1136.361061
2870.621558, 1135.419198
2870.652763, 1134.477336
2870.683968, 1133.535473
2870.715173, 1132.593611
2870.746378, 1131.651748
2870.777583, 1130.709885
2870.808788, 1129.768023
2870.839993, 1128.826160
2870.871202, 1127.884931
2870.902412, 1126.943823
2870.933621, 1126.002716
2870.964831, 1125.061608
2870.996041, 1124.120501
2871.027251, 1123.179393
2871.058461, 1122.238286
2871.089671, 1121.297178
2871.120881, 1120.356071
2871.152090, 1119.414963
2871.183304, 1118.474374
2871.214519, 1117.533884
2871.245734, 1116.593394
2871.276948, 1115.652905
2871.308163, 1114.712415
2871.339378, 1113.771925
2871.370592, 1112.831436
2871.401807, 1111.890946
2871.433022, 1110.950456
2871.464236, 1110.009967
2871.495455, 1109.069198
2871.526675, 1108.128377
2871.557894, 1107.187555
2871.589114, 1106.246733
2871.620333, 1105.305911
2871.651553, 1104.365089
2871.682772, 1103.424267
2871.713992, 1102.483445
2871.745211, 1101.542623
2871.776431, 1100.601802
2871.807655, 1099.661037
2871.838879, 1098.720284
2871.870103, 1097.779531
2871.901328, 1096.838778
2871.932552, 1095.898025
2871.963776, 1094.957272
2871.995001, 1094.016518
2872.026225, 1093.075765
2872.057449, 1092.135012
2872.088674, 1091.194259
2872.119902, 1090.253846
2872.151131, 1089.313498
2872.182361, 1088.373151
2872.213590, 1087.432804
2872.244819, 1086.492456
2872.276048, 1085.552109
2872.307277, 1084.611761
2872.338506, 1083.671414
2872.369736, 1082.731066
2872.400965, 1081.790719
2872.432198, 1080.849932
2872.463432, 1079.909061
2872.494666, 1078.968190
2872.525900, 1078.027318
2872.557134, 1077.086447
2872.588368, 1076.145576
2872.619602, 1075.204704
2872.650836, 1074.263833
2872.682070, 1073.322962
2872.713304, 1072.382090
2872.744542, 1071.441138
2872.775781, 1070.500170
2872.807020, 1069.559203
2872.838259, 1068.618235
2872.869498, 1067.677267
2872.900736, 1066.736300
2872.931975, 1065.795332
2872.963214, 1064.854364
2872.994453, 1063.913397
2873.025692, 1062.972429
2873.056935, 1062.032474
2873.088178, 1061.092714
2873.119422, 1060.152954
2873.150666, 1059.213195
2873.181909, 1058.273435
2873.213153, 1057.333675
2873.244397, 1056.393915
2873.275640, 1055.454155
2873.306884, 1054.514395
2873.338127, 1053.574636
2873.369375, 1052.635489
2873.400623, 1051.696460
2873.431872, 1050.757432
2873.463120, 1049.818403
2873.494369, 1048.879375
2873.525617, 1047.940346
2873.556865, 1047.001317
2873.588114, 1046.062289
2873.619362, 1045.123260
2873.650610, 1044.184232
2873.681863, 1043.245633
2873.713116, 1042.307117
2873.744369, 1041.368601
2873.775622, 1040.430084
2873.806875, 1039.491568
2873.838128, 1038.553052
2873.869381, 1037.614536
2873.900634, 1036.676020
2873.931888, 1035.737504
2873.963141, 1034.798988
2873.994398, 1033.860043
2874.025656, 1032.921016
2874.056913, 1031.981989
2874.088171, 1031.042962
2874.119429, 1030.103935
2874.150687, 1029.164908
2874.181945, 1028.225881
2874.213203, 1027.286854
2874.244461, 1026.347827
2874.275718, 1025.408800
2874.306980, 1024.469634
2874.338243, 1023.530441
2874.369505, 1022.591248
2874.400768, 1021.652055
2874.432031, 1020.712862
2874.463293, 1019.773669
2874.494556, 1018.834476
2874.525818, 1017.895282
2874.557081, 1016.956089
2874.588344, 1016.016896
2874.619610, 1015.077661
2874.650877, 1014.138417
2874.682145, 1013.199173
2874.713412, 1012.259930
2874.744679, 1011.320686
2874.775947, 1010.381442
2874.807214, 1009.442199
2874.838481, 1008.502955
2874.869749, 1007.563711
2874.901016, 1006.624467
2874.932287, 1005.684713
2874.963560, 1004.744860
2874.994832, 1003.805007
2875.026104, 1002.865154
2875.057376, 1001.925301
2875.088648, 1000.985448
2875.119920, 1000.045595
2875.151192,  999.105742
2875.182464,  998.165889
2875.213737,  997.226036
2875.245013,  996.286647
2875.276290,  995.347348
2875.307566,  994.408049
2875.338843,  993.468749
2875.370120,  992.529450
2875.401397,  991.590150
2875.432674,  990.650851
2875.463951,  989.711552
2875.495228,  988.772252
2875.526504,  987.832953
2875.557785,  986.893322
2875.589067,  985.953627
2875.620349,  985.013933
2875.651630,  984.074238
2875.682912,  983.134544
2875.714193,  982.194849
2875.745475,  981.255155
2875.776757,  980.315460
2875.808038,  979.375765
2875.839320,  978.436071
2875.870606,  977.496390
2875.901892,  976.556711
2875.933178,  975.617032
2875.964465,  974.677354
2875.995751,  973.737675
2876.027038,  972.797996
2876.058324,  971.858318
2876.089610,  970.918639
2876.120897,  969.978961
2876.152183,  969.039282
2876.183474,  968.099910
2876.214765,  967.160597
2876.246056,  966.221285
2876.277347,  965.281972
2876.308638,  964.342659
2876.339929,  963.403347
2876.371220,  962.464034
2876.402511,  961.524721
2876.433803,  960.585409
2876.465094,  959.646096
2876.496389,  958.706319
2876.527685,  957.766452
2876.558981,  956.826586
2876.590276,  955.886719
2876.621572,  954.946852
2876.652868,  954.006985
2876.684164,  953.067119
2876.715460,  952.127252
2876.746756,  951.187385
2876.778052,  950.247519
2876.809352,  949.307560
2876.840652,  948.367583
2876.871953,  947.427607
2876.903254,  946.487630
2876.934554,  945.547653
2876.965855,  944.607677
2876.997156,  943.667700
2877.028456,  942.727723
2877.059757,  941.787747
2877.091058,  940.847770
2877.122362,  939.908811
2877.153668,  938.970049
2877.184973,  938.031287
2877.216278,  937.092524
2877.247584,  936.153762
2877.278889,  935.215000
2877.310195,  934.276238
2877.341500,  933.337475
2877.372805,  932.398713
2877.404111,  931.459951
2877.435420,  930.521817
2877.466730,  929.583804
2877.498040,  928.645792
2877.529350,  927.707779
2877.560660,  926.769767
2877.591970,  925.831755
2877.623280,  924.893742
2877.654590,  923.955730
2877.685900,  923.017717
2877.717210,  922.079705
2877.748524,  921.142147
2877.779839,  920.204677
2877.811154,  919.267207
2877.842468,  918.329738
2877.873783,  917.392268
2877.905098,  916.454798
2877.936412,  915.517328
2877.967727,  914.579858
2877.999042,  913.642388
2878.030356,  912.704919
2878.061675,  911.767051
2878.092994,  910.829106
2878.124314,  909.891161
2878.155633,  908.953217
2878.186952,  908.015272
2878.218272,  907.077327
2878.249591,  906.139383
2878.280911,  905.201438
2878.312230,  904.263494
2878.343549,  903.325549
2878.374872,  902.387503
2878.406197,  901.449437
2878.437521,  900.511371
2878.468845,  899.573305
2878.500169,  898.635240
2878.531493,  897.697174
2878.562817,  896.759108
2878.594141,  895.821042
2878.625465,  894.882976
2878.656789,  893.944911
2878.688117,  893.006844
2878.719445,  892.068777
2878.750774,  891.130710
2878.782103,  890.192643
2878.813431,  889.254576
2878.844760,  888.316509
2878.876089,  887.378442
2878.907417,  886.440375
2878.938746,  885.502308
2878.970075,  884.564241
2879.001407,  883.625703
2879.032741,  882.687075
2879.064074,  881.748447
2879.095408,  880.809818
2879.126741,  879.871190
2879.158074,  878.932562
2879.189408,  877.993933
2879.220741,  877.055305
2879.252075,  876.116677
2879.283408,  875.178048
2879.314745,  874.239926
2879.346083,  873.301902
2879.377421,  872.363877
2879.408759,  871.425853
2879.440097,  870.487828
2879.471435,  869.549804
2879.502773,  868.611779
2879.534111,  867.673755
2879.565450,  866.735730
2879.596788,  865.797706
2879.628130,  864.859384
2879.659472,  863.921004
2879.690815,  862.982624
2879.722158,  862.044245
2879.753500,  861.105865
2879.784843,  860.167485
2879.816186,  859.229106
2879.847529,  858.290726
2879.878871,  857.352346
2879.910214,  856.413967
2879.941561,  855.475627
2879.972908,  854.537294
2880.004255,  853.598962
2880.035603,  852.660629
2880.066950,  851.722297
2880.098298,  850.783964
2880.129645,  849.845632
2880.160992,  848.907299
2880.192340,  847.968967
2880.223687,  847.030634
2880.255038,  846.092625
2880.286391,  845.154679
2880.317743,  844.216732
2880.349095,  843.278786
2880.380447,  842.340839
2880.411799,  841.402893
2880.443151,  840.464947
2880.474503,  839.527000
2880.505855,  838.589054
2880.537207,  837.651107
2880.568563,  836.712698
2880.599919,  835.774199
2880.631276,  834.835700
2880.662633,  833.897201
2880.693990,  832.958702
2880.725346,  832.020203
2880.756703,  831.081704
2880.788060,  830.143205
2880.819416,  829.204705
2880.850773,  828.266206
2880.882134,  827.327604
2880.913495,  826.388982
2880.944857,  825.450360
2880.976218,  824.511737
2881.007579,  823.573115
2881.038941,  822.634493
2881.070302,  821.695870
2881.101663,  820.757248
2881.133025,  819.818626
2881.164386,  818.880003
2881.195751,  817.942379
2881.227117,  817.004948
2881.258483,  816.067516
2881.289849,  815.130085
2881.321215,  814.192653
2881.352582,  813.255222
2881.383948,  812.317790
2881.415314,  811.380358
2881.446680,  810.442927
2881.478046,  809.505495
2881.509415,  808.568660
2881.540786,  807.631941
2881.572157,  806.695221
2881.603527,  805.758501
2881.634898,  804.821781
2881.666268,  803.885061
2881.697639,  802.948341
2881.729009,  802.011621
2881.760380,  801.074901
2881.791751,  800.138181
2881.823125,  799.201873
2881.854500,  798.265645
2881.885875,  797.329416
2881.917250,  796.393188
2881.948625,  795.456959
2881.980001,  794.520730
2882.011376,  793.584502
2882.042751,  792.648273
2882.074126,  791.712045
2882.105501,  790.775816
2882.136880,  789.839134
2882.168260,  788.902365
2882.199640,  787.965596
2882.231019,  787.028827
2882.262399,  786.092058
2882.293779,  785.155289
2882.325158,  784.218519
2882.356538,  783.281750
2882.387918,  782.344981
2882.419297,  781.408212
2882.450681,  780.471281
2882.482065,  779.534318
2882.513450,  778.597356
2882.544834,  777.660393
2882.576218,  776.723430
2882.607603,  775.786468
2882.638987,  774.849505
2882.670371,  773.912543
2882.701755,  772.975580
2882.733140,  772.038618
2882.764528,  771.101591
2882.795917,  770.164552
2882.827306,  769.227513
2882.858694,  768.290474
2882.890083,  767.353435
2882.921472,  766.416396
2882.952861,  765.479357
2882.984250,  764.542318
2883.015639,  763.605279
2883.047028,  762.668240
2883.078420,  761.730664
2883.109814,  760.792984
2883.141207,  759.855304
2883.172601,  758.917625
2883.203994,  757.979945
2883.235388,  757.042266
2883.266781,  756.104586
2883.298175,  755.166907
2883.329568,  754.229227
2883.360962,  753.291548
2883.392359,  752.354315
2883.423757,  751.417168
2883.455155,  750.480021
2883.486553,  749.542874
2883.517951,  748.605728
2883.549350,  747.668581
2883.580748,  746.731434
2883.612146,  745.794287
2883.643544,  744.857141
2883.674942,  743.919994
2883.706344,  742.982493
2883.737746,  742.044923
2883.769149,  741.107354
2883.800552,  740.169784
2883.831954,  739.232215
2883.863357,  738.294645
2883.894760,  737.357075
2883.926162,  736.419506
2883.957565,  735.481936
2883.988968,  734.544367
2884.020374,  733.606790
2884.051782,  732.669213
2884.083189,  731.731635
2884.114596,  730.794058
2884.146003,  729.856480
2884.177411,  728.918903
2884.208818,  727.981325
2884.240225,  727.043747
2884.271633,  726.106170
2884.303040,  725.168592
2884.334451,  724.231305
2884.365863,  723.294073
2884.397275,  722.356841
2884.428686,  721.419610
2884.460098,  720.482378
2884.491510,  719.545147
2884.522922,  718.607915
2884.554334,  717.670683
2884.585746,  716.733452
2884.617158,  715.796220
2884.648573,  714.858502
2884.679990,  713.920689
2884.711406,  712.982877
2884.742823,  712.045064
2884.774239,  711.107252
2884.805656,  710.169439
2884.837072,  709.231627
2884.868488,  708.293814
2884.899905,  707.356002
2884.931321,  706.418189
2884.962742,  705.480265
2884.994163,  704.542319
2885.025584,  703.604374
2885.057005,  702.666428
2885.088426,  701.728482
2885.119847,  700.790536
2885.151268,  699.852590
2885.182689,  698.914645
2885.214110,  697.976699
2885.245531,  697.038753
2885.276956,  696.101815
2885.308382,  695.165072
2885.339807,  694.228329
2885.371233,  693.291585
2885.402658,  692.354842
2885.434084,  691.418099
2885.465510,  690.481356
2885.496935,  689.544612
2885.528361,  688.607869
2885.559786,  687.671126
2885.591216,  686.735000
2885.622646,  685.798993
2885.654076,  684.862987
2885.685506,  683.926980
2885.716936,  682.990974
2885.748366,  682.054967
2885.779796,  681.118960
2885.811227,  680.182954
2885.842657,  679.246947
2885.874087,  678.310941
2885.905521,  677.375377
2885.936955,  676.439899
2885.968390,  675.504421
2885.999824,  674.568943
2886.031259,  673.633465
2886.062694,  672.697987
2886.094128,  671.762509
2886.125563,  670.827031
2886.156997,  669.891553
2886.188432,  668.956075
2886.219870,  668.020180
2886.251309,  667.084205
2886.282748,  666.148230
2886.314188,  665.212255
2886.345627,  664.276279
2886.377066,  663.340304
2886.408505,  662.404329
2886.439944,  661.468354
2886.471383,  660.532379
2886.502822,  659.596403
2886.534265,  658.660310
2886.565709,  657.724193
2886.597152,  656.788076
2886.628596,  655.851960
2886.660039,  654.915843
2886.691483,  653.979726
2886.722927,  653.043610
2886.754370,  652.107493
2886.785814,  651.171376
2886.817257,  650.235259
2886.848705,  649.299125
2886.880153,  648.362988
2886.911601,  647.426851
2886.943049,  646.490714
2886.974497,  645.554576
2887.005945,  644.618439
2887.037393,  643.682302
2887.068841,  642.746164
2887.100290,  641.810027
2887.131738,  640.873890
2887.163190,  639.937260
2887.194642,  639.000536
2887.226095,  638.063811
2887.257547,  637.127087
2887.289000,  636.190362
2887.320453,  635.253638
2887.351905,  634.316913
2887.383358,  633.380189
2887.414811,  632.443464
2887.446263,  631.506740
2887.477720,  630.570508
2887.509177,  629.634370
2887.540634,  628.698233
2887.572091,  627.762096
2887.603548,  626.825959
2887.635005,  625.889822
2887.666462,  624.953685
2887.697920,  624.017547
2887.729377,  623.081410
2887.760834,  622.145273
2887.792295,  621.208818
2887.823756,  620.272302
2887.855218,  619.335786
2887.886680,  618.399269
2887.918141,  617.462753
2887.949603,  616.526237
2887.981065,  615.589721
2888.012526,  614.653204
2888.043988,  613.716688
2888.075450,  612.780172
2888.106915,  611.843679
2888.138381,  610.907191
2888.169847,  609.970703
2888.201314,  609.034215
2888.232780,  608.097727
2888.264246,  607.161239
2888.295712,  606.224751
2888.327178,  605.288263
2888.358644,  604.351774
2888.390110,  603.415286
2888.421580,  602.479110
2888.453051,  601.542995
2888.484522,  600.606879
2888.515992,  599.670763
2888.547463,  598.734648
2888.578934,  597.798532
2888.610404,  596.862416
2888.641875,  595.926301
2888.673346,  594.990185
2888.704816,  594.054069
2888.736291,  593.117475
2888.767766,  592.180789
2888.799241,  591.244103
2888.830716,  590.307417
2888.862191,  589.370731
2888.893666,  588.434044
2888.925142,  587.497358
2888.956617,  586.560672
2888.988092,  585.623986
2889.019567,  584.687299
2889.051046,  583.750501
2889.082526,  582.813681
2889.114005,  581.876861
2889.145485,  580.940041
2889.176965,  580.003221
2889.208444,  579.066402
2889.239924,  578.129582
2889.271404,  577.192762
2889.302883,  576.255942
2889.334363,  575.319122
2889.365846,  574.383304
2889.397331,  573.447680
2889.428815,  572.512056
2889.460299,  571.576431
2889.491783,  570.640807
2889.523267,  569.705183
2889.554751,  568.769558
2889.586235,  567.833934
2889.617720,  566.898310
2889.649204,  565.962685
2889.680691,  565.027662
2889.712180,  564.092755
2889.743669,  563.157848
2889.775157,  562.222941
2889.806646,  561.288033
2889.838134,  560.353126
2889.869623,  559.418219
2889.901111,  558.483312
2889.932600,  557.548404
2889.964088,  556.613497
2889.995581,  555.679008
2890.027074,  554.744600
2890.058567,  553.810192
2890.090059,  552.875784
2890.121552,  551.941376
2890.153045,  551.006968
2890.184538,  550.072560
2890.216031,  549.138152
2890.247524,  548.203744
2890.279017,  547.269336
2890.310514,  546.334478
2890.342011,  545.399532
2890.373509,  544.464587
2890.405006,  543.529641
2890.436503,  542.594696
2890.468001,  541.659750
2890.499498,  540.724805
2890.530995,  539.789860
2890.562493,  538.854914
2890.593990,  537.919969
2890.625491,  536.984869
2890.656993,  536.049739
2890.688495,  535.114609
2890.719996,  534.179480
2890.751498,  533.244350
2890.783000,  532.309220
2890.814502,  531.374090
2890.846004,  530.438961
2890.877505,  529.503831
2890.909007,  528.568701
2890.940513,  527.633518
2890.972019,  526.698324
2891.003525,  525.763130
2891.035031,  524.827936
2891.066538,  523.892742
2891.098044,  522.957548
2891.129550,  522.022354
2891.161056,  521.087161
2891.192562,  520.151967
2891.224069,  519.216773
2891.255578,  518.281049
2891.287089,  517.345224
2891.318600,  516.409398
2891.350110,  515.473573
2891.381621,  514.537747
2891.413132,  513.601922
2891.444642,  512.666096
2891.476153,  511.730270
2891.507664,  510.794445
2891.539174,  509.858619
2891.570689,  508.923256
2891.602204,  507.987982
2891.633719,  507.052708
2891.665234,  506.117434
2891.696749,  505.182160
2891.728264,  504.246886
2891.759779,  503.311612
2891.791294,  502.376338
2891.822810,  501.441065
2891.854325,  500.505791
2891.885843,  499.570171
2891.917363,  498.634484
2891.948882,  497.698798
2891.980402,  496.763111
2892.011922,  495.827424
2892.043441,  494.891738
2892.074961,  493.956051
2892.106480,  493.020365
2892.138000,  492.084678
2892.169519,  491.148991
2892.201042,  490.213308
2892.232566,  489.277625
2892.264090,  488.341943
2892.295614,  487.406260
2892.327138,  486.470578
2892.358662,  485.534895
2892.390186,  484.599212
2892.421710,  483.663530
2892.453234,  482.727847
2892.484758,  481.792164
2892.516286,  480.856782
2892.547814,  479.921458
2892.579342,  478.986134
2892.610871,  478.050810
2892.642399,  477.115486
2892.673928,  476.180162
2892.705456,  475.244838
2892.736984,  474.309514
2892.768513,  473.374190
2892.800041,  472.438866
2892.831573,  471.503056
2892.863106,  470.567153
2892.894639,  469.631251
2892.926172,  468.695348
2892.957704,  467.759445
2892.989237,  466.823542
2893.020770,  465.887639
2893.052303,  464.951736
2893.083836,  464.015833
2893.115368,  463.079930
2893.146905,  462.143917
2893.178442,  461.207883
2893.209979,  460.271849
2893.241517,  459.335816
2893.273054,  458.399782
2893.304591,  457.463748
2893.336128,  456.527714
2893.367666,  455.591680
2893.399203,  454.655646
2893.430740,  453.719612
2893.462281,  452.784595
2893.493823,  451.849774
2893.525364,  450.914953
2893.556906,  449.980131
2893.588448,  449.045310
2893.619989,  448.110489
2893.651531,  447.175668
2893.683073,  446.240846
2893.714614,  445.306025
2893.746156,  444.371204
2893.777701,  443.437003
2893.809247,  442.502921
2893.840793,  441.568840
2893.872339,  440.634758
2893.903885,  439.700677
2893.935431,  438.766595
2893.966977,  437.832514
2893.998523,  436.898432
2894.030069,  435.964351
2894.061615,  435.030269
2894.093165,  434.096629
2894.124715,  433.163075
2894.156265,  432.229520
2894.187816,  431.295965
2894.219366,  430.362411
2894.250916,  429.428856
2894.282467,  428.495302
2894.314017,  427.561747
2894.345567,  426.628192
2894.377117,  425.694638
2894.408671,  424.760656
2894.440226,  423.826591
2894.471781,  422.892527
2894.503335,  421.958462
2894.534890,  421.024398
2894.566445,  420.090333
2894.597999,  419.156269
2894.629554,  418.222205
2894.661108,  417.288140
2894.692663,  416.354076
2894.724221,  415.419883
2894.755780,  414.485665
2894.787339,  413.551447
2894.818898,  412.617230
2894.850457,  411.683012
2894.882016,  410.748794
2894.913575,  409.814577
2894.945134,  408.880359
2894.976693,  407.946142
2895.008252,  407.011924
2895.039815,  406.077679
2895.071378,  405.143429
2895.102942,  404.209178
2895.134505,  403.274928
2895.166068,  402.340678
2895.197631,  401.406428
2895.229195,  400.472178
2895.260758,  399.537927
2895.292321,  398.603677
2895.323885,  397.669427
2895.355452,  396.734670
2895.387019,  395.799815
2895.418587,  394.864960
2895.450155,  393.930106
2895.481723,  392.995251
2895.513290,  392.060396
2895.544858,  391.125542
2895.576426,  390.190687
2895.607993,  389.255832
2895.639561,  388.320977
2895.671132,  387.386609
2895.702704,  386.452334
2895.734277,  385.518059
2895.765849,  384.583784
2895.797421,  383.649510
2895.828993,  382.715235
2895.860565,  381.780960
2895.892137,  380.846685
2895.923709,  379.912411
2895.955281,  378.978136
2895.986856,  378.043531
2896.018433,  377.108863
2896.050009,  376.174194
2896.081586,  375.239526
2896.113162,  374.304857
2896.144738,  373.370189
2896.176315,  372.435520
2896.207891,  371.500852
2896.239468,  370.566184
2896.271044,  369.631515
2896.302624,  368.696862
2896.334205,  367.762212
2896.365786,  366.827562
2896.397366,  365.892912
2896.428947,  364.958262
2896.460528,  364.023612
2896.492109,  363.088962
2896.523689,  362.154312
2896.555270,  361.219662
2896.586851,  360.285012
2896.618435,  359.350670
2896.650020,  358.416387
2896.681605,  357.482104
2896.713190,  356.547822
2896.744775,  355.613539
2896.776361,  354.679256
2896.807946,  353.744974
2896.839531,  352.810691
2896.871116,  351.876409
2896.902701,  350.942126
2896.934290,  350.007356
2896.965879,  349.072492
2896.997468,  348.137629
2897.029058,  347.202765
2897.060647,  346.267901
2897.092237,  345.333038
2897.123826,  344.398174
2897.155416,  343.463310
2897.187005,  342.528446
2897.218594,  341.593583
2897.250187,  340.658603
2897.281781,  339.723601
2897.313375,  338.788599
2897.344969,  337.853597
2897.376563,  336.918595
2897.408156,  335.983594
2897.439750,  335.048592
2897.471344,  334.113590
2897.502938,  333.178588
2897.534532,  332.243586
2897.566129,  331.309594
2897.597727,  330.375797
2897.629325,  329.442000
2897.660923,  328.508202
2897.692521,  327.574405
2897.724119,  326.640608
2897.755718,  325.706811
2897.787316,  324.773014
2897.818914,  323.839217
2897.850512,  322.905420
2897.882113,  321.972230
2897.913716,  321.039157
2897.945318,  320.106085
2897.976921,  319.173012
2898.008523,  318.239940
2898.040125,  317.306868
2898.071728,  316.373795
2898.103330,  315.440723
2898.134932,  314.507650
2898.166535,  313.574578
2898.198141,  312.641930
2898.229747,  311.709365
2898.261354,  310.776800
2898.292960,  309.844235
2898.324567,  308.911669
2898.356173,  307.979104
2898.387780,  307.046539
2898.419387,  306.113974
2898.450993,  305.181408
2898.482600,  304.248843
2898.514210,  303.315829
2898.545821,  302.382727
2898.577432,  301.449626
2898.609042,  300.516524
2898.640653,  299.583423
2898.672264,  298.650321
2898.703875,  297.717220
2898.735486,  296.784118
2898.767097,  295.851017
2898.798707,  294.917915
2898.830322,  293.984664
2898.861937,  293.051384
2898.893552,  292.118103
2898.925167,  291.184823
2898.956782,  290.251543
2898.988397,  289.318263
2899.020013,  288.384982
2899.051628,  287.451702
2899.083243,  286.518422
2899.114858,  285.585141
2899.146477,  284.651813
2899.178096,  283.718476
2899.209715,  282.785139
2899.241335,  281.851802
2899.272954,  280.918464
2899.304573,  279.985127
2899.336193,  279.051790
2899.367812,  278.118453
2899.399431,  277.185115
2899.431051,  276.251778
2899.462674,  275.317913
2899.494297,  274.383947
2899.525921,  273.449981
2899.557545,  272.516014
2899.589168,  271.582048
2899.620792,  270.648082
2899.652416,  269.714115
2899.684039,  268.780149
2899.715663,  267.846183
2899.747287,  266.912216
2899.778914,  265.978722
2899.810542,  265.045320
2899.842170,  264.111917
2899.873798,  263.178515
2899.905426,  262.245112
2899.937054,  261.311709
2899.968682,  260.378307
2900.000310,  259.444904
2900.031938,  258.511501
2900.063565,  257.578099
2900.095197,  256.644353
2900.126829,  255.710541
2900.158461,  254.776728
2900.190094,  253.842916
2900.221726,  252.909104
2900.253358,  251.975292
2900.284990,  251.041480
2900.316622,  250.107667
2900.348255,  249.173855
2900.379887,  248.240043
2900.411523,  247.306238
2900.443159,  246.372435
2900.474796,  245.438632
2900.506432,  244.504829
2900.538069,  243.571026
2900.569705,  242.637223
2900.601342,  241.703420
2900.632978,  240.769617
2900.664615,  239.835814
2900.696251,  238.902011
2900.727891,  237.968515
2900.759532,  237.035077
2900.791173,  236.101639
2900.822813,  235.168201
2900.854454,  234.234763
2900.886095,  233.301325
2900.917735,  232.367887
2900.949376,  231.434449
2900.981017,  230.501011
2901.012658,  229.567574
2901.044302,  228.633648
2901.075947,  227.699628
2901.107592,  226.765608
2901.139237,  225.831588
2901.170882,  224.897568
2901.202527,  223.963548
2901.234172,  223.029528
2901.265817,  222.095508
2901.297462,  221.161488
2901.329107,  220.227468
2901.360756,  219.293337
2901.392405,  218.359185
2901.424054,  217.425033
2901.455704,  216.490880
2901.487353,  215.556728
2901.519002,  214.622576
2901.550652,  213.688424
2901.582301,  212.754271
2901.613950,  211.820119
2901.645599,  210.885967
2901.677252,  209.952838
2901.708906,  209.019906
2901.740559,  208.086974
2901.772213,  207.154043
2901.803866,  206.221111
2901.835520,  205.288179
2901.867174,  204.355247
2901.898827,  203.422316
2901.930481,  202.489384
2901.962134,  201.556452
2901.993791,  200.624143
2902.025449,  199.691953
2902.057107,  198.759763
2902.088764,  197.827574
2902.120422,  196.895384
2902.152080,  195.963194
2902.183737,  195.031004
2902.215395,  194.098815
2902.247053,  193.166625
2902.278711,  192.234435
2902.310372,  191.302687
2902.342034,  190.371023
2902.373695,  189.439359
2902.405357,  188.507696
2902.437019,  187.576032
2902.468681,  186.644368
2902.500343,  185.712705
2902.532005,  184.781041
2902.563667,  183.849378
2902.595329,  182.917714
2902.626994,  181.985614
2902.658660,  181.053430
2902.690326,  180.121246
2902.721992,  179.189062
2902.753658,  178.256878
2902.785324,  177.324693
2902.816990,  176.392509
2902.848656,  175.460325
2902.880322,  174.528141
2902.911988,  173.595957
2902.943658,  172.663638
2902.975328,  171.731292
2903.006998,  170.798946
2903.038669,  169.866601
2903.070339,  168.934255
2903.102009,  168.001909
2903.133679,  167.069564
2903.165349,  166.137218
2903.197020,  165.204872
2903.228690,  164.272527
2903.260364,  163.340147
2903.292038,  162.407762
2903.323712,  161.475376
2903.355387,  160.542990
2903.387061,  159.610604
2903.418736,  158.678218
2903.450410,  157.745832
2903.482085,  156.813447
2903.513759,  155.881061
2903.545433,  154.948675
2903.577111,  154.015772
2903.608790,  153.082769
2903.640469,  152.149766
2903.672147,  151.216764
2903.703826,  150.283761
2903.735504,  149.350758
2903.767183,  148.417755
2903.798862,  147.484753
2903.830540,  146.551750
2903.862219,  145.618747
2903.893901,  144.686229
2903.925584,  143.753804
2903.957267,  142.821379
2903.988950,  141.888955
2904.020632,  140.956530
2904.052315,  140.024105
2904.083998,  139.091680
2904.115681,  138.159255
2904.147364,  137.226831
2904.179046,  136.294406
2904.210733,  135.361643
2904.242420,  134.428815
2904.274107,  133.495988
2904.305794,  132.563160
2904.337481,  131.630332
2904.369168,  130.697504
2904.400855,  129.764676
2904.432542,  128.831849
2904.464229,  127.899021
2904.495916,  126.966193
2904.527606,  126.033376
2904.559298,  125.100562
2904.590989,  124.167748
2904.622680,  123.234934
2904.654371,  122.302119
2904.686062,  121.369305
2904.717754,  120.436491
2904.749445,  119.503676
2904.781136,  118.570862
2904.812827,  117.638048
2904.844522,  116.705541
2904.876217,  115.773093
2904.907913,  114.840646
2904.939608,  113.908198
2904.971303,  112.975751
2905.002999,  112.043303
2905.034694,  111.110856
2905.066390,  110.178408
2905.098085,  109.245961
2905.129780,  108.313513
2905.161479,  107.380572
2905.193179,  106.447537
2905.224878,  105.514501
2905.256578,  104.581465
2905.288277,  103.648429
2905.319977,  102.715393
2905.351677,  101.782357
2905.383376,  100.849321
2905.415076,   99.916286
2905.446775,   98.983250
2905.478478,   98.050096
2905.510182,   97.116920
2905.541886,   96.183744
2905.573590,   95.250568
2905.605294,   94.317391
2905.636997,   93.384215
2905.668701,   92.451039
2905.700405,   91.517863
2905.732109,   90.584687
2905.763812,   89.651511
2905.795520,   88.719353
2905.827228,   87.787392
2905.858936,   86.855431
2905.890644,   85.923470
2905.922351,   84.991509
2905.954059,   84.059548
2905.985767,   83.127588
2906.017475,   82.195627
2906.049183,   81.263666
2906.080891,   80.331705
2906.112602,   79.400358
2906.144315,   78.469129
2906.176027,   77.537901
2906.207739,   76.606672
2906.239451,   75.675444
2906.271163,   74.744215
2906.302875,   73.812987
2906.334587,   72.881759
2906.366299,   71.950530
2906.398011,   71.019302
2906.429726,   70.088504
2906.461442,   69.157790
2906.493158,   68.227076
2906.524874,   67.296362
2906.556591,   66.365647
2906.588307,   65.434933
2906.620023,   64.504219
2906.651739,   63.573505
2906.683455,   62.642791
2906.715171,   61.712076
2906.746891,   60.780912
2906.778611,   59.849661
2906.810331,   58.918409
2906.842051,   57.987158
2906.873771,   57.055907
2906.905492,   56.124655
2906.937212,   55.193404
2906.968932,   54.262153
2907.000652,   53.330901
2907.032372,   52.399650
2907.064095,   51.468170
2907.095817,   50.536645
2907.114093,   50.000000
2907.145818,   49.068603
2907.177542,   48.137206
2907.209267,   47.205810
2907.240992,   46.274413
2907.272717,   45.343016
2907.304442,   44.411619
2907.336166,   43.480223
2907.360487,   42.551839
2907.374341,   41.627715
2907.388196,   40.703591
2907.402050,   39.779466
2907.415905,   38.855342
2907.429759,   37.931218
2907.443614,   37.007094
2907.457468,   36.082970
2907.471323,   35.158845
2907.485177,   34.234721
2907.499019,   33.317055
2907.512844,   32.408518
2907.526668,   31.499980
2907.540493,   30.591443
2907.554317,   29.682906
2907.568142,   28.774368
2907.581966,   27.865831
2907.595791,   26.957293
2907.609616,   26.048756
2907.623440,   25.140219
2907.637254,   24.237239
2907.651052,   23.342116
2907.664850,   22.446993
2907.678648,   21.551870
2907.692446,   20.656747
2907.702643,   19.995225
