Time, Vertical Forces
   0.000100,    0.000001
   0.000834,    0.000053
   0.002967,    0.000670
   0.009792,    0.007295
   0.025473,    0.049364
   0.054691,    0.227483
   0.086584,    0.569972
   0.118497,    1.067246
   0.150477,    1.720513
   0.182575,    2.532037
   0.214598,    3.497089
   0.246645,    4.618126
   0.278807,    5.899248
   0.311205,    7.347603
   0.343744,    8.961690
   0.376610,   10.753900
   0.409437,   12.706317
   0.442098,   14.809762
   0.475380,   17.118099
   0.508802,   19.603445
   0.542691,   22.294522
   0.576872,   25.183222
   0.611190,   28.259313
   0.645661,   31.526414
   0.681073,   35.067607
   0.716023,   38.746006
   0.751346,   42.648736
   0.787223,   46.802928
   0.823036,   51.140608
   0.859491,   55.751771
   0.896032,   60.571949
   0.932923,   65.638978
   0.970558,   71.016121
   1.008334,   76.623972
   1.046211,   82.458727
   1.084504,   88.572893
   1.123228,   94.975783
   1.162176,  101.638520
   1.201593,  108.608651
   1.240834,  115.774571
   1.280330,  123.215327
   1.321312,  131.177706
   1.361860,  139.297873
   1.402979,  147.778140
   1.444087,  156.502907
   1.485289,  165.494973
   1.527210,  174.897986
   1.569012,  184.528976
   1.611618,  194.606798
   1.654627,  205.046939
   1.698050,  215.859967
   1.741272,  226.893890
   1.785347,  238.424023
   1.830086,  250.414502
   1.874700,  262.659324
   1.919726,  275.307709
   1.965505,  288.466533
   2.011398,  301.960718
   2.057207,  315.730995
   2.103784,  330.040745
   2.151352,  344.975148
   2.198282,  360.026111
   2.245707,  375.554850
   2.293950,  391.680020
   2.342116,  408.109800
   2.390565,  424.968495
   2.439966,  442.501425
   2.489123,  460.290740
   2.538329,  478.439493
   2.588472,  497.286111
   2.638665,  516.505854
   2.689337,  536.269046
   2.740583,  556.623059
   2.791988,  577.410430
   2.844375,  598.975552
   2.896152,  620.666969
   2.948815,  643.113159
   3.001783,  666.079644
   3.055601,  689.814432
   3.109170,  713.838920
   3.162847,  738.311374
   3.216731,  763.279475
   3.270720,  788.698414
   3.325604,  814.951590
   3.380484,  841.617189
   3.435999,  869.013388
   3.491440,  896.794884
   3.547244,  925.184052
   3.603226,  954.091760
   3.659747,  983.712052
   3.716274, 1013.770696
   3.773259, 1044.513368
   3.830391, 1075.778144
   3.888771, 1108.182896
   3.947212, 1141.083564
   4.005739, 1174.495137
   4.064076, 1208.258190
   4.123513, 1243.128372
   4.183044, 1278.529519
   4.242538, 1314.383431
   4.244958, 1315.852015
   4.245298, 1316.058322
   4.245381, 1316.108956
   4.245535, 1316.202135
   4.245579, 1316.228967
   4.245604, 1316.244084
   4.245621, 1316.254806
   4.245632, 1316.261086
   4.245636, 1316.263799
   4.245641, 1316.266424
   4.245684, 1316.292672
   4.246116, 1316.555161
   4.248393, 1317.937914
   4.257353, 1323.385640
   4.282135, 1338.507866
   4.340283, 1374.309058
   4.394126, 1407.856582
   4.448309, 1441.999575
   4.503118, 1476.928425
   4.557931, 1512.251918
   4.612914, 1548.078301
   4.667921, 1584.313665
   4.723564, 1621.367668
   4.779656, 1659.125679
   4.835523, 1697.136271
   4.891466, 1735.601663
   4.948394, 1775.157101
   5.004885, 1814.819564
   5.061558, 1855.019879
   5.118789, 1896.031780
   5.175907, 1937.378801
   5.233683, 1979.622632
   5.291254, 2022.137560
   5.349276, 2065.409393
   5.407373, 2109.162141
   5.465637, 2153.467193
   5.524194, 2198.423748
   5.583361, 2244.283900
   5.642844, 2290.829412
   5.702453, 2337.915562
   5.761968, 2385.367384
   5.822072, 2433.734045
   5.882416, 2482.742447
   5.942523, 2532.003589
   6.003003, 2582.019097
   6.063572, 2632.557352
   6.124959, 2684.235420
   6.186656, 2736.637339
   6.248313, 2789.467372
   6.309797, 2842.608064
   6.371660, 2896.537765
   6.433598, 2950.995396
   6.496595, 3006.856390
   6.559470, 3063.084377
   6.622180, 3119.635931
   6.685072, 3176.821849
   6.748117, 3234.619368
   6.811436, 3293.142333
   6.875142, 3352.501903
   6.939253, 3412.720602
   7.003860, 3473.895080
   7.067838, 3534.956440
   7.132584, 3597.237996
   7.197590, 3660.260200
   7.262956, 3724.127235
   7.328023, 3788.194524
   7.393741, 3853.398936
   7.459619, 3919.260400
   7.525777, 3985.904263
   7.592160, 4053.279165
   7.658295, 4120.902350
   7.724941, 4189.550957
   7.791912, 4259.042596
   7.858975, 4329.138207
   7.926408, 4400.132217
   7.994069, 4471.879691
   8.061920, 4544.344539
   8.130100, 4617.678941
   8.198412, 4691.674870
   8.266855, 4766.331522
   8.335646, 4841.890701
   8.404606, 4918.159926
   8.473788, 4995.200018
   8.543114, 5072.926541
   8.612552, 5151.305412
   8.681995, 5230.216151
   8.695986, 5246.177800
   8.703748, 5255.041724
   8.709475, 5261.586245
   8.710342, 5262.577994
   8.711516, 5263.920015
   8.711771, 5264.211611
   8.712134, 5264.626831
   8.712248, 5264.757332
   8.712422, 5264.955841
   8.712474, 5265.015667
   8.712505, 5265.050668
   8.712514, 5265.060506
   8.712521, 5265.069533
   8.712600, 5265.159811
   8.713324, 5265.987621
   8.716907, 5270.084637
   8.732208, 5287.599087
   8.773905, 5335.452965
   8.835771, 5406.784800
   8.897973, 5478.904070
   8.960570, 5551.883997
   9.023113, 5625.202964
   9.086322, 5699.708408
   9.149421, 5774.491076
   9.212542, 5849.704860
   9.275881, 5925.582629
   9.339697, 6002.441405
   9.403018, 6079.107685
   9.466996, 6156.977196
   9.530948, 6235.222130
   9.595196, 6314.236397
   9.659424, 6393.634989
   9.723810, 6473.636756
   9.788127, 6553.957455
   9.853061, 6635.458643
   9.917920, 6717.275227
   9.982975, 6799.748102
  10.048313, 6882.990352
  10.113614, 6966.594713
  10.179234, 7051.019232
  10.245157, 7136.245314
  10.311225, 7222.073896
  10.377115, 7308.081890
  10.443113, 7394.639144
  10.509364, 7481.939580
  10.576058, 7570.237366
  10.642633, 7658.788705
  10.709614, 7748.294745
  10.776693, 7838.345220
  10.843633, 7928.619862
  10.910889, 8019.733530
  10.978463, 8111.692706
  11.046239, 8204.341560
  11.113874, 8297.209368
  11.181943, 8391.088870
  11.250056, 8485.442949
  11.318218, 8580.276990
  11.386721, 8676.001217
  11.455507, 8772.536984
  11.524294, 8869.488372
  11.593183, 8966.998145
  11.662252, 9065.177580
  11.731771, 9164.412474
  11.801310, 9264.093249
  11.870761, 9364.062686
  11.940533, 9464.908149
  12.010474, 9566.412179
  12.080537, 9668.508309
  12.150879, 9771.427503
  12.221220, 9874.760621
  12.291768, 9978.810149
  12.362501, 10083.548510
  12.433354, 10188.878414
  12.504003, 10294.317035
  12.575050, 10400.760208
  12.646609, 10508.386720
  12.718248, 10616.549027
  12.789955, 10725.227394
  12.861634, 10834.276079
  12.933576, 10944.137426
  13.005580, 11054.505280
  13.077588, 11165.290285
  13.149929, 11276.997034
  13.222720, 11389.812565
  13.295684, 11503.309263
  13.368539, 11617.049060
  13.441532, 11731.413279
  13.456209, 11754.459455
  13.471116, 11777.882991
  13.480860, 11793.201649
  13.510775, 11840.280409
  13.513596, 11844.723942
  13.514127, 11845.560350
  13.514289, 11845.816388
  13.514614, 11846.328471
  13.514632, 11846.355335
  13.514641, 11846.370272
  13.514650, 11846.383846
  13.514736, 11846.519584
  13.515455, 11847.651815
  13.519576, 11854.144045
  13.539622, 11885.741384
  13.603520, 11986.639582
  13.667447, 12087.862141
  13.731578, 12189.680898
  13.795706, 12291.771862
  13.860010, 12394.416166
  13.924454, 12497.556202
  13.988923, 12601.010977
  14.053585, 12705.045134
  14.118399, 12809.596958
  14.183467, 12914.828608
  14.248643, 13020.506892
  14.313804, 13126.429954
  14.378982, 13232.647796
  14.444277, 13339.324407
  14.509765, 13446.581267
  14.575500, 13554.509497
  14.641343, 13662.879687
  14.707442, 13771.938146
  14.773437, 13881.088943
  14.839551, 13990.699371
  14.905775, 14100.754355
  14.972028, 14211.116846
  15.038503, 14322.108366
  15.105118, 14433.593553
  15.171701, 14545.282203
  15.238338, 14657.318381
  15.305431, 14770.376010
  15.372487, 14883.629487
  15.439717, 14997.430444
  15.507044, 15111.649070
  15.574419, 15226.202220
  15.641924, 15341.228080
  15.709466, 15456.567754
  15.777192, 15572.468929
  15.844914, 15688.611879
  15.913057, 15805.725483
  15.981088, 15922.893723
  16.049369, 16040.736778
  16.117689, 16158.893494
  16.186351, 16277.885602
  16.254992, 16397.084313
  16.323835, 16516.877589
  16.392810, 16637.141562
  16.461759, 16757.600533
  16.530850, 16878.544711
  16.599890, 16999.637384
  16.669332, 17121.672646
  16.738689, 17243.794161
  16.808367, 17366.714422
  16.878093, 17489.952919
  16.947945, 17613.648799
  17.017842, 17737.653589
  17.087891, 17862.159503
  17.158228, 17987.405480
  17.228440, 18112.658519
  17.298867, 18238.521700
  17.369181, 18364.405701
  17.439779, 18491.023248
  17.510789, 18618.605526
  17.581678, 18746.191024
  17.652673, 18874.189522
  17.723663, 19002.397924
  17.794785, 19131.061467
  17.866056, 19260.213067
  17.937478, 19389.853245
  18.008933, 19519.767594
  18.080628, 19650.331082
  18.152536, 19781.497143
  18.224420, 19912.829873
  18.296357, 20044.469927
  18.368420, 20176.546767
  18.440615, 20309.073696
  18.513108, 20442.353318
  18.585627, 20575.887607
  18.658139, 20709.611303
  18.730784, 20843.780923
  18.803739, 20978.725744
  18.818284, 21005.654575
  18.829148, 21025.772155
  18.838257, 21042.643887
  18.845094, 21055.309528
  18.846313, 21057.568196
  18.846732, 21058.343076
  18.847388, 21059.560006
  18.847568, 21059.893084
  18.847670, 21060.081483
  18.847730, 21060.193769
  18.847779, 21060.283718
  18.847823, 21060.364963
  18.848261, 21061.177412
  18.851351, 21066.901089
  18.866926, 21095.764367
  18.925702, 21204.764011
  18.998518, 21339.976063
  19.071330, 21475.372933
  19.144405, 21611.447963
  19.217305, 21747.386334
  19.290420, 21883.912176
  19.363638, 22020.817491
  19.436966, 22158.110363
  19.510278, 22295.557395
  19.583803, 22433.585425
  19.657523, 22572.159558
  19.731354, 22711.119640
  19.805299, 22850.474620
  19.879395, 22990.289375
  19.953553, 23130.395712
  20.028091, 23271.395286
  20.102566, 23412.447683
  20.176995, 23553.585437
  20.251598, 23695.219238
  20.326348, 23837.302175
  20.401216, 23979.776160
  20.476153, 24122.545343
  20.551120, 24265.534590
  20.626265, 24409.026862
  20.701481, 24552.813553
  20.776897, 24697.142369
  20.852326, 24841.653767
  20.928065, 24986.916951
  21.003901, 25132.518980
  21.079893, 25278.574932
  21.155758, 25424.538938
  21.231771, 25570.937875
  21.307982, 25717.867777
  21.384233, 25865.021010
  21.460680, 26012.699400
  21.537240, 26160.740555
  21.613810, 26308.942288
  21.690669, 26457.846178
  21.767622, 26607.072841
  21.844502, 26756.295040
  21.921563, 26906.005090
  21.998730, 27056.055701
  22.076038, 27206.516690
  22.153448, 27357.305122
  22.231031, 27508.564368
  22.308606, 27659.936161
  22.386276, 27811.618250
  22.464091, 27963.711612
  22.542084, 28116.276510
  22.620117, 28269.042217
  22.698297, 28422.217648
  22.703057, 28431.547521
  22.776491, 28575.540760
  22.854955, 29272.916375
  22.933476, 30008.690279
  23.012249, 30746.304303
  23.091108, 31486.800655
  23.170243, 32229.338879
  23.249493, 32974.926544
  23.328824, 33722.293680
  23.408327, 34471.334338
  23.487776, 35222.145134
  23.567360, 35973.514751
  23.647092, 36726.807027
  23.726966, 37482.030229
  23.806922, 38238.954091
  23.886835, 38996.806405
  23.966959, 39755.318088
  24.047015, 40515.500206
  24.127365, 41276.284284
  24.207518, 42038.866063
  24.287716, 42800.446440
  24.368096, 43563.041537
  24.448259, 44326.416082
  24.528536, 45088.711665
  24.608955, 45852.238911
  24.689136, 46616.066737
  24.769473, 47378.716885
  24.849680, 48141.928012
  24.929982, 48904.415377
  24.946023, 49476.292399
  24.951577, 49596.461921
  24.957126, 49648.695781
  24.962686, 49700.921967
  24.963795, 49740.092910
  24.966188, 49754.301175
  24.966368, 49770.273767
  24.966486, 49771.784963
  24.966580, 49772.825333
  24.966651, 49773.637041
  24.966719, 49774.293828
  24.966789, 49774.940358
  24.966803, 49775.437007
  24.966810, 49775.548750
  24.966817, 49775.615514
  24.966858, 49775.780055
  24.967122, 49776.819492
  24.967877, 49780.748150
  24.969705, 49791.013898
  24.973634, 49814.391048
  24.978841, 49855.091831
  24.984405, 49905.089025
  24.989971, 49957.388742
  24.995543, 50009.704004
  25.001099, 50062.004932
  25.006657, 50114.201528
  25.012235, 50166.459391
  25.017806, 50218.813762
  25.023395, 50271.165056
  25.028980, 50323.613591
  25.034547, 50375.971930
  25.040143, 50428.286865
  25.045741, 50480.787334
  25.051331, 50533.265715
  25.056925, 50585.690738
  25.062537, 50638.183633
  25.068134, 50690.735308
  25.073732, 50743.182839
  25.079345, 50795.674812
  25.084975, 50848.296634
  25.090597, 50900.989765
  25.096219, 50953.621717
  25.101850, 51006.264476
  25.107490, 51058.982784
  25.113125, 51111.730271
  25.118771, 51164.462350
  25.124413, 51217.245330
  25.130040, 51269.937489
  25.135691, 51322.595971
  25.141349, 51375.415287
  25.147023, 51428.314869
  25.152702, 51481.315949
  25.158375, 51534.314240
  25.164020, 51587.183533
  25.169695, 51639.942175
  25.175397, 51692.960611
  25.181085, 51746.092725
  25.186771, 51799.114382
  25.192478, 51852.171063
  25.198166, 51905.290855
  25.203866, 51958.309400
  25.209573, 52011.409819
  25.215311, 52064.631820
  25.221028, 52117.966585
  25.226753, 52171.180813
  25.232505, 52224.512274
  25.238257, 52277.991900
  25.244005, 52331.445348
  25.249750, 52384.849059
  25.255502, 52438.240293
  25.261247, 52491.634597
  25.267029, 52545.073798
  25.272815, 52598.740699
  25.278592, 52652.395598
  25.284382, 52706.010103
  25.290153, 52759.631182
  25.295937, 52813.149914
  25.301752, 52866.827663
  25.307561, 52920.662721
  25.313392, 52974.507619
  25.319215, 53028.447811
  25.325041, 53082.324715
  25.330896, 53136.287483
  25.336745, 53190.397374
  25.342541, 53244.294240
  25.348375, 53297.950653
  25.354244, 53351.925959
  25.360124, 53406.132713
  25.366016, 53460.423035
  25.371862, 53514.632064
  25.377761, 53568.688008
  25.383654, 53623.035176
  25.389552, 53677.339924
  25.395474, 53731.724642
  25.401396, 53786.235804
  25.407315, 53840.717954
  25.413263, 53895.240301
  25.419185, 53912.514079
  25.425141, 53929.870260
  25.431120, 53947.279477
  25.437095, 53964.659575
  25.443066, 53982.016121
  25.449052, 53999.397718
  25.455009, 54016.679125
  25.460944, 54033.881597
  25.466924, 54051.198989
  25.472898, 54068.482248
  25.478915, 54085.876049
  25.484927, 54103.237871
  25.490888, 54120.436384
  25.496880, 54137.706459
  25.502927, 54155.120429
  25.508970, 54172.507729
  25.514986, 54189.799871
  25.521029, 54207.153838
  25.527058, 54224.449851
  25.533130, 54241.852845
  25.539195, 54259.216392
  25.545236, 54276.498676
  25.551312, 54293.860562
  25.557396, 54311.230276
  25.563490, 54328.612708
  25.569594, 54346.005373
  25.575701, 54363.388373
  25.581817, 54380.778842
  25.587905, 54398.074432
  25.594003, 54415.380015
  25.600125, 54432.737221
  25.606263, 54450.121570
  25.612449, 54467.621805
  25.618621, 54485.066474
  25.624794, 54502.495672
  25.630979, 54519.942313
  25.637140, 54537.301958
  25.643334, 54554.733978
  25.649525, 54572.143012
  25.655718, 54589.536092
  25.661932, 54606.970074
  25.668135, 54624.356166
  25.674367, 54641.804475
  25.680613, 54659.273527
  25.686864, 54676.737282
  25.693106, 54694.157372
  25.699367, 54711.609744
  25.705611, 54728.997707
  25.711879, 54746.432406
  25.718168, 54763.906621
  25.724459, 54781.366088
  25.730744, 54798.789934
  25.737032, 54816.202508
  25.743324, 54833.606528
  25.749674, 54851.152624
  25.756008, 54868.632792
  25.762358, 54886.137729
  25.768690, 54903.572233
  25.775015, 54920.966706
  25.781403, 54938.517373
  25.787760, 54955.958435
  25.794145, 54973.458953
  25.800539, 54990.963821
  25.806952, 55008.497485
  25.813365, 55026.010932
  25.819779, 55043.505770
  25.826195, 55060.986739
  25.832628, 55078.493071
  25.839078, 55096.022161
  25.845546, 55113.581216
  25.852038, 55131.182603
  25.858513, 55148.715733
  25.864960, 55166.151721
  25.871458, 55183.703938
  25.877974, 55201.283376
  25.884507, 55218.888283
  25.891018, 55236.409695
  25.897539, 55253.935986
  25.904076, 55271.480903
  25.910635, 55289.065290
  25.913263, 55296.105469
  25.917191, 55306.617221
  25.923759, 55324.180620
  25.930347, 55341.774145
  25.936945, 55359.370396
  25.943544, 55376.945977
  25.950144, 55394.501327
  25.956771, 55412.107263
  25.963400, 55429.691776
  25.970064, 55447.347281
  25.976712, 55464.937256
  25.983395, 55482.594398
  25.990083, 55500.243780
  25.996783, 55517.896765
  26.003497, 55535.563366
  26.010200, 55553.178099
  26.016904, 55570.769518
  26.023655, 55588.461495
  26.030408, 55606.133330
  26.037152, 55623.753863
  26.043914, 55641.399753
  26.050727, 55659.151281
  26.057512, 55676.806253
  26.064314, 55694.479193
  26.071123, 55712.145734
  26.077967, 55729.877385
  26.084852, 55747.686320
  26.091723, 55765.435576
  26.098622, 55783.229527
  26.105458, 55800.835245
  26.112356, 55818.573506
  26.119249, 55836.272189
  26.126166, 55854.008111
  26.133065, 55871.668513
  26.139975, 55889.331008
  26.146945, 55907.119594
  26.153877, 55924.784589
  26.160850, 55942.524492
  26.167873, 55960.365239
  26.174909, 55978.211013
  26.181905, 55995.928278
  26.188937, 56013.707215
  26.196008, 56031.555904
  26.203043, 56049.286620
  26.210099, 56067.040367
  26.217146, 56084.743225
  26.224202, 56102.439783
  26.231289, 56120.186444
  26.238383, 56137.920093
  26.245523, 56155.740155
  26.252647, 56173.487871
  26.259796, 56191.271781
  26.266947, 56209.029249
  26.274105, 56226.775390
  26.281323, 56244.637986
  26.288551, 56262.496810
  26.295765, 56280.289570
  26.302967, 56298.021601
  26.310206, 56315.813886
  26.317460, 56333.610658
  26.324748, 56351.460328
  26.332004, 56369.201668
  26.339277, 56386.953308
  26.346558, 56404.690534
  26.353855, 56422.437177
  26.361223, 56440.322123
  26.368582, 56458.155084
  26.375999, 56476.094341
  26.383356, 56493.855488
  26.390694, 56511.537595
  26.398082, 56529.308314
  26.405527, 56547.183101
  26.412977, 56565.036721
  26.420415, 56582.826079
  26.427812, 56600.484648
  26.435280, 56618.279469
  26.442775, 56636.103480
  26.450286, 56653.931950
  26.457790, 56671.709375
  26.465318, 56689.508727
  26.472883, 56707.359118
  26.480469, 56725.225317
  26.488042, 56743.024810
  26.495667, 56760.911034
  26.503289, 56778.752000
  26.510940, 56796.626593
  26.518587, 56814.454581
  26.526181, 56832.123980
  26.533790, 56849.792006
  26.541466, 56867.576822
  26.549201, 56885.463191
  26.556912, 56903.255458
  26.564643, 56921.055819
  26.572402, 56938.883766
  26.580156, 56956.662227
  26.587959, 56974.516205
  26.595758, 56992.319513
  26.603585, 57010.149250
  26.611368, 57027.840921
  26.619181, 57045.559796
  26.627014, 57063.286817
  26.634853, 57080.986487
  26.642672, 57098.603037
  26.650529, 57116.264511
  26.658438, 57134.003222
  26.666391, 57151.801819
  26.674361, 57169.595928
  26.682337, 57187.362746
  26.690281, 57205.015851
  26.698197, 57222.566399
  26.706231, 57240.339228
  26.714218, 57257.963458
  26.722257, 57275.663132
  26.730298, 57293.323180
  26.738356, 57310.979251
  26.746405, 57328.571950
  26.754446, 57346.104559
  26.762581, 57363.800076
  26.770729, 57381.477914
  26.778880, 57399.120764
  26.786955, 57416.554805
  26.795142, 57434.186879
  26.803278, 57451.665796
  26.811542, 57469.374551
  26.819714, 57486.839200
  26.827918, 57504.329645
  26.836135, 57521.801566
  26.844359, 57539.244895
  26.852589, 57556.653240
  26.860812, 57574.002536
  26.869067, 57591.373952
  26.877320, 57608.695215
  26.885694, 57626.222486
  26.894037, 57643.639030
  26.902428, 57661.106482
  26.910809, 57678.508527
  26.919191, 57695.861483
  26.927641, 57713.309481
  26.936066, 57730.656058
  26.944495, 57747.963268
  26.952870, 57765.111082
  26.961289, 57782.299764
  26.969771, 57799.569935
  26.978190, 57816.661493
  26.986670, 57833.827872
  26.995179, 57851.003119
  27.003674, 57868.099832
  27.012152, 57885.113199
  27.020723, 57902.262305
  27.029336, 57919.444355
  27.037965, 57936.607306
  27.046622, 57953.772544
  27.055300, 57970.927858
  27.063991, 57988.056265
  27.072692, 58005.153191
  27.081336, 58022.083641
  27.090004, 58039.009093
  27.098713, 58055.960459
  27.107494, 58072.999653
  27.116320, 58090.070108
  27.125067, 58106.934716
  27.133818, 58123.752126
  27.142606, 58140.585971
  27.151385, 58157.349577
  27.160177, 58174.082006
  27.168967, 58190.755884
  27.177813, 58207.479388
  27.186751, 58224.321977
  27.195718, 58241.161190
  27.204552, 58257.694550
  27.213482, 58274.351408
  27.222456, 58291.032045
  27.231325, 58307.460763
  27.240288, 58324.006143
  27.249334, 58340.647510
  27.258361, 58357.193991
  27.267412, 58373.725763
  27.276443, 58390.161382
  27.285511, 58406.605406
  27.294527, 58422.896486
  27.303585, 58439.202338
  27.312658, 58455.477792
  27.321796, 58471.807494
  27.330855, 58487.936097
  27.339991, 58504.141419
  27.349065, 58520.177477
  27.358138, 58536.149885
  27.367303, 58552.225119
  27.376516, 58568.321018
  27.385689, 58584.284848
  27.394817, 58600.108636
  27.404043, 58616.041357
  27.413248, 58631.874804
  27.422567, 58647.840187
  27.431906, 58663.775317
  27.441189, 58679.550796
  27.450433, 58695.196763
  27.459750, 58710.902574
  27.468953, 58726.351318
  27.478245, 58741.887821
  27.487531, 58757.347574
  27.496902, 58772.885247
  27.506282, 58788.371311
  27.515686, 58803.831645
  27.525101, 58819.243641
  27.534467, 58834.508736
  27.543902, 58849.820036
  27.553280, 58864.972817
  27.562765, 58880.230949
  27.572196, 58895.335322
  27.581656, 58910.417875
  27.591161, 58925.503819
  27.600660, 58940.512628
  27.610163, 58955.459587
  27.619679, 58970.358632
  27.629187, 58985.176406
  27.638679, 58999.900687
  27.648215, 59014.623296
  27.657783, 59029.326351
  27.667422, 59044.067019
  27.677072, 59058.754915
  27.686694, 59073.327898
  27.696337, 59087.862078
  27.705938, 59102.263415
  27.715624, 59116.719045
  27.725174, 59130.901934
  27.734972, 59145.379649
  27.744645, 59159.600842
  27.754385, 59173.847763
  27.764072, 59187.943230
  27.773920, 59202.200329
  27.783655, 59216.218555
  27.793434, 59230.226891
  27.803143, 59244.061771
  27.812948, 59257.960206
  27.822692, 59271.697620
  27.832457, 59285.389994
  27.842285, 59299.096514
  27.852091, 59312.696226
  27.861799, 59326.087170
  27.871726, 59339.704426
  27.881537, 59353.086537
  27.891459, 59366.542981
  27.901275, 59379.780375
  27.911290, 59393.208489
  27.921173, 59406.381340
  27.930952, 59419.341662
  27.940811, 59432.330142
  27.950716, 59445.303405
  27.960631, 59458.212970
  27.970558, 59471.059033
  27.980525, 59483.879028
  27.990441, 59496.557097
  28.000352, 59509.149668
  28.010394, 59521.829220
  28.020429, 59534.420649
  28.030343, 59546.781927
  28.040416, 59559.261217
  28.050490, 59571.661910
  28.060578, 59583.998864
  28.070695, 59596.289498
  28.080753, 59608.427830
  28.090906, 59620.598725
  28.101097, 59632.732082
  28.111282, 59644.776699
  28.121340, 59656.588925
  28.131476, 59668.411691
  28.141617, 59680.158059
  28.151844, 59691.920052
  28.161958, 59703.469718
  28.172168, 59715.045192
  28.182310, 59726.460902
  28.192486, 59737.832725
  28.202677, 59749.136714
  28.212977, 59760.477704
  28.223206, 59771.655881
  28.233472, 59782.789187
  28.243783, 59793.885843
  28.253931, 59804.723049
  28.264113, 59815.512873
  28.274365, 59826.293155
  28.284607, 59836.976715
  28.294839, 59847.565348
  28.305093, 59858.092724
  28.315397, 59868.584634
  28.325765, 59879.054303
  28.336149, 59889.453167
  28.346414, 59899.647198
  28.356747, 59909.821309
  28.367032, 59919.863043
  28.377450, 59929.946045
  28.387833, 59939.907301
  28.398201, 59949.766248
  28.408612, 59959.578179
  28.418988, 59969.268781
  28.429424, 59978.926212
  28.439850, 59988.486850
  28.450348, 59998.022498
  28.460704, 60007.341087
  28.471205, 60016.700462
  28.481648, 60025.918510
  28.492049, 60035.011285
  28.501046, 60042.804575
