Speed, Forces
  72.544267, 11879.422159
  73.255168, 11788.963164
  73.966069, 11703.611009
  74.676970, 11623.050752
  75.387871, 11546.957180
  76.098772, 11475.537954
  76.809673, 11410.130345
  77.520574, 11348.456677
  78.231475, 11290.155778
  78.942376, 11237.767308
  79.653277, 11188.914643
  80.364178, 11142.612965
  81.075079, 11102.698162
  81.785980, 11064.913495
  82.496881, 11031.068934
  83.207782, 11001.289573
  83.918683, 10973.548465
  84.629584, 10951.231883
  85.340485, 10929.617165
  86.051386, 10914.190017
  86.762287, 10898.831137
  87.473188, 10889.572468
  88.184089, 10880.238247
  88.894990, 10876.746638
  89.605891, 10873.545976
  90.316791, 10875.038834
  91.027692, 10877.953573
  91.738593, 10883.734265
  92.449494, 10892.735975
  93.160395, 10902.077051
  93.871296, 10917.127026
  94.582197, 10932.291410
  95.293098, 10950.319474
  96.003999, 10971.526355
  96.714900, 10992.890855
  97.425801, 11018.653388
  98.136702, 11046.040917
  98.847603, 11073.627563
  99.558504, 11106.110402
 100.269405, 11139.686912
 100.980306, 11173.502324
 101.691207, 11211.629666
 102.402108, 11251.388079
 103.113009, 11291.423466
 103.823910, 11334.057865
 104.534811, 11379.975693
 105.245712, 11426.206855
 105.956613, 11472.751351
 106.667514, 11524.188565
 107.378415, 11576.575891
 108.089316, 11629.311199
 108.800217, 11682.673047
 109.511118, 11741.161514
 110.222019, 11800.030900
 110.932920, 11859.281206
 111.643821, 11918.912431
 112.354722, 11983.433519
 113.065623, 12048.776982
 113.776524, 12114.532588
 114.487425, 12180.700337
 115.198326, 12249.297013
 115.909227, 12321.086020
 116.620128, 12393.316681
 117.331029, 12465.988998
 118.041929, 12539.102969
 118.752830, 12615.065518
 119.463731, 12693.720444
 120.174632, 12772.844824
 120.885533, 12852.438658
 121.596434, 12932.501946
 122.307335, 13013.666454
 123.018236, 13099.169847
 123.729137, 13185.168780
 124.440038, 13271.663255
 125.150939, 13358.653270
 125.861840, 13446.138827
 126.572741, 13535.010442
 127.283642, 13627.839080
 127.994543, 13721.187635
 128.705444, 13815.056104
 129.416345, 13909.444490
 130.127246, 14004.352791
 130.838147, 14099.781009
 131.549048, 14198.279801
 132.259949, 14298.952768
 132.970850, 14400.168313
 133.681751, 14501.926436
 134.392652, 14604.227137
 135.103553, 14707.070416
 135.814454, 14810.456274
 136.525355, 14915.270090
 137.236256, 15023.774968
 137.947157, 15132.843375
 138.658058, 15242.475310
 139.368959, 15352.670773
 140.079860, 15463.429765
 140.790761, 15574.752285
 141.501662, 15686.638334
 142.212563, 15799.087911
 142.923464, 15915.440906
