Speed, Forces
  78.685260, 13975.774699
  79.334131, 13886.288640
  79.983002, 13800.311792
  80.631872, 13717.499530
  81.280743, 13640.664597
  81.929614, 13567.266252
  82.578485, 13496.475396
  83.227355, 13432.053115
  83.876226, 13369.568124
  84.525097, 13311.442489
  85.173968, 13257.005160
  85.822838, 13204.982506
  86.471709, 13158.085089
  87.120580, 13112.187065
  87.769451, 13072.296130
  88.418321, 13032.535827
  89.067192, 12999.092269
  89.716063, 12965.474217
  90.364934, 12937.893255
  91.013804, 12910.413425
  91.662675, 12888.084598
  92.311546, 12866.730405
  92.960416, 12849.017578
  93.609287, 12833.767874
  94.258158, 12820.009233
  94.907029, 12810.834313
  95.555899, 12801.596451
  96.204770, 12797.203970
  96.853641, 12794.044332
  97.502512, 12792.116852
  98.151382, 12794.987190
  98.800253, 12797.876566
  99.449124, 12803.622238
 100.097995, 12812.523632
 100.746865, 12821.482916
 101.395736, 12833.959075
 102.044607, 12848.901006
 102.693478, 12863.938253
 103.342348, 12882.150877
 103.991219, 12903.129990
 104.640090, 12924.240416
 105.288961, 12947.144132
 105.937831, 12974.144231
 106.586702, 13001.310214
 107.235573, 13028.642081
 107.884444, 13060.800345
 108.533314, 13093.991425
 109.182185, 13127.381534
 109.831056, 13161.877916
 110.479927, 13201.050795
 111.128797, 13240.454421
 111.777668, 13280.088796
 112.426539, 13321.178039
 113.075409, 13366.537619
 113.724280, 13412.158240
 114.373151, 13458.039900
 115.022022, 13504.230975
 115.670892, 13555.766011
 116.319763, 13607.590954
 116.968634, 13659.705802
 117.617505, 13712.110556
 118.266375, 13767.104220
 118.915246, 13825.103696
 119.564117, 13883.420516
 120.212988, 13942.054681
 120.861858, 14001.006191
 121.510729, 14062.910651
 122.159600, 14127.381111
 122.808471, 14192.194928
 123.457341, 14257.352102
 124.106212, 14322.852634
 124.755083, 14389.647712
 125.403954, 14460.574303
 126.052824, 14531.868837
 126.701695, 14603.531314
 127.350566, 14675.561736
 127.999437, 14747.960100
 128.648307, 14822.445340
 129.297178, 14900.182914
 129.946049, 14978.311592
 130.594919, 15056.831373
 131.243790, 15135.742257
 131.892661, 15215.044244
 132.541532, 15294.737335
 133.190402, 15379.198236
 133.839273, 15464.145449
 134.488144, 15549.505499
 135.137015, 15635.278385
 135.785885, 15721.464107
 136.434756, 15808.062666
 137.083627, 15895.074061
 137.732498, 15986.498355
 138.381368, 16078.655963
 139.030239, 16171.246713
 139.679110, 16264.270606
 140.327981, 16357.727642
 140.976851, 16451.617821
 141.625722, 16545.941142
 142.274593, 16641.076911
 142.923464, 16740.415711
