Time, Fuel Flow
   0.000000,   19.949433
   0.001667,   19.951674
   0.003333,   19.953653
   0.005000,   19.955599
   0.006667,   19.957546
   0.008333,   19.959492
   0.010000,   19.961439
   0.011667,   19.963386
   0.013333,   19.965332
   0.015000,   19.967279
   0.016667,   19.969225
   0.018333,   19.971172
   0.020000,   19.972656
   0.021667,   19.974083
   0.023333,   19.975510
   0.025000,   19.976936
   0.026667,   19.978363
   0.028333,   19.979790
   0.030000,   19.981216
   0.031667,   19.982643
   0.033333,   19.984069
   0.035000,   19.985496
   0.036667,   19.986476
   0.038333,   19.987401
   0.040000,   19.988325
   0.041667,   19.989250
   0.043333,   19.990174
   0.045000,   19.991099
   0.046667,   19.992023
   0.048333,   19.992948
   0.050000,   19.993872
   0.051667,   19.994797
   0.053333,   19.995291
   0.055000,   19.995732
   0.056667,   19.996173
   0.058333,   19.996613
   0.060000,   19.997054
   0.061667,   19.997495
   0.063333,   19.997936
   0.065000,   19.998376
   0.066667,   19.998817
   0.068333,   19.999258
   0.070000,   19.999285
   0.071667,   19.999261
   0.073333,   19.999236
   0.075000,   19.999212
   0.076667,   19.999188
   0.078333,   19.999164
   0.080000,   19.999139
   0.081667,   19.999115
   0.083333,   19.999091
   0.085000,   19.999066
   0.086667,   20.000723
   0.088333,   20.002590
   0.090000,   20.004457
   0.091667,   20.006324
   0.093333,   20.008192
   0.095000,   20.010059
   0.096667,   20.011926
   0.098333,   20.013793
   0.100000,   20.015660
   0.101667,   20.017527
   0.103333,   20.019738
   0.105000,   20.021992
   0.106667,   20.024246
   0.108333,   20.026501
   0.110000,   20.028755
   0.111667,   20.031009
   0.113333,   20.033264
   0.115000,   20.035518
   0.116667,   20.037772
   0.118333,   20.040026
   0.120000,   20.041039
   0.121667,   20.041897
   0.123333,   20.042755
   0.125000,   20.043613
   0.126667,   20.044471
   0.128333,   20.045329
   0.130000,   20.046188
   0.131667,   20.047046
   0.133333,   20.047904
   0.135000,   20.048762
   0.136667,   20.048761
   0.138333,   20.048652
   0.140000,   20.048544
   0.141667,   20.048436
   0.143333,   20.048328
   0.145000,   20.048219
   0.146667,   20.048111
   0.148333,   20.048003
   0.150000,   20.047895
   0.151667,   20.047786
   0.153333,   20.046872
   0.155000,   20.045858
   0.156667,   20.044843
   0.158333,   20.043829
   0.160000,   20.042814
   0.161667,   20.041799
   0.163333,   20.040785
   0.165000,   20.039770
   0.166667,   20.038756
   0.168333,   20.037741
   0.170000,   20.035973
   0.171667,   20.034110
   0.173333,   20.032248
   0.175000,   20.030386
   0.176667,   20.028523
   0.178333,   20.026661
   0.180000,   20.024799
   0.181667,   20.022936
   0.183333,   20.021074
   0.185000,   20.019212
   0.186667,   20.023467
   0.188333,   20.028487
   0.190000,   20.033506
   0.191667,   20.038526
   0.193333,   20.043545
   0.195000,   20.048565
   0.196667,   20.053584
   0.198333,   20.058604
   0.200000,   20.063623
   0.201667,   20.068643
   0.203333,   20.072396
   0.205000,   20.075990
   0.206667,   20.079585
   0.208333,   20.083180
   0.210000,   20.086774
   0.211667,   20.090369
   0.213333,   20.093964
   0.215000,   20.097558
   0.216667,   20.101153
   0.218333,   20.104748
   0.220000,   20.106446
   0.221667,   20.107908
   0.223333,   20.109370
   0.225000,   20.110832
   0.226667,   20.112294
   0.228333,   20.113757
   0.230000,   20.115219
   0.231667,   20.116681
   0.233333,   20.118143
   0.235000,   20.119605
   0.236667,   20.119478
   0.238333,   20.119152
   0.240000,   20.118827
   0.241667,   20.118502
   0.243333,   20.118177
   0.245000,   20.117851
   0.246667,   20.117526
   0.248333,   20.117201
   0.250000,   20.116876
   0.251667,   20.116550
   0.253333,   20.114778
   0.255000,   20.112825
   0.256667,   20.110872
   0.258333,   20.108919
   0.260000,   20.106966
   0.261667,   20.105012
   0.263333,   20.103059
   0.265000,   20.101106
   0.266667,   20.099153
   0.268333,   20.097200
   0.270000,   20.093934
   0.271667,   20.090504
   0.273333,   20.087074
   0.275000,   20.083644
   0.276667,   20.080213
   0.278333,   20.076783
   0.280000,   20.073353
   0.281667,   20.069923
   0.283333,   20.066493
   0.285000,   20.063063
   0.286667,   20.058789
   0.288333,   20.054411
   0.290000,   20.050032
   0.291667,   20.045653
   0.293333,   20.041275
   0.295000,   20.036896
   0.296667,   20.032517
   0.298333,   20.028138
   0.300000,   20.023760
   0.301667,   20.019381
   0.303333,   20.023485
   0.305000,   20.028649
   0.306667,   20.033812
   0.308333,   20.038975
   0.310000,   20.044139
   0.311667,   20.049302
   0.312369,   20.051479
   0.314036,   20.055361
   0.315703,   20.059244
   0.317369,   20.063127
   0.319036,   20.066636
   0.320703,   20.069317
   0.322369,   20.071998
   0.324036,   20.074679
   0.325703,   20.077360
   0.327369,   20.080041
   0.329036,   20.082723
   0.330703,   20.085404
   0.332369,   20.088085
   0.334036,   20.090766
   0.335703,   20.092960
   0.337369,   20.094074
   0.339036,   20.095187
   0.340703,   20.096301
   0.342369,   20.097415
   0.344036,   20.098528
   0.345703,   20.099642
   0.347369,   20.100755
   0.349036,   20.101869
   0.350703,   20.102983
   0.352369,   20.103693
   0.354036,   20.103507
   0.355703,   20.103322
   0.357369,   20.103136
   0.359036,   20.102951
   0.360703,   20.102765
   0.362369,   20.102580
   0.364036,   20.102394
   0.365703,   20.102209
   0.367369,   20.102023
   0.368518,   20.101895
   0.370185,   20.101090
   0.371852,   20.100286
   0.373518,   20.099481
   0.375185,   20.098676
   0.376852,   20.097872
   0.378518,   20.097067
   0.380185,   20.096262
   0.381852,   20.095458
   0.383518,   20.094653
   0.385185,   20.093848
   0.386852,   20.093117
   0.388518,   20.092386
   0.390185,   20.091655
   0.391852,   20.090924
   0.393518,   20.090193
   0.395185,   20.089579
   0.396852,   20.088964
   0.398518,   20.088350
   0.400185,   20.087736
   0.401852,   20.087122
   0.403518,   20.086689
   0.405185,   20.086255
   0.406852,   20.085822
   0.408518,   20.085389
   0.410185,   20.084956
   0.410185,   17.213147
   1.604481,   16.967991
   2.823272,   16.707980
   4.081386,   16.255521
   5.429985,   15.480229
   6.915721,   14.774997
   8.560390,   14.184758
  10.397371,   13.610815
  12.485334,   13.024584
  14.968358,   12.316910
  14.968358,   12.053109
  15.830802,   12.050896
  16.693245,   12.048683
  17.555688,   12.046470
  18.418132,   12.044257
  19.280575,   12.042044
  20.143018,   12.039831
  21.005461,   12.037618
  21.867905,   12.035405
  22.730348,   12.033192
  23.592791,   12.030980
  24.455235,   12.028767
  25.317678,   12.026554
  26.180121,   12.024342
  27.042565,   12.022129
  27.905008,   12.019917
  28.767451,   12.017705
  29.629895,   12.015492
  30.492338,   12.013280
  31.354781,   12.011068
  32.217225,   12.008856
  33.079668,   12.006644
  33.942111,   12.004432
  34.804555,   12.002220
  35.666998,   12.000008
  36.529441,   11.997797
  37.391885,   11.995585
  38.254328,   11.993373
  39.116771,   11.991162
  39.979215,   11.988950
  39.979215,    7.794626
  41.139143,    7.566642
  42.301874,    7.531353
  43.463193,    7.455286
  44.619342,    7.286863
  45.768081,    7.248918
  46.905098,    7.136899
  48.026307,    6.921818
  49.143709,    6.880488
  50.253604,    6.803758
  50.253604,   17.024035
  50.833005,   16.896980
  51.418049,   16.766461
  52.008556,   16.632957
  52.607292,   16.423965
  53.225054,   16.037366
  53.871173,   15.648721
  54.548638,   15.259047
  55.259779,   14.914813
  56.006440,   14.590670
  56.006440,    9.476753
  57.858634,    9.468968
  59.711637,    9.461179
  61.565449,    9.453387
  63.420072,    9.445592
  65.275506,    9.437793
  67.131752,    9.429991
  68.988810,    9.422187
  70.846682,    9.414379
  72.705368,    9.406568
  72.705368,    7.293126
  73.351774,    9.134509
  73.988012,    7.348367
  74.626788,    7.346539
  75.268241,    7.322523
  75.912514,    7.274413
  76.559398,    7.272796
  77.208755,    7.280648
  77.860123,    7.278744
  78.512585,    7.274105
  78.512585,    9.086173
  83.512585,    9.068425
  88.512585,    9.050695
  93.512585,    9.033153
  98.512585,    9.016077
 103.512585,    8.999019
 108.512585,    8.981978
 113.512585,    8.964956
 118.512585,    8.947952
 123.512585,    8.930965
 123.512585,    0.000000
 123.514252,    8.439394
 123.515918,    8.439537
 123.517585,    8.439681
 123.519252,    8.439824
 123.520918,    8.439967
 123.522585,    8.440109
 123.524252,    8.440252
 123.525918,    8.440395
 123.527585,    8.440537
 123.529252,    8.440680
 123.530918,    8.440823
 123.532585,    8.440965
 123.534252,    8.441108
 123.535918,    8.441250
 123.537585,    8.441392
 123.539252,    8.441534
 123.540918,    8.441676
 123.542585,    8.441819
 123.544252,    8.441961
 123.545918,    8.442103
 123.547585,    8.442245
 123.549252,    8.442387
 123.550918,    8.442529
 123.552585,    8.442671
 123.554252,    8.442813
 123.555918,    8.442955
 123.557585,    8.443097
 123.559252,    8.443239
 123.560918,    8.443381
 123.562585,    8.443523
 123.564252,    8.443665
 123.565918,    8.443807
 123.567585,    8.443949
 123.569252,    8.444089
 123.570918,    8.444228
 123.572585,    8.444367
 123.574252,    8.444507
 123.575918,    8.444646
 123.577585,    8.444786
 123.579252,    8.444925
 123.580918,    8.445064
 123.582585,    8.445204
 123.584252,    8.445343
 123.585918,    8.445484
 123.587585,    8.445626
 123.589252,    8.445767
 123.590918,    8.445909
 123.592585,    8.446050
 123.594252,    8.446192
 123.595918,    8.446334
 123.597585,    8.446475
 123.599252,    8.446617
 123.600918,    8.446758
 123.602585,    8.446899
 123.604252,    8.447039
 123.605918,    8.447180
 123.607585,    8.447320
 123.609252,    8.447460
 123.610918,    8.447601
 123.612585,    8.447741
 123.614252,    8.447881
 123.615918,    8.448022
 123.617585,    8.448162
 123.619252,    8.448302
 123.620918,    8.448442
 123.622585,    8.448582
 123.624252,    8.448722
 123.625918,    8.448862
 123.627585,    8.449002
 123.629252,    8.449142
 123.630918,    8.449282
 123.632585,    8.449422
 123.634252,    8.449562
 123.635918,    8.449703
 123.637585,    8.449844
 123.639252,    8.449985
 123.640918,    8.450126
 123.642585,    8.450268
 123.644252,    8.450409
 123.645918,    8.450550
 123.647585,    8.450691
 123.649252,    8.450833
 123.650918,    8.450974
 123.652585,    8.451114
 123.654252,    8.451254
 123.655918,    8.451394
 123.657585,    8.451533
 123.659252,    8.451673
 123.660918,    8.451813
 123.662585,    8.451953
 123.664252,    8.452093
 123.665918,    8.452233
 123.667585,    8.452373
 123.669252,    8.452513
 123.670918,    8.452652
 123.672585,    8.452792
 123.674252,    8.452932
 123.675918,    8.453072
 123.677585,    8.453212
 123.679252,    8.453352
 123.680918,    8.453491
 123.682585,    8.453631
 123.684252,    8.453771
 123.685918,    8.453909
 123.687585,    8.454046
 123.689252,    8.454183
 123.690918,    8.454321
 123.692585,    8.454458
 123.694252,    8.454595
 123.695918,    8.454732
 123.697585,    8.454870
 123.699252,    8.455007
 123.700918,    8.455144
 123.702585,    8.455282
 123.704252,    8.455419
 123.705918,    8.455557
 123.707585,    8.455694
 123.709252,    8.455832
 123.710918,    8.455970
 123.712585,    8.456107
 123.714252,    8.456245
 123.715918,    8.456382
 123.717585,    8.456520
 123.719252,    8.456656
 123.720918,    8.456793
 123.722585,    8.456929
 123.724252,    8.457066
 123.725918,    8.457202
 123.727585,    8.457339
 123.729252,    8.457475
 123.730918,    8.457612
 123.732585,    8.457748
 123.734252,    8.457885
 123.735918,    8.458022
 123.737585,    8.458160
 123.739252,    8.458298
 123.740918,    8.458436
 123.742585,    8.458573
 123.744252,    8.458711
 123.745918,    8.458849
 123.747585,    8.458987
 123.749252,    8.459124
 123.750918,    8.459262
 123.752585,    8.459399
 123.754252,    8.459535
 123.755918,    8.459672
 123.757585,    8.459808
 123.759252,    8.459945
 123.760918,    8.460081
 123.762585,    8.460218
 123.764252,    8.460354
 123.765918,    8.460490
 123.767585,    8.460627
 123.769252,    8.460763
 123.770918,    8.460899
 123.772585,    8.461035
 123.774252,    8.461171
 123.775918,    8.461307
 123.777585,    8.461443
 123.779252,    8.461579
 123.780918,    8.461715
 123.782585,    8.461851
 123.784252,    8.461987
 123.785918,    8.462124
 123.787585,    8.462261
 123.789252,    8.462399
 123.790918,    8.462536
 123.792585,    8.462674
 123.794252,    8.462811
 123.795918,    8.462948
 123.797585,    8.463086
 123.799252,    8.463223
 123.800918,    8.463361
 123.802585,    8.463497
 123.804252,    8.463633
 123.805918,    8.463770
 123.807585,    8.463906
 123.809252,    8.464042
 123.810918,    8.464178
 123.812585,    8.464315
 123.814252,    8.464451
 123.815918,    8.464587
 123.817585,    8.464723
 123.819252,    8.464860
 123.820918,    8.464996
 123.822585,    8.465133
 123.824252,    8.465270
 123.825918,    8.465406
 123.827585,    8.465543
 123.829252,    8.465679
 123.830918,    8.465816
 123.832585,    8.465953
 123.834252,    8.466089
 123.835918,    8.466226
 123.837585,    8.466363
 123.839252,    8.466499
 123.840918,    8.466636
 123.842585,    8.466772
 123.844252,    8.466909
 123.845918,    8.467046
 123.847585,    8.467182
 123.849252,    8.467319
 123.850918,    8.467456
 123.852585,    8.467592
 123.854252,    8.467728
 123.855918,    8.467864
 123.857585,    8.468001
 123.859252,    8.468137
 123.860918,    8.468273
 123.862585,    8.468409
 123.864252,    8.468546
 123.865918,    8.468682
 123.867585,    8.468818
 123.869252,    8.468955
 123.870918,    8.469091
 123.872585,    8.469228
 123.874252,    8.469364
 123.875918,    8.469501
 123.877585,    8.469638
 123.879252,    8.469774
 123.880918,    8.469911
 123.882585,    8.470047
 123.884252,    8.470184
 123.885918,    8.470321
 123.887585,    8.470457
 123.889252,    8.470594
 123.890918,    8.470730
 123.892585,    8.470867
 123.894252,    8.471004
 123.895918,    8.471140
 123.897585,    8.471277
 123.899252,    8.471413
 123.900918,    8.471550
 123.902585,    8.471686
 123.904252,    8.471822
 123.905918,    8.471959
 123.907585,    8.472095
 123.909252,    8.472231
 123.910918,    8.472367
 123.912585,    8.472503
 123.914252,    8.472639
 123.915918,    8.472776
 123.917585,    8.472912
 123.919252,    8.473048
 123.920918,    8.473183
 123.922585,    8.473319
 123.924252,    8.473455
 123.925918,    8.473590
 123.927585,    8.473726
 123.929252,    8.473862
 123.930918,    8.473997
 123.932585,    8.474133
 123.934252,    8.474269
 123.935918,    8.474406
 123.937585,    8.474543
 123.939252,    8.474680
 123.940918,    8.474817
 123.942585,    8.474954
 123.944252,    8.475091
 123.945918,    8.475228
 123.947585,    8.475365
 123.949252,    8.475502
 123.950918,    8.475639
 123.952585,    8.475775
 123.954252,    8.475911
 123.955918,    8.476047
 123.957585,    8.476183
 123.959252,    8.476319
 123.960918,    8.476454
 123.962585,    8.476590
 123.964252,    8.476726
 123.965918,    8.476862
 123.967585,    8.476997
 123.969252,    8.477133
 123.970918,    8.477268
 123.972585,    8.477403
 123.974252,    8.477538
 123.975918,    8.477674
 123.977585,    8.477809
 123.979252,    8.477944
 123.980918,    8.478079
 123.982585,    8.478215
 123.984252,    8.478350
 123.985918,    8.478486
 123.987585,    8.478622
 123.989252,    8.478759
 123.990918,    8.478895
 123.992585,    8.479032
 123.994252,    8.479168
 123.995918,    8.479305
 123.997585,    8.479441
 123.999252,    8.479578
 124.000918,    8.479714
 124.002585,    8.479850
 124.004252,    8.479985
 124.005918,    8.480120
 124.007585,    8.480255
 124.009252,    8.480390
 124.010918,    8.480525
 124.012585,    8.480660
 124.014252,    8.480795
 124.015918,    8.480930
 124.017585,    8.481065
 124.019252,    8.481203
 124.020918,    8.481341
 124.022585,    8.481479
 124.024252,    8.481617
 124.025918,    8.481755
 124.027585,    8.481893
 124.029252,    8.482031
 124.030918,    8.482170
 124.032585,    8.482308
 124.034252,    8.482446
 124.035918,    8.482583
 124.037585,    8.482719
 124.039252,    8.482856
 124.040918,    8.482993
 124.042585,    8.483129
 124.044252,    8.483266
 124.045918,    8.483403
 124.047585,    8.483539
 124.049252,    8.483676
 124.050918,    8.483813
 124.052585,    8.483949
 124.054252,    8.484085
 124.055918,    8.484221
 124.057585,    8.484357
 124.059252,    8.484493
 124.060918,    8.484629
 124.062585,    8.484765
 124.064252,    8.484901
 124.065918,    8.485037
 124.067585,    8.485173
 124.069252,    8.485309
 124.070918,    8.485444
 124.072585,    8.485580
 124.074252,    8.485716
 124.075918,    8.485851
 124.077585,    8.485987
 124.079252,    8.486122
 124.080918,    8.486258
 124.082585,    8.486394
 124.084252,    8.486529
 124.085918,    8.486664
 124.087585,    8.486799
 124.089252,    8.486934
 124.090918,    8.487069
 124.092585,    8.487204
 124.094252,    8.487339
 124.095918,    8.487473
 124.097585,    8.487608
 124.099252,    8.487743
 124.100918,    8.487878
 124.102585,    8.488014
 124.104252,    8.488150
 124.105918,    8.488286
 124.107585,    8.488422
 124.109252,    8.488558
 124.110918,    8.488694
 124.112585,    8.488830
 124.114252,    8.488966
 124.115918,    8.489102
 124.117585,    8.489238
 124.119252,    8.489373
 124.120918,    8.489508
 124.122585,    8.489642
 124.124252,    8.489777
 124.125918,    8.489911
 124.127585,    8.490046
 124.129252,    8.490180
 124.130918,    8.490315
 124.132585,    8.490449
 124.134252,    8.490584
 124.135918,    8.490718
 124.137585,    8.490853
 124.139252,    8.490987
 124.140918,    8.491122
 124.142585,    8.491256
 124.144252,    8.491391
 124.145918,    8.491525
 124.147585,    8.491660
 124.149252,    8.491794
 124.150918,    8.491929
 124.152585,    8.492061
 124.154252,    8.492193
 124.155918,    8.492324
 124.157585,    8.492456
 124.159252,    8.492588
 124.160918,    8.492720
 124.162585,    8.492851
 124.164252,    8.492983
 124.165918,    8.493115
 124.167585,    8.493247
 124.169252,    8.493379
 124.170918,    8.493511
 124.172585,    8.493643
 124.174252,    8.493775
 124.175918,    8.493907
 124.177585,    8.494039
 124.179252,    8.494171
 124.180918,    8.494303
 124.182585,    8.494435
 124.184252,    8.494567
 124.185918,    8.494699
 124.187585,    8.494830
 124.189252,    8.494961
 124.190918,    8.495092
 124.192585,    8.495223
 124.194252,    8.495354
 124.195918,    8.495485
 124.197585,    8.495616
 124.199252,    8.495747
 124.200918,    8.495878
 124.202585,    8.496010
 124.204252,    8.496142
 124.205918,    8.496274
 124.207585,    8.496407
 124.209252,    8.496539
 124.210918,    8.496672
 124.212585,    8.496804
 124.214252,    8.496936
 124.215918,    8.497069
 124.217585,    8.497201
 124.219252,    8.497332
 124.220918,    8.497464
 124.222585,    8.497595
 124.224252,    8.497726
 124.225918,    8.497857
 124.227585,    8.497988
 124.229252,    8.498119
 124.230918,    8.498251
 124.232585,    8.498382
 124.234252,    8.498513
 124.235918,    8.498644
 124.237585,    8.498776
 124.239252,    8.498907
 124.240918,    8.499039
 124.242585,    8.499170
 124.244252,    8.499302
 124.245918,    8.499434
 124.247585,    8.499565
 124.249252,    8.499697
 124.250918,    8.499828
 124.252585,    8.499960
 124.254252,    8.500091
 124.255918,    8.500223
 124.257585,    8.500355
 124.259252,    8.500486
 124.260918,    8.500618
 124.262585,    8.500750
 124.264252,    8.500881
 124.265918,    8.501013
 124.267585,    8.501144
 124.269252,    8.501276
 124.270918,    8.501407
 124.272585,    8.501538
 124.274252,    8.501670
 124.275918,    8.501801
 124.277585,    8.501932
 124.279252,    8.502064
 124.280918,    8.502195
 124.282585,    8.502326
 124.284252,    8.502458
 124.285918,    8.502587
 124.287585,    8.502716
 124.289252,    8.502844
 124.290918,    8.502973
 124.292585,    8.503102
 124.294252,    8.503231
 124.295918,    8.503359
 124.297585,    8.503488
 124.299252,    8.503617
 124.300918,    8.503746
 124.302585,    8.503875
 124.304252,    8.504004
 124.305918,    8.504133
 124.307585,    8.504262
 124.309252,    8.504391
 124.310918,    8.504520
 124.312585,    8.504650
 124.314252,    8.504779
 124.315918,    8.504908
 124.317585,    8.505037
 124.319252,    8.505165
 124.320918,    8.505294
 124.322585,    8.505422
 124.324252,    8.505550
 124.325918,    8.505678
 124.327585,    8.505807
 124.329252,    8.505935
 124.330918,    8.506063
 124.332585,    8.506191
 124.334252,    8.506320
 124.335918,    8.506449
 124.337585,    8.506579
 124.339252,    8.506709
 124.340918,    8.506839
 124.342585,    8.506969
 124.344252,    8.507099
 124.345918,    8.507229
 124.347585,    8.507359
 124.349252,    8.507488
 124.350918,    8.507618
 124.352585,    8.507748
 124.354252,    8.507877
 124.355918,    8.508005
 124.357585,    8.508134
 124.359252,    8.508263
 124.360918,    8.508392
 124.362585,    8.508521
 124.364252,    8.508650
 124.365918,    8.508779
 124.367585,    8.508908
 124.369252,    8.509039
 124.370918,    8.509170
 124.372585,    8.509301
 124.374252,    8.509432
 124.375918,    8.509563
 124.377585,    8.509694
 124.379252,    8.509825
 124.380918,    8.509956
 124.382585,    8.510087
 124.384252,    8.510218
 124.385918,    8.510347
 124.387585,    8.510476
 124.389252,    8.510604
 124.390918,    8.510732
 124.392585,    8.510861
 124.394252,    8.510989
 124.395918,    8.511118
 124.397585,    8.511246
 124.399252,    8.511375
 124.400918,    8.511503
 124.402585,    8.511632
 124.404252,    8.511761
 124.405918,    8.511889
 124.407585,    8.512018
 124.409252,    8.512147
 124.410918,    8.512276
 124.412585,    8.512405
 124.414252,    8.512534
 124.415918,    8.512662
 124.417585,    8.512791
 124.419252,    8.512921
 124.420918,    8.513052
 124.422585,    8.513182
 124.424252,    8.513312
 124.425918,    8.513442
 124.427585,    8.513573
 124.429252,    8.513703
 124.430918,    8.513833
 124.432585,    8.513963
 124.434252,    8.514094
 124.435918,    8.514223
 124.437585,    8.514352
 124.439252,    8.514481
 124.440918,    8.514610
 124.442585,    8.514739
 124.444252,    8.514868
 124.445918,    8.514998
 124.447585,    8.515127
 124.449252,    8.515256
 124.450918,    8.515385
 124.452585,    8.515514
 124.454252,    8.515644
 124.455918,    8.515773
 124.457585,    8.515903
 124.459252,    8.516032
 124.460918,    8.516162
 124.462585,    8.516291
 124.464252,    8.516421
 124.465918,    8.516550
 124.467585,    8.516680
 124.469252,    8.516810
 124.470918,    8.516939
 124.472585,    8.517069
 124.474252,    8.517199
 124.475918,    8.517328
 124.477585,    8.517458
 124.479252,    8.517587
 124.480918,    8.517717
 124.482585,    8.517847
 124.484252,    8.517976
 124.485918,    8.518106
 124.487585,    8.518235
 124.489252,    8.518364
 124.490918,    8.518494
 124.492585,    8.518623
 124.494252,    8.518752
 124.495918,    8.518882
 124.497585,    8.519011
 124.499252,    8.519140
 124.500918,    8.519270
 124.502585,    8.519397
 124.504252,    8.519524
 124.505918,    8.519650
 124.507585,    8.519777
 124.509252,    8.519904
 124.510918,    8.520031
 124.512585,    8.520157
 124.514252,    8.520284
 124.515918,    8.520411
 124.517585,    8.520537
 124.519252,    8.520664
 124.520918,    8.520792
 124.522585,    8.520919
 124.524252,    8.521046
 124.525918,    8.521173
 124.527585,    8.521300
 124.529252,    8.521427
 124.530918,    8.521554
 124.532585,    8.521681
 124.534252,    8.521809
 124.535918,    8.521935
 124.537585,    8.522061
 124.539252,    8.522187
 124.540918,    8.522313
 124.542585,    8.522440
 124.544252,    8.522566
 124.545918,    8.522692
 124.547585,    8.522818
 124.549252,    8.522944
 124.550918,    8.523070
 124.552585,    8.523198
 124.554252,    8.523326
 124.555918,    8.523454
 124.557585,    8.523581
 124.559252,    8.523709
 124.560918,    8.523837
 124.562585,    8.523965
 124.564252,    8.524092
 124.565918,    8.524220
 124.567585,    8.524348
 124.569252,    8.524475
 124.570918,    8.524602
 124.572585,    8.524728
 124.574252,    8.524855
 124.575918,    8.524982
 124.577585,    8.525109
 124.579252,    8.525236
 124.580918,    8.525362
 124.582585,    8.525489
 124.584252,    8.525616
 124.585918,    8.525745
 124.587585,    8.525873
 124.589252,    8.526002
 124.590918,    8.526131
 124.592585,    8.526260
 124.594252,    8.526389
 124.595918,    8.526517
 124.597585,    8.526646
 124.599252,    8.526775
 124.600918,    8.526904
 124.602585,    8.527030
 124.604252,    8.527156
 124.605918,    8.527283
 124.607585,    8.527409
 124.609252,    8.527535
 124.610918,    8.527661
 124.612585,    8.527787
 124.614252,    8.527913
 124.615918,    8.528039
 124.617585,    8.528165
 124.619252,    8.528292
 124.620918,    8.528418
 124.622585,    8.528545
 124.624252,    8.528671
 124.625918,    8.528798
 124.627585,    8.528924
 124.629252,    8.529050
 124.630918,    8.529177
 124.632585,    8.529303
 124.634252,    8.529430
 124.635918,    8.529557
 124.637585,    8.529685
 124.639252,    8.529813
 124.640918,    8.529941
 124.642585,    8.530069
 124.644252,    8.530196
 124.645918,    8.530324
 124.647585,    8.530452
 124.649252,    8.530580
 124.650918,    8.530708
 124.652585,    8.530835
 124.654252,    8.530961
 124.655918,    8.531088
 124.657585,    8.531214
 124.659252,    8.531341
 124.660918,    8.531468
 124.662585,    8.531594
 124.664252,    8.531721
 124.665918,    8.531848
 124.667585,    8.531974
 124.669252,    8.532101
 124.670918,    8.532228
 124.672585,    8.532355
 124.674252,    8.532482
 124.675918,    8.532609
 124.677585,    8.532736
 124.679252,    8.532863
 124.680918,    8.532990
 124.682585,    8.533117
 124.684252,    8.533244
 124.685918,    8.533371
 124.687585,    8.533498
 124.689252,    8.533625
 124.690918,    8.533752
 124.692585,    8.533879
 124.694252,    8.534007
 124.695918,    8.534134
 124.697585,    8.534261
 124.699252,    8.534388
 124.700918,    8.534515
 124.702585,    8.534642
 124.704252,    8.534769
 124.705918,    8.534895
 124.707585,    8.535022
 124.709252,    8.535149
 124.710918,    8.535276
 124.712585,    8.535403
 124.714252,    8.535530
 124.715918,    8.535656
 124.717585,    8.535783
 124.719252,    8.535908
 124.720918,    8.536032
 124.722585,    8.536156
 124.724252,    8.536281
 124.725918,    8.536405
 124.727585,    8.536529
 124.729252,    8.536653
 124.730918,    8.536778
 124.732585,    8.536902
 124.734252,    8.537026
 124.735918,    8.537151
 124.737585,    8.537275
 124.739252,    8.537400
 124.740918,    8.537524
 124.742585,    8.537649
 124.744252,    8.537774
 124.745918,    8.537898
 124.747585,    8.538023
 124.749252,    8.538147
 124.750918,    8.538272
 124.752585,    8.538396
 124.754252,    8.538520
 124.755918,    8.538643
 124.757585,    8.538767
 124.759252,    8.538891
 124.760918,    8.539015
 124.762585,    8.539138
 124.764252,    8.539262
 124.765918,    8.539386
 124.767585,    8.539509
 124.769252,    8.539635
 124.770918,    8.539760
 124.772585,    8.539885
 124.774252,    8.540011
 124.775918,    8.540136
 124.777585,    8.540261
 124.779252,    8.540387
 124.780918,    8.540512
 124.782585,    8.540638
 124.784252,    8.540763
 124.785918,    8.540888
 124.787585,    8.541012
 124.789252,    8.541137
 124.790918,    8.541261
 124.792585,    8.541386
 124.794252,    8.541510
 124.795918,    8.541635
 124.797585,    8.541759
 124.799252,    8.541884
 124.800918,    8.542008
 124.802585,    8.542134
 124.804252,    8.542261
 124.805918,    8.542387
 124.807585,    8.542514
 124.809252,    8.542640
 124.810918,    8.542767
 124.812585,    8.542893
 124.814252,    8.543020
 124.815918,    8.543146
 124.817585,    8.543273
 124.819252,    8.543397
 124.820918,    8.543521
 124.822585,    8.543645
 124.824252,    8.543769
 124.825918,    8.543893
 124.827585,    8.544017
 124.829252,    8.544141
 124.830918,    8.544265
 124.832585,    8.544389
 124.834252,    8.544513
 124.835918,    8.544638
 124.837585,    8.544762
 124.839252,    8.544886
 124.840918,    8.545011
 124.842585,    8.545135
 124.844252,    8.545259
 124.845918,    8.545384
 124.847585,    8.545508
 124.849252,    8.545633
 124.850918,    8.545757
 124.852585,    8.545882
 124.854252,    8.546008
 124.855918,    8.546134
 124.857585,    8.546260
 124.859252,    8.546386
 124.860918,    8.546512
 124.862585,    8.546637
 124.864252,    8.546763
 124.865918,    8.546889
 124.867585,    8.547015
 124.869252,    8.547140
 124.870918,    8.547264
 124.872585,    8.547389
 124.874252,    8.547514
 124.875918,    8.547638
 124.877585,    8.547763
 124.879252,    8.547888
 124.880918,    8.548012
 124.882585,    8.548137
 124.884252,    8.548262
 124.885918,    8.548387
 124.887585,    8.548512
 124.889252,    8.548637
 124.890918,    8.548762
 124.892585,    8.548887
 124.894252,    8.549012
 124.895918,    8.549137
 124.897585,    8.549262
 124.899252,    8.549387
 124.900918,    8.549513
 124.902585,    8.549638
 124.904252,    8.549763
 124.905918,    8.549888
 124.907585,    8.550013
 124.909252,    8.550139
 124.910918,    8.550264
 124.912585,    8.550389
 124.914252,    8.550514
 124.915918,    8.550639
 124.917585,    8.550765
 124.919252,    8.550890
 124.920918,    8.551015
 124.922585,    8.551139
 124.924252,    8.551264
 124.925918,    8.551389
 124.927585,    8.551514
 124.929252,    8.551639
 124.930918,    8.551764
 124.932585,    8.551889
 124.934252,    8.552014
 124.935918,    8.552137
 124.937585,    8.552259
 124.939252,    8.552381
 124.940918,    8.552504
 124.942585,    8.552626
 124.944252,    8.552748
 124.945918,    8.552871
 124.947585,    8.552993
 124.949252,    8.553115
 124.950918,    8.553237
 124.952585,    8.553360
 124.954252,    8.553483
 124.955918,    8.553605
 124.957585,    8.553728
 124.959252,    8.553851
 124.960918,    8.553973
 124.962585,    8.554096
 124.964252,    8.554219
 124.965918,    8.554341
 124.967585,    8.554464
 124.969252,    8.554586
 124.970918,    8.554707
 124.972585,    8.554829
 124.974252,    8.554951
 124.975918,    8.555073
 124.977585,    8.555194
 124.979252,    8.555316
 124.980918,    8.555438
 124.982585,    8.555559
 124.984252,    8.555681
 124.985918,    8.555804
 124.987585,    8.555928
 124.989252,    8.556051
 124.990918,    8.556174
 124.992585,    8.556297
 124.994252,    8.556421
 124.995918,    8.556544
 124.997585,    8.556667
 124.999252,    8.556791
 125.000918,    8.556914
 125.002585,    8.557037
 125.004252,    8.557159
 125.005918,    8.557281
 125.007585,    8.557404
 125.009252,    8.557526
 125.010918,    8.557648
 125.012585,    8.557771
 125.014252,    8.557893
 125.015918,    8.558016
 125.017585,    8.558138
 125.019252,    8.558262
 125.020918,    8.558386
 125.022585,    8.558511
 125.024252,    8.558635
 125.025918,    8.558759
 125.027585,    8.558883
 125.029252,    8.559008
 125.030918,    8.559132
 125.032585,    8.559256
 125.034252,    8.559381
 125.035918,    8.559503
 125.037585,    8.559625
 125.039252,    8.559746
 125.040918,    8.559868
 125.042585,    8.559990
 125.044252,    8.560112
 125.045918,    8.560233
 125.047585,    8.560355
 125.049252,    8.560477
 125.050918,    8.560598
 125.052585,    8.560720
 125.054252,    8.560843
 125.055918,    8.560965
 125.057585,    8.561087
 125.059252,    8.561209
 125.060918,    8.561331
 125.062585,    8.561453
 125.064252,    8.561575
 125.065918,    8.561697
 125.067585,    8.561819
 125.069252,    8.561942
 125.070918,    8.562065
 125.072585,    8.562189
 125.074252,    8.562312
 125.075918,    8.562436
 125.077585,    8.562559
 125.079252,    8.562683
 125.080918,    8.562806
 125.082585,    8.562930
 125.084252,    8.563053
 125.085918,    8.563176
 125.087585,    8.563298
 125.089252,    8.563420
 125.090918,    8.563542
 125.092585,    8.563665
 125.094252,    8.563787
 125.095918,    8.563909
 125.097585,    8.564031
 125.099252,    8.564154
 125.100918,    8.564276
 125.102585,    8.564399
 125.104252,    8.564521
 125.105918,    8.564644
 125.107585,    8.564767
 125.109252,    8.564889
 125.110918,    8.565012
 125.112585,    8.565135
 125.114252,    8.565257
 125.115918,    8.565380
 125.117585,    8.565503
 125.119252,    8.565625
 125.120918,    8.565748
 125.122585,    8.565871
 125.124252,    8.565994
 125.125918,    8.566117
 125.127585,    8.566239
 125.129252,    8.566362
 125.130918,    8.566485
 125.132585,    8.566608
 125.134252,    8.566730
 125.135918,    8.566853
 125.137585,    8.566976
 125.139252,    8.567098
 125.140918,    8.567221
 125.142585,    8.567343
 125.144252,    8.567466
 125.145918,    8.567588
 125.147585,    8.567711
 125.149252,    8.567833
 125.150918,    8.567956
 125.152585,    8.568076
 125.154252,    8.568196
 125.155918,    8.568316
 125.157585,    8.568436
 125.159252,    8.568556
 125.160918,    8.568675
 125.162585,    8.568795
 125.164252,    8.568915
 125.165918,    8.569035
 125.167585,    8.569155
 125.169252,    8.569275
 125.170918,    8.569395
 125.172585,    8.569516
 125.174252,    8.569636
 125.175918,    8.569756
 125.177585,    8.569877
 125.179252,    8.569997
 125.180918,    8.570117
 125.182585,    8.570237
 125.184252,    8.570358
 125.185918,    8.570477
 125.187585,    8.570597
 125.189252,    8.570716
 125.190918,    8.570835
 125.192585,    8.570955
 125.194252,    8.571074
 125.195918,    8.571193
 125.197585,    8.571313
 125.199252,    8.571432
 125.200918,    8.571552
 125.202585,    8.571672
 125.204252,    8.571793
 125.205918,    8.571914
 125.207585,    8.572035
 125.209252,    8.572157
 125.210918,    8.572278
 125.212585,    8.572399
 125.214252,    8.572520
 125.215918,    8.572641
 125.217585,    8.572762
 125.219252,    8.572882
 125.220918,    8.573002
 125.222585,    8.573122
 125.224252,    8.573242
 125.225918,    8.573363
 125.227585,    8.573483
 125.229252,    8.573603
 125.230918,    8.573723
 125.232585,    8.573843
 125.234252,    8.573963
 125.235918,    8.574085
 125.237585,    8.574207
 125.239252,    8.574330
 125.240918,    8.574452
 125.242585,    8.574574
 125.244252,    8.574696
 125.245918,    8.574818
 125.247585,    8.574940
 125.249252,    8.575063
 125.250918,    8.575185
 125.252585,    8.575305
 125.254252,    8.575424
 125.255918,    8.575544
 125.257585,    8.575664
 125.259252,    8.575783
 125.260918,    8.575903
 125.262585,    8.576022
 125.264252,    8.576142
 125.265918,    8.576262
 125.267585,    8.576381
 125.269252,    8.576501
 125.270918,    8.576621
 125.272585,    8.576741
 125.274252,    8.576861
 125.275918,    8.576981
 125.277585,    8.577101
 125.279252,    8.577221
 125.280918,    8.577341
 125.282585,    8.577461
 125.284252,    8.577581
 125.285918,    8.577702
 125.287585,    8.577823
 125.289252,    8.577945
 125.290918,    8.578066
 125.292585,    8.578188
 125.294252,    8.578309
 125.295918,    8.578431
 125.297585,    8.578552
 125.299252,    8.578673
 125.300918,    8.578795
 125.302585,    8.578915
 125.304252,    8.579036
 125.305918,    8.579156
 125.307585,    8.579276
 125.309252,    8.579396
 125.310918,    8.579517
 125.312585,    8.579637
 125.314252,    8.579757
 125.315918,    8.579877
 125.317585,    8.579998
 125.319252,    8.580118
 125.320918,    8.580239
 125.322585,    8.580360
 125.324252,    8.580480
 125.325918,    8.580601
 125.327585,    8.580722
 125.329252,    8.580842
 125.330918,    8.580963
 125.332585,    8.581084
 125.334252,    8.581204
 125.335918,    8.581325
 125.337585,    8.581446
 125.339252,    8.581567
 125.340918,    8.581687
 125.342585,    8.581808
 125.344252,    8.581929
 125.345918,    8.582050
 125.347585,    8.582171
 125.349252,    8.582291
 125.350918,    8.582412
 125.352585,    8.582533
 125.354252,    8.582653
 125.355918,    8.582774
 125.357585,    8.582894
 125.359252,    8.583015
 125.360918,    8.583135
 125.362585,    8.583256
 125.364252,    8.583376
 125.365918,    8.583497
 125.367585,    8.583617
 125.369252,    8.583736
 125.370918,    8.583853
 125.372585,    8.583971
 125.374252,    8.584089
 125.375918,    8.584207
 125.377585,    8.584325
 125.379252,    8.584443
 125.380918,    8.584560
 125.382585,    8.584678
 125.384252,    8.584796
 125.385918,    8.584914
 125.387585,    8.585032
 125.389252,    8.585151
 125.390918,    8.585269
 125.392585,    8.585387
 125.394252,    8.585505
 125.395918,    8.585624
 125.397585,    8.585742
 125.399252,    8.585860
 125.400918,    8.585978
 125.402585,    8.586096
 125.404252,    8.586213
 125.405918,    8.586330
 125.407585,    8.586447
 125.409252,    8.586565
 125.410918,    8.586682
 125.412585,    8.586799
 125.414252,    8.586916
 125.415918,    8.587034
 125.417585,    8.587151
 125.419252,    8.587270
 125.420918,    8.587389
 125.422585,    8.587507
 125.424252,    8.587626
 125.425918,    8.587745
 125.427585,    8.587864
 125.429252,    8.587983
 125.430918,    8.588102
 125.432585,    8.588221
 125.434252,    8.588340
 125.435918,    8.588458
 125.437585,    8.588576
 125.439252,    8.588694
 125.440918,    8.588812
 125.442585,    8.588930
 125.444252,    8.589048
 125.445918,    8.589166
 125.447585,    8.589284
 125.449252,    8.589402
 125.450918,    8.589520
 125.452585,    8.589639
 125.454252,    8.589759
 125.455918,    8.589879
 125.457585,    8.589999
 125.459252,    8.590119
 125.460918,    8.590239
 125.462585,    8.590359
 125.464252,    8.590479
 125.465918,    8.590599
 125.467585,    8.590719
 125.469252,    8.590837
 125.470918,    8.590954
 125.472585,    8.591072
 125.474252,    8.591189
 125.475918,    8.591306
 125.477585,    8.591424
 125.479252,    8.591541
 125.480918,    8.591658
 125.482585,    8.591776
 125.484252,    8.591893
 125.485918,    8.592011
 125.487585,    8.592128
 125.489252,    8.592246
 125.490918,    8.592364
 125.492585,    8.592481
 125.494252,    8.592599
 125.495918,    8.592717
 125.497585,    8.592835
 125.499252,    8.592952
 125.500918,    8.593070
 125.502585,    8.593189
 125.504252,    8.593308
 125.505918,    8.593427
 125.507585,    8.593546
 125.509252,    8.593665
 125.510918,    8.593785
 125.512585,    8.593904
 125.514252,    8.594023
 125.515918,    8.594142
 125.517585,    8.594261
 125.519252,    8.594379
 125.520918,    8.594497
 125.522585,    8.594615
 125.524252,    8.594733
 125.525918,    8.594851
 125.527585,    8.594969
 125.529252,    8.595087
 125.530918,    8.595205
 125.532585,    8.595323
 125.534252,    8.595441
 125.535918,    8.595559
 125.537585,    8.595678
 125.539252,    8.595796
 125.540918,    8.595914
 125.542585,    8.596033
 125.544252,    8.596151
 125.545918,    8.596269
 125.547585,    8.596388
 125.549252,    8.596506
 125.550918,    8.596625
 125.552585,    8.596743
 125.554252,    8.596862
 125.555918,    8.596980
 125.557585,    8.597099
 125.559252,    8.597217
 125.560918,    8.597336
 125.562585,    8.597454
 125.564252,    8.597573
 125.565918,    8.597691
 125.567585,    8.597810
 125.569252,    8.597928
 125.570918,    8.598046
 125.572585,    8.598164
 125.574252,    8.598283
 125.575918,    8.598401
 125.577585,    8.598519
 125.579252,    8.598637
 125.580918,    8.598756
 125.582585,    8.598874
 125.584252,    8.598992
 125.585918,    8.599108
 125.587585,    8.599224
 125.589252,    8.599339
 125.590918,    8.599455
 125.592585,    8.599570
 125.594252,    8.599686
 125.595918,    8.599801
 125.597585,    8.599917
 125.599252,    8.600032
 125.600918,    8.600148
 125.602585,    8.600264
 125.604252,    8.600380
 125.605918,    8.600496
 125.607585,    8.600612
 125.609252,    8.600728
 125.610918,    8.600844
 125.612585,    8.600960
 125.614252,    8.601076
 125.615918,    8.601192
 125.617585,    8.601307
 125.619252,    8.601423
 125.620918,    8.601538
 125.622585,    8.601653
 125.624252,    8.601768
 125.625918,    8.601883
 125.627585,    8.601998
 125.629252,    8.602113
 125.630918,    8.602228
 125.632585,    8.602343
 125.634252,    8.602458
 125.635918,    8.602574
 125.637585,    8.602691
 125.639252,    8.602808
 125.640918,    8.602925
 125.642585,    8.603041
 125.644252,    8.603158
 125.645918,    8.603275
 125.647585,    8.603392
 125.649252,    8.603508
 125.650918,    8.603625
 125.652585,    8.603741
 125.654252,    8.603857
 125.655918,    8.603973
 125.657585,    8.604089
 125.659252,    8.604204
 125.660918,    8.604320
 125.662585,    8.604436
 125.664252,    8.604552
 125.665918,    8.604668
 125.667585,    8.604783
 125.669252,    8.604901
 125.670918,    8.605019
 125.672585,    8.605137
 125.674252,    8.605255
 125.675918,    8.605373
 125.677585,    8.605490
 125.679252,    8.605608
 125.680918,    8.605726
 125.682585,    8.605844
 125.684252,    8.605962
 125.685918,    8.606078
 125.687585,    8.606193
 125.689252,    8.606308
 125.690918,    8.606423
 125.692585,    8.606539
 125.694252,    8.606654
 125.695918,    8.606769
 125.697585,    8.606884
 125.699252,    8.607000
 125.700918,    8.607115
 125.702585,    8.607230
 125.704252,    8.607346
 125.705918,    8.607462
 125.707585,    8.607577
 125.709252,    8.607693
 125.710918,    8.607808
 125.712585,    8.607924
 125.714252,    8.608040
 125.715918,    8.608155
 125.717585,    8.608271
 125.719252,    8.608388
 125.720918,    8.608505
 125.722585,    8.608622
 125.724252,    8.608739
 125.725918,    8.608856
 125.727585,    8.608973
 125.729252,    8.609090
 125.730918,    8.609207
 125.732585,    8.609325
 125.734252,    8.609442
 125.735918,    8.609558
 125.737585,    8.609674
 125.739252,    8.609790
 125.740918,    8.609905
 125.742585,    8.610021
 125.744252,    8.610137
 125.745918,    8.610253
 125.747585,    8.610369
 125.749252,    8.610485
 125.750918,    8.610601
 125.752585,    8.610717
 125.754252,    8.610833
 125.755918,    8.610950
 125.757585,    8.611066
 125.759252,    8.611182
 125.760918,    8.611299
 125.762585,    8.611415
 125.764252,    8.611531
 125.765918,    8.611648
 125.767585,    8.611764
 125.769252,    8.611881
 125.770918,    8.611997
 125.772585,    8.612113
 125.774252,    8.612230
 125.775918,    8.612346
 125.777585,    8.612463
 125.779252,    8.612579
 125.780918,    8.612696
 125.782585,    8.612812
 125.784252,    8.612929
 125.785918,    8.613045
 125.787585,    8.613161
 125.789252,    8.613277
 125.790918,    8.613393
 125.792585,    8.613510
 125.794252,    8.613626
 125.795918,    8.613742
 125.797585,    8.613858
 125.799252,    8.613974
 125.800918,    8.614091
 125.802585,    8.614204
 125.804252,    8.614318
 125.805918,    8.614431
 125.807585,    8.614545
 125.809252,    8.614658
 125.810918,    8.614772
 125.812585,    8.614885
 125.814252,    8.614998
 125.815918,    8.615112
 125.817585,    8.615225
 125.819252,    8.615339
 125.820918,    8.615453
 125.822585,    8.615567
 125.824252,    8.615681
 125.825918,    8.615795
 125.827585,    8.615908
 125.829252,    8.616022
 125.830918,    8.616136
 125.832585,    8.616250
 125.834252,    8.616364
 125.835918,    8.616477
 125.837585,    8.616590
 125.839252,    8.616703
 125.840918,    8.616815
 125.842585,    8.616928
 125.844252,    8.617041
 125.845918,    8.617154
 125.847585,    8.617267
 125.849252,    8.617380
 125.850918,    8.617493
 125.852585,    8.617607
 125.854252,    8.617722
 125.855918,    8.617836
 125.857585,    8.617951
 125.859252,    8.618066
 125.860918,    8.618180
 125.862585,    8.618295
 125.864252,    8.618409
 125.865918,    8.618524
 125.867585,    8.618639
 125.869252,    8.618752
 125.870918,    8.618866
 125.872585,    8.618980
 125.874252,    8.619093
 125.875918,    8.619207
 125.877585,    8.619321
 125.879252,    8.619434
 125.880918,    8.619548
 125.882585,    8.619661
 125.884252,    8.619775
 125.885918,    8.619890
 125.887585,    8.620006
 125.889252,    8.620122
 125.890918,    8.620238
 125.892585,    8.620353
 125.894252,    8.620469
 125.895918,    8.620585
 125.897585,    8.620701
 125.899252,    8.620816
 125.900918,    8.620932
 125.902585,    8.621046
 125.904252,    8.621159
 125.905918,    8.621272
 125.907585,    8.621385
 125.909252,    8.621498
 125.910918,    8.621611
 125.912585,    8.621724
 125.914252,    8.621837
 125.915918,    8.621950
 125.917585,    8.622063
 125.919252,    8.622176
 125.920918,    8.622289
 125.922585,    8.622403
 125.924252,    8.622516
 125.925918,    8.622630
 125.927585,    8.622743
 125.929252,    8.622856
 125.930918,    8.622970
 125.932585,    8.623083
 125.934252,    8.623196
 125.935918,    8.623311
 125.937585,    8.623426
 125.939252,    8.623541
 125.940918,    8.623656
 125.942585,    8.623771
 125.944252,    8.623886
 125.945918,    8.624001
 125.947585,    8.624115
 125.949252,    8.624230
 125.950918,    8.624345
 125.952585,    8.624459
 125.954252,    8.624573
 125.955918,    8.624687
 125.957585,    8.624800
 125.959252,    8.624914
 125.960918,    8.625028
 125.962585,    8.625141
 125.964252,    8.625255
 125.965918,    8.625369
 125.967585,    8.625482
 125.969252,    8.625596
 125.970918,    8.625710
 125.972585,    8.625825
 125.974252,    8.625939
 125.975918,    8.626053
 125.977585,    8.626167
 125.979252,    8.626281
 125.980918,    8.626395
 125.982585,    8.626509
 125.984252,    8.626623
 125.985918,    8.626738
 125.987585,    8.626852
 125.989252,    8.626966
 125.990918,    8.627081
 125.992585,    8.627195
 125.994252,    8.627309
 125.995918,    8.627423
 125.997585,    8.627538
 125.999252,    8.627652
 126.000918,    8.627766
 126.002585,    8.627880
 126.004252,    8.627994
 126.005918,    8.628108
 126.007585,    8.628222
 126.009252,    8.628336
 126.010918,    8.628450
 126.012585,    8.628564
 126.014252,    8.628678
 126.015918,    8.628792
 126.017585,    8.628906
 126.019252,    8.629018
 126.020918,    8.629129
 126.022585,    8.629240
 126.024252,    8.629351
 126.025918,    8.629463
 126.027585,    8.629574
 126.029252,    8.629685
 126.030918,    8.629796
 126.032585,    8.629908
 126.034252,    8.630019
 126.035918,    8.630130
 126.037585,    8.630242
 126.039252,    8.630354
 126.040918,    8.630465
 126.042585,    8.630577
 126.044252,    8.630689
 126.045918,    8.630801
 126.047585,    8.630912
 126.049252,    8.631024
 126.050918,    8.631136
 126.052585,    8.631246
 126.054252,    8.631357
 126.055918,    8.631468
 126.057585,    8.631579
 126.059252,    8.631689
 126.060918,    8.631800
 126.062585,    8.631911
 126.064252,    8.632022
 126.065918,    8.632132
 126.067585,    8.632243
 126.069252,    8.632355
 126.070918,    8.632468
 126.072585,    8.632580
 126.074252,    8.632693
 126.075918,    8.632805
 126.077585,    8.632918
 126.079252,    8.633030
 126.080918,    8.633143
 126.082585,    8.633255
 126.084252,    8.633367
 126.085918,    8.633480
 126.087585,    8.633591
 126.088545,    8.633656
 126.090212,    8.633767
 126.091879,    8.633879
 126.093545,    8.633990
 126.095212,    8.634101
 126.096879,    8.634213
 126.098545,    8.634324
 126.100212,    8.634436
 126.101879,    8.432810
 126.103545,    7.946038
 126.105212,    7.459265
 126.106879,    6.972493
 126.108545,    6.485721
 126.110212,    5.998948
 126.111879,    5.512176
 126.113545,    5.025404
 126.115212,    4.538631
 126.116879,    4.051859
 126.118545,    3.766405
 126.120212,    3.765507
 126.121879,    3.764609
 126.123545,    3.763711
 126.125212,    3.762813
 126.126879,    3.761915
 126.128545,    3.761017
 126.130212,    3.760119
 126.131879,    3.759221
 126.133545,    3.758323
 126.135212,    3.757372
 126.136879,    3.756347
 126.138545,    3.755323
 126.140212,    3.754298
 126.141879,    3.753274
 126.143110,    3.752516
