Time, Vertical Forces
   0.000100,    0.000000
   0.000739,    0.000000
   0.003192,    0.000000
   0.010823,    0.000000
   0.024250,    0.000000
   0.044979,    0.000000
   0.074596,    0.000000
   0.104330,    0.000000
   0.134065,    0.000000
   0.163869,    0.000000
   0.193707,    0.000000
   0.223662,    0.000000
   0.253643,    0.000000
   0.283578,    0.000000
   0.313608,    0.000000
   0.343852,    0.000000
   0.374432,    0.000000
   0.404940,    0.000000
   0.435592,    0.000000
   0.466691,    0.000000
   0.497414,    0.000000
   0.529078,    0.000000
   0.560516,    0.000000
   0.592142,    0.000000
   0.624137,    0.000000
   0.655967,    0.000000
   0.688174,    0.000000
   0.720414,    0.000000
   0.753287,    0.000000
   0.786414,    0.000000
   0.819995,    0.000000
   0.853135,    0.000000
   0.886634,    0.000000
   0.920841,    0.000000
   0.954798,    0.000000
   0.989673,    0.000000
   1.024534,    0.000000
   1.059484,    0.000000
   1.094625,    0.000000
   1.130411,    0.000000
   1.165938,    0.000000
   1.201923,    0.000000
   1.238205,    0.000000
   1.275068,    0.000000
   1.311728,    0.000000
   1.348703,    0.000000
   1.386149,    0.000000
   1.424187,    0.000000
   1.461956,    0.000000
   1.500069,    0.000000
   1.538712,    0.000000
   1.577467,    0.000000
   1.616273,    0.000000
   1.655379,    0.000000
   1.694971,    0.000000
   1.734403,    0.000000
   1.774730,    0.000000
   1.815592,    0.000000
   1.856419,    0.000000
   1.897659,    0.000000
   1.939041,    0.000000
   1.980834,    0.000000
   2.022645,    0.000000
   2.064926,    0.000000
   2.106899,    0.000000
   2.149625,    0.000000
   2.193047,    0.000000
   2.236232,    0.000000
   2.279402,    0.000000
   2.322643,    0.000000
   2.366789,    0.000000
   2.411165,    0.000000
   2.456015,    0.000000
   2.501098,    0.000000
   2.546355,    0.000000
   2.591792,    0.000000
   2.637439,    0.000000
   2.684018,    0.000000
   2.730133,    0.000000
   2.776082,    0.000000
   2.823102,    0.000000
   2.870268,    0.000000
   2.917732,    0.000000
   2.965183,    0.000000
   3.013174,    0.000000
   3.061135,    0.000000
   3.109731,    0.000000
   3.158504,    0.000000
   3.207347,    0.000000
   3.256583,    0.000000
   3.305757,    0.000000
   3.355815,    0.000000
   3.405625,    0.000000
   3.455790,    0.000000
   3.506213,    0.000000
   3.557356,    0.000000
   3.608053,    0.000000
   3.659440,    0.000000
   3.711312,    0.000000
   3.762869,    0.000000
   3.814583,    0.000000
   3.867039,    0.000000
   3.919497,    0.000000
   3.972588,    0.000000
   4.025604,    0.000000
   4.078972,    0.000000
   4.132362,    0.000000
   4.185896,    0.000000
   4.239578,    0.000000
   4.293863,    0.000000
   4.348175,    0.000000
   4.402931,    0.000000
   4.457796,    0.000000
   4.468696,    0.000000
   4.496557,    0.000000
   4.508012,    0.000000
   4.509220,    0.000000
   4.510310,    0.000000
   4.510506,    0.000000
   4.510756,    0.000000
   4.510834,    0.000000
   4.510865,    0.000000
   4.510923,    0.000000
   4.510975,    0.000000
   4.511391,    0.000000
   4.514157,    0.000000
   4.524471,    0.000000
   4.555916,    0.000000
   4.605748,    0.000000
   4.656405,    0.000000
   4.707250,    0.000000
   4.758623,    0.000000
   4.809774,    0.000000
   4.861251,    0.000000
   4.913371,    0.000000
   4.965261,    0.000000
   5.017644,    0.000000
   5.069824,    0.000000
   5.122355,    0.000000
   5.175074,    0.000000
   5.228246,    0.000000
   5.281518,    0.000000
   5.335039,    0.000000
   5.388215,    0.000000
   5.441821,    0.000000
   5.495693,    0.000000
   5.549678,    0.000000
   5.603959,    0.000000
   5.658515,    0.000000
   5.713207,    0.000000
   5.768044,    0.000000
   5.823043,    0.000000
   5.878092,    0.000000
   5.933668,    0.000000
   5.989215,    0.000000
   6.045085,    0.000000
   6.101050,    0.000000
   6.156999,    0.000000
   6.213502,    0.000000
   6.269654,    0.000000
   6.325922,    0.000000
   6.383068,    0.000000
   6.439848,    0.000000
   6.496596,    0.000000
   6.553449,    0.000000
   6.611126,    0.000000
   6.668936,    0.000000
   6.726692,    0.000000
   6.784484,    0.000000
   6.842519,    0.000000
   6.900806,    0.000000
   6.959133,    0.000000
   7.017999,    0.000000
   7.076878,    0.000000
   7.135810,    0.000000
   7.195003,    0.000000
   7.254191,    0.000000
   7.313764,    0.000000
   7.373505,    0.000000
   7.433077,    0.000000
   7.493001,    0.000000
   7.553127,    0.000000
   7.613492,    0.000000
   7.673910,    0.000000
   7.734608,    0.000000
   7.795320,    0.000000
   7.856409,    0.000000
   7.917519,    0.000000
   7.978831,    0.000000
   8.040451,    0.000000
   8.101960,    0.000000
   8.163769,    0.000000
   8.225548,    0.000000
   8.287654,    0.000000
   8.349751,    0.000000
   8.411896,    0.000000
   8.474337,    0.000000
   8.537248,    0.000000
   8.600186,    0.000000
   8.663153,    0.000000
   8.726096,    0.000000
   8.789266,    0.000000
   8.852834,    0.000000
   8.916386,    0.000000
   8.980208,    0.000000
   9.044045,    0.000000
   9.108006,    0.000000
   9.172268,    0.000000
   9.236911,    0.000000
   9.249870,    0.000000
   9.265511,    0.000000
   9.277010,    0.000000
   9.278818,    0.000000
   9.280724,    0.000000
   9.282348,    0.000000
   9.282704,    0.000000
   9.283137,    0.000000
   9.283653,    0.000000
   9.283774,    0.000000
   9.283782,    0.000000
   9.283790,    0.000000
   9.283864,    0.000000
   9.284509,    0.000000
   9.288256,    0.000000
   9.307371,    0.000000
   9.363057,    0.000000
   9.422298,    0.000000
   9.481505,    0.000000
   9.540633,    0.000000
   9.600077,    0.000000
   9.659647,    0.000000
   9.719624,    0.000000
   9.779516,    0.000000
   9.839362,    0.000000
   9.899473,    0.000000
   9.959487,    0.000000
  10.019705,    0.000000
  10.080113,    0.000000
  10.140655,    0.000000
  10.201390,    0.000000
  10.262201,    0.000000
  10.323268,    0.000000
  10.384243,    0.000000
  10.445349,    0.000000
  10.506763,    0.000000
  10.568376,    0.000000
  10.629953,    0.000000
  10.691696,    0.000000
  10.753431,    0.000000
  10.815267,    0.000000
  10.877362,    0.000000
  10.939382,    0.000000
  11.001731,    0.000000
  11.064139,    0.000000
  11.126811,    0.000000
  11.189399,    0.000000
  11.252238,    0.000000
  11.315359,    0.000000
  11.378302,    0.000000
  11.441609,    0.000000
  11.504788,    0.000000
  11.568209,    0.000000
  11.631504,    0.000000
  11.695111,    0.000000
  11.758820,    0.000000
  11.822557,    0.000000
  11.886602,    0.000000
  11.950778,    0.000000
  12.014773,    0.000000
  12.079125,    0.000000
  12.143633,    0.000000
  12.208314,    0.000000
  12.272901,    0.000000
  12.337696,    0.000000
  12.402519,    0.000000
  12.467787,    0.000000
  12.533070,    0.000000
  12.598294,    0.000000
  12.663551,    0.000000
  12.728981,    0.000000
  12.794388,    0.000000
  12.860095,    0.000000
  12.925961,    0.000000
  12.991897,    0.000000
  13.058068,    0.000000
  13.124488,    0.000000
  13.190474,    0.000000
  13.256712,    0.000000
  13.323212,    0.000000
  13.389439,    0.000000
  13.456111,    0.000000
  13.522940,    0.000000
  13.589825,    0.000000
  13.656840,    0.000000
  13.723915,    0.000000
  13.791368,    0.000000
  13.858631,    0.000000
  13.926211,    0.000000
  13.993640,    0.000000
  14.061210,    0.000000
  14.129172,    0.000000
  14.196735,    0.000000
  14.264687,    0.000000
  14.332756,    0.000000
  14.401015,    0.000000
  14.469410,    0.000000
  14.472152,    0.000000
  14.474755,    0.000000
  14.477556,    0.000000
  14.478069,    0.000000
  14.478653,    0.000000
  14.478839,    0.000000
  14.479116,    0.000000
  14.479256,    0.000000
  14.479313,    0.000000
  14.479333,    0.000000
  14.479343,    0.000000
  14.479359,    0.000000
  14.479373,    0.000000
  14.479520,    0.000000
  14.480843,    0.000000
  14.487932,    0.000000
  14.516597,    0.000000
  14.578121,    0.000000
  14.639312,    0.000000
  14.700765,    0.000000
  14.762494,    0.000000
  14.824222,    0.000000
  14.885858,    0.000000
  14.947570,    0.000000
  15.009573,    0.000000
  15.071507,    0.000000
  15.133456,    0.000000
  15.195598,    0.000000
  15.257749,    0.000000
  15.320171,    0.000000
  15.382701,    0.000000
  15.445211,    0.000000
  15.507791,    0.000000
  15.570479,    0.000000
  15.633369,    0.000000
  15.696463,    0.000000
  15.759475,    0.000000
  15.822432,    0.000000
  15.885562,    0.000000
  15.948654,    0.000000
  16.012014,    0.000000
  16.075440,    0.000000
  16.138817,    0.000000
  16.202289,    0.000000
  16.265978,    0.000000
  16.329778,    0.000000
  16.393513,    0.000000
  16.457513,    0.000000
  16.521607,    0.000000
  16.585775,    0.000000
  16.650009,    0.000000
  16.714333,    0.000000
  16.778693,    0.000000
  16.843218,    0.000000
  16.907712,    0.000000
  16.972429,    0.000000
  17.037082,    0.000000
  17.101812,    0.000000
  17.166835,    0.000000
  17.231997,    0.000000
  17.297105,    0.000000
  17.362169,    0.000000
  17.427373,    0.000000
  17.492619,    0.000000
  17.557983,    0.000000
  17.623576,    0.000000
  17.689245,    0.000000
  17.754891,    0.000000
  17.820694,    0.000000
  17.886553,    0.000000
  17.952506,    0.000000
  18.018581,    0.000000
  18.084705,    0.000000
  18.151062,    0.000000
  18.217245,    0.000000
  18.283555,    0.000000
  18.349984,    0.000000
  18.416614,    0.000000
  18.483392,    0.000000
  18.550324,    0.000000
  18.617287,    0.000000
  18.684148,    0.000000
  18.751244,    0.000000
  18.818336,    0.000000
  18.885524,    0.000000
  18.952729,    0.000000
  19.020056,    0.000000
  19.087540,    0.000000
  19.155050,    0.000000
  19.222587,    0.000000
  19.290356,    0.000000
  19.358093,    0.000000
  19.425921,    0.000000
  19.493812,    0.000000
  19.561860,    0.000000
  19.629932,    0.000000
  19.698168,    0.000000
  19.766496,    0.000000
  19.834876,    0.000000
  19.903302,    0.000000
  19.971820,    0.000000
  20.040470,    0.000000
  20.109302,    0.000000
  20.178113,    0.000000
  20.246961,    0.000000
  20.315764,    0.000000
  20.329607,    0.000000
  20.378716,    0.000000
  20.379269,    0.000000
  20.380151,    0.000000
  20.380294,    0.000000
  20.380382,    0.000000
  20.380417,    0.000000
  20.380452,    0.000000
  20.380801,    0.000000
  20.384003,    0.000000
  20.399918,    0.000000
  20.460659,    0.000000
  20.529468,    0.000000
  20.598515,    0.000000
  20.667406,    0.000000
  20.736640,    0.000000
  20.805793,    0.000000
  20.875130,    0.000000
  20.944509,    0.000000
  21.014028,    0.000000
  21.083573,    0.000000
  21.153259,    0.000000
  21.222942,    0.000000
  21.292877,    0.000000
  21.362872,    0.000000
  21.432864,    0.000000
  21.502998,    0.000000
  21.573212,    0.000000
  21.643393,    0.000000
  21.713690,    0.000000
  21.784048,    0.000000
  21.854552,    0.000000
  21.925141,    0.000000
  21.995868,    0.000000
  22.066473,    0.000000
  22.137251,    0.000000
  22.208077,    0.000000
  22.279047,    0.000000
  22.349989,    0.000000
  22.421073,    0.000000
  22.492261,    0.000000
  22.563536,    0.000000
  22.634903,    0.000000
  22.706269,    0.000000
  22.777783,    0.000000
  22.849410,    0.000000
  22.921139,    0.000000
  22.992914,    0.000000
  23.064842,    0.000000
  23.136757,    0.000000
  23.208783,    0.000000
  23.280891,    0.000000
  23.352968,    0.000000
  23.425355,    0.000000
  23.497683,    0.000000
  23.570041,    0.000000
  23.642485,    0.000000
  23.715007,    0.000000
  23.787591,    0.000000
  23.860399,    0.000000
  23.933266,    0.000000
  24.006153,    0.000000
  24.079121,    0.000000
  24.152098,    0.000000
  24.225333,    0.000000
  24.298444,    0.000000
  24.371753,    0.000000
  24.445105,    0.000000
  24.518631,    0.000000
  24.592077,    0.000000
  24.665704,    0.000000
  24.739413,    0.000000
  24.813266,    0.000000
  24.887275,    0.000000
  24.961232,    0.000000
  25.035253,    0.000000
  25.109496,    0.000000
  25.183619,    0.000000
  25.257915,    0.000000
  25.332409,    0.000000
  25.406849,    0.000000
  25.481378,    0.000000
  25.556013,    0.000000
  25.630621,    0.000000
  25.705344,    0.000000
  25.780175,    0.000000
  25.855083,    0.000000
  25.930100,    0.000000
  26.005213,    0.000000
  26.080313,    0.000000
  26.155560,    0.000000
  26.230803,    0.000000
  26.306198,    0.000000
  26.381754,    0.000000
  26.441786,    0.000000
  26.457361,    0.000000
  26.533023,   39.358268
  26.608785,  229.931495
  26.684568,  418.588802
  26.760377,  605.146084
  26.836405,  789.629545
  26.912328,  972.529756
  26.988387, 1153.071883
  27.064596, 1331.850815
  27.140675, 1508.917925
  27.216868, 1683.624995
  27.293195, 1856.564672
  27.369674, 2027.787373
  27.384960, 2199.352142
  27.399588, 2232.931671
  27.411806, 2265.048328
  27.412193, 2292.154497
  27.412210, 2293.011267
  27.412227, 2293.047745
  27.412394, 2293.079498
  27.413805, 2293.405157
  27.422600, 2296.255032
  27.456725, 2314.656246
  27.534498, 2387.590365
  27.613696, 2555.932761
  27.692963, 2725.379304
  27.772229, 2892.940405
  27.851585, 3058.481256
  27.930891, 3222.214624
  28.010203, 3383.867773
  28.089467, 3543.580537
  28.168885, 3701.253794
  28.248265, 3857.327791
  28.327715, 4011.422306
  28.407204, 4163.779926
  28.486787, 4314.347880
  28.566394, 4463.256420
  28.646011, 4610.388240
  28.725560, 4755.736761
  28.805032, 4899.179691
  28.884658, 5040.707533
  28.964182, 5180.784724
  29.043774, 5318.947944
  29.123383, 5455.528478
  29.202976, 5590.454905
  29.282694, 5723.675329
  29.362325, 5855.471084
  29.368358, 5991.246667
  29.374384, 6001.003463
  29.380396, 6010.740524
  29.386433, 6020.442446
  29.392467, 6030.179335
  29.398498, 6039.902454
  29.404560, 6049.609585
  29.410618, 6059.359764
  29.416653, 6069.095046
  29.422726, 6078.781994
  29.428775, 6088.524990
  29.434848, 6098.216698
  29.440899, 6107.942819
  29.446967, 6117.620706
  29.453055, 6127.317352
  29.459151, 6137.037739
  29.465236, 6146.762751
  29.471347, 6156.459353
  29.477438, 6166.191796
  29.483551, 6175.880492
  29.489675, 6185.596238
  29.495808, 6195.322429
  29.501946, 6205.051467
  29.508042, 6214.785472
  29.514092, 6224.443367
  29.520243, 6234.008564
  29.526372, 6243.734618
  29.532514, 6253.413825
  29.538674, 6263.104344
  29.544823, 6272.817013
  29.551000, 6282.498936
  29.557175, 6292.219881
  29.563341, 6301.930346
  29.569540, 6311.613168
  29.575698, 6321.344503
  29.581902, 6330.996931
  29.588119, 6340.715138
  29.594314, 6350.446736
  29.600501, 6360.134677
  29.606672, 6369.800492
  29.612839, 6379.433662
  29.619083, 6389.044817
  29.625325, 6398.773260
  29.631577, 6408.487833
  29.637822, 6418.210859
  29.644053, 6427.915098
  29.650331, 6437.583445
  29.656611, 6447.320818
  29.662902, 6457.049666
  29.669197, 6466.789122
  29.675453, 6476.527974
  29.681735, 6486.193334
  29.688045, 6495.888031
  29.694375, 6505.620029
  29.700699, 6515.373371
  29.707027, 6525.110524
  29.713335, 6534.844522
  29.719670, 6544.536890
  29.726007, 6554.262019
  29.732384, 6563.978959
  29.738736, 6573.754543
  29.745096, 6583.479134
  29.751469, 6593.206451
  29.757842, 6602.946972
  29.764253, 6612.673516
  29.770662, 6622.453916
  29.777036, 6632.223854
  29.783427, 6641.928021
  29.789875, 6651.645650
  29.796300, 6661.447589
  29.802724, 6671.204538
  29.809207, 6680.944047
  29.815632, 6690.774840
  29.822129, 6700.498078
  29.828647, 6710.326214
  29.835080, 6720.183988
  29.841555, 6729.894443
  29.848039, 6739.662762
  29.854534, 6749.434244
  29.860974, 6759.219287
  29.867491, 6758.705999
  29.874030, 6758.191729
  29.880620, 6757.674109
  29.887192, 6757.158671
  29.893753, 6756.644836
  29.900258, 6756.136053
  29.906862, 6755.620306
  29.913428, 6755.108173
  29.920033, 6754.593761
  29.926595, 6754.083441
  29.933218, 6753.569077
  29.939842, 6753.055413
  29.946483, 6752.541132
  29.953099, 6752.029573
  29.959722, 6751.518199
  29.966373, 6751.005401
  29.973044, 6750.491738
  29.979673, 6749.982155
  29.986351, 6749.469550
  29.993073, 6748.954321
  29.999802, 6748.439276
  30.006476, 6747.929250
  30.013168, 6747.418633
  30.019879, 6746.907304
  30.026624, 6746.394183
  30.033365, 6745.882093
  30.040065, 6745.373922
  30.046817, 6744.862561
  30.053591, 6744.350359
  30.060309, 6743.843177
  30.067074, 6743.333185
  30.073874, 6742.821431
  30.080652, 6742.312028
  30.087489, 6741.799030
  30.094279, 6741.290413
  30.101128, 6740.778131
  30.107965, 6740.267549
  30.114803, 6739.757766
  30.121666, 6739.246916
  30.128522, 6738.737364
  30.135393, 6738.227572
  30.142262, 6737.718710
  30.149131, 6737.210715
  30.156032, 6736.701127
  30.162974, 6736.189437
  30.169862, 6735.682496
  30.176823, 6735.171022
  30.183773, 6734.661283
  30.190744, 6734.150802
  30.197712, 6733.641397
  30.204699, 6733.131500
  30.211678, 6732.623034
  30.218723, 6732.110592
  30.225730, 6731.601831
  30.232697, 6731.096832
  30.239727, 6730.588099
  30.246794, 6730.077620
  30.253882, 6729.566523
  30.260895, 6729.061702
  30.267996, 6728.551448
  30.275064, 6728.044389
  30.282188, 6727.534331
  30.289317, 6727.024762
  30.296447, 6726.516028
  30.303588, 6726.007449
  30.310756, 6725.497844
  30.317932, 6724.988622
  30.325099, 6724.480925
  30.332215, 6723.977836
  30.339382, 6723.471996
  30.346591, 6722.964151
  30.353825, 6722.455522
  30.360974, 6721.953761
  30.361066, 6721.947307
  30.368312, 6721.395973
  30.375571, 6717.446364
  30.382781, 6713.495198
  30.390083, 6709.562353
  30.397403, 6705.586292
  30.404688, 6701.605046
  30.411975, 6697.641872
  30.419312, 6693.675545
  30.426686, 6689.684624
  30.434079, 6685.676009
  30.441441, 6681.661785
  30.448839, 6677.661459
  30.456264, 6673.643566
  30.463680, 6669.614904
  30.471081, 6665.592749
  30.478507, 6661.577797
  30.485943, 6657.551304
  30.493416, 6653.519355
  30.500934, 6649.467767
  30.508424, 6645.398700
  30.515917, 6641.343651
  30.523409, 6637.288817
  30.530957, 6633.232106
  30.538460, 6629.153577
  30.545990, 6625.095874
  30.553474, 6621.029642
  30.561019, 6616.982793
  30.568570, 6612.907972
  30.576142, 6608.830572
  30.583680, 6604.746599
  30.591291, 6600.675338
  30.598908, 6596.570648
  30.606556, 6592.462723
  30.614239, 6588.339205
  30.621920, 6584.200806
  30.629618, 6580.063369
  30.637313, 6575.919914
  30.645050, 6571.776614
  30.652786, 6567.614908
  30.660539, 6563.453975
  30.668275, 6559.287566
  30.676049, 6555.128242
  30.683813, 6550.953206
  30.691626, 6546.781073
  30.699427, 6542.588297
  30.707265, 6538.399915
  30.715022, 6534.200862
  30.722910, 6530.033776
  30.730807, 6525.805366
  30.738705, 6521.573874
  30.746623, 6517.342455
  30.754479, 6513.107047
  30.762367, 6508.900471
  30.770298, 6504.677593
  30.778207, 6500.436851
  30.786191, 6496.203793
  30.794122, 6491.940205
  30.802068, 6487.701873
  30.810082, 6483.454097
  30.818119, 6479.174325
  30.826187, 6474.883223
  30.834239, 6470.580237
  30.842311, 6466.284692
  30.850421, 6461.979429
  30.858420, 6457.664306
  30.866533, 6453.396203
  30.874669, 6449.074521
  30.882749, 6444.746805
  30.890913, 6440.442208
  30.899063, 6436.100471
  30.907179, 6431.768693
  30.915404, 6427.448002
  30.923684, 6423.074412
  30.931922, 6418.679049
  30.940150, 6414.305245
  30.948413, 6409.936020
  30.956690, 6405.550970
  30.964962, 6401.161230
  30.973220, 6396.776157
  30.981532, 6392.396458
  30.989902, 6387.989544
  30.998267, 6383.556942
  31.006657, 6379.126903
  31.015014, 6374.688477
  31.023424, 6370.264369
  31.031878, 6365.814397
  31.040306, 6361.346837
  31.048788, 6356.890094
  31.057274, 6352.409204
  31.065700, 6347.931569
  31.074183, 6343.480671
  31.082725, 6339.001237
  31.091261, 6334.496207
  31.099718, 6329.999571
  31.108174, 6325.541972
  31.116715, 6321.082171
  31.125369, 6316.577316
  31.133922, 6312.026667
  31.142606, 6307.517842
  31.151232, 6302.952380
  31.159840, 6298.416443
  31.168544, 6293.886036
  31.177216, 6289.313856
  31.185898, 6284.757496
  31.194640, 6280.194831
  31.203309, 6275.609931
  31.212040, 6271.057658
  31.220743, 6266.478903
  31.229413, 6261.917344
  31.238170, 6257.368299
  31.246933, 6252.779509
  31.255702, 6248.189226
  31.264558, 6243.593453
  31.273418, 6238.958017
  31.282213, 6234.325777
  31.291050, 6229.723721
  31.299934, 6225.101320
  31.308796, 6220.459483
  31.317707, 6215.827517
  31.326610, 6211.174044
  31.335590, 6206.522367
  31.344561, 6201.836977
  31.353557, 6197.155827
  31.362500, 6192.467785
  31.371496, 6187.803345
  31.380519, 6183.114383
  31.389498, 6178.416730
  31.398542, 6173.738337
  31.407577, 6169.031436
  31.416721, 6164.325225
  31.425884, 6159.568733
  31.435027, 6154.805899
  31.444134, 6150.055565
  31.453267, 6145.323100
  31.462348, 6140.582720
  31.471486, 6135.865506
  31.480615, 6131.124267
  31.489798, 6126.385881
  31.499062, 6121.619786
  31.508369, 6116.815914
  31.517668, 6111.993798
  31.526998, 6107.175486
  31.536359, 6102.343007
  31.545701, 6097.499114
  31.555050, 6092.664955
  31.564416, 6087.829202
  31.573783, 6082.986439
  31.583144, 6078.145884
  31.592564, 6073.307046
  31.601992, 6068.442014
  31.611391, 6063.576116
  31.620829, 6058.723910
  31.630330, 6053.852418
  31.639799, 6048.954897
  31.649334, 6044.070656
  31.658849, 6039.158595
  31.668359, 6034.257989
  31.677902, 6029.359512
  31.687461, 6024.447198
  31.697096, 6019.525616
  31.706731, 6014.570069
  31.716389, 6009.615453
  31.726100, 6004.649903
  31.735760, 5999.663060
  31.745374, 5994.703970
  31.755067, 5989.765096
  31.764710, 5984.793168
  31.774473, 5979.841629
  31.784162, 5974.838477
  31.793952, 5969.867608
  31.803672, 5964.853970
  31.813466, 5959.872104
  31.823285, 5954.856111
  31.833071, 5949.831644
  31.842923, 5944.822169
  31.852806, 5939.781755
  31.862595, 5934.732728
  31.872485, 5929.725870
  31.882357, 5924.674071
  31.892202, 5919.633425
  31.902184, 5914.601763
  31.912051, 5909.512126
  31.921924, 5904.478653
  31.931970, 5899.436963
  31.941918, 5894.319619
  31.951938, 5889.247469
  31.962034, 5884.140247
  31.972060, 5879.002493
  31.982038, 5873.900937
  31.992170, 5868.817871
  32.002316, 5863.663405
  32.012541, 5858.501769
  32.022611, 5853.310860
  32.032719, 5848.193104
  32.042838, 5843.058718
  32.053052, 5837.917872
  32.063199, 5832.736300
  32.073439, 5827.584970
  32.083668, 5822.392242
  32.093967, 5817.203941
  32.104151, 5811.988939
  32.114414, 5806.826815
  32.124783, 5801.625541
  32.135085, 5796.378676
  32.145433, 5791.163786
  32.155689, 5785.932565
  32.166132, 5780.739696
  32.176424, 5775.466155
  32.186927, 5770.257979
  32.197272, 5764.958573
  32.207763, 5759.729702
  32.218327, 5754.431540
  32.228752, 5749.106220
  32.239194, 5743.847384
  32.249721, 5738.579500
  32.260205, 5733.275130
  32.270729, 5727.991230
  32.281188, 5722.693065
  32.291726, 5717.424390
  32.302296, 5712.119162
  32.312892, 5706.800436
  32.323675, 5701.464789
  32.334354, 5696.047025
  32.345069, 5690.678460
  32.355780, 5685.295652
  32.366429, 5679.918107
  32.377022, 5674.573796
  32.387797, 5669.251465
  32.398477, 5663.848976
  32.409190, 5658.491772
  32.419818, 5653.123654
  32.430596, 5647.792739
  32.441407, 5642.391862
  32.452251, 5636.976579
  32.463012, 5631.550333
  32.473831, 5626.163301
  32.484676, 5620.750196
  32.495634, 5615.322810
  32.506522, 5609.847134
  32.517614, 5604.399235
  32.528492, 5598.864504
  32.539470, 5593.429029
  32.550354, 5587.951696
  32.561282, 5582.518740
  32.572246, 5577.065777
  32.583234, 5571.597465
  32.594316, 5566.116513
  32.605237, 5560.598474
  32.616342, 5555.152653
  32.627388, 5549.623984
  32.638576, 5544.120378
  32.649688, 5538.554677
  32.660770, 5533.027577
  32.671936, 5527.513820
  32.683117, 5521.961962
  32.694334, 5516.404025
  32.705621, 5510.829117
  32.716847, 5505.225594
  32.727993, 5499.654333
  32.739338, 5494.116824
  32.750511, 5488.492752
  32.761652, 5482.952482
  32.772812, 5477.428122
  32.784125, 5471.892197
  32.795310, 5466.290585
  32.806623, 5460.746949
  32.818049, 5455.142524
  32.829537, 5449.485116
  32.841005, 5443.800996
  32.852540, 5438.127019
  32.864044, 5432.424007
  32.875414, 5426.740994
  32.886855, 5421.120354
  32.898356, 5415.467111
  32.909888, 5409.787061
  32.921505, 5404.091954
  32.933004, 5398.361805
  32.944545, 5392.687798
  32.955989, 5386.998575
  32.967598, 5381.352382
  32.979147, 5375.632598
  32.990802, 5369.939828
  33.002506, 5364.197888
  33.014197, 5358.435666
  33.025928, 5352.679965
  33.037639, 5346.908571
  33.049324, 5341.148414
  33.061152, 5335.398915
  33.073047, 5329.582898
  33.084737, 5323.742511
  33.096359, 5318.001494
  33.108231, 5312.287593
  33.120024, 5306.461288
  33.131769, 5300.674347
  33.143610, 5294.909335
  33.155564, 5289.098877
  33.167419, 5283.239647
  33.179275, 5277.428630
  33.191337, 5271.614150
  33.203256, 5265.708842
  33.215210, 5259.870982
  33.227077, 5254.020610
  33.239037, 5248.210907
  33.251005, 5242.358929
  33.263009, 5236.504391
  33.275081, 5230.633696
  33.279532, 5224.896867
