Speed, Forces
  78.622866, 26373.769127
  79.314662, 25410.813980
  80.006458, 24027.115483
  80.698254, 23198.710050
  81.390050, 22431.377608
  82.081846, 21945.471803
  82.773641, 21455.323155
  83.465437, 21002.571686
  84.157233, 20677.130747
  84.849029, 20348.920656
  85.540825, 20017.941411
  86.232620, 19726.083129
  86.924416, 19471.577854
  87.616212, 19214.978293
  88.308008, 18956.284447
  88.999804, 18706.851705
  89.691600, 18499.560814
  90.383395, 18290.618514
  91.075191, 18080.024805
  91.766987, 17867.779687
  92.458783, 17673.042842
  93.150579, 17507.058764
  93.842374, 17339.803008
  94.534170, 17171.275573
  95.225966, 17001.476461
  95.917762, 16830.405670
  96.609558, 16699.421484
  97.301354, 16569.195470
  97.993149, 16438.015583
  98.684945, 16305.881825
  99.376741, 16172.794196
 100.068537, 16038.752695
 100.760333, 15937.141178
 101.452128, 15844.381266
 102.143924, 15750.970515
 102.835720, 15656.908926
 103.527516, 15562.196498
 104.219312, 15466.833231
 104.911108, 15370.819125
 105.602903, 15303.496731
 106.294699, 15251.555444
 106.986495, 15199.266779
 107.678291, 15146.630736
 108.370087, 15093.647314
 109.061883, 15040.316513
 109.753678, 14986.638335
 110.445474, 14932.612778
 111.137270, 14890.100159
 111.829066, 14873.692359
 112.520862, 14857.180399
 113.212657, 14840.564277
 113.904453, 14823.843994
 114.596249, 14807.019551
 115.288045, 14790.090946
 115.979841, 14773.058181
 116.671637, 14755.921255
 117.363432, 14738.680168
 118.055228, 14733.700845
 118.747024, 14749.664721
 119.438820, 14765.723890
 120.130616, 14781.878353
 120.822411, 14798.128108
 121.514207, 14814.473157
 122.206003, 14830.913500
 122.897799, 14847.449135
 123.589595, 14864.080064
 124.281391, 14880.806286
 124.973186, 14897.627801
 125.664982, 14914.544610
 126.356778, 14939.407410
 127.048574, 14988.580335
 127.740370, 15038.027168
 128.432165, 15087.747909
 129.123961, 15137.742557
 129.815757, 15188.011113
 130.507553, 15238.553577
 131.199349, 15289.369949
 131.891145, 15340.460228
 132.582940, 15391.824415
 133.274736, 15443.462510
 133.966532, 15495.374513
 134.658328, 15547.560424
 135.350124, 15600.020242
 136.041920, 15652.753968
 136.733715, 15705.761602
 137.425511, 15792.842249
 138.117307, 15880.549283
 138.809103, 15968.704891
 139.500899, 16057.309075
 140.192694, 16146.361834
 140.884490, 16235.863168
 141.576286, 16325.813077
 142.268082, 16416.211561
 142.959878, 16507.058620
 143.651674, 16598.354254
 144.343469, 16690.098463
 145.035265, 16782.291247
 145.727061, 16874.932607
 146.418857, 16968.022541
 147.110653, 17061.561051
