Speed, Forces
  64.295134, 26373.769127
  65.203584, 24429.942414
  66.112034, 23039.686495
  67.020484, 22049.603321
  67.928933, 21267.012933
  68.837383, 20684.522086
  69.745833, 20159.655096
  70.654283, 19683.387531
  71.562733, 19275.773027
  72.471182, 18862.827423
  73.379632, 18508.973368
  74.288082, 18174.945557
  75.196532, 17836.714010
  76.104981, 17550.138419
  77.013431, 17283.206807
  77.921881, 17013.038081
  78.830331, 16760.605501
  79.738781, 16553.098739
  80.647230, 16343.163854
  81.555680, 16130.800846
  82.464130, 15945.501142
  83.372580, 15797.289661
  84.281029, 15647.421440
  85.189479, 15495.896479
  86.097929, 15342.714779
  87.006379, 15257.446831
  87.914828, 15173.919158
  88.823278, 15089.507217
  89.731728, 15004.211009
  90.640178, 14918.030534
  91.548628, 14875.925110
  92.457077, 14849.553737
  93.365527, 14822.917219
  94.273977, 14796.015554
  95.182427, 14768.848743
  96.090876, 14741.416786
  96.999326, 14740.667769
  97.907776, 14766.249489
  98.816226, 14792.073782
  99.724676, 14818.140648
 100.633125, 14844.450087
 101.541575, 14871.002100
 102.450025, 14897.796687
 103.358475, 14924.833846
 104.266924, 14998.495382
 105.175374, 15077.604579
 106.083824, 15157.411021
 106.992274, 15237.914708
 107.900723, 15319.115639
 108.809173, 15401.013814
 109.717623, 15483.609234
 110.626073, 15566.901899
 111.534523, 15650.891809
 112.442972, 15754.415278
 113.351422, 15894.248150
 114.259872, 16035.222891
 115.168322, 16177.339499
 116.076771, 16320.597976
 116.985221, 16464.998320
 117.893671, 16610.540533
 118.802121, 16757.224614
 119.710571, 16905.050562
 120.619020, 17054.018379
 121.527470, 17204.128064
 122.435920, 17355.379617
 123.344370, 17507.773038
 124.252819, 17695.657847
 125.161269, 17892.677781
 126.069719, 18091.152168
 126.978169, 18291.081009
 127.886619, 18492.464304
 128.795068, 18695.302053
 129.703518, 18899.594255
 130.611968, 19105.340912
 131.520418, 19312.542022
 132.428867, 19521.197585
 133.337317, 19731.307603
 134.245767, 19942.872074
 135.154217, 20155.890999
 136.062666, 20370.364378
 136.971116, 20586.292210
 137.879566, 20803.674497
 138.788016, 21022.511237
 139.696466, 21255.358813
 140.604915, 21511.733687
 141.513365, 21769.790152
 142.421815, 22029.528207
 143.330265, 22290.947853
 144.238714, 22554.049090
 145.147164, 22818.831917
 146.055614, 23085.296335
 146.964064, 23353.442343
 147.872514, 23623.269942
 148.780963, 23894.779132
 149.689413, 24167.969912
 150.597863, 24442.842283
 151.506313, 24719.396244
 152.414762, 24997.631796
 153.323212, 25277.548939
 154.231662, 25559.147672
