Speed, Forces
  68.612846, 26373.769127
  69.454071, 24774.442815
  70.295296, 23387.077428
  71.136522, 22353.874250
  71.977747, 21677.990841
  72.818972, 21024.120769
  73.660197, 20572.345886
  74.501422, 20115.246123
  75.342647, 19702.357112
  76.183872, 19348.602246
  77.025097, 18990.820220
  77.866322, 18654.426011
  78.707547, 18365.952774
  79.548772, 18074.303997
  80.389998, 17779.479680
  81.231223, 17540.282541
  82.072448, 17308.360484
  82.913673, 17073.993083
  83.754898, 16837.180337
  84.596123, 16654.310432
  85.437348, 16473.011409
  86.278573, 16289.878160
  87.119798, 16104.910685
  87.961023, 15946.933500
  88.802249, 15818.224790
  89.643474, 15688.264563
  90.484699, 15557.052821
  91.325924, 15424.589563
  92.167149, 15312.421181
  93.008374, 15240.384329
  93.849599, 15167.679493
  94.690824, 15094.306673
  95.532049, 15020.265870
  96.373274, 14945.557083
  97.214500, 14887.683522
  98.055725, 14864.881623
  98.896950, 14841.879429
  99.738175, 14818.676942
 100.579400, 14795.274161
 101.420625, 14771.671086
 102.261850, 14747.867717
 103.103075, 14731.387025
 103.944300, 14753.530409
 104.785525, 14775.857035
 105.626751, 14798.366903
 106.467976, 14821.060014
 107.309201, 14843.936366
 108.150426, 14866.995960
 108.991651, 14890.238796
 109.832876, 14913.664874
 110.674101, 14955.841552
 111.515326, 15024.230099
 112.356551, 15093.145350
 113.197776, 15162.587306
 114.039001, 15232.555966
 114.880227, 15303.051332
 115.721452, 15374.073402
 116.562677, 15445.622177
 117.403902, 15517.697657
 118.245127, 15590.299842
 119.086352, 15663.428732
 119.927577, 15756.880591
 120.768802, 15878.367937
 121.610027, 16000.717861
 122.451252, 16123.930361
 123.292478, 16248.005439
 124.133703, 16372.943095
 124.974928, 16498.743327
 125.816153, 16625.406137
 126.657378, 16752.931525
 127.498603, 16881.319489
 128.339828, 17010.570032
 129.181053, 17140.683151
 130.022278, 17271.658848
 130.863503, 17403.497122
 131.704729, 17536.298610
 132.545954, 17706.424946
 133.387179, 17877.649988
 134.228404, 18049.973738
 135.069629, 18223.396195
 135.910854, 18397.917360
 136.752079, 18573.537232
 137.593304, 18750.255811
 138.434529, 18928.073098
 139.275754, 19106.989092
 140.116980, 19287.003794
 140.958205, 19468.117202
 141.799430, 19650.329319
 142.640655, 19833.640142
 143.481880, 20018.049673
 144.323105, 20203.557911
 145.164330, 20390.164857
 146.005555, 20577.870510
 146.846780, 20766.674871
 147.688005, 20956.577938
 148.529230, 21147.579714
 149.370456, 21367.365633
 150.211681, 21590.736051
 151.052906, 21815.376758
 151.894131, 22041.287753
