Speed, Forces
 118.168676, 5331.539357
 120.048590, 5283.863658
 121.928504, 5236.187959
 123.808417, 5188.512261
 125.688331, 5140.836562
 127.568245, 5093.160864
 129.448158, 5045.485165
 131.328072, 4997.809466
 133.207986, 4950.133768
 135.087899, 4902.458069
 136.967813, 4854.782371
 138.847727, 4808.724952
 140.727640, 4768.679865
 142.607554, 4728.634778
 144.487468, 4688.589692
 146.367381, 4648.544605
 148.247295, 4608.499518
 150.127209, 4568.454432
 152.007122, 4528.409345
 153.887036, 4488.364258
 155.766950, 4448.319172
 157.646863, 4408.274085
 159.526777, 4368.228998
 161.406691, 4329.237025
 163.286604, 4294.617931
 165.166518, 4259.998838
 167.046432, 4225.379744
 168.926345, 4190.760650
 170.806259, 4156.141557
 172.686173, 4121.522463
 174.566086, 4086.903369
 176.446000, 4052.284275
 178.325914, 4017.665182
 180.205827, 3983.046088
 182.085741, 3948.426994
 183.965655, 3914.492199
 185.845568, 3883.759151
 187.725482, 3853.026104
 189.605396, 3822.293057
 191.485309, 3791.560010
 193.365223, 3760.826963
 195.245137, 3730.093916
 197.125050, 3699.360868
 199.004964, 3668.627821
 200.884878, 3637.894774
 202.764791, 3607.161727
 204.644705, 3576.428680
 206.524619, 3546.143227
 208.404532, 3518.241254
 210.284446, 3490.339282
 212.164360, 3462.437309
 214.044273, 3434.535337
 215.924187, 3406.633364
 217.804101, 3378.731391
 219.684014, 3350.829419
 221.563928, 3322.927446
 223.443842, 3295.025474
 225.323755, 3267.123501
 227.203669, 3239.221529
 229.083583, 3211.824115
 230.963496, 3187.523576
 232.843410, 3163.223037
 234.723324, 3138.922498
 236.603237, 3114.621959
 238.483151, 3090.321419
 240.363065, 3066.020880
 242.242978, 3041.720341
 244.122892, 3017.419802
 246.002806, 2993.119263
 247.882719, 2968.818724
 249.762633, 2944.518185
 251.642547, 2920.372922
 253.522460, 2897.344003
 255.402374, 2874.315084
 257.282288, 2851.286165
 259.162201, 2828.257245
 261.042115, 2805.228326
 262.922029, 2782.199407
 264.801942, 2759.170488
 266.681856, 2736.141569
 268.561770, 2713.112650
 270.441683, 2690.083731
 272.321597, 2667.054812
 274.201511, 2644.042520
 276.081424, 2621.173307
 277.961338, 2598.304094
 279.841252, 2575.434881
 281.721165, 2552.565667
 283.601079, 2529.696454
 285.480993, 2506.827241
 287.360906, 2483.958028
 289.240820, 2461.088815
 291.120734, 2438.219601
 293.000647, 2415.350388
 294.880561, 2392.481175
 296.760475, 2369.615114
 298.640388, 2346.782505
 300.520302, 2323.949896
 302.400216, 2301.117287
 304.280129, 2278.284678
