Speed, Forces
  73.368582, 18508.218451
  74.137799, 18395.384211
  74.907016, 18282.549972
  75.676232, 18169.715732
  76.445449, 18056.881493
  77.214666, 17944.047254
  77.983882, 17831.213014
  78.753099, 17718.378775
  79.522316, 17606.464637
  80.291532, 17510.060764
  81.060749, 17413.656890
  81.829966, 17317.253017
  82.599183, 17220.849144
  83.368399, 17124.445271
  84.137616, 17028.041397
  84.906833, 16931.637524
  85.676049, 16835.233651
  86.445266, 16738.829777
  87.214483, 16642.425904
  87.983699, 16546.022031
  88.752916, 16449.618157
  89.522133, 16353.214284
  90.291349, 16256.810411
  91.060566, 16168.797013
  91.829783, 16084.485711
  92.599000, 16000.174408
  93.368216, 15915.863106
  94.137433, 15831.551803
  94.906650, 15747.240501
  95.675866, 15662.929198
  96.445083, 15578.617896
  97.214300, 15494.306593
  97.983516, 15409.995290
  98.752733, 15325.683988
  99.521950, 15241.372685
 100.291167, 15157.061383
 101.060383, 15072.750080
 101.829600, 14991.595717
 102.598817, 14916.801474
 103.368033, 14842.007232
 104.137250, 14767.212989
 104.906467, 14692.418746
 105.675683, 14617.624504
 106.444900, 14542.830261
 107.214117, 14468.036019
 107.983333, 14393.241776
 108.752550, 14318.447534
 109.521767, 14243.653291
 110.290984, 14168.859049
 111.060200, 14094.064806
 111.829417, 14019.270564
 112.598634, 13944.476321
 113.367850, 13878.735275
 114.137067, 13813.278449
 114.906284, 13747.821623
 115.675500, 13682.364797
 116.444717, 13616.907971
 117.213934, 13551.451146
 117.983151, 13485.994320
 118.752367, 13420.537494
 119.521584, 13355.080668
 120.290801, 13289.623842
 121.060017, 13224.167016
 121.829234, 13158.710190
 122.598451, 13093.253365
 123.367667, 13027.796539
 124.136884, 12966.422065
 124.906101, 12907.686035
 125.675317, 12848.950004
 126.444534, 12790.213974
 127.213751, 12731.477943
 127.982968, 12672.741913
 128.752184, 12614.005882
 129.521401, 12555.269852
 130.290618, 12496.533821
 131.059834, 12437.797791
 131.829051, 12379.061760
 132.598268, 12320.325730
 133.367484, 12261.589699
 134.136701, 12202.853669
 134.905918, 12145.236171
 135.675135, 12091.060581
 136.444351, 12036.884992
 137.213568, 11982.709403
 137.982785, 11928.533814
 138.752001, 11874.358225
 139.521218, 11820.182635
 140.290435, 11766.007046
 141.059651, 11711.831457
 141.828868, 11657.655868
 142.598085, 11603.480278
 143.367301, 11549.304689
 144.136518, 11495.129100
 144.905735, 11440.953511
 145.674952, 11386.777922
 146.444168, 11332.938121
 147.213385, 11279.142757
 147.982602, 11225.347394
 148.751818, 11171.552030
 149.521035, 11117.756667
