Speed, Forces
 133.372703, 4733.956432
 135.007914, 4699.950837
 136.643125, 4670.119758
 138.278336, 4640.288678
 139.913546, 4610.457599
 141.548757, 4580.626520
 143.183968, 4550.795441
 144.819179, 4520.964361
 146.454389, 4491.133282
 148.089600, 4461.302203
 149.724811, 4431.471124
 151.360022, 4401.640044
 152.995233, 4371.808965
 154.630443, 4341.977886
 156.265654, 4312.146807
 157.900865, 4283.908737
 159.536076, 4256.175466
 161.171286, 4228.442196
 162.806497, 4200.708926
 164.441708, 4172.975656
 166.076919, 4145.242386
 167.712129, 4117.509116
 169.347340, 4089.775846
 170.982551, 4062.042576
 172.617762, 4034.309306
 174.252973, 4006.576036
 175.888183, 3978.842765
 177.523394, 3951.109495
 179.158605, 3924.340884
 180.793816, 3899.078682
 182.429026, 3873.816480
 184.064237, 3848.554278
 185.699448, 3823.292075
 187.334659, 3798.029873
 188.969870, 3772.767671
 190.605080, 3747.505469
 192.240291, 3722.243267
 193.875502, 3696.981064
 195.510713, 3671.718862
 197.145923, 3646.456660
 198.781134, 3621.194458
 200.416345, 3595.989644
 202.051556, 3573.409059
 203.686766, 3550.828474
 205.321977, 3528.247889
 206.957188, 3505.667304
 208.592399, 3483.086719
 210.227610, 3460.506134
 211.862820, 3437.925549
 213.498031, 3415.344964
 215.133242, 3392.764379
 216.768453, 3370.183794
 218.403663, 3347.603209
 220.038874, 3325.022624
 221.674085, 3302.442039
 223.309296, 3281.513606
 224.944507, 3261.465412
 226.579717, 3241.417218
 228.214928, 3221.369023
 229.850139, 3201.320829
 231.485350, 3181.272635
 233.120560, 3161.224441
 234.755771, 3141.176246
 236.390982, 3121.128052
 238.026193, 3101.079858
 239.661403, 3081.031663
 241.296614, 3060.983469
 242.931825, 3040.935275
 244.567036, 3021.360200
 246.202247, 3002.981284
 247.837457, 2984.602367
 249.472668, 2966.223451
 251.107879, 2947.844535
 252.743090, 2929.465619
 254.378300, 2911.086702
 256.013511, 2892.707786
 257.648722, 2874.328870
 259.283933, 2855.949954
 260.919144, 2837.571038
 262.554354, 2819.192121
 264.189565, 2800.813205
 265.824776, 2782.434289
 267.459987, 2765.012608
 269.095197, 2747.680498
 270.730408, 2730.348387
 272.365619, 2713.016277
 274.000830, 2695.684167
 275.636040, 2678.352056
 277.271251, 2661.019946
 278.906462, 2643.687835
 280.541673, 2626.355725
 282.176884, 2609.023614
 283.812094, 2591.691504
 285.447305, 2574.359393
 287.082516, 2557.027283
 288.717727, 2539.603590
 290.352937, 2522.103579
 291.988148, 2504.603568
 293.623359, 2487.103557
 295.258570, 2469.603545
