Speed, Forces
  68.612846, 21057.687327
  69.454071, 20906.422903
  70.295296, 20773.727651
  71.136522, 20641.032400
  71.977747, 20508.337148
  72.818972, 20375.641897
  73.660197, 20242.946645
  74.501422, 20110.251394
  75.342647, 19977.556142
  76.183872, 19844.860891
  77.025097, 19712.165639
  77.866322, 19579.470388
  78.707547, 19446.775137
  79.548772, 19314.079885
  80.389998, 19181.384634
  81.231223, 19055.775440
  82.072448, 18932.411708
  82.913673, 18809.047977
  83.754898, 18685.684245
  84.596123, 18562.320514
  85.437348, 18438.956782
  86.278573, 18315.593051
  87.119798, 18192.229319
  87.961023, 18068.865588
  88.802249, 17945.501856
  89.643474, 17822.138125
  90.484699, 17698.774393
  91.325924, 17575.410662
  92.167149, 17456.337947
  93.008374, 17343.966073
  93.849599, 17231.594199
  94.690824, 17119.222325
  95.532049, 17006.850451
  96.373274, 16894.478577
  97.214500, 16782.106703
  98.055725, 16669.734830
  98.896950, 16557.362956
  99.738175, 16444.991082
 100.579400, 16332.619208
 101.420625, 16220.247334
 102.261850, 16107.875460
 103.103075, 15995.758861
 103.944300, 15895.315415
 104.785525, 15794.871969
 105.626751, 15694.428523
 106.467976, 15593.985076
 107.309201, 15493.541630
 108.150426, 15393.098184
 108.991651, 15292.654737
 109.832876, 15192.211291
 110.674101, 15091.767845
 111.515326, 14991.324399
 112.356551, 14890.880952
 113.197776, 14790.437506
 114.039001, 14689.994060
 114.880227, 14596.899754
 115.721452, 14507.720943
 116.562677, 14418.542132
 117.403902, 14329.363320
 118.245127, 14240.184509
 119.086352, 14151.005698
 119.927577, 14061.826887
 120.768802, 13972.648076
 121.610027, 13883.469265
 122.451252, 13794.290454
 123.292478, 13705.111643
 124.133703, 13615.932831
 124.974928, 13526.754020
 125.816153, 13439.679748
 126.657378, 13357.926255
 127.498603, 13276.172763
 128.339828, 13194.419271
 129.181053, 13112.665778
 130.022278, 13030.912286
 130.863503, 12949.158794
 131.704729, 12867.405301
 132.545954, 12785.651809
 133.387179, 12703.898316
 134.228404, 12622.144824
 135.069629, 12540.391332
 135.910854, 12458.637839
 136.752079, 12376.884347
 137.593304, 12299.388851
 138.434529, 12222.291783
 139.275754, 12145.194714
 140.116980, 12068.097646
 140.958205, 11991.000577
 141.799430, 11913.903509
 142.640655, 11836.806440
 143.481880, 11759.709372
 144.323105, 11682.612303
 145.164330, 11605.515235
 146.005555, 11528.418166
 146.846780, 11451.321098
 147.688005, 11374.224029
 148.529230, 11296.719583
 149.370456, 11218.875655
 150.211681, 11141.031728
 151.052906, 11063.187800
 151.894131, 10985.343872
