Speed, Forces
 152.830626, 3481.861867
 154.175369, 3464.906822
 155.520113, 3447.951777
 156.864856, 3430.996731
 158.209600, 3414.041686
 159.554343, 3397.086641
 160.899087, 3380.131596
 162.243830, 3363.176550
 163.588574, 3346.221505
 164.933317, 3329.266460
 166.278061, 3312.311415
 167.622804, 3295.356369
 168.967548, 3278.401324
 170.312291, 3261.446279
 171.657035, 3244.491234
 173.001778, 3227.536188
 174.346522, 3212.586069
 175.691265, 3198.613943
 177.036009, 3184.641816
 178.380752, 3170.669690
 179.725496, 3156.697564
 181.070239, 3142.725437
 182.414983, 3128.753311
 183.759726, 3114.781185
 185.104470, 3100.809059
 186.449213, 3086.836932
 187.793957, 3072.864806
 189.138700, 3058.892680
 190.483444, 3044.920553
 191.828187, 3030.948427
 193.172931, 3016.976301
 194.517674, 3003.011144
 195.862418, 2991.216112
 197.207161, 2979.421079
 198.551905, 2967.626046
 199.896648, 2955.831013
 201.241392, 2944.035981
 202.586135, 2932.240948
 203.930879, 2920.445915
 205.275622, 2908.650882
 206.620366, 2896.855850
 207.965109, 2885.060817
 209.309853, 2873.265784
 210.654596, 2861.470751
 211.999340, 2849.675719
 213.344083, 2837.880686
 214.688827, 2826.085653
 216.033570, 2814.890700
 217.378314, 2804.890946
 218.723057, 2794.891192
 220.067801, 2784.891439
 221.412544, 2774.891685
 222.757288, 2764.891932
 224.102031, 2754.892178
 225.446775, 2744.892425
 226.791518, 2734.892671
 228.136262, 2724.892918
 229.481005, 2714.893164
 230.825749, 2704.893410
 232.170492, 2694.893657
 233.515236, 2684.893903
 234.859979, 2674.894150
 236.204723, 2664.894396
 237.549466, 2655.695811
 238.894210, 2646.900242
 240.238953, 2638.104674
 241.583697, 2629.309105
 242.928440, 2620.513537
 244.273184, 2611.717968
 245.617927, 2602.922400
 246.962671, 2594.126831
 248.307414, 2585.331263
 249.652158, 2576.535694
 250.996901, 2567.740125
 252.341645, 2558.944557
 253.686388, 2550.148988
 255.031132, 2541.353420
 256.375875, 2532.557851
 257.720619, 2523.762283
 259.065362, 2515.750636
 260.410106, 2507.741843
 261.754849, 2499.733050
 263.099592, 2491.724257
 264.444336, 2483.715465
 265.789079, 2475.706672
 267.133823, 2467.697879
 268.478566, 2459.689086
 269.823310, 2451.680293
 271.168053, 2443.671501
 272.512797, 2435.662708
 273.857540, 2427.653915
 275.202284, 2419.645122
 276.547027, 2411.636330
 277.891771, 2403.627537
 279.236514, 2395.697653
 280.581258, 2387.929851
 281.926001, 2380.162048
 283.270745, 2372.394245
 284.615488, 2364.626443
 285.960232, 2356.858640
