Speed, Forces
 142.617114, 4160.813029
 144.112352, 4135.446882
 145.607590, 4110.080736
 147.102827, 4084.714590
 148.598065, 4059.348444
 150.093303, 4033.982298
 151.588540, 4008.616152
 153.083778, 3983.250006
 154.579016, 3958.090707
 156.074253, 3936.418254
 157.569491, 3914.745801
 159.064728, 3893.073348
 160.559966, 3871.400895
 162.055204, 3849.728442
 163.550441, 3828.055990
 165.045679, 3806.383537
 166.540917, 3784.711084
 168.036154, 3763.038631
 169.531392, 3741.366178
 171.026630, 3719.693725
 172.521867, 3698.021272
 174.017105, 3676.348819
 175.512342, 3654.676367
 177.007580, 3634.890168
 178.502818, 3615.936233
 179.998055, 3596.982298
 181.493293, 3578.028363
 182.988531, 3559.074428
 184.483768, 3540.120494
 185.979006, 3521.166559
 187.474244, 3502.212624
 188.969481, 3483.258689
 190.464719, 3464.304754
 191.959956, 3445.350820
 193.455194, 3426.396885
 194.950432, 3407.442950
 196.445669, 3388.489015
 197.940907, 3370.244788
 199.436145, 3353.430374
 200.931382, 3336.615959
 202.426620, 3319.801545
 203.921858, 3302.987130
 205.417095, 3286.172715
 206.912333, 3269.358301
 208.407570, 3252.543886
 209.902808, 3235.729472
 211.398046, 3218.915057
 212.893283, 3202.100642
 214.388521, 3185.286228
 215.883759, 3168.471813
 217.378996, 3151.657398
 218.874234, 3134.842984
 220.369472, 3120.063809
 221.864709, 3105.348529
 223.359947, 3090.633249
 224.855184, 3075.917969
 226.350422, 3061.202689
 227.845660, 3046.487410
 229.340897, 3031.772130
 230.836135, 3017.056850
 232.331373, 3002.341570
 233.826610, 2987.626290
 235.321848, 2972.911010
 236.817086, 2958.195730
 238.312323, 2943.480451
 239.807561, 2928.765171
 241.302798, 2914.967640
 242.798036, 2901.763255
 244.293274, 2888.558870
 245.788511, 2875.354485
 247.283749, 2862.150100
 248.778987, 2848.945716
 250.274224, 2835.741331
 251.769462, 2822.536946
 253.264700, 2809.332561
 254.759937, 2796.128176
 256.255175, 2782.923791
 257.750412, 2769.719406
 259.245650, 2756.515021
 260.740888, 2743.310636
 262.236125, 2730.357707
 263.731363, 2718.178550
 265.226601, 2705.999393
 266.721838, 2693.820236
 268.217076, 2681.641079
 269.712314, 2669.461922
 271.207551, 2657.282765
 272.702789, 2645.103609
 274.198026, 2632.924452
 275.693264, 2620.745295
 277.188502, 2608.566138
 278.683739, 2596.386981
 280.178977, 2584.207824
 281.674215, 2572.028667
 283.169452, 2559.849510
 284.664690, 2547.745841
 286.159928, 2535.652162
 287.655165, 2523.558484
 289.150403, 2511.464805
 290.645640, 2499.371126
