Speed, Forces
  78.622866, 15488.093219
  79.314662, 15412.673420
  80.006458, 15337.253621
  80.698254, 15261.833823
  81.390050, 15186.414024
  82.081846, 15110.994225
  82.773641, 15035.574426
  83.465437, 14960.154628
  84.157233, 14884.734829
  84.849029, 14809.315030
  85.540825, 14733.895231
  86.232620, 14658.475433
  86.924416, 14583.055634
  87.616212, 14507.635835
  88.308008, 14432.216036
  88.999804, 14356.796237
  89.691600, 14290.294793
  90.383395, 14228.143679
  91.075191, 14165.992564
  91.766987, 14103.841450
  92.458783, 14041.690336
  93.150579, 13979.539222
  93.842374, 13917.388107
  94.534170, 13855.236993
  95.225966, 13793.085879
  95.917762, 13730.934765
  96.609558, 13668.783650
  97.301354, 13606.632536
  97.993149, 13544.481422
  98.684945, 13482.330308
  99.376741, 13420.179193
 100.068537, 13358.059083
 100.760333, 13305.592164
 101.452128, 13253.125244
 102.143924, 13200.658324
 102.835720, 13148.191405
 103.527516, 13095.724485
 104.219312, 13043.257565
 104.911108, 12990.790646
 105.602903, 12938.323726
 106.294699, 12885.856807
 106.986495, 12833.389887
 107.678291, 12780.922967
 108.370087, 12728.456048
 109.061883, 12675.989128
 109.753678, 12623.522208
 110.445474, 12571.055289
 111.137270, 12521.257654
 111.829066, 12476.776534
 112.520862, 12432.295415
 113.212657, 12387.814295
 113.904453, 12343.333175
 114.596249, 12298.852055
 115.288045, 12254.370935
 115.979841, 12209.889815
 116.671637, 12165.408695
 117.363432, 12120.927575
 118.055228, 12076.446455
 118.747024, 12031.965335
 119.438820, 11987.484215
 120.130616, 11943.003095
 120.822411, 11898.521975
 121.514207, 11854.040855
 122.206003, 11813.123510
 122.897799, 11773.998872
 123.589595, 11734.874233
 124.281391, 11695.749595
 124.973186, 11656.624957
 125.664982, 11617.500319
 126.356778, 11578.375681
 127.048574, 11539.251043
 127.740370, 11500.126404
 128.432165, 11461.001766
 129.123961, 11421.877128
 129.815757, 11382.752490
 130.507553, 11343.627852
 131.199349, 11304.503214
 131.891145, 11265.378576
 132.582940, 11226.253937
 133.274736, 11190.616357
 133.966532, 11154.991471
 134.658328, 11119.366586
 135.350124, 11083.741701
 136.041920, 11048.116816
 136.733715, 11012.491931
 137.425511, 10976.867046
 138.117307, 10941.242160
 138.809103, 10905.617275
 139.500899, 10869.992390
 140.192694, 10834.367505
 140.884490, 10798.742620
 141.576286, 10763.117735
 142.268082, 10727.492849
 142.959878, 10691.867964
 143.651674, 10656.594086
 144.343469, 10622.041178
 145.035265, 10587.488270
 145.727061, 10552.935363
 146.418857, 10518.382455
 147.110653, 10483.829547
