Time, Altitude
   0.000000,    0.000000
   0.001667,    0.000000
   0.003333,    0.000000
   0.005000,    0.000000
   0.006667,    0.000000
   0.008333,    0.000000
   0.010000,    0.000000
   0.011667,    0.000000
   0.013333,    0.000000
   0.015000,    0.000000
   0.016667,    0.000000
   0.018333,    0.000000
   0.020000,    0.000000
   0.021667,    0.000000
   0.023333,    0.000000
   0.025000,    0.000000
   0.026667,    0.000000
   0.028333,    0.000000
   0.030000,    0.000000
   0.031667,    0.000000
   0.033333,    0.000000
   0.035000,    0.000000
   0.036667,    0.000000
   0.038333,    0.000000
   0.040000,    0.000000
   0.041667,    0.000000
   0.043333,    0.000000
   0.045000,    0.000000
   0.046667,    0.000000
   0.048333,    0.000000
   0.050000,    0.000000
   0.051667,    0.000000
   0.053333,    0.000000
   0.055000,    0.000000
   0.056667,    0.000000
   0.058333,    0.000000
   0.060000,    0.000000
   0.061667,    0.000000
   0.063333,    0.000000
   0.065000,    0.000000
   0.066667,    0.000000
   0.068333,    0.000000
   0.070000,    0.000000
   0.071667,    0.000000
   0.073333,    0.000000
   0.075000,    0.000000
   0.076667,    0.000000
   0.078333,    0.000000
   0.080000,    0.000000
   0.081667,    0.000000
   0.083333,    0.000000
   0.085000,    0.000000
   0.086667,    0.000000
   0.088333,    0.000000
   0.090000,    0.000000
   0.091667,    0.000000
   0.093333,    0.000000
   0.095000,    0.000000
   0.096667,    0.000000
   0.098333,    0.000000
   0.100000,    0.000000
   0.101667,    0.000000
   0.103333,    0.000000
   0.105000,    0.000000
   0.106667,    0.000000
   0.108333,    0.000000
   0.110000,    0.000000
   0.111667,    0.000000
   0.113333,    0.000000
   0.115000,    0.000000
   0.116667,    0.000000
   0.118333,    0.000000
   0.120000,    0.000000
   0.121667,    0.000000
   0.123333,    0.000000
   0.125000,    0.000000
   0.126667,    0.000000
   0.128333,    0.000000
   0.130000,    0.000000
   0.131667,    0.000000
   0.133333,    0.000000
   0.135000,    0.000000
   0.136667,    0.000000
   0.138333,    0.000000
   0.140000,    0.000000
   0.141667,    0.000000
   0.143333,    0.000000
   0.145000,    0.000000
   0.146667,    0.000000
   0.148333,    0.000000
   0.150000,    0.000000
   0.151667,    0.000000
   0.153333,    0.000000
   0.155000,    0.000000
   0.156667,    0.000000
   0.158333,    0.000000
   0.160000,    0.000000
   0.161667,    0.000000
   0.163333,    0.000000
   0.165000,    0.000000
   0.166667,    0.000000
   0.168333,    0.000000
   0.170000,    0.000000
   0.171667,    0.000000
   0.173333,    0.000000
   0.175000,    0.000000
   0.176667,    0.000000
   0.178333,    0.000000
   0.180000,    0.000000
   0.181667,    0.000000
   0.183333,    0.000000
   0.185000,    0.000000
   0.186667,    0.000000
   0.188333,    0.000000
   0.190000,    0.000000
   0.191667,    0.000000
   0.193333,    0.000000
   0.195000,    0.000000
   0.196667,    0.000000
   0.198333,    0.000000
   0.200000,    0.000000
   0.201667,    0.000000
   0.203333,    0.000000
   0.205000,    0.000000
   0.206667,    0.000000
   0.208333,    0.000000
   0.210000,    0.000000
   0.211667,    0.000000
   0.213333,    0.000000
   0.215000,    0.000000
   0.216667,    0.000000
   0.218333,    0.000000
   0.220000,    0.000000
   0.221667,    0.000000
   0.223333,    0.000000
   0.225000,    0.000000
   0.226667,    0.000000
   0.228333,    0.000000
   0.230000,    0.000000
   0.231667,    0.000000
   0.233333,    0.000000
   0.235000,    0.000000
   0.236667,    0.000000
   0.238333,    0.000000
   0.240000,    0.000000
   0.241667,    0.000000
   0.243333,    0.000000
   0.245000,    0.000000
   0.246667,    0.000000
   0.248333,    0.000000
   0.250000,    0.000000
   0.251667,    0.000000
   0.253333,    0.000000
   0.255000,    0.000000
   0.256667,    0.000000
   0.258333,    0.000000
   0.260000,    0.000000
   0.261667,    0.000000
   0.263333,    0.000000
   0.265000,    0.000000
   0.266667,    0.000000
   0.268333,    0.000000
   0.270000,    0.000000
   0.271667,    0.000000
   0.273333,    0.000000
   0.275000,    0.000000
   0.276667,    0.000000
   0.278333,    0.000000
   0.280000,    0.000000
   0.281667,    0.000000
   0.283333,    0.000000
   0.285000,    0.000000
   0.286667,    0.000000
   0.288333,    0.000000
   0.290000,    0.000000
   0.291667,    0.000000
   0.293333,    0.000000
   0.295000,    0.000000
   0.296667,    0.000000
   0.298333,    0.000000
   0.300000,    0.000000
   0.301667,    0.000000
   0.303333,    0.000000
   0.305000,    0.000000
   0.306667,    0.000000
   0.308333,    0.000000
   0.310000,    0.000000
   0.311667,    0.000000
   0.313333,    0.000000
   0.315000,    0.000000
   0.316667,    0.000000
   0.318333,    0.000000
   0.320000,    0.000000
   0.321667,    0.000000
   0.323333,    0.000000
   0.325000,    0.000000
   0.326667,    0.000000
   0.328333,    0.000000
   0.330000,    0.000000
   0.331667,    0.000000
   0.333333,    0.000000
   0.335000,    0.000000
   0.336667,    0.000000
   0.338333,    0.000000
   0.340000,    0.000000
   0.341667,    0.000000
   0.343333,    0.000000
   0.345000,    0.000000
   0.346667,    0.000000
   0.348333,    0.000000
   0.350000,    0.000000
   0.351667,    0.000000
   0.353333,    0.000000
   0.355000,    0.000000
   0.355811,    0.000000
   0.357478,    0.000000
   0.359145,    0.000000
   0.360811,    0.000000
   0.362478,    0.000000
   0.364145,    0.000000
   0.365811,    0.000000
   0.367478,    0.000000
   0.369145,    0.000000
   0.370811,    0.000000
   0.372478,    0.000000
   0.374145,    0.000000
   0.375811,    0.000000
   0.377478,    0.000000
   0.379145,    0.000000
   0.380811,    0.000000
   0.382478,    0.000000
   0.384145,    0.000000
   0.385811,    0.000000
   0.387478,    0.000000
   0.389145,    0.000000
   0.390811,    0.000000
   0.392478,    0.000000
   0.394145,    0.000000
   0.395811,    0.000000
   0.397478,    0.000000
   0.399145,    0.000000
   0.400811,    0.000000
   0.402478,    0.000000
   0.404145,    0.000000
   0.405811,    0.000000
   0.407478,    0.000000
   0.409145,    0.000000
   0.410811,    0.000000
   0.412478,    0.000000
   0.414145,    0.000000
   0.415811,    0.000000
   0.417478,    0.000000
   0.418518,    0.000000
   0.420185,    0.157413
   0.421852,    0.314826
   0.423518,    0.472239
   0.425185,    0.629652
   0.426852,    0.787065
   0.428518,    0.944478
   0.430185,    1.101891
   0.431852,    1.259304
   0.433518,    1.416717
   0.435185,    1.574129
   0.436852,    1.980422
   0.438518,    2.386715
   0.440185,    2.793007
   0.441852,    3.199300
   0.443518,    3.605592
   0.445185,    4.183557
   0.446852,    4.761521
   0.448518,    5.339485
   0.450185,    5.917450
   0.451852,    6.495414
   0.453518,    7.253501
   0.455185,    8.011589
   0.456852,    8.769676
   0.458518,    9.527763
   0.460185,   10.285851
   0.460185,   10.668000
   1.655097,  585.216000
   2.874522, 1159.764000
   4.133302, 1734.312000
   5.482632, 2308.860000
   6.969219, 2883.408000
   8.614908, 3457.956000
  10.453102, 4032.504000
  12.542548, 4607.052000
  15.027550, 5181.600000
  15.027550, 5181.600000
  15.858972, 5181.600000
  16.690395, 5181.600000
  17.521817, 5181.600000
  18.353239, 5181.600000
  19.184662, 5181.600000
  20.016084, 5181.600000
  20.847506, 5181.600000
  21.678929, 5181.600000
  22.510351, 5181.600000
  23.341773, 5181.600000
  24.173196, 5181.600000
  25.004618, 5181.600000
  25.836040, 5181.600000
  26.667463, 5181.600000
  27.498885, 5181.600000
  28.330307, 5181.600000
  29.161730, 5181.600000
  29.993152, 5181.600000
  30.824574, 5181.600000
  31.655997, 5181.600000
  32.487419, 5181.600000
  33.318841, 5181.600000
  34.150264, 5181.600000
  34.981686, 5181.600000
  35.813108, 5181.600000
  36.644531, 5181.600000
  37.475953, 5181.600000
  38.307375, 5181.600000
  39.138798, 5181.600000
  39.138798, 5181.600000
  40.298666, 4656.666667
  41.461312, 4131.733333
  42.622520, 3606.800000
  43.778533, 3081.866667
  44.927113, 2556.933333
  46.063949, 2032.000000
  47.184952, 1507.066667
  48.302137,  982.133333
  49.411806,  457.200000
  49.411806,  457.200000
  49.990878,  745.066667
  50.575571, 1032.933333
  51.165723, 1320.800000
  51.764106, 1608.666667
  52.381498, 1896.533333
  53.027216, 2184.400000
  53.704269, 2472.266667
  54.414975, 2760.133333
  55.161144, 3048.000000
  55.161144, 3048.000000
  57.014269, 3048.000000
  58.868203, 3048.000000
  60.722949, 3048.000000
  62.578505, 3048.000000
  64.434873, 3048.000000
  66.292054, 3048.000000
  68.150049, 3048.000000
  70.008858, 3048.000000
  71.868482, 3048.000000
  71.868482, 3048.000000
  72.514813, 2760.133333
  73.150956, 2472.266667
  73.789636, 2184.400000
  74.430995, 1896.533333
  75.075175, 1608.666667
  75.721967, 1320.800000
  76.371231, 1032.933333
  77.022507,  745.066667
  77.674878,  457.200000
  77.674878,  457.200000
  82.674878,  457.200000
  87.674878,  457.200000
  92.674878,  457.200000
  97.674878,  457.200000
 102.674878,  457.200000
 107.674878,  457.200000
 112.674878,  457.200000
 117.674878,  457.200000
 122.674878,  457.200000
 122.674878,  457.200000
 122.676545,  456.909389
 122.678211,  456.618424
 122.679878,  456.327459
 122.681545,  456.032422
 122.683211,  455.736624
 122.684878,  455.440825
 122.686545,  455.145027
 122.688211,  454.849229
 122.689878,  454.553431
 122.691545,  454.257633
 122.693211,  453.961835
 122.694878,  453.666037
 122.696545,  453.370239
 122.698211,  453.067982
 122.699878,  452.764520
 122.701545,  452.461058
 122.703211,  452.157596
 122.704878,  451.854133
 122.706545,  451.550671
 122.708211,  451.247209
 122.709878,  450.943747
 122.711545,  450.640285
 122.713211,  450.336822
 122.714878,  450.026739
 122.716545,  449.715420
 122.718211,  449.404101
 122.719878,  449.092782
 122.721545,  448.781463
 122.723211,  448.470144
 122.724878,  448.158825
 122.726545,  447.847506
 122.728211,  447.536187
 122.729878,  447.224867
 122.731545,  446.907110
 122.733211,  446.588151
 122.734878,  446.269192
 122.736545,  445.950233
 122.738211,  445.631274
 122.739878,  445.312315
 122.741545,  444.993356
 122.743211,  444.674396
 122.744878,  444.355437
 122.746545,  444.036478
 122.748211,  443.711163
 122.749878,  443.384661
 122.751545,  443.058159
 122.753211,  442.731657
 122.754878,  442.405155
 122.756545,  442.078654
 122.758211,  441.752152
 122.759878,  441.425650
 122.761545,  441.099148
 122.763211,  440.772646
 122.764878,  440.439530
 122.766545,  440.105179
 122.768211,  439.770827
 122.769878,  439.436476
 122.771545,  439.102125
 122.773211,  438.767774
 122.774878,  438.433423
 122.776545,  438.099072
 122.778211,  437.764721
 122.779878,  437.430369
 122.781545,  437.089618
 122.783211,  436.747672
 122.784878,  436.405726
 122.786545,  436.063780
 122.788211,  435.721834
 122.789878,  435.379888
 122.791545,  435.037942
 122.793211,  434.695996
 122.794878,  434.354050
 122.796545,  434.012104
 122.798211,  433.664164
 122.799878,  433.315107
 122.801545,  432.966049
 122.803211,  432.616991
 122.804878,  432.267933
 122.806545,  431.918875
 122.808211,  431.569817
 122.809878,  431.220759
 122.811545,  430.871702
 122.813211,  430.522644
 122.814878,  430.167700
 122.816545,  429.811658
 122.818211,  429.455615
 122.819878,  429.099573
 122.821545,  428.743531
 122.823211,  428.387488
 122.824878,  428.031446
 122.826545,  427.675404
 122.828211,  427.319361
 122.829878,  426.963319
 122.831545,  426.601045
 122.833211,  426.237607
 122.834878,  425.874170
 122.836545,  425.510733
 122.838211,  425.147296
 122.839878,  424.783858
 122.841545,  424.420421
 122.843211,  424.056984
 122.844878,  423.693546
 122.846545,  423.330109
 122.848211,  422.959896
 122.849878,  422.588419
 122.851545,  422.216942
 122.853211,  421.845465
 122.854878,  421.473987
 122.856545,  421.102510
 122.858211,  420.731033
 122.859878,  420.359556
 122.861545,  419.988078
 122.863211,  419.616601
 122.864878,  419.238651
 122.866545,  418.859492
 122.868211,  418.480334
 122.869878,  418.101176
 122.871545,  417.722017
 122.873211,  417.342859
 122.874878,  416.963700
 122.876545,  416.584542
 122.878211,  416.205384
 122.879878,  415.826225
 122.881545,  415.441242
 122.883211,  415.055170
 122.884878,  414.669099
 122.886545,  414.283028
 122.888211,  413.896957
 122.889878,  413.510886
 122.891545,  413.124815
 122.893211,  412.738744
 122.894878,  412.352673
 122.896545,  411.966601
 122.898211,  411.574673
 122.899878,  411.181652
 122.901545,  410.788631
 122.903211,  410.395609
 122.904878,  410.002588
 122.906545,  409.609567
 122.908211,  409.216545
 122.909878,  408.823524
 122.911545,  408.430503
 122.913211,  408.037482
 122.914878,  407.638647
 122.916545,  407.238727
 122.918211,  406.838807
 122.919878,  406.438887
 122.921545,  406.038967
 122.923211,  405.639047
 122.924878,  405.239127
 122.926545,  404.839208
 122.928211,  404.439288
 122.929878,  404.039368
 122.931545,  403.633397
 122.933211,  403.226296
 122.934878,  402.819196
 122.936545,  402.412095
 122.938211,  402.004995
 122.939878,  401.597894
 122.941545,  401.190794
 122.943211,  400.783693
 122.944878,  400.376593
 122.946545,  399.969492
 122.948211,  399.555906
 122.949878,  399.141109
 122.951545,  398.726312
 122.953211,  398.311515
 122.954878,  397.896718
 122.956545,  397.481921
 122.958211,  397.067123
 122.959878,  396.652326
 122.961545,  396.237529
 122.963211,  395.822732
 122.964878,  395.401499
 122.966545,  394.979064
 122.968211,  394.556630
 122.969878,  394.134195
 122.971545,  393.711760
 122.973211,  393.289326
 122.974878,  392.866891
 122.976545,  392.444456
 122.978211,  392.022021
 122.979878,  391.599587
 122.981545,  391.170812
 122.983211,  390.740855
 122.984878,  390.310897
 122.986545,  389.880939
 122.988211,  389.450981
 122.989878,  389.021023
 122.991545,  388.591065
 122.993211,  388.161107
 122.994878,  387.731150
 122.996545,  387.301192
 122.998211,  386.865307
 122.999878,  386.428316
 123.001545,  385.991326
 123.003211,  385.554335
 123.004878,  385.117344
 123.006545,  384.680353
 123.008211,  384.243362
 123.009878,  383.806371
 123.011545,  383.369381
 123.013211,  382.932390
 123.014878,  382.489812
 123.016545,  382.046191
 123.018211,  381.602571
 123.019878,  381.158950
 123.021545,  380.715329
 123.023211,  380.271708
 123.024878,  379.828088
 123.026545,  379.384467
 123.028211,  378.940846
 123.029878,  378.497226
 123.031545,  378.048134
 123.033211,  377.598022
 123.034878,  377.147909
 123.036545,  376.697796
 123.038211,  376.247684
 123.039878,  375.797571
 123.041545,  375.347458
 123.043211,  374.897346
 123.044878,  374.447233
 123.046545,  373.997121
 123.048211,  373.541205
 123.049878,  373.084206
 123.051545,  372.627208
 123.053211,  372.170209
 123.054878,  371.713210
 123.056545,  371.256212
 123.058211,  370.799213
 123.059878,  370.342214
 123.061545,  369.885216
 123.063211,  369.428217
 123.064878,  368.965264
 123.066545,  368.501199
 123.068211,  368.037134
 123.069878,  367.573069
 123.071545,  367.109004
 123.073211,  366.644939
 123.074878,  366.180874
 123.076545,  365.716809
 123.078211,  365.252745
 123.079878,  364.788680
 123.081545,  364.319038
 123.083211,  363.848356
 123.084878,  363.377673
 123.086545,  362.906990
 123.088211,  362.436308
 123.089878,  361.965625
 123.091545,  361.494943
 123.093211,  361.024260
 123.094878,  360.553577
 123.096545,  360.082895
 123.098211,  359.607335
 123.099878,  359.130864
 123.101545,  358.654394
 123.103211,  358.177924
 123.104878,  357.701453
 123.106545,  357.224983
 123.108211,  356.748512
 123.109878,  356.272042
 123.111545,  355.795572
 123.113211,  355.319101
 123.114878,  354.838012
 123.116545,  354.356060
 123.118211,  353.874108
 123.119878,  353.392156
 123.121545,  352.910204
 123.123211,  352.428253
 123.124878,  351.946301
 123.126545,  351.464349
 123.128211,  350.982397
 123.129878,  350.500445
 123.131545,  350.013952
 123.133211,  349.526611
 123.134878,  349.039270
 123.136545,  348.551929
 123.138211,  348.064588
 123.139878,  347.577247
 123.141545,  347.089906
 123.143211,  346.602565
 123.144878,  346.115224
 123.146545,  345.627883
 123.148211,  345.135503
 123.149878,  344.642181
 123.151545,  344.148860
 123.153211,  343.655539
 123.154878,  343.162217
 123.156545,  342.668896
 123.158211,  342.175575
 123.159878,  341.682253
 123.161545,  341.188932
 123.163211,  340.695610
 123.164878,  340.196876
 123.166545,  339.697131
 123.168211,  339.197386
 123.169878,  338.697641
 123.171545,  338.197896
 123.173211,  337.698152
 123.174878,  337.198407
 123.176545,  336.698662
 123.178211,  336.198917
 123.179878,  335.699172
 123.181545,  335.194126
 123.183211,  334.688090
 123.184878,  334.182054
 123.186545,  333.676019
 123.188211,  333.169983
 123.189878,  332.663947
 123.191545,  332.157912
 123.193211,  331.651876
 123.194878,  331.145840
 123.196545,  330.639805
 123.198211,  330.128582
 123.199878,  329.616392
 123.201545,  329.104202
 123.203211,  328.592011
 123.204878,  328.079821
 123.206545,  327.567630
 123.208211,  327.055440
 123.209878,  326.543250
 123.211545,  326.031059
 123.213211,  325.518869
 123.214878,  325.001592
 123.216545,  324.483365
 123.218211,  323.965139
 123.219878,  323.446913
 123.221545,  322.928686
 123.223211,  322.410460
 123.224878,  321.892233
 123.226545,  321.374007
 123.228211,  320.855781
 123.229878,  320.337554
 123.231545,  319.814311
 123.233211,  319.290131
 123.234878,  318.765951
 123.236545,  318.241771
 123.238211,  317.717591
 123.239878,  317.193411
 123.241545,  316.669231
 123.243211,  316.145051
 123.244878,  315.620871
 123.246545,  315.096691
 123.248211,  314.567818
 123.249878,  314.038069
 123.251545,  313.508320
 123.253211,  312.978571
 123.254878,  312.448822
 123.256545,  311.919073
 123.258211,  311.389325
 123.259878,  310.859576
 123.261545,  310.329827
 123.263211,  309.800078
 123.264878,  309.266597
 123.266545,  308.732419
 123.268211,  308.198241
 123.269878,  307.664063
 123.271545,  307.129885
 123.273211,  306.595707
 123.274878,  306.061529
 123.276545,  305.527351
 123.278211,  304.993173
 123.279878,  304.458995
 123.281545,  303.921409
 123.283211,  303.383187
 123.284878,  302.844965
 123.286545,  302.306743
 123.288211,  301.768521
 123.289878,  301.230299
 123.291545,  300.692077
 123.293211,  300.153856
 123.294878,  299.615634
 123.296545,  299.075108
 123.298211,  298.531595
 123.299878,  297.988082
 123.301545,  297.444569
 123.303211,  296.901056
 123.304878,  296.357543
 123.306545,  295.814031
 123.308211,  295.270518
 123.309878,  294.727005
 123.311545,  294.183492
 123.313211,  293.637746
 123.314878,  293.089106
 123.316545,  292.540466
 123.318211,  291.991826
 123.319878,  291.443186
 123.321545,  290.894546
 123.323211,  290.345906
 123.324878,  289.797265
 123.326545,  289.248625
 123.328211,  288.699985
 123.329878,  288.149506
 123.331545,  287.596643
 123.333211,  287.043779
 123.334878,  286.490916
 123.336545,  285.938052
 123.338211,  285.385189
 123.339878,  284.832326
 123.341545,  284.279462
 123.343211,  283.726599
 123.344878,  283.173736
 123.346545,  282.619045
 123.348211,  282.061986
 123.349878,  281.504927
 123.351545,  280.947868
 123.353211,  280.390809
 123.354878,  279.833750
 123.356545,  279.276690
 123.358211,  278.719631
 123.359878,  278.162572
 123.361545,  277.605513
 123.363211,  277.046768
 123.364878,  276.485839
 123.366545,  275.924909
 123.368211,  275.363979
 123.369878,  274.803050
 123.371545,  274.242120
 123.373211,  273.681190
 123.374878,  273.120260
 123.376545,  272.559331
 123.378211,  271.998401
 123.379878,  271.436297
 123.381545,  270.872671
 123.383211,  270.309044
 123.384878,  269.745418
 123.386545,  269.181792
 123.388211,  268.618166
 123.389878,  268.054539
 123.391545,  267.490913
 123.393211,  266.927287
 123.394878,  266.363660
 123.396545,  265.798541
 123.398211,  265.231487
 123.399878,  264.664433
 123.401545,  264.097378
 123.403211,  263.530324
 123.404878,  262.963270
 123.406545,  262.396215
 123.408211,  261.829161
 123.409878,  261.262107
 123.411545,  260.695052
 123.413211,  260.126224
 123.414878,  259.555095
 123.416545,  258.983967
 123.418211,  258.412839
 123.419878,  257.841710
 123.421545,  257.270582
 123.423211,  256.699453
 123.424878,  256.128325
 123.426545,  255.557197
 123.428211,  254.986068
 123.429878,  254.413402
 123.431545,  253.838743
 123.433211,  253.264083
 123.434878,  252.689424
 123.436545,  252.114765
 123.438211,  251.540105
 123.439878,  250.965446
 123.441545,  250.390786
 123.443211,  249.816127
 123.444878,  249.241468
 123.446545,  248.665501
 123.448211,  248.087839
 123.449878,  247.510177
 123.451545,  246.932516
 123.453211,  246.354854
 123.454878,  245.777192
 123.456545,  245.199530
 123.458211,  244.621869
 123.459878,  244.044207
 123.461545,  243.466545
 123.463211,  242.887559
 123.464878,  242.306855
 123.466545,  241.726151
 123.468211,  241.145447
 123.469878,  240.564743
 123.471545,  239.984039
 123.473211,  239.403335
 123.474878,  238.822631
 123.476545,  238.241928
 123.478211,  237.661224
 123.479878,  237.079134
 123.481545,  236.495247
 123.483211,  235.911360
 123.484878,  235.327474
 123.486545,  234.743587
 123.488211,  234.159701
 123.489878,  233.575814
 123.491545,  232.991927
 123.493211,  232.408041
 123.494878,  231.824154
 123.496545,  231.238974
 123.498211,  230.652119
 123.499878,  230.065264
 123.501545,  229.478408
 123.503211,  228.891553
 123.504878,  228.304697
 123.506545,  227.717842
 123.508211,  227.130987
 123.509878,  226.544131
 123.511545,  225.957276
 123.513211,  225.369297
 123.514878,  224.779861
 123.516545,  224.190426
 123.518211,  223.600990
 123.519878,  223.011554
 123.521545,  222.422119
 123.523211,  221.832683
 123.524878,  221.243247
 123.526545,  220.653812
 123.528211,  220.064376
 123.529878,  219.474134
 123.531545,  218.882846
 123.533211,  218.291559
 123.534878,  217.700271
 123.536545,  217.108983
 123.538211,  216.517696
 123.539878,  215.926408
 123.541545,  215.335121
 123.543211,  214.743833
 123.544878,  214.152545
 123.546545,  213.560542
 123.548211,  212.967609
 123.549878,  212.374677
 123.551545,  211.781745
 123.553211,  211.188813
 123.554878,  210.595881
 123.556545,  210.002948
 123.558211,  209.410016
 123.559878,  208.817084
 123.561545,  208.224152
 123.563211,  207.630249
 123.564878,  207.035088
 123.566545,  206.439927
 123.568211,  205.844766
 123.569878,  205.249605
 123.571545,  204.654444
 123.573211,  204.059283
 123.574878,  203.464122
 123.576545,  202.868961
 123.578211,  202.273799
 123.579878,  201.678065
 123.581545,  201.081588
 123.583211,  200.485111
 123.584878,  199.888634
 123.586545,  199.292156
 123.588211,  198.695679
 123.589878,  198.099202
 123.591545,  197.502725
 123.593211,  196.906247
 123.594878,  196.309770
 123.596545,  195.712974
 123.598211,  195.115766
 123.599878,  194.518557
 123.601545,  193.921348
 123.603211,  193.324139
 123.604878,  192.726930
 123.606545,  192.129721
 123.608211,  191.532513
 123.609878,  190.935304
 123.611545,  190.338095
 123.613211,  189.740137
 123.614878,  189.141208
 123.616545,  188.542279
 123.618211,  187.943350
 123.619878,  187.344421
 123.621545,  186.745492
 123.623211,  186.146564
 123.624878,  185.547635
 123.626545,  184.948706
 123.628211,  184.349777
 123.629878,  183.750121
 123.631545,  183.149523
 123.633211,  182.548925
 123.634878,  181.948327
 123.636545,  181.347729
 123.638211,  180.747131
 123.639878,  180.146533
 123.641545,  179.545935
 123.643211,  178.945337
 123.644878,  178.344739
 123.646545,  177.743266
 123.648211,  177.141615
 123.649878,  176.539964
 123.651545,  175.938313
 123.653211,  175.336662
 123.654878,  174.735011
 123.656545,  174.133360
 123.658211,  173.531709
 123.659878,  172.930058
 123.661545,  172.328407
 123.663211,  171.726359
 123.664878,  171.124230
 123.666545,  170.522101
 123.668211,  169.919972
 123.669878,  169.317844
 123.671545,  168.715715
 123.673211,  168.113586
 123.674878,  167.511457
 123.676545,  166.909329
 123.678211,  166.307200
 123.679878,  165.704614
 123.681545,  165.101935
 123.683211,  164.499257
 123.684878,  163.896578
 123.686545,  163.293899
 123.688211,  162.691220
 123.689878,  162.088541
 123.691545,  161.485862
 123.693211,  160.883184
 123.694878,  160.280505
 123.696545,  159.676190
 123.698211,  159.071543
 123.699878,  158.466896
 123.701545,  157.862248
 123.703211,  157.257601
 123.704878,  156.652953
 123.706545,  156.048306
 123.708211,  155.443659
 123.709878,  154.839011
 123.711545,  154.234364
 123.713211,  153.628078
 123.714878,  153.021460
 123.716545,  152.414841
 123.718211,  151.808222
 123.719878,  151.201603
 123.721545,  150.594984
 123.723211,  149.988365
 123.724878,  149.381746
 123.726545,  148.775127
 123.728211,  148.168317
 123.729878,  147.561261
 123.731545,  146.954204
 123.733211,  146.347147
 123.734878,  145.740091
 123.736545,  145.133034
 123.738211,  144.525978
 123.739878,  143.918921
 123.741545,  143.311865
 123.743211,  142.704838
 123.744878,  142.097847
 123.746545,  141.490857
 123.748211,  140.883866
 123.749878,  140.276875
 123.751545,  139.669885
 123.753211,  139.062894
 123.754878,  138.455904
 123.756545,  137.848913
 123.758211,  137.241923
 123.759878,  136.634991
 123.761545,  136.028073
 123.763211,  135.421155
 123.764878,  134.814238
 123.766545,  134.207320
 123.768211,  133.600402
 123.769878,  132.993484
 123.771545,  132.386566
 123.773211,  131.779648
 123.774878,  131.172730
 123.776545,  130.566095
 123.778211,  129.959527
 123.779878,  129.352959
 123.781545,  128.746390
 123.783211,  128.139822
 123.784878,  127.533253
 123.786545,  126.926685
 123.788211,  126.320116
 123.789878,  125.713548
 123.791545,  125.106979
 123.793211,  124.501058
 123.794878,  123.895289
 123.796545,  123.289520
 123.798211,  122.683751
 123.799878,  122.077981
 123.801545,  121.472212
 123.803211,  120.866443
 123.804878,  120.260674
 123.806545,  119.654905
 123.808211,  119.049136
 123.809878,  118.444546
 123.811545,  117.840233
 123.813211,  117.235921
 123.814878,  116.631609
 123.816545,  116.027296
 123.818211,  115.422984
 123.819878,  114.818671
 123.821545,  114.214359
 123.823211,  113.610046
 123.824878,  113.005734
 123.826545,  112.402626
 123.828211,  111.799802
 123.829878,  111.196978
 123.831545,  110.594154
 123.833211,  109.991330
 123.834878,  109.388506
 123.836545,  108.785682
 123.838211,  108.182858
 123.839878,  107.580034
 123.841545,  106.977210
 123.843211,  106.375231
 123.844878,  105.773451
 123.846545,  105.171671
 123.848211,  104.569891
 123.849878,  103.968111
 123.851545,  103.366331
 123.853211,  102.764551
 123.854878,  102.162771
 123.856545,  101.560991
 123.858211,  100.959211
 123.859878,  100.357301
 123.861545,   99.755361
 123.863211,   99.153422
 123.864878,   98.551482
 123.866545,   97.949542
 123.868211,   97.347602
 123.869878,   96.745662
 123.871545,   96.143722
 123.873211,   95.541782
 123.874878,   94.939843
 123.876545,   94.337786
 123.878211,   93.735702
 123.879878,   93.133618
 123.881545,   92.531534
 123.883211,   91.929450
 123.884878,   91.327365
 123.886545,   90.725281
 123.888211,   90.123197
 123.889878,   89.521113
 123.891545,   88.919631
 123.893211,   88.319361
 123.894878,   87.719092
 123.896545,   87.118823
 123.898211,   86.518554
 123.899878,   85.918284
 123.901545,   85.318015
 123.903211,   84.717746
 123.904878,   84.117476
 123.906545,   83.517207
 123.908211,   82.917392
 123.909878,   82.318493
 123.911545,   81.719595
 123.913211,   81.120696
 123.914878,   80.521797
 123.916545,   79.922898
 123.918211,   79.323999
 123.919878,   78.725101
 123.921545,   78.126202
 123.923211,   77.527303
 123.924878,   76.928679
 123.926545,   76.330610
 123.928211,   75.732541
 123.929878,   75.134472
 123.931545,   74.536403
 123.933211,   73.938335
 123.934878,   73.340266
 123.936545,   72.742197
 123.938211,   72.144128
 123.939878,   71.546059
 123.941545,   70.948283
 123.943211,   70.351099
 123.944878,   69.753914
 123.946545,   69.156730
 123.948211,   68.559546
 123.949878,   67.962361
 123.951545,   67.365177
 123.953211,   66.767993
 123.954878,   66.170808
 123.956545,   65.573624
 123.958211,   64.978513
 123.959878,   64.383647
 123.961545,   63.788782
 123.963211,   63.193916
 123.964878,   62.599050
 123.966545,   62.004185
 123.968211,   61.409319
 123.969878,   60.814453
 123.971545,   60.219587
 123.973211,   59.624945
 123.974878,   59.032628
 123.976545,   58.440311
 123.978211,   57.847994
 123.979878,   57.255678
 123.981545,   56.663361
 123.983211,   56.071044
 123.984878,   55.478727
 123.986545,   54.886410
 123.988211,   54.294093
 123.989878,   53.702003
 123.991545,   53.112278
 123.993211,   52.522552
 123.994878,   51.932826
 123.996545,   51.343100
 123.998211,   50.753375
 123.999878,   50.163649
 124.001545,   49.573923
 124.003211,   48.984197
 124.004878,   48.394472
 124.006545,   47.804917
 124.008211,   47.217151
 124.009878,   46.629384
 124.011545,   46.041617
 124.013211,   45.453851
 124.014878,   44.866084
 124.016545,   44.278317
 124.018211,   43.690551
 124.019878,   43.102784
 124.021545,   42.515017
 124.023211,   41.927464
 124.024878,   41.342136
 124.026545,   40.756807
 124.028211,   40.171479
 124.029878,   39.586151
 124.031545,   39.000823
 124.033211,   38.415494
 124.034878,   37.830166
 124.036545,   37.244838
 124.038211,   36.659510
 124.039878,   36.074395
 124.041545,   35.491503
 124.043211,   34.908612
 124.044878,   34.325721
 124.046545,   33.742829
 124.048211,   33.159938
 124.049878,   32.577047
 124.051545,   31.994156
 124.053211,   31.411264
 124.054878,   30.828373
 124.056545,   30.245733
 124.058211,   29.665717
 124.059878,   29.085701
 124.061545,   28.505684
 124.063211,   27.925668
 124.064878,   27.345652
 124.066545,   26.765635
 124.068211,   26.185619
 124.069878,   25.605603
 124.071545,   25.025586
 124.073211,   24.445788
 124.074878,   23.868264
 124.076545,   23.290741
 124.078211,   22.713218
 124.079878,   22.135694
 124.081545,   21.558171
 124.083211,   20.980648
 124.084878,   20.403124
 124.086545,   19.825601
 124.088211,   19.248077
 124.089878,   18.670707
 124.091545,   18.094934
 124.093211,   17.519161
 124.094878,   16.943388
 124.096545,   16.367615
 124.098211,   15.791841
 124.099809,   15.240000
 124.101475,   14.665648
 124.103142,   14.091296
 124.104809,   13.516945
 124.106475,   12.942739
 124.108142,   12.371565
 124.109809,   11.800391
 124.111475,   11.229217
 124.113142,   10.658043
 124.114809,   10.086870
 124.116475,    9.515696
 124.118142,    8.944522
 124.119809,    8.373348
 124.121475,    7.802174
 124.123142,    7.231141
 124.124809,    6.663023
 124.126472,    6.096000
 124.128139,    5.530962
 124.129806,    4.965924
 124.131472,    4.400887
 124.133139,    3.835849
 124.134806,    3.270811
 124.136472,    2.705774
 124.138139,    2.140736
 124.139806,    1.587161
 124.141472,    1.282806
 124.143139,    0.978452
 124.144806,    0.674097
 124.144883,    0.659993
 124.146549,    1.129267
 124.148216,    1.598541
 124.149883,    2.067814
 124.151549,    2.537088
 124.153216,    3.006362
 124.154883,    3.475636
 124.156549,    3.902529
 124.158216,    3.902529
 124.159883,    3.902529
 124.161549,    3.902529
 124.163216,    3.902529
 124.164883,    3.902529
 124.166549,    3.902529
 124.168216,    3.902529
 124.169883,    3.902529
 124.171549,    3.902529
 124.173216,    3.902529
 124.174883,    3.902529
 124.176549,    3.902529
 124.178216,    3.902529
 124.179883,    3.902529
 124.181549,    3.902529
 124.183216,    3.902529
 124.184883,    3.902529
 124.186549,    3.902529
 124.188216,    3.902529
 124.189883,    3.902529
 124.191549,    3.902529
 124.193216,    3.902529
 124.194883,    3.902529
 124.196549,    3.902529
 124.198216,    3.902529
 124.199883,    3.902529
 124.201549,    3.902529
 124.203216,    3.902529
 124.204883,    3.902529
 124.206549,    3.902529
 124.208216,    3.902529
 124.209883,    3.902529
 124.211549,    3.902529
 124.213216,    3.902529
 124.214883,    3.902529
 124.216549,    3.902529
 124.218216,    3.902529
 124.219883,    3.902529
 124.221549,    3.902529
 124.223216,    3.902529
 124.224883,    3.902529
 124.226549,    3.902529
 124.228216,    3.902529
 124.229883,    3.902529
 124.231549,    3.902529
 124.233216,    3.902529
 124.234883,    3.902529
 124.236549,    3.902529
 124.238216,    3.902529
 124.239883,    3.902529
 124.241549,    3.902529
 124.243216,    3.902529
 124.244883,    3.902529
 124.246549,    3.902529
 124.248216,    3.902529
 124.249883,    3.902529
 124.251549,    3.902529
 124.253216,    3.902529
 124.254883,    3.902529
 124.256549,    3.902529
 124.258216,    3.902529
 124.259883,    3.902529
 124.261549,    3.902529
 124.263216,    3.902529
 124.264883,    3.902529
 124.266549,    3.902529
 124.268216,    3.902529
 124.269883,    3.902529
 124.271549,    3.902529
 124.273216,    3.902529
 124.274883,    3.902529
 124.276549,    3.902529
 124.278216,    3.902529
 124.279883,    3.902529
 124.281549,    3.902529
 124.283216,    3.902529
 124.284883,    3.902529
 124.286549,    3.902529
 124.288216,    3.902529
 124.289883,    3.902529
 124.291549,    3.902529
 124.293216,    3.902529
 124.294883,    3.902529
 124.296549,    3.902529
 124.298216,    3.902529
 124.299883,    3.902529
 124.301549,    3.902529
 124.303216,    3.902529
 124.304883,    3.902529
 124.306549,    3.902529
 124.308216,    3.902529
 124.309883,    3.902529
 124.311549,    3.902529
 124.313216,    3.902529
 124.314883,    3.902529
 124.316549,    3.902529
 124.318216,    3.902529
 124.319883,    3.902529
 124.321549,    3.902529
 124.323216,    3.902529
 124.324883,    3.902529
 124.326549,    3.902529
 124.328216,    3.902529
 124.329883,    3.902529
 124.331549,    3.902529
 124.333216,    3.902529
 124.334883,    3.902529
 124.336549,    3.902529
 124.338216,    3.902529
 124.339883,    3.902529
 124.341549,    3.902529
 124.343216,    3.902529
 124.344883,    3.902529
 124.346549,    3.902529
 124.348216,    3.902529
 124.349883,    3.902529
 124.351549,    3.902529
 124.353216,    3.902529
 124.354883,    3.902529
 124.356549,    3.902529
 124.358216,    3.902529
 124.359883,    3.902529
 124.361549,    3.902529
 124.363216,    3.902529
 124.364883,    3.902529
 124.366549,    3.902529
 124.368216,    3.902529
 124.369883,    3.902529
 124.371549,    3.902529
 124.373216,    3.902529
 124.374883,    3.902529
 124.376549,    3.902529
 124.378216,    3.902529
 124.379883,    3.902529
 124.381549,    3.902529
 124.383216,    3.902529
 124.384883,    3.902529
 124.386549,    3.902529
 124.388216,    3.902529
 124.389883,    3.902529
 124.391549,    3.902529
 124.393216,    3.902529
 124.394883,    3.902529
 124.396549,    3.902529
 124.398216,    3.902529
 124.399883,    3.902529
 124.401549,    3.902529
 124.403216,    3.902529
 124.404883,    3.902529
 124.406549,    3.902529
 124.408216,    3.902529
 124.409883,    3.902529
 124.411549,    3.902529
 124.413216,    3.902529
 124.414883,    3.902529
 124.416549,    3.902529
 124.418216,    3.902529
 124.419883,    3.902529
 124.421549,    3.902529
 124.421857,    3.902529
