Time, Acceleration
   0.000100,    2.792145
   0.000546,    2.792134
   0.002112,    2.792092
   0.007888,    2.791940
   0.020075,    2.791620
   0.038710,    2.791129
   0.066510,    2.790398
   0.098692,    2.789551
   0.130841,    2.788705
   0.163087,    2.787855
   0.195432,    2.787003
   0.227757,    2.786152
   0.260268,    2.785295
   0.292877,    2.784436
   0.325641,    2.783572
   0.358431,    2.782707
   0.391313,    2.781840
   0.424745,    2.780958
   0.457979,    2.780081
   0.491599,    2.779194
   0.525857,    2.778290
   0.559964,    2.777389
   0.594349,    2.776481
   0.628921,    2.775568
   0.664123,    2.774638
   0.699806,    2.773695
   0.735399,    2.772754
   0.771292,    2.771805
   0.807013,    2.770860
   0.842776,    2.769914
   0.879300,    2.768947
   0.916421,    2.767965
   0.953773,    2.766976
   0.992118,    2.765961
   1.030315,    2.764949
   1.069146,    2.763920
   1.107704,    2.762898
   1.147211,    2.761851
   1.186535,    2.760809
   1.226579,    2.759747
   1.266302,    2.758693
   1.307228,    2.757607
   1.347778,    2.756531
   1.389064,    2.755435
   1.430263,    2.754341
   1.471764,    2.753238
   1.514316,    2.752108
   1.556787,    2.750979
   1.599939,    2.749832
   1.642774,    2.748693
   1.687038,    2.747516
   1.730939,    2.746348
   1.775670,    2.745158
   1.820184,    2.743973
   1.864954,    2.742781
   1.909819,    2.741586
   1.955805,    2.740361
   2.001849,    2.739134
   2.048469,    2.737891
   2.095125,    2.736647
   2.142291,    2.735389
   2.189126,    2.734140
   2.237033,    2.732862
   2.285230,    2.731575
   2.333831,    2.730278
   2.383233,    2.728958
   2.431887,    2.727658
   2.481281,    2.726339
   2.531537,    2.724995
   2.581891,    2.723649
   2.632518,    2.722295
   2.683690,    2.720926
   2.734903,    2.719556
   2.786150,    2.718184
   2.838588,    2.716780
   2.890625,    2.715386
   2.943673,    2.713965
   2.997281,    2.712528
   3.050425,    2.711104
   3.103981,    2.709668
   3.157899,    2.708222
   3.212655,    2.706753
   3.267239,    2.705288
   3.322483,    2.703805
   3.378009,    2.702314
   3.433748,    2.700817
   3.489495,    2.699319
   3.545193,    2.697822
   3.602123,    2.696291
   3.658751,    2.694769
   3.715857,    2.693233
   3.773368,    2.691685
   3.831205,    2.690128
   3.889543,    2.688558
   3.947823,    2.686988
   4.006814,    2.685399
   4.066534,    2.683790
   4.126022,    2.682187
   4.185579,    2.680581
   4.245818,    2.678956
   4.257997,    2.678628
   4.264565,    2.678451
   4.288664,    2.677801
   4.289110,    2.677789
   4.289596,    2.677776
   4.290094,    2.677762
   4.290103,    2.677762
   4.290107,    2.677762
   4.290111,    2.677762
   4.290151,    2.677760
   4.290548,    2.677746
   4.292779,    2.677669
   4.302522,    2.677331
   4.336312,    2.676157
   4.389727,    2.674302
   4.444021,    2.672417
   4.498790,    2.670516
   4.553724,    2.668609
   4.609036,    2.666689
   4.664586,    2.664761
   4.719974,    2.662839
   4.776061,    2.660893
   4.831987,    2.658952
   4.888185,    2.657002
   4.944969,    2.655032
   5.001505,    2.653071
   5.058369,    2.651099
   5.115776,    2.649108
   5.173351,    2.647111
   5.231548,    2.645093
   5.289879,    2.643071
   5.348268,    2.641047
   5.406993,    2.639011
   5.465442,    2.636986
   5.524777,    2.634929
   5.584138,    2.632872
   5.643657,    2.630810
   5.703260,    2.628746
   5.763285,    2.626666
   5.823481,    2.624582
   5.884014,    2.622485
   5.944757,    2.620382
   6.006277,    2.618252
   6.067556,    2.616131
   6.128832,    2.614010
   6.190554,    2.611874
   6.252798,    2.609721
   6.315043,    2.607567
   6.377686,    2.605400
   6.440754,    2.603219
   6.503340,    2.601055
   6.566359,    2.598876
   6.629244,    2.596702
   6.692597,    2.594512
   6.756511,    2.592303
   6.820676,    2.590086
   6.885594,    2.587843
   6.949956,    2.585620
   7.014723,    2.583383
   7.079777,    2.581137
   7.145077,    2.578882
   7.210367,    2.576629
   7.275923,    2.574366
   7.341473,    2.572104
   7.407891,    2.569813
   7.474017,    2.567532
   7.540535,    2.565237
   7.607084,    2.562943
   7.674053,    2.560634
   7.741025,    2.558325
   7.808067,    2.556015
   7.875690,    2.553685
   7.943508,    2.551349
   8.011777,    2.548998
   8.079643,    2.546661
   8.148526,    2.544289
   8.216802,    2.541939
   8.285592,    2.539572
   8.355034,    2.537183
   8.423942,    2.534812
   8.493312,    2.532427
   8.563090,    2.530028
   8.633123,    2.527620
   8.703420,    2.525204
   8.773699,    2.522789
   8.787742,    2.522307
   8.797572,    2.521969
   8.803721,    2.521758
   8.803886,    2.521752
   8.803940,    2.521751
   8.803982,    2.521749
   8.804020,    2.521747
   8.804398,    2.521731
   8.806867,    2.521624
   8.820309,    2.521040
   8.863404,    2.519169
   8.926163,    2.516446
   8.989247,    2.513711
   9.052427,    2.510973
   9.115593,    2.508237
   9.178864,    2.505498
   9.242176,    2.502759
   9.305840,    2.500007
   9.369947,    2.497236
   9.434163,    2.494463
   9.498451,    2.491689
   9.562681,    2.488918
   9.627168,    2.486138
   9.692030,    2.483344
   9.757182,    2.480539
   9.822587,    2.477724
   9.888037,    2.474910
   9.953533,    2.472095
  10.019152,    2.469277
  10.085039,    2.466449
  10.150758,    2.463629
  10.216710,    2.460802
  10.283004,    2.457962
  10.349267,    2.455125
  10.416135,    2.452264
  10.482851,    2.449411
  10.549931,    2.446544
  10.617044,    2.443678
  10.684253,    2.440810
  10.751942,    2.437923
  10.819258,    2.435054
  10.886849,    2.432175
  10.954628,    2.429290
  11.022653,    2.426396
  11.090991,    2.423491
  11.159335,    2.420588
  11.228074,    2.417670
  11.296771,    2.414756
  11.365625,    2.411837
  11.434644,    2.408913
  11.504126,    2.405971
  11.573464,    2.403038
  11.642828,    2.400105
  11.712271,    2.397172
  11.781984,    2.394228
  11.851811,    2.391282
  11.921841,    2.388330
  11.992118,    2.385369
  12.062635,    2.382401
  12.133175,    2.379433
  12.204002,    2.376456
  12.274857,    2.373479
  12.345845,    2.370499
  12.416939,    2.367517
  12.488325,    2.364525
  12.559479,    2.361544
  12.631301,    2.358538
  12.703209,    2.355531
  12.775247,    2.352520
  12.847266,    2.349513
  12.919325,    2.346506
  12.991867,    2.343481
  13.064373,    2.340459
  13.137123,    2.337430
  13.210144,    2.334393
  13.283036,    2.331362
  13.356198,    2.328323
  13.430035,    2.325258
  13.503346,    2.322218
  13.576826,    2.319172
  13.650418,    2.316125
  13.653371,    2.316003
  13.656438,    2.315876
  13.656541,    2.315872
  13.656737,    2.315863
  13.656798,    2.315861
  13.656833,    2.315859
  13.656869,    2.315858
  13.656878,    2.315858
  13.656887,    2.315857
  13.656978,    2.315852
  13.657889,    2.315804
  13.664298,    2.315463
  13.691841,    2.314000
  13.754887,    2.310652
  13.819564,    2.307222
  13.884521,    2.303781
  13.949522,    2.300341
  14.014319,    2.296916
  14.079345,    2.293483
  14.144584,    2.290043
  14.209949,    2.286600
  14.275458,    2.283153
  14.340876,    2.279715
  14.406299,    2.276280
  14.472086,    2.272831
  14.538027,    2.269377
  14.604094,    2.265921
  14.670268,    2.262463
  14.736515,    2.259005
  14.802757,    2.255552
  14.869279,    2.252088
  14.935904,    2.248623
  15.002769,    2.245150
  15.069623,    2.241681
  15.136595,    2.238210
  15.203725,    2.234735
  15.271077,    2.231253
  15.338465,    2.227773
  15.405984,    2.224291
  15.473508,    2.220813
  15.541387,    2.217320
  15.609230,    2.213833
  15.677280,    2.210341
  15.745321,    2.206852
  15.813676,    2.203352
  15.882097,    2.199853
  15.950516,    2.196359
  16.019021,    2.192864
  16.087739,    2.189363
  16.156497,    2.185864
  16.225495,    2.182357
  16.294644,    2.178847
  16.363824,    2.175339
  16.433186,    2.171827
  16.502482,    2.168323
  16.571912,    2.164816
  16.641536,    2.161304
  16.711255,    2.157791
  16.781207,    2.154272
  16.851459,    2.150741
  16.921672,    2.147217
  16.991851,    2.143700
  17.062153,    2.140180
  17.132522,    2.136662
  17.202942,    2.133146
  17.273852,    2.129610
  17.344378,    2.126098
  17.415310,    2.122570
  17.486364,    2.119040
  17.557742,    2.115499
  17.629072,    2.111965
  17.700281,    2.108442
  17.771957,    2.104901
  17.843682,    2.101361
  17.915729,    2.097811
  17.987458,    2.094280
  18.059307,    2.090749
  18.131318,    2.087214
  18.203457,    2.083678
  18.275989,    2.080127
  18.348365,    2.076589
  18.420822,    2.073051
  18.493677,    2.069499
  18.566482,    2.065954
  18.639455,    2.062406
  18.712569,    2.058856
  18.785683,    2.055311
  18.859008,    2.051760
  18.932510,    2.048205
  19.006088,    2.044652
  19.020816,    2.043942
  19.031549,    2.043424
  19.040024,    2.043015
  19.041482,    2.042945
  19.043339,    2.042855
  19.046300,    2.042712
  19.046517,    2.042702
  19.046682,    2.042694
  19.046784,    2.042689
  19.046860,    2.042685
  19.046931,    2.042682
  19.047639,    2.042647
  19.052388,    2.042416
  19.073809,    2.041373
  19.147246,    2.037799
  19.220736,    2.034228
  19.294225,    2.030661
  19.367889,    2.027091
  19.441641,    2.023522
  19.515544,    2.019951
  19.589544,    2.016380
  19.663779,    2.012803
  19.738161,    2.009224
  19.812431,    2.005656
  19.886932,    2.002081
  19.961458,    1.998510
  20.036199,    1.994935
  20.111216,    1.991351
  20.186150,    1.987776
  20.261222,    1.984200
  20.336301,    1.980629
  20.411429,    1.977061
  20.486861,    1.973484
  20.562407,    1.969906
  20.637948,    1.966334
  20.713707,    1.962757
  20.789513,    1.959183
  20.865480,    1.955606
  20.941590,    1.952028
  21.017756,    1.948453
  21.094133,    1.944874
  21.170553,    1.941297
  21.247220,    1.937715
  21.323975,    1.934134
  21.400705,    1.930559
  21.477690,    1.926978
  21.554663,    1.923403
  21.631747,    1.919828
  21.709011,    1.916250
  21.786325,    1.912675
  21.863798,    1.909099
  21.941433,    1.905520
  22.019029,    1.901949
  22.096740,    1.898378
  22.174477,    1.894811
  22.252622,    1.891231
  22.330915,    1.887650
  22.409190,    1.884075
  22.487502,    1.880504
  22.565788,    1.876940
  22.644333,    1.873370
  22.722943,    1.869802
  22.801723,    1.866232
  22.880565,    1.862665
  22.959747,    1.859089
  23.038894,    1.855519
  23.118117,    1.851952
  23.156784,    1.850213
  23.197256,    1.848394
  23.276767,    1.845196
  23.356604,    1.842302
  23.436263,    1.839386
  23.516145,    1.836427
  23.596348,    1.833289
  23.676565,    1.829695
  23.757014,    1.826063
  23.837604,    1.822398
  23.918206,    1.818707
  23.998952,    1.814525
  24.079700,    1.810244
  24.160669,    1.805931
  24.241737,    1.801592
  24.322819,    1.797074
  24.403974,    1.792199
  24.485284,    1.787299
  24.566341,    1.782392
  24.647631,    1.777464
  24.729037,    1.772197
  24.810394,    1.766704
  24.891843,    1.761197
  24.973269,    1.755678
  25.054549,    1.750156
  25.136008,    1.744295
  25.217508,    1.738257
  25.220759,    1.735608
  25.223965,    1.735369
  25.227797,    1.735104
  25.228561,    1.734954
  25.229552,    1.734887
  25.229816,    1.734845
  25.230277,    1.734817
  25.230337,    1.734801
  25.230371,    1.734797
  25.230382,    1.734796
  25.230394,    1.734795
  25.230517,    1.734790
  25.231738,    1.734736
  25.241541,    1.734302
  25.281693,    1.732374
  25.364547,    1.727784
  25.449294,    1.721790
  25.454900,    1.718187
  25.460512,    1.717202
  25.466112,    1.716209
  25.471721,    1.715204
  25.477339,    1.714188
  25.482946,    1.713163
  25.488573,    1.712125
  25.494195,    1.711078
  25.499819,    1.710020
  25.505458,    1.708949
  25.511102,    1.707867
  25.516732,    1.706777
  25.522374,    1.705675
  25.528030,    1.704560
  25.533666,    1.703438
  25.539316,    1.702305
  25.544963,    1.701161
  25.550633,    1.700003
  25.556292,    1.698836
  25.561960,    1.697658
  25.567638,    1.696467
  25.573314,    1.695266
  25.578993,    1.694055
  25.584692,    1.692829
  25.590357,    1.691599
  25.596056,    1.690354
  25.601713,    1.689105
  25.607390,    1.687843
  25.613095,    1.686566
  25.618807,    1.685275
  25.624489,    1.683980
  25.630209,    1.682669
  25.635945,    1.681343
  25.641683,    1.680006
  25.647403,    1.678661
  25.653147,    1.677302
  25.658890,    1.675933
  25.664650,    1.674549
  25.670404,    1.673156
  25.676158,    1.671752
  25.681911,    1.670339
  25.687686,    1.668910
  25.693428,    1.667478
  25.699216,    1.666026
  25.705013,    1.664560
  25.710802,    1.663086
  25.716580,    1.661603
  25.722392,    1.660103
  25.728184,    1.658596
  25.734021,    1.657069
  25.739850,    1.655532
  25.745687,    1.653982
  25.751512,    1.652425
  25.757332,    1.650858
  25.763169,    1.649278
  25.768996,    1.647688
  25.774843,    1.646084
  25.780702,    1.644465
  25.786576,    1.642832
  25.792412,    1.641197
  25.798282,    1.639545
  25.804182,    1.637873
  25.810083,    1.636190
  25.815969,    1.634499
  25.821837,    1.632803
  25.827767,    1.631081
  25.833686,    1.629585
  25.839593,    1.628089
  25.845502,    1.626590
  25.851435,    1.625081
  25.857374,    1.623568
  25.863325,    1.622049
  25.869280,    1.620526
  25.875253,    1.618996
  25.881218,    1.617465
  25.887154,    1.615938
  25.893134,    1.614397
  25.899104,    1.612856
  25.905093,    1.611307
  25.911090,    1.609752
  25.917082,    1.608197
  25.923051,    1.606644
  25.929049,    1.605081
  25.935058,    1.603512
  25.941074,    1.601938
  25.947079,    1.600364
  25.953137,    1.598773
  25.959165,    1.597188
  25.965197,    1.595598
  25.971208,    1.594011
  25.977254,    1.592411
  25.983308,    1.590807
  25.989378,    1.589195
  25.995416,    1.587589
  26.001500,    1.585968
  26.007583,    1.584344
  26.013681,    1.582713
  26.019776,    1.581081
  26.025856,    1.579449
  26.031970,    1.577804
  26.038051,    1.576166
  26.044193,    1.574509
  26.050354,    1.572843
  26.056489,    1.571182
  26.062644,    1.569511
  26.068776,    1.567845
  26.074955,    1.566162
  26.081109,    1.564483
  26.087303,    1.562791
  26.093490,    1.561097
  26.099691,    1.559397
  26.105860,    1.557702
  26.112088,    1.555988
  26.118278,    1.554282
  26.124504,    1.552562
  26.130734,    1.550838
  26.136972,    1.549110
  26.143210,    1.547378
  26.149467,    1.545638
  26.155732,    1.543892
  26.162025,    1.542136
  26.168303,    1.540381
  26.174572,    1.538626
  26.180856,    1.536863
  26.187159,    1.535092
  26.193450,    1.533321
  26.199776,    1.531537
  26.206113,    1.529748
  26.212453,    1.527954
  26.218802,    1.526154
  26.225175,    1.524345
  26.231539,    1.522535
  26.237881,    1.520729
  26.244267,    1.518907
  26.250651,    1.517082
  26.257039,    1.515253
  26.263453,    1.513414
  26.269874,    1.511569
  26.276285,    1.509725
  26.282680,    1.507881
  26.289119,    1.506022
  26.295575,    1.504156
  26.302029,    1.502286
  26.308474,    1.500416
  26.314921,    1.498543
  26.321397,    1.496657
  26.327767,    1.494800
  26.327858,    1.494774
  26.334369,    1.492872
  26.340901,    1.490961
  26.347423,    1.489050
  26.353981,    1.487126
  26.360528,    1.485201
  26.367080,    1.483272
  26.373671,    1.481328
  26.380263,    1.479381
  26.386826,    1.477439
  26.393392,    1.475493
  26.399978,    1.473538
  26.406612,    1.471565
  26.413233,    1.469594
  26.419885,    1.467610
  26.426533,    1.465624
  26.433211,    1.463625
  26.439888,    1.461624
  26.446596,    1.459611
  26.453292,    1.457598
  26.459988,    1.455581
  26.466728,    1.453548
  26.473475,    1.451510
  26.480169,    1.449485
  26.486913,    1.447441
  26.493674,    1.445389
  26.500432,    1.443334
  26.507183,    1.441278
  26.513984,    1.439205
  26.520791,    1.437126
  26.527612,    1.435039
  26.534448,    1.432944
  26.541311,    1.430839
  26.548167,    1.428732
  26.555004,    1.426627
  26.561879,    1.424507
  26.568771,    1.422379
  26.575667,    1.420247
  26.582590,    1.418103
  26.589497,    1.415960
  26.596432,    1.413806
  26.603376,    1.411645
  26.610372,    1.409465
  26.617290,    1.407306
  26.624235,    1.405135
  26.631222,    1.402948
  26.638205,    1.400759
  26.645228,    1.398554
  26.652287,    1.396334
  26.659334,    1.394115
  26.666411,    1.391883
  26.673475,    1.389651
  26.680535,    1.387418
  26.687593,    1.385182
  26.694705,    1.382925
  26.701849,    1.380655
  26.708996,    1.378381
  26.716126,    1.376108
  26.723310,    1.373815
  26.730466,    1.371528
  26.737637,    1.369232
  26.744829,    1.366927
  26.752065,    1.364603
  26.759286,    1.362281
  26.766492,    1.359961
  26.773728,    1.357627
  26.780989,    1.355282
  26.788264,    1.352929
  26.795520,    1.350579
  26.802769,    1.348228
  26.810065,    1.345858
  26.817348,    1.343489
  26.824711,    1.341090
  26.832090,    1.338683
  26.839462,    1.336274
  26.846816,    1.333868
  26.854165,    1.331461
  26.861559,    1.329034
  26.868947,    1.326607
  26.876394,    1.324157
  26.883833,    1.321705
  26.891265,    1.319253
  26.898733,    1.316785
  26.906286,    1.314286
  26.913793,    1.311798
  26.921312,    1.309303
  26.928875,    1.306790
  26.936408,    1.304283
  26.943918,    1.301781
  26.951532,    1.299240
  26.959104,    1.296709
  26.966747,    1.294152
  26.974263,    1.291633
  26.981895,    1.289072
  26.989551,    1.286499
  26.997161,    1.283939
  27.004805,    1.281363
  27.012494,    1.278769
  27.020162,    1.276178
  27.027855,    1.273575
  27.035613,    1.270947
  27.043374,    1.268314
  27.051137,    1.265677
  27.058941,    1.263022
  27.066719,    1.260373
  27.074528,    1.257709
  27.082292,    1.255057
  27.090155,    1.252368
  27.097982,    1.249688
  27.105875,    1.246981
  27.113728,    1.244285
  27.121559,    1.241592
  27.129395,    1.238894
  27.137266,    1.236181
  27.145182,    1.233448
  27.153131,    1.230700
  27.161055,    1.227958
  27.169056,    1.225185
  27.177034,    1.222417
  27.185046,    1.219633
  27.193053,    1.216847
  27.201100,    1.214044
  27.209156,    1.211234
  27.217229,    1.208414
  27.225310,    1.205588
  27.233426,    1.202746
  27.241502,    1.199914
  27.249606,    1.197069
  27.257747,    1.194207
  27.265977,    1.191310
  27.274168,    1.188424
  27.282369,    1.185530
  27.290579,    1.182629
  27.298823,    1.179713
  27.307032,    1.176805
  27.315346,    1.173856
  27.323606,    1.170923
  27.331918,    1.167968
  27.340293,    1.164986
  27.348626,    1.162016
  27.357005,    1.159026
  27.365342,    1.156047
  27.373705,    1.153055
  27.382015,    1.150078
  27.390384,    1.147077
  27.398762,    1.144068
  27.407185,    1.141040
  27.415615,    1.138006
  27.424016,    1.134978
  27.432479,    1.131924
  27.440962,    1.128860
  27.449506,    1.125769
  27.457996,    1.122695
  27.466583,    1.119581
  27.475159,    1.116468
  27.483686,    1.113369
  27.492281,    1.110242
  27.500882,    1.107109
  27.509443,    1.103986
  27.518134,    1.100813
  27.526751,    1.097663
  27.535390,    1.094501
  27.544106,    1.091306
  27.552861,    1.088095
  27.561534,    1.084909
  27.570227,    1.081712
  27.578967,    1.078495
  27.587726,    1.075267
  27.596475,    1.072038
  27.605304,    1.068777
  27.614083,    1.065530
  27.622942,    1.062250
  27.631828,    1.058956
  27.640691,    1.055668
  27.649561,    1.052372
  27.658460,    1.049063
  27.667375,    1.045743
  27.676281,    1.042424
  27.685183,    1.039102
  27.694058,    1.035786
  27.703106,    1.032402
  27.712006,    1.029070
  27.720982,    1.025706
  27.729967,    1.022335
  27.738989,    1.018946
  27.748007,    1.015555
  27.757026,    1.012160
  27.766099,    1.008741
  27.775108,    1.005342
  27.784238,    1.001894
  27.793279,    0.998477
  27.802397,    0.995026
  27.811533,    0.991565
  27.820773,    0.988061
  27.829979,    0.984566
  27.839076,    0.981109
  27.848297,    0.977601
  27.857581,    0.974066
  27.866782,    0.970558
  27.876010,    0.967037
  27.885237,    0.963512
  27.894489,    0.959974
  27.903789,    0.956414
  27.913040,    0.952870
  27.922298,    0.949319
  27.931609,    0.945745
  27.941014,    0.942130
  27.950334,    0.938545
  27.959652,    0.934957
  27.969049,    0.931335
  27.978502,    0.927688
  27.987899,    0.924059
  27.997353,    0.920405
  28.006858,    0.916726
  28.016398,    0.913032
  28.025783,    0.909393
  28.035147,    0.905759
  28.044692,    0.902052
  28.054202,    0.898355
  28.063782,    0.894626
  28.073316,    0.890912
  28.082861,    0.887191
  28.092435,    0.883455
  28.102030,    0.879707
  28.111607,    0.875963
  28.121171,    0.872220
  28.130775,    0.868459
  28.140460,    0.864662
  28.150114,    0.860874
  28.159653,    0.857127
  28.169321,    0.853327
  28.178998,    0.849520
  28.188755,    0.845678
  28.198515,    0.841831
  28.208190,    0.838014
  28.217870,    0.834193
  28.227662,    0.830323
  28.237427,    0.826461
  28.247196,    0.822594
  28.256949,    0.818731
  28.266832,    0.814812
  28.276630,    0.810924
  28.286400,    0.807044
  28.296296,    0.803110
  28.306233,    0.799157
  28.316148,    0.795209
  28.325989,    0.791288
  28.335830,    0.787363
  28.345829,    0.783372
  28.355872,    0.779361
  28.365812,    0.775387
  28.375766,    0.771404
  28.385673,    0.767437
  28.395664,    0.763434
  28.405636,    0.759435
  28.415606,    0.755434
  28.425641,    0.751403
  28.435560,    0.747417
  28.445514,    0.743412
  28.455515,    0.739386
  28.465576,    0.735333
  28.475675,    0.731262
  28.485890,    0.727141
  28.495868,    0.723112
  28.505949,    0.719039
  28.516015,    0.714969
  28.526190,    0.710852
  28.536302,    0.706757
  28.546464,    0.702640
  28.556620,    0.698521
  28.566656,    0.694449
  28.576828,    0.690319
  28.586889,    0.686231
  28.597156,    0.682056
  28.607326,    0.677919
  28.617582,    0.673743
  28.627867,    0.669552
  28.638114,    0.665375
  28.648348,    0.661200
  28.658595,    0.657016
  28.668873,    0.652818
  28.679147,    0.648618
  28.689457,    0.644401
  28.699680,    0.640217
  28.709853,    0.636051
  28.720171,    0.631823
  28.730486,    0.627593
  28.740858,    0.623338
  28.751122,    0.619124
  28.761396,    0.614904
  28.771603,    0.610709
  28.781999,    0.606433
  28.792349,    0.602174
  28.802771,    0.597883
  28.813187,    0.593592
  28.823609,    0.589296
  28.834001,    0.585010
  28.844370,    0.580731
  28.854808,    0.576421
  28.865232,    0.572115
  28.875661,    0.567804
  28.886127,    0.563475
  28.896567,    0.559155
  28.907048,    0.554816
  28.917493,    0.550490
  28.927902,    0.546175
  28.938380,    0.541831
  28.948891,    0.537470
  28.959324,    0.533140
  28.969865,    0.528763
  28.980358,    0.524404
  28.990886,    0.520027
  29.001429,    0.515643
  29.005448,    0.513971
