Time, Emissions
   0.000000,    0.041561
   0.001667,   41.563891
   0.003333,   83.148968
   0.005000,  124.736655
   0.006667,  166.324341
   0.008333,  207.912028
   0.010000,  249.499714
   0.011667,  291.087401
   0.013333,  332.675087
   0.015000,  374.262774
   0.016667,  415.850461
   0.018333,  457.438147
   0.020000,  499.057033
   0.021667,  540.679815
   0.023333,  582.302596
   0.025000,  623.925377
   0.026667,  665.548159
   0.028333,  707.170940
   0.030000,  748.793722
   0.031667,  790.416503
   0.033333,  832.039285
   0.035000,  873.662066
   0.036667,  915.306591
   0.038333,  956.953831
   0.040000,  998.601070
   0.041667, 1040.248310
   0.043333, 1081.895550
   0.045000, 1123.542789
   0.046667, 1165.190029
   0.048333, 1206.837268
   0.050000, 1248.484508
   0.051667, 1290.131748
   0.053333, 1331.791609
   0.055000, 1373.453047
   0.056667, 1415.114485
   0.058333, 1456.775922
   0.060000, 1498.437360
   0.061667, 1540.098798
   0.063333, 1581.760235
   0.065000, 1623.421673
   0.066667, 1665.083111
   0.068333, 1706.744548
   0.070000, 1748.409830
   0.071667, 1790.075592
   0.073333, 1831.741353
   0.075000, 1873.407115
   0.076667, 1915.072876
   0.078333, 1956.738638
   0.080000, 1998.404400
   0.081667, 2040.070161
   0.083333, 2081.735923
   0.085000, 2123.401684
   0.086667, 2165.083102
   0.088333, 2206.766475
   0.090000, 2248.449847
   0.091667, 2290.133220
   0.093333, 2331.816593
   0.095000, 2373.499965
   0.096667, 2415.183338
   0.098333, 2456.866710
   0.100000, 2498.550083
   0.101667, 2540.233456
   0.103333, 2581.960623
   0.105000, 2623.693258
   0.106667, 2665.425894
   0.108333, 2707.158529
   0.110000, 2748.891165
   0.111667, 2790.623800
   0.113333, 2832.356436
   0.115000, 2874.089071
   0.116667, 2915.821707
   0.118333, 2957.554342
   0.120000, 2999.312346
   0.121667, 3041.073517
   0.123333, 3082.834688
   0.125000, 3124.595860
   0.126667, 3166.357031
   0.128333, 3208.118202
   0.130000, 3249.879373
   0.131667, 3291.640545
   0.133333, 3333.401716
   0.135000, 3375.162887
   0.136667, 3416.930983
   0.138333, 3458.699944
   0.140000, 3500.468904
   0.141667, 3542.237864
   0.143333, 3584.006825
   0.145000, 3625.775785
   0.146667, 3667.544746
   0.148333, 3709.313706
   0.150000, 3751.082667
   0.151667, 3792.851627
   0.153333, 3834.610187
   0.155000, 3876.367447
   0.156667, 3918.124708
   0.158333, 3959.881969
   0.160000, 4001.639230
   0.161667, 4043.396491
   0.163333, 4085.153751
   0.165000, 4126.911012
   0.166667, 4168.668273
   0.168333, 4210.425534
   0.170000, 4252.156164
   0.171667, 4293.883469
   0.173333, 4335.610774
   0.175000, 4377.338079
   0.176667, 4419.065384
   0.178333, 4460.792688
   0.180000, 4502.519993
   0.181667, 4544.247298
   0.183333, 4585.974603
   0.185000, 4627.701908
   0.186667, 4669.458761
   0.188333, 4711.219304
   0.190000, 4752.979846
   0.191667, 4794.740389
   0.193333, 4836.500931
   0.195000, 4878.261474
   0.196667, 4920.022016
   0.198333, 4961.782559
   0.200000, 5003.543102
   0.201667, 5045.303644
   0.203333, 5087.146542
   0.205000, 5128.999722
   0.206667, 5170.852902
   0.208333, 5212.706083
   0.210000, 5254.559263
   0.211667, 5296.412443
   0.213333, 5338.265624
   0.215000, 5380.118804
   0.216667, 5421.971984
   0.218333, 5463.825165
   0.220000, 5505.723500
   0.221667, 5547.627472
   0.223333, 5589.531445
   0.225000, 5631.435418
   0.226667, 5673.339391
   0.228333, 5715.243364
   0.230000, 5757.147337
   0.231667, 5799.051309
   0.233333, 5840.955282
   0.235000, 5882.859255
   0.236667, 5924.773750
   0.238333, 5966.689558
   0.240000, 6008.605367
   0.241667, 6050.521175
   0.243333, 6092.436983
   0.245000, 6134.352792
   0.246667, 6176.268600
   0.248333, 6218.184409
   0.250000, 6260.100217
   0.251667, 6302.016026
   0.253333, 6343.910756
   0.255000, 6385.802854
   0.256667, 6427.694952
   0.258333, 6469.587050
   0.260000, 6511.479149
   0.261667, 6553.371247
   0.263333, 6595.263345
   0.265000, 6637.155443
   0.266667, 6679.047542
   0.268333, 6720.939640
   0.270000, 6762.781929
   0.271667, 6804.617999
   0.273333, 6846.454069
   0.275000, 6888.290139
   0.276667, 6930.126209
   0.278333, 6971.962279
   0.280000, 7013.798349
   0.281667, 7055.634419
   0.283333, 7097.470489
   0.285000, 7139.306559
   0.286667, 7181.067785
   0.288333, 7222.819667
   0.290000, 7264.571548
   0.291667, 7306.323430
   0.293333, 7348.075311
   0.295000, 7389.827193
   0.296667, 7431.579074
   0.298333, 7473.330955
   0.300000, 7515.082837
   0.301667, 7556.834718
   0.303333, 7598.579111
   0.305000, 7640.322568
   0.306667, 7682.066025
   0.308333, 7723.809482
   0.310000, 7765.552939
   0.311667, 7807.296396
   0.312642, 7831.723763
   0.314309, 7873.512862
   0.315975, 7915.301961
   0.317642, 7957.091060
   0.319309, 7998.901407
   0.320975, 8040.735316
   0.322642, 8082.569225
   0.324309, 8124.403134
   0.325975, 8166.237044
   0.327642, 8208.070953
   0.329309, 8249.904862
   0.330975, 8291.738771
   0.332642, 8333.572680
   0.334309, 8375.406590
   0.335975, 8417.259211
   0.337642, 8459.132583
   0.339309, 8501.005955
   0.340975, 8542.879327
   0.342642, 8584.752699
   0.344309, 8626.626071
   0.345975, 8668.499443
   0.347642, 8710.372815
   0.349309, 8752.246187
   0.350975, 8794.119559
   0.352642, 8835.997475
   0.354309, 8877.880430
   0.355975, 8919.763384
   0.357642, 8961.646339
   0.359309, 9003.529293
   0.360975, 9045.412248
   0.362642, 9087.295202
   0.364309, 9129.178157
   0.365975, 9171.061111
   0.367642, 9212.944065
   0.368518, 9234.967030
   0.370185, 9276.838025
   0.371852, 9318.709020
   0.373518, 9360.580015
   0.375185, 9402.451010
   0.376852, 9444.322005
   0.378518, 9486.193000
   0.380185, 9528.063996
   0.381852, 9569.934991
   0.383518, 9611.805986
   0.385185, 9653.676981
   0.386852, 9695.535753
   0.388518, 9737.394524
   0.390185, 9779.253296
   0.391852, 9821.112068
   0.393518, 9862.970840
   0.395185, 9904.822463
   0.396852, 9946.674086
   0.398518, 9988.525710
   0.400185, 10030.377333
   0.401852, 10072.228956
   0.403518, 10114.074762
   0.405185, 10155.920568
   0.406852, 10197.766374
   0.408518, 10239.612180
   0.410185, 10281.457986
   0.410185, 10281.457986
   1.605400, 35815.078308
   2.825139, 61487.519899
   4.084250, 87427.954806
   5.433948, 114199.010638
   6.920962, 142317.725430
   8.567151, 172113.499495
  10.405942, 204057.398400
  12.496124, 238852.915751
  14.982109, 278227.025717
  14.982109, 278227.025717
  15.801212, 291655.925259
  16.620315, 305082.643063
  17.439418, 318507.179120
  18.258522, 331929.533420
  19.077625, 345349.705957
  19.896728, 358767.696722
  20.715832, 372183.505708
  21.534935, 385597.132908
  22.354038, 399008.578313
  23.173141, 412417.841917
  23.992245, 425824.923713
  24.811348, 439229.823694
  25.630451, 452632.541854
  26.449554, 466033.078185
  27.268658, 479431.432683
  28.087761, 492827.605340
  28.906864, 506221.596151
  29.725967, 519613.405110
  30.545071, 533003.032212
  31.364174, 546390.477451
  32.183277, 559775.740822
  33.002380, 573158.822320
  33.821484, 586539.721941
  34.640587, 599918.439679
  35.459690, 613294.975530
  36.278793, 626669.329490
  37.097897, 640041.501554
  37.917000, 653411.491720
  38.736103, 666779.299982
  38.736103, 666779.299982
  39.896032, 677915.529834
  41.058764, 688887.346379
  42.220084, 699765.012593
  43.376236, 710417.598889
  44.524976, 720853.737378
  45.661995, 731076.822640
  46.783206, 740928.560401
  47.900611, 750567.783081
  49.010509, 760060.352028
  49.010509, 760060.352028
  49.589924, 772344.315101
  50.174964, 784653.361472
  50.765469, 796979.928818
  51.364214, 809350.344863
  51.981985, 821883.896308
  52.628108, 834679.593113
  53.305596, 847766.731143
  54.016769, 861178.357546
  54.763442, 874947.701587
  54.763442, 874947.701587
  56.615618, 896888.560896
  58.468603, 918820.969254
  60.322397, 940744.912204
  62.177002, 962660.375324
  64.032418, 984567.344222
  65.888646, 1006465.804542
  67.745686, 1028355.741956
  69.603540, 1050237.142174
  71.462208, 1072109.990934
  71.462208, 1072109.990934
  72.108615, 1078746.819951
  72.744854, 1085301.226111
  73.383630, 1091167.946335
  74.025084, 1097048.900582
  74.669359, 1102926.663095
  75.316244, 1108808.141892
  75.965602, 1114714.633133
  76.616971, 1120641.838966
  77.269434, 1126576.335549
  77.269434, 1126576.335549
  82.269434, 1183365.207957
  87.269434, 1240043.150035
  92.269434, 1296610.280329
  97.269434, 1353067.771797
 102.269434, 1409418.538150
 107.269434, 1465662.690764
 112.269434, 1521800.341316
 117.269434, 1577831.601782
 122.269434, 1633756.584437
 122.269434, 1633756.584437
 122.271101, 1633774.160705
 122.272767, 1633791.737109
 122.274434, 1633809.313513
 122.276101, 1633826.891524
 122.277767, 1633844.469848
 122.279434, 1633862.048172
 122.281101, 1633879.626495
 122.282767, 1633897.204819
 122.284434, 1633914.783143
 122.286101, 1633932.361467
 122.287767, 1633949.939791
 122.289434, 1633967.518114
 122.291101, 1633985.096438
 122.292767, 1634002.677244
 122.294434, 1634020.258533
 122.296101, 1634037.839822
 122.297767, 1634055.421111
 122.299434, 1634073.002400
 122.301101, 1634090.583690
 122.302767, 1634108.164979
 122.304434, 1634125.746268
 122.306101, 1634143.327557
 122.307767, 1634160.908846
 122.309434, 1634178.492610
 122.311101, 1634196.076857
 122.312767, 1634213.661104
 122.314434, 1634231.245350
 122.316101, 1634248.829597
 122.317767, 1634266.413844
 122.319434, 1634283.998090
 122.321101, 1634301.582337
 122.322767, 1634319.166584
 122.324434, 1634336.750830
 122.326101, 1634354.337533
 122.327767, 1634371.924714
 122.329434, 1634389.511896
 122.331101, 1634407.099077
 122.332767, 1634424.686259
 122.334434, 1634442.273440
 122.336101, 1634459.860622
 122.337767, 1634477.447803
 122.339434, 1634495.034984
 122.341101, 1634512.622166
 122.342767, 1634530.211792
 122.344434, 1634547.801894
 122.346101, 1634565.391997
 122.347767, 1634582.982099
 122.349434, 1634600.572201
 122.351101, 1634618.162304
 122.352767, 1634635.752406
 122.354434, 1634653.342509
 122.356101, 1634670.932611
 122.357767, 1634688.522714
 122.359434, 1634706.115271
 122.361101, 1634723.708307
 122.362767, 1634741.301343
 122.364434, 1634758.894380
 122.366101, 1634776.487416
 122.367767, 1634794.080452
 122.369434, 1634811.673488
 122.371101, 1634829.266524
 122.372767, 1634846.859560
 122.374434, 1634864.452596
 122.376101, 1634882.048074
 122.377767, 1634899.644029
 122.379434, 1634917.239983
 122.381101, 1634934.835937
 122.382767, 1634952.431891
 122.384434, 1634970.027845
 122.386101, 1634987.623799
 122.387767, 1635005.219753
 122.389434, 1635022.815707
 122.391101, 1635040.411662
 122.392767, 1635058.010068
 122.394434, 1635075.608952
 122.396101, 1635093.207836
 122.397767, 1635110.806720
 122.399434, 1635128.405604
 122.401101, 1635146.004488
 122.402767, 1635163.603372
 122.404434, 1635181.202256
 122.406101, 1635198.801140
 122.407767, 1635216.400024
 122.409434, 1635234.001357
 122.411101, 1635251.603168
 122.412767, 1635269.204978
 122.414434, 1635286.806789
 122.416101, 1635304.408599
 122.417767, 1635322.010409
 122.419434, 1635339.612220
 122.421101, 1635357.214030
 122.422767, 1635374.815840
 122.424434, 1635392.417651
 122.426101, 1635410.021899
 122.427767, 1635427.626622
 122.429434, 1635445.231346
 122.431101, 1635462.836069
 122.432767, 1635480.440792
 122.434434, 1635498.045516
 122.436101, 1635515.650239
 122.437767, 1635533.254963
 122.439434, 1635550.859686
 122.441101, 1635568.464409
 122.442767, 1635586.071552
 122.444434, 1635603.679166
 122.446101, 1635621.286781
 122.447767, 1635638.894395
 122.449434, 1635656.502009
 122.451101, 1635674.109623
 122.452767, 1635691.717238
 122.454434, 1635709.324852
 122.456101, 1635726.932466
 122.457767, 1635744.540081
 122.459434, 1635762.150089
 122.461101, 1635779.760564
 122.462767, 1635797.371039
 122.464434, 1635814.981514
 122.466101, 1635832.591989
 122.467767, 1635850.202464
 122.469434, 1635867.812938
 122.471101, 1635885.423413
 122.472767, 1635903.033888
 122.474434, 1635920.644363
 122.476101, 1635938.257221
 122.477767, 1635955.870544
 122.479434, 1635973.483867
 122.481101, 1635991.097190
 122.482767, 1636008.710513
 122.484434, 1636026.323836
 122.486101, 1636043.937159
 122.487767, 1636061.550481
 122.489434, 1636079.163804
 122.491101, 1636096.777127
 122.492767, 1636114.392841
 122.494434, 1636132.009021
 122.496101, 1636149.625202
 122.497767, 1636167.241382
 122.499434, 1636184.857562
 122.501101, 1636202.473742
 122.502767, 1636220.089922
 122.504434, 1636237.706103
 122.506101, 1636255.322283
 122.507767, 1636272.938463
 122.509434, 1636290.557032
 122.511101, 1636308.176067
 122.512767, 1636325.795101
 122.514434, 1636343.414136
 122.516101, 1636361.033171
 122.517767, 1636378.652205
 122.519434, 1636396.271240
 122.521101, 1636413.890274
 122.522767, 1636431.509309
 122.524434, 1636449.128344
 122.526101, 1636466.749752
 122.527767, 1636484.371622
 122.529434, 1636501.993493
 122.531101, 1636519.615364
 122.532767, 1636537.237234
 122.534434, 1636554.859105
 122.536101, 1636572.480976
 122.537767, 1636590.102846
 122.539434, 1636607.724717
 122.541101, 1636625.346588
 122.542767, 1636642.970842
 122.544434, 1636660.595561
 122.546101, 1636678.220281
 122.547767, 1636695.845000
 122.549434, 1636713.469719
 122.551101, 1636731.094439
 122.552767, 1636748.719158
 122.554434, 1636766.343877
 122.556101, 1636783.968596
 122.557767, 1636801.593316
 122.559434, 1636819.220419
 122.561101, 1636836.847987
 122.562767, 1636854.475554
 122.564434, 1636872.103122
 122.566101, 1636889.730690
 122.567767, 1636907.358258
 122.569434, 1636924.985826
 122.571101, 1636942.613393
 122.572767, 1636960.240961
 122.574434, 1636977.868529
 122.576101, 1636995.498467
 122.577767, 1637013.128868
 122.579434, 1637030.759268
 122.581101, 1637048.389668
 122.582767, 1637066.020069
 122.584434, 1637083.650469
 122.586101, 1637101.280870
 122.587767, 1637118.911270
 122.589434, 1637136.541670
 122.591101, 1637154.172071
 122.592767, 1637171.804854
 122.594434, 1637189.438101
 122.596101, 1637207.071348
 122.597767, 1637224.704596
 122.599434, 1637242.337843
 122.601101, 1637259.971090
 122.602767, 1637277.604338
 122.604434, 1637295.237585
 122.606101, 1637312.870832
 122.607767, 1637330.504080
 122.609434, 1637348.139710
 122.611101, 1637365.775806
 122.612767, 1637383.411901
 122.614434, 1637401.047997
 122.616101, 1637418.684092
 122.617767, 1637436.320187
 122.619434, 1637453.956283
 122.621101, 1637471.592378
 122.622767, 1637489.228473
 122.624434, 1637506.864569
 122.626101, 1637524.503035
 122.627767, 1637542.141962
 122.629434, 1637559.780890
 122.631101, 1637577.419818
 122.632767, 1637595.058746
 122.634434, 1637612.697674
 122.636101, 1637630.336602
 122.637767, 1637647.975530
 122.639434, 1637665.614458
 122.641101, 1637683.253386
 122.642767, 1637700.894696
 122.644434, 1637718.536471
 122.646101, 1637736.178245
 122.647767, 1637753.820020
 122.649434, 1637771.461795
 122.651101, 1637789.103569
 122.652767, 1637806.745344
 122.654434, 1637824.387119
 122.656101, 1637842.028893
 122.657767, 1637859.670668
 122.659434, 1637877.314825
 122.661101, 1637894.959447
 122.662767, 1637912.604068
 122.664434, 1637930.248690
 122.666101, 1637947.893312
 122.667767, 1637965.537933
 122.669434, 1637983.182555
 122.671101, 1638000.827176
 122.672767, 1638018.471798
 122.674434, 1638036.116420
 122.676101, 1638053.763410
 122.677767, 1638071.410861
 122.679434, 1638089.058313
 122.681101, 1638106.705764
 122.682767, 1638124.353216
 122.684434, 1638142.000667
 122.686101, 1638159.648119
 122.687767, 1638177.295570
 122.689434, 1638194.943022
 122.691101, 1638212.590473
 122.692767, 1638230.240304
 122.694434, 1638247.890597
 122.696101, 1638265.540891
 122.697767, 1638283.191185
 122.699434, 1638300.841479
 122.701101, 1638318.491773
 122.702767, 1638336.142067
 122.704434, 1638353.792361
 122.706101, 1638371.442655
 122.707767, 1638389.092948
 122.709434, 1638406.745619
 122.711101, 1638424.398754
 122.712767, 1638442.051888
 122.714434, 1638459.705022
 122.716101, 1638477.358156
 122.717767, 1638495.011290
 122.719434, 1638512.664424
 122.721101, 1638530.317559
 122.722767, 1638547.970693
 122.724434, 1638565.623827
 122.726101, 1638583.279322
 122.727767, 1638600.935277
 122.729434, 1638618.591232
 122.731101, 1638636.247187
 122.732767, 1638653.903142
 122.734434, 1638671.559097
 122.736101, 1638689.215052
 122.737767, 1638706.871007
 122.739434, 1638724.526963
 122.741101, 1638742.182918
 122.742767, 1638759.841242
 122.744434, 1638777.500028
 122.746101, 1638795.158814
 122.747767, 1638812.817600
 122.749434, 1638830.476386
 122.751101, 1638848.135172
 122.752767, 1638865.793958
 122.754434, 1638883.452744
 122.756101, 1638901.111530
 122.757767, 1638918.770316
 122.759434, 1638936.431468
 122.761101, 1638954.093080
 122.762767, 1638971.754693
 122.764434, 1638989.416306
 122.766101, 1639007.077918
 122.767767, 1639024.739531
 122.769434, 1639042.401144
 122.771101, 1639060.062756
 122.772767, 1639077.724369
 122.774434, 1639095.385981
 122.776101, 1639113.049952
 122.777767, 1639130.714383
 122.779434, 1639148.378814
 122.781101, 1639166.043244
 122.782767, 1639183.707675
 122.784434, 1639201.372105
 122.786101, 1639219.036536
 122.787767, 1639236.700967
 122.789434, 1639254.365397
 122.791101, 1639272.029828
 122.792767, 1639289.696667
 122.794434, 1639307.363975
 122.796101, 1639325.031283
 122.797767, 1639342.698591
 122.799434, 1639360.365899
 122.801101, 1639378.033207
 122.802767, 1639395.700515
 122.804434, 1639413.367823
 122.806101, 1639431.035131
 122.807767, 1639448.702439
 122.809434, 1639466.372132
 122.811101, 1639484.042292
 122.812767, 1639501.712451
 122.814434, 1639519.382610
 122.816101, 1639537.052769
 122.817767, 1639554.722928
 122.819434, 1639572.393087
 122.821101, 1639590.063246
 122.822767, 1639607.733405
 122.824434, 1639625.403564
 122.826101, 1639643.076090
 122.827767, 1639660.749077
 122.829434, 1639678.422065
 122.831101, 1639696.095053
 122.832767, 1639713.768040
 122.834434, 1639731.441028
 122.836101, 1639749.114015
 122.837767, 1639766.787003
 122.839434, 1639784.459991
 122.841101, 1639802.132978
 122.842767, 1639819.808321
 122.844434, 1639837.484123
 122.846101, 1639855.159924
 122.847767, 1639872.835726
 122.849434, 1639890.511528
 122.851101, 1639908.187330
 122.852767, 1639925.863132
 122.854434, 1639943.538933
 122.856101, 1639961.214735
 122.857767, 1639978.890537
 122.859434, 1639996.568701
 122.861101, 1640014.247326
 122.862767, 1640031.925951
 122.864434, 1640049.604576
 122.866101, 1640067.283201
 122.867767, 1640084.961826
 122.869434, 1640102.640451
 122.871101, 1640120.319076
 122.872767, 1640137.997701
 122.874434, 1640155.676326
 122.876101, 1640173.357308
 122.877767, 1640191.038750
 122.879434, 1640208.720192
 122.881101, 1640226.401633
 122.882767, 1640244.083075
 122.884434, 1640261.764517
 122.886101, 1640279.445959
 122.887767, 1640297.127400
 122.889434, 1640314.808842
 122.891101, 1640332.490284
 122.892767, 1640350.174070
 122.894434, 1640367.858312
 122.896101, 1640385.542555
 122.897767, 1640403.226798
 122.899434, 1640420.911041
 122.901101, 1640438.595284
 122.902767, 1640456.279527
 122.904434, 1640473.963769
 122.906101, 1640491.648012
 122.907767, 1640509.332255
 122.909434, 1640527.018822
 122.911101, 1640544.705843
 122.912767, 1640562.392863
 122.914434, 1640580.079883
 122.916101, 1640597.766903
 122.917767, 1640615.453924
 122.919434, 1640633.140944
 122.921101, 1640650.827964
 122.922767, 1640668.514984
 122.924434, 1640686.202004
 122.926101, 1640703.891323
 122.927767, 1640721.581089
 122.929434, 1640739.270855
 122.931101, 1640756.960622
 122.932767, 1640774.650388
 122.934434, 1640792.340154
 122.936101, 1640810.029921
 122.937767, 1640827.719687
 122.939434, 1640845.409453
 122.941101, 1640863.099220
 122.942767, 1640880.791274
 122.944434, 1640898.483773
 122.946101, 1640916.176273
 122.947767, 1640933.868773
 122.949434, 1640951.561273
 122.951101, 1640969.253773
 122.952767, 1640986.946272
 122.954434, 1641004.638772
 122.956101, 1641022.331272
 122.957767, 1641040.023772
 122.959434, 1641057.718568
 122.961101, 1641075.413812
 122.962767, 1641093.109056
 122.964434, 1641110.804301
 122.966101, 1641128.499545
 122.967767, 1641146.194789
 122.969434, 1641163.890033
 122.971101, 1641181.585277
 122.972767, 1641199.280521
 122.974434, 1641216.975765
 122.976101, 1641234.673305
 122.977767, 1641252.371292
 122.979434, 1641270.069279
 122.981101, 1641287.767266
 122.982767, 1641305.465253
 122.984434, 1641323.163240
 122.986101, 1641340.861227
 122.987767, 1641358.559214
 122.989434, 1641376.257201
 122.991101, 1641393.955188
 122.992767, 1641411.655457
 122.994434, 1641429.356170
 122.996101, 1641447.056884
 122.997767, 1641464.757597
 122.999434, 1641482.458311
 123.001101, 1641500.159025
 123.002767, 1641517.859738
 123.004434, 1641535.560452
 123.006101, 1641553.261165
 123.007767, 1641570.961879
 123.009434, 1641588.664887
 123.011101, 1641606.368343
 123.012767, 1641624.071799
 123.014434, 1641641.775254
 123.016101, 1641659.478710
 123.017767, 1641677.182166
 123.019434, 1641694.885621
 123.021101, 1641712.589077
 123.022767, 1641730.292532
 123.024434, 1641747.995988
 123.026101, 1641765.701741
 123.027767, 1641783.407941
 123.029434, 1641801.114141
 123.031101, 1641818.820342
 123.032767, 1641836.526542
 123.034434, 1641854.232743
 123.036101, 1641871.938943
 123.037767, 1641889.645143
 123.039434, 1641907.351344
 123.041101, 1641925.057544
 123.042767, 1641942.766016
 123.044434, 1641960.474931
 123.046101, 1641978.183846
 123.047767, 1641995.892761
 123.049434, 1642013.601676
 123.051101, 1642031.310591
 123.052767, 1642049.019505
 123.054434, 1642066.728420
 123.056101, 1642084.437335
 123.057767, 1642102.146250
 123.059434, 1642119.857411
 123.061101, 1642137.569010
 123.062767, 1642155.280609
 123.064434, 1642172.992207
 123.066101, 1642190.703806
 123.067767, 1642208.415405
 123.069434, 1642226.127004
 123.071101, 1642243.838603
 123.072767, 1642261.550202
 123.074434, 1642279.261800
 123.076101, 1642296.975637
 123.077767, 1642314.689910
 123.079434, 1642332.404183
 123.081101, 1642350.118456
 123.082767, 1642367.832730
 123.084434, 1642385.547003
 123.086101, 1642403.261276
 123.087767, 1642420.975549
 123.089434, 1642438.689822
 123.091101, 1642456.404095
 123.092767, 1642474.120619
 123.094434, 1642491.837582
 123.096101, 1642509.554545
 123.097767, 1642527.271507
 123.099434, 1642544.988470
 123.101101, 1642562.705433
 123.102767, 1642580.422396
 123.104434, 1642598.139359
 123.106101, 1642615.856322
 123.107767, 1642633.573284
 123.109434, 1642651.292502
 123.111101, 1642669.012159
 123.112767, 1642686.731817
 123.114434, 1642704.451474
 123.116101, 1642722.171131
 123.117767, 1642739.890788
 123.119434, 1642757.610446
 123.121101, 1642775.330103
 123.122767, 1642793.049760
 123.124434, 1642810.769417
 123.126101, 1642828.491320
 123.127767, 1642846.213661
 123.129434, 1642863.936001
 123.131101, 1642881.658342
 123.132767, 1642899.380682
 123.134434, 1642917.103023
 123.136101, 1642934.825364
 123.137767, 1642952.547704
 123.139434, 1642970.270045
 123.141101, 1642987.992385
 123.142767, 1643005.716999
 123.144434, 1643023.442057
 123.146101, 1643041.167114
 123.147767, 1643058.892172
 123.149434, 1643076.617229
 123.151101, 1643094.342287
 123.152767, 1643112.067344
 123.154434, 1643129.792401
 123.156101, 1643147.517459
 123.157767, 1643165.242516
 123.159434, 1643182.969823
 123.161101, 1643200.697567
 123.162767, 1643218.425312
 123.164434, 1643236.153056
 123.166101, 1643253.880801
 123.167767, 1643271.608546
 123.169434, 1643289.336290
 123.171101, 1643307.064035
 123.172767, 1643324.791780
 123.174434, 1643342.519524
 123.176101, 1643360.249528
 123.177767, 1643377.979972
 123.179434, 1643395.710416
 123.181101, 1643413.440861
 123.182767, 1643431.171305
 123.184434, 1643448.901749
 123.186101, 1643466.632193
 123.187767, 1643484.362638
 123.189434, 1643502.093082
 123.191101, 1643519.823526
 123.192767, 1643537.556230
 123.194434, 1643555.289373
 123.196101, 1643573.022517
 123.197767, 1643590.755661
 123.199434, 1643608.488805
 123.201101, 1643626.221949
 123.202767, 1643643.955093
 123.204434, 1643661.688237
 123.206101, 1643679.421380
 123.207767, 1643697.154524
 123.209434, 1643714.889914
 123.211101, 1643732.625742
 123.212767, 1643750.361570
 123.214434, 1643768.097398
 123.216101, 1643785.833226
 123.217767, 1643803.569054
 123.219434, 1643821.304882
 123.221101, 1643839.040710
 123.222767, 1643856.776538
 123.224434, 1643874.512366
 123.226101, 1643892.250454
 123.227767, 1643909.988982
 123.229434, 1643927.727511
 123.231101, 1643945.466039
 123.232767, 1643963.204567
 123.234434, 1643980.943096
 123.236101, 1643998.681624
 123.237767, 1644016.420153
 123.239434, 1644034.158681
 123.241101, 1644051.897209
 123.242767, 1644069.638000
 123.244434, 1644087.379232
 123.246101, 1644105.120464
 123.247767, 1644122.861696
 123.249434, 1644140.602928
 123.251101, 1644158.344159
 123.252767, 1644176.085391
 123.254434, 1644193.826623
 123.256101, 1644211.567855
 123.257767, 1644229.309087
 123.259434, 1644247.052555
 123.261101, 1644264.796460
 123.262767, 1644282.540365
 123.264434, 1644300.284269
 123.266101, 1644318.028174
 123.267767, 1644335.772079
 123.269434, 1644353.515983
 123.271101, 1644371.259888
 123.272767, 1644389.003793
 123.274434, 1644406.747698
 123.276101, 1644424.493813
 123.277767, 1644442.240359
 123.279434, 1644459.986906
 123.281101, 1644477.733452
 123.282767, 1644495.479998
 123.284434, 1644513.226545
 123.286101, 1644530.973091
 123.287767, 1644548.719637
 123.289434, 1644566.466184
 123.291101, 1644584.212730
 123.292767, 1644601.961478
 123.294434, 1644619.710656
 123.296101, 1644637.459833
 123.297767, 1644655.209011
 123.299434, 1644672.958188
 123.301101, 1644690.707366
 123.302767, 1644708.456543
 123.304434, 1644726.205721
 123.306101, 1644743.954898
 123.307767, 1644761.704076
 123.309434, 1644779.455468
 123.311101, 1644797.207291
 123.312767, 1644814.959115
 123.314434, 1644832.710938
 123.316101, 1644850.462761
 123.317767, 1644868.214585
 123.319434, 1644885.966408
 123.321101, 1644903.718232
 123.322767, 1644921.470055
 123.324434, 1644939.221879
 123.326101, 1644956.975919
 123.327767, 1644974.730392
 123.329434, 1644992.484865
 123.331101, 1645010.239338
 123.332767, 1645027.993811
 123.334434, 1645045.748284
 123.336101, 1645063.502757
 123.337767, 1645081.257230
 123.339434, 1645099.011703
 123.341101, 1645116.766176
 123.342767, 1645134.522856
 123.344434, 1645152.279966
 123.346101, 1645170.037076
 123.347767, 1645187.794186
 123.349434, 1645205.551296
 123.351101, 1645223.308406
 123.352767, 1645241.065516
 123.354434, 1645258.822625
 123.356101, 1645276.579735
 123.357767, 1645294.336845
 123.359434, 1645312.096190
 123.361101, 1645329.855969
 123.362767, 1645347.615749
 123.364434, 1645365.375529
 123.366101, 1645383.135309
 123.367767, 1645400.895088
 123.369434, 1645418.654868
 123.371101, 1645436.414648
 123.372767, 1645454.174427
 123.374434, 1645471.934207
 123.376101, 1645489.696195
 123.377767, 1645507.458613
 123.379434, 1645525.221031
 123.381101, 1645542.983449
 123.382767, 1645560.745867
 123.384434, 1645578.508286
 123.386101, 1645596.270704
 123.387767, 1645614.033122
 123.389434, 1645631.795540
 123.391101, 1645649.557958
 123.392767, 1645667.322593
 123.394434, 1645685.087661
 123.396101, 1645702.852728
 123.397767, 1645720.617796
 123.399434, 1645738.382863
 123.401101, 1645756.147931
 123.402767, 1645773.912998
 123.404434, 1645791.678066
 123.406101, 1645809.443133
 123.407767, 1645827.208201
 123.409434, 1645844.975485
 123.411101, 1645862.743200
 123.412767, 1645880.510916
 123.414434, 1645898.278632
 123.416101, 1645916.046348
 123.417767, 1645933.814063
 123.419434, 1645951.581779
 123.421101, 1645969.349495
 123.422767, 1645987.117211
 123.424434, 1646004.884927
 123.426101, 1646022.654845
 123.427767, 1646040.425193
 123.429434, 1646058.195540
 123.431101, 1646075.965888
 123.432767, 1646093.736236
 123.434434, 1646111.506584
 123.436101, 1646129.276931
 123.437767, 1646147.047279
 123.439434, 1646164.817627
 123.441101, 1646182.587974
 123.442767, 1646200.360538
 123.444434, 1646218.133533
 123.446101, 1646235.906528
 123.447767, 1646253.679523
 123.449434, 1646271.452519
 123.451101, 1646289.225514
 123.452767, 1646306.998509
 123.454434, 1646324.771504
 123.456101, 1646342.544499
 123.457767, 1646360.317495
 123.459434, 1646378.092708
 123.461101, 1646395.868354
 123.462767, 1646413.644000
 123.464434, 1646431.419646
 123.466101, 1646449.195292
 123.467767, 1646466.970937
 123.469434, 1646484.746583
 123.471101, 1646502.522229
 123.472767, 1646520.297875
 123.474434, 1646538.073521
 123.476101, 1646555.851360
 123.477767, 1646573.629626
 123.479434, 1646591.407893
 123.481101, 1646609.186159
 123.482767, 1646626.964426
 123.484434, 1646644.742692
 123.486101, 1646662.520959
 123.487767, 1646680.299225
 123.489434, 1646698.077492
 123.491101, 1646715.855758
 123.492767, 1646733.636192
 123.494434, 1646751.417048
 123.496101, 1646769.197904
 123.497767, 1646786.978761
 123.499434, 1646804.759617
 123.501101, 1646822.540473
 123.502767, 1646840.321329
 123.504434, 1646858.102185
 123.506101, 1646875.883041
 123.507767, 1646893.663897
 123.509434, 1646911.446912
 123.511101, 1646929.230348
 123.512767, 1646947.013785
 123.514434, 1646964.797221
 123.516101, 1646982.580657
 123.517767, 1647000.364093
 123.519434, 1647018.147529
 123.521101, 1647035.930965
 123.522767, 1647053.714401
 123.524434, 1647071.497837
 123.526101, 1647089.283445
 123.527767, 1647107.069477
 123.529434, 1647124.855508
 123.531101, 1647142.641540
 123.532767, 1647160.427571
 123.534434, 1647178.213603
 123.536101, 1647195.999634
 123.537767, 1647213.785666
 123.539434, 1647231.571698
 123.541101, 1647249.357729
 123.542767, 1647267.145937
 123.544434, 1647284.934570
 123.546101, 1647302.723202
 123.547767, 1647320.511834
 123.549434, 1647338.300467
 123.551101, 1647356.089099
 123.552767, 1647373.877731
 123.554434, 1647391.666363
 123.556101, 1647409.454996
 123.557767, 1647427.243628
 123.559434, 1647445.034428
 123.561101, 1647462.825650
 123.562767, 1647480.616872
 123.564434, 1647498.408093
 123.566101, 1647516.199315
 123.567767, 1647533.990537
 123.569434, 1647551.781759
 123.571101, 1647569.572981
 123.572767, 1647587.364203
 123.574434, 1647605.155425
 123.576101, 1647622.948843
 123.577767, 1647640.742689
 123.579434, 1647658.536535
 123.581101, 1647676.330381
 123.582767, 1647694.124226
 123.584434, 1647711.918072
 123.586101, 1647729.711918
 123.587767, 1647747.505764
 123.589434, 1647765.299610
 123.591101, 1647783.093456
 123.592767, 1647800.889473
 123.594434, 1647818.685913
 123.596101, 1647836.482353
 123.597767, 1647854.278793
 123.599434, 1647872.075233
 123.601101, 1647889.871674
 123.602767, 1647907.668114
 123.604434, 1647925.464554
 123.606101, 1647943.260994
 123.607767, 1647961.057434
 123.609434, 1647978.856056
 123.611101, 1647996.655103
 123.612767, 1648014.454150
 123.614434, 1648032.253197
 123.616101, 1648050.052244
 123.617767, 1648067.851291
 123.619434, 1648085.650338
 123.621101, 1648103.449385
 123.622767, 1648121.248432
 123.624434, 1648139.047479
 123.626101, 1648156.848708
 123.627767, 1648174.650362
 123.629434, 1648192.452016
 123.631101, 1648210.253670
 123.632767, 1648228.055324
 123.634434, 1648245.856978
 123.636101, 1648263.658633
 123.637767, 1648281.460287
 123.639434, 1648299.261941
 123.641101, 1648317.063595
 123.642767, 1648334.867418
 123.644434, 1648352.671664
 123.646101, 1648370.475910
 123.647767, 1648388.280155
 123.649434, 1648406.084401
 123.651101, 1648423.888647
 123.652767, 1648441.692893
 123.654434, 1648459.497139
 123.656101, 1648477.301384
 123.657767, 1648495.105630
 123.659434, 1648512.912058
 123.661101, 1648530.718912
 123.662767, 1648548.525766
 123.664434, 1648566.332620
 123.666101, 1648584.139474
 123.667767, 1648601.946328
 123.669434, 1648619.753181
 123.671101, 1648637.560035
 123.672767, 1648655.366889
 123.674434, 1648673.173743
 123.676101, 1648690.982782
 123.677767, 1648708.792247
 123.679434, 1648726.601713
 123.681101, 1648744.411178
 123.682767, 1648762.220643
 123.684434, 1648780.030108
 123.686101, 1648797.839574
 123.687767, 1648815.649039
 123.689434, 1648833.458504
 123.691101, 1648851.267969
 123.692767, 1648869.079594
 123.694434, 1648886.891641
 123.696101, 1648904.703687
 123.697767, 1648922.515733
 123.699434, 1648940.327779
 123.701101, 1648958.139825
 123.702767, 1648975.951871
 123.704434, 1648993.763917
 123.706101, 1649011.575963
 123.707767, 1649029.388010
 123.709434, 1649047.202189
 123.711101, 1649065.016784
 123.712767, 1649082.831379
 123.714434, 1649100.645974
 123.716101, 1649118.460570
 123.717767, 1649136.275165
 123.719434, 1649154.089760
 123.721101, 1649171.904355
 123.722767, 1649189.718950
 123.724434, 1649207.533545
 123.726101, 1649225.350265
 123.727767, 1649243.167398
 123.729434, 1649260.984532
 123.731101, 1649278.801665
 123.732767, 1649296.618799
 123.734434, 1649314.435932
 123.736101, 1649332.253066
 123.737767, 1649350.070199
 123.739434, 1649367.887333
 123.741101, 1649385.704466
 123.742767, 1649403.523736
 123.744434, 1649421.343423
 123.746101, 1649439.163109
 123.747767, 1649456.982796
 123.749434, 1649474.802482
 123.751101, 1649492.622169
 123.752767, 1649510.441856
 123.754434, 1649528.261542
 123.756101, 1649546.081229
 123.757767, 1649563.900915
 123.759434, 1649581.722741
 123.761101, 1649599.544985
 123.762767, 1649617.367228
 123.764434, 1649635.189472
 123.766101, 1649653.011715
 123.767767, 1649670.833959
 123.769434, 1649688.656202
 123.771101, 1649706.478446
 123.772767, 1649724.300689
 123.774434, 1649742.122933
 123.776101, 1649759.947305
 123.777767, 1649777.772093
 123.779434, 1649795.596881
 123.781101, 1649813.421669
 123.782767, 1649831.246457
 123.784434, 1649849.071245
 123.786101, 1649866.896032
 123.787767, 1649884.720820
 123.789434, 1649902.545608
 123.791101, 1649920.370396
 123.792767, 1649938.197341
 123.794434, 1649956.024706
 123.796101, 1649973.852072
 123.797767, 1649991.679437
 123.799434, 1650009.506802
 123.801101, 1650027.334168
 123.802767, 1650045.161533
 123.804434, 1650062.988899
 123.806101, 1650080.816264
 123.807767, 1650098.643629
 123.809434, 1650116.473126
 123.811101, 1650134.303038
 123.812767, 1650152.132949
 123.814434, 1650169.962861
 123.816101, 1650187.792773
 123.817767, 1650205.622685
 123.819434, 1650223.452597
 123.821101, 1650241.282509
 123.822767, 1650259.112420
 123.824434, 1650276.942332
 123.826101, 1650294.774385
 123.827767, 1650312.606855
 123.829434, 1650330.439324
 123.831101, 1650348.271794
 123.832767, 1650366.104264
 123.834434, 1650383.936734
 123.836101, 1650401.769204
 123.837767, 1650419.601674
 123.839434, 1650437.434143
 123.841101, 1650455.266613
 123.842767, 1650473.101223
 123.844434, 1650490.936251
 123.846101, 1650508.771278
 123.847767, 1650526.606305
 123.849434, 1650544.441333
 123.851101, 1650562.276360
 123.852767, 1650580.111387
 123.854434, 1650597.946415
 123.856101, 1650615.781442
 123.857767, 1650633.616469
 123.859434, 1650651.453623
 123.861101, 1650669.291192
 123.862767, 1650687.128760
 123.864434, 1650704.966329
 123.866101, 1650722.803898
 123.867767, 1650740.641466
 123.869434, 1650758.479035
 123.871101, 1650776.316603
 123.872767, 1650794.154172
 123.874434, 1650811.991741
 123.876101, 1650829.831450
 123.877767, 1650847.671576
 123.879434, 1650865.511702
 123.881101, 1650883.351828
 123.882767, 1650901.191955
 123.884434, 1650919.032081
 123.886101, 1650936.872207
 123.887767, 1650954.712333
 123.889434, 1650972.552459
 123.891101, 1650990.392586
 123.892767, 1651008.234855
 123.894434, 1651026.077543
 123.896101, 1651043.920230
 123.897767, 1651061.762917
 123.899434, 1651079.605605
 123.901101, 1651097.448292
 123.902767, 1651115.290979
 123.904434, 1651133.133667
 123.906101, 1651150.976354
 123.907767, 1651168.819041
 123.909434, 1651186.663847
 123.911101, 1651204.509065
 123.912767, 1651222.354283
 123.914434, 1651240.199500
 123.916101, 1651258.044718
 123.917767, 1651275.889936
 123.919434, 1651293.735154
 123.921101, 1651311.580372
 123.922767, 1651329.425590
 123.924434, 1651347.270808
 123.926101, 1651365.118118
 123.927767, 1651382.965835
 123.929434, 1651400.813552
 123.931101, 1651418.661269
 123.932767, 1651436.508986
 123.934434, 1651454.356703
 123.936101, 1651472.204420
 123.937767, 1651490.052137
 123.939434, 1651507.899855
 123.941101, 1651525.747572
 123.942767, 1651543.597372
 123.944434, 1651561.447578
 123.946101, 1651579.297785
 123.947767, 1651597.147991
 123.949434, 1651614.998197
 123.951101, 1651632.848404
 123.952767, 1651650.698610
 123.954434, 1651668.548816
 123.956101, 1651686.399023
 123.957767, 1651704.249229
 123.959434, 1651722.101532
 123.961101, 1651739.954243
 123.962767, 1651757.806955
 123.964434, 1651775.659666
 123.966101, 1651793.512378
 123.967767, 1651811.365089
 123.969434, 1651829.217801
 123.971101, 1651847.070512
 123.972767, 1651864.923223
 123.974434, 1651882.775935
 123.976101, 1651900.630747
 123.977767, 1651918.485969
 123.979434, 1651936.341190
 123.981101, 1651954.196412
 123.982767, 1651972.051634
 123.984434, 1651989.906855
 123.986101, 1652007.762077
 123.987767, 1652025.617299
 123.989434, 1652043.472520
 123.991101, 1652061.327742
 123.992767, 1652079.185055
 123.994434, 1652097.042775
 123.996101, 1652114.900495
 123.997767, 1652132.758216
 123.999434, 1652150.615936
 124.001101, 1652168.473656
 124.002767, 1652186.331376
 124.004434, 1652204.189097
 124.006101, 1652222.046817
 124.007767, 1652239.904537
 124.009434, 1652257.764378
 124.011101, 1652275.624631
 124.012767, 1652293.484885
 124.014434, 1652311.345138
 124.016101, 1652329.205392
 124.017767, 1652347.065645
 124.019434, 1652364.925899
 124.021101, 1652382.786153
 124.022767, 1652400.646406
 124.024434, 1652418.506660
 124.026101, 1652436.369008
 124.027767, 1652454.231764
 124.029434, 1652472.094521
 124.031101, 1652489.957277
 124.032767, 1652507.820033
 124.034434, 1652525.682790
 124.036101, 1652543.545546
 124.037767, 1652561.408302
 124.039434, 1652579.271059
 124.041101, 1652597.133815
 124.042767, 1652614.998677
 124.044434, 1652632.863948
 124.046101, 1652650.729220
 124.047767, 1652668.594492
 124.049434, 1652686.459763
 124.051101, 1652704.325035
 124.052767, 1652722.190307
 124.054434, 1652740.055579
 124.056101, 1652757.920850
 124.057767, 1652775.786122
 124.059434, 1652793.653499
 124.061101, 1652811.521286
 124.062767, 1652829.389073
 124.064434, 1652847.256860
 124.066101, 1652865.124647
 124.067767, 1652882.992435
 124.069434, 1652900.860222
 124.071101, 1652918.728009
 124.072767, 1652936.595796
 124.074434, 1652954.463583
 124.076101, 1652972.333462
 124.077767, 1652990.203749
 124.079434, 1653008.074035
 124.081101, 1653025.944322
 124.082767, 1653043.814608
 124.084434, 1653061.684895
 124.086101, 1653079.555182
 124.087767, 1653097.425468
 124.089434, 1653115.295755
 124.091101, 1653133.166042
 124.092767, 1653151.038434
 124.094434, 1653168.911237
 124.096101, 1653186.784039
 124.097767, 1653204.656842
 124.099434, 1653222.529645
 124.101101, 1653240.402448
 124.102767, 1653258.275250
 124.104434, 1653276.148053
 124.106101, 1653294.020856
 124.107767, 1653311.893659
 124.109434, 1653329.768570
 124.111101, 1653347.643892
 124.112767, 1653365.519215
 124.114434, 1653383.394537
 124.116101, 1653401.269860
 124.117767, 1653419.145182
 124.119434, 1653437.020504
 124.121101, 1653454.895827
 124.122767, 1653472.771149
 124.124434, 1653490.646471
 124.126101, 1653508.523876
 124.127767, 1653526.401687
 124.129434, 1653544.279498
 124.131101, 1653562.157309
 124.132767, 1653580.035120
 124.134434, 1653597.912930
 124.136101, 1653615.790741
 124.137767, 1653633.668552
 124.139434, 1653651.546363
 124.141101, 1653669.424174
 124.142767, 1653687.304040
 124.144434, 1653705.184307
 124.146101, 1653723.064574
 124.147767, 1653740.944841
 124.149434, 1653758.825108
 124.151101, 1653776.705375
 124.152767, 1653794.585642
 124.154434, 1653812.465909
 124.156101, 1653830.346176
 124.157767, 1653848.226443
 124.159434, 1653866.108756
 124.161101, 1653883.991469
 124.162767, 1653901.874181
 124.164434, 1653919.756894
 124.166101, 1653937.639606
 124.167767, 1653955.522319
 124.169434, 1653973.405032
 124.171101, 1653991.287744
 124.172767, 1654009.170457
 124.174434, 1654027.053169
 124.176101, 1654044.937941
 124.177767, 1654062.823115
 124.179434, 1654080.708288
 124.181101, 1654098.593462
 124.182767, 1654116.478635
 124.184434, 1654134.363809
 124.186101, 1654152.248982
 124.187767, 1654170.134155
 124.189434, 1654188.019329
 124.191101, 1654205.904502
 124.192767, 1654223.791739
 124.194434, 1654241.679378
 124.196101, 1654259.567016
 124.197767, 1654277.454655
 124.199434, 1654295.342294
 124.201101, 1654313.229932
 124.202767, 1654331.117571
 124.204434, 1654349.005210
 124.206101, 1654366.892849
 124.207767, 1654384.780487
 124.209434, 1654402.670179
 124.211101, 1654420.560270
 124.212767, 1654438.450362
 124.214434, 1654456.340453
 124.216101, 1654474.230545
 124.217767, 1654492.120636
 124.219434, 1654510.010728
 124.221101, 1654527.900819
 124.222767, 1654545.790911
 124.224434, 1654563.681002
 124.226101, 1654581.573175
 124.227767, 1654599.465754
 124.229434, 1654617.358332
 124.231101, 1654635.250911
 124.232767, 1654653.143490
 124.234434, 1654671.036068
 124.236101, 1654688.928647
 124.237767, 1654706.821226
 124.239434, 1654724.713804
 124.241101, 1654742.606383
 124.242767, 1654760.501017
 124.244434, 1654778.396051
 124.246101, 1654796.291085
 124.247767, 1654814.186119
 124.249434, 1654832.081154
 124.251101, 1654849.976188
 124.252767, 1654867.871222
 124.254434, 1654885.766257
 124.256101, 1654903.661291
 124.257767, 1654921.556325
 124.259434, 1654939.453425
 124.261101, 1654957.350927
 124.262767, 1654975.248429
 124.264434, 1654993.145932
 124.266101, 1655011.043434
 124.267767, 1655028.940936
 124.269434, 1655046.838438
 124.271101, 1655064.735941
 124.272767, 1655082.633443
 124.274434, 1655100.530945
 124.276101, 1655118.430512
 124.277767, 1655136.330482
 124.279434, 1655154.230452
 124.281101, 1655172.130422
 124.282767, 1655190.030392
 124.284434, 1655207.930362
 124.286101, 1655225.830332
 124.287767, 1655243.730302
 124.289434, 1655261.630272
 124.291101, 1655279.530242
 124.292767, 1655297.432263
 124.294434, 1655315.334685
 124.296101, 1655333.237106
 124.297767, 1655351.139527
 124.299434, 1655369.041949
 124.301101, 1655386.944370
 124.302767, 1655404.846792
 124.304434, 1655422.749213
 124.306101, 1655440.651634
 124.307767, 1655458.554056
 124.309434, 1655476.458543
 124.311101, 1655494.363433
 124.312767, 1655512.268322
 124.314434, 1655530.173212
 124.316101, 1655548.078102
 124.317767, 1655565.982992
 124.319434, 1655583.887882
 124.321101, 1655601.792772
 124.322767, 1655619.697661
 124.324434, 1655637.602551
 124.326101, 1655655.509510
 124.327767, 1655673.416872
 124.329434, 1655691.324234
 124.331101, 1655709.231596
 124.332767, 1655727.138957
 124.334434, 1655745.046319
 124.336101, 1655762.953681
 124.337767, 1655780.861043
 124.339434, 1655798.768405
 124.341101, 1655816.675767
 124.342767, 1655834.585172
 124.344434, 1655852.494975
 124.346101, 1655870.404778
 124.347767, 1655888.314581
 124.349434, 1655906.224383
 124.351101, 1655924.134186
 124.352767, 1655942.043989
 124.354434, 1655959.953792
 124.356101, 1655977.863595
 124.357767, 1655995.773398
 124.359434, 1656013.685217
 124.361101, 1656031.597429
 124.362767, 1656049.509641
 124.364434, 1656067.421853
 124.366101, 1656085.334064
 124.367767, 1656103.246276
 124.369434, 1656121.158488
 124.371101, 1656139.070700
 124.372767, 1656156.982912
 124.374434, 1656174.895124
 124.376101, 1656192.809343
 124.377767, 1656210.723954
 124.379434, 1656228.638565
 124.381101, 1656246.553175
 124.382767, 1656264.467786
 124.384434, 1656282.382397
 124.386101, 1656300.297007
 124.387767, 1656318.211618
 124.389434, 1656336.126229
 124.391101, 1656354.040840
 124.392767, 1656371.957472
 124.394434, 1656389.874497
 124.396101, 1656407.791523
 124.397767, 1656425.708549
 124.399434, 1656443.625575
 124.401101, 1656461.542601
 124.402767, 1656479.459626
 124.404434, 1656497.376652
 124.406101, 1656515.293678
 124.407767, 1656533.210704
 124.409434, 1656551.129755
 124.411101, 1656569.049201
 124.412767, 1656586.968647
 124.414434, 1656604.888093
 124.416101, 1656622.807539
 124.417767, 1656640.726985
 124.419434, 1656658.646431
 124.421101, 1656676.565877
 124.422767, 1656694.485323
 124.424434, 1656712.404768
 124.426101, 1656730.326230
 124.427767, 1656748.248084
 124.429434, 1656766.169938
 124.431101, 1656784.091792
 124.432767, 1656802.013646
 124.434434, 1656819.935501
 124.436101, 1656837.857355
 124.437767, 1656855.779209
 124.439434, 1656873.701063
 124.441101, 1656891.622917
 124.442767, 1656909.546816
 124.444434, 1656927.471114
 124.446101, 1656945.395412
 124.447767, 1656963.319709
 124.449434, 1656981.244007
 124.451101, 1656999.168305
 124.452767, 1657017.092602
 124.454434, 1657035.016900
 124.456101, 1657052.941198
 124.457767, 1657070.865495
 124.459434, 1657088.791812
 124.461101, 1657106.718522
 124.462767, 1657124.645232
 124.464434, 1657142.571941
 124.466101, 1657160.498651
 124.467767, 1657178.425361
 124.469434, 1657196.352071
 124.471101, 1657214.278781
 124.472767, 1657232.205491
 124.474434, 1657250.132201
 124.476101, 1657268.060940
 124.477767, 1657285.990075
 124.479434, 1657303.919210
 124.481101, 1657321.848345
 124.482767, 1657339.777480
 124.484434, 1657357.706614
 124.486101, 1657375.635749
 124.487767, 1657393.564884
 124.489434, 1657411.494019
 124.491101, 1657429.423154
 124.492767, 1657447.354318
 124.494434, 1657465.285878
 124.496101, 1657483.217438
 124.497767, 1657501.148998
 124.499434, 1657519.080558
 124.501101, 1657537.012118
 124.502767, 1657554.943678
 124.504434, 1657572.875238
 124.506101, 1657590.806798
 124.507767, 1657608.738358
 124.509434, 1657626.671933
 124.511101, 1657644.605902
 124.512767, 1657662.539871
 124.514434, 1657680.473839
 124.516101, 1657698.407808
 124.517767, 1657716.341776
 124.519434, 1657734.275745
 124.521101, 1657752.209714
 124.522767, 1657770.143682
 124.524434, 1657788.077651
 124.526101, 1657806.013650
 124.527767, 1657823.950044
 124.529434, 1657841.886439
 124.531101, 1657859.822833
 124.532767, 1657877.759228
 124.534434, 1657895.695622
 124.536101, 1657913.632017
 124.537767, 1657931.568411
 124.539434, 1657949.504806
 124.541101, 1657967.441200
 124.542767, 1657985.379628
 124.544434, 1658003.318452
 124.546101, 1658021.257276
 124.547767, 1658039.196100
 124.549434, 1658057.134924
 124.551101, 1658075.073748
 124.552767, 1658093.012572
 124.554434, 1658110.951396
 124.556101, 1658128.890220
 124.557767, 1658146.829044
 124.559434, 1658164.769875
 124.561101, 1658182.711096
 124.562767, 1658200.652318
 124.564434, 1658218.593540
 124.566101, 1658236.534761
 124.567767, 1658254.475983
 124.569434, 1658272.417205
 124.571101, 1658290.358427
 124.572767, 1658308.299648
 124.574434, 1658326.240870
 124.576101, 1658344.184071
 124.577767, 1658362.127658
 124.579434, 1658380.071244
 124.581101, 1658398.014831
 124.582767, 1658415.958418
 124.584434, 1658433.902004
 124.586101, 1658451.845591
 124.587767, 1658469.789178
 124.589434, 1658487.732765
 124.591101, 1658505.676351
 124.592767, 1658523.621908
 124.594434, 1658541.567850
 124.596101, 1658559.513791
 124.597767, 1658577.459732
 124.599434, 1658595.405673
 124.601101, 1658613.351614
 124.602767, 1658631.297555
 124.604434, 1658649.243497
 124.606101, 1658667.189438
 124.607767, 1658685.135379
 124.609434, 1658703.083304
 124.611101, 1658721.031615
 124.612767, 1658738.979927
 124.614434, 1658756.928239
 124.616101, 1658774.876550
 124.617767, 1658792.824862
 124.619434, 1658810.773173
 124.621101, 1658828.721485
 124.622767, 1658846.669797
 124.624434, 1658864.618108
 124.626101, 1658882.568408
 124.627767, 1658900.519094
 124.629434, 1658918.469781
 124.631101, 1658936.420468
 124.632767, 1658954.371155
 124.634434, 1658972.321841
 124.636101, 1658990.272528
 124.637767, 1659008.223215
 124.639434, 1659026.173902
 124.641101, 1659044.124588
 124.642767, 1659062.077252
 124.644434, 1659080.030302
 124.646101, 1659097.983351
 124.647767, 1659115.936401
 124.649434, 1659133.889450
 124.651101, 1659151.842499
 124.652767, 1659169.795549
 124.654434, 1659187.748598
 124.656101, 1659205.701648
 124.657767, 1659223.654697
 124.659434, 1659241.609754
 124.661101, 1659259.565201
 124.662767, 1659277.520648
 124.664434, 1659295.476096
 124.666101, 1659313.431543
 124.667767, 1659331.386991
 124.669434, 1659349.342438
 124.671101, 1659367.297886
 124.672767, 1659385.253333
 124.674434, 1659403.208781
 124.676101, 1659421.166209
 124.677767, 1659439.124022
 124.679434, 1659457.081836
 124.681101, 1659475.039649
 124.682767, 1659492.997463
 124.684434, 1659510.955277
 124.686101, 1659528.913090
 124.687767, 1659546.870904
 124.689434, 1659564.828717
 124.691101, 1659582.786531
 124.692767, 1659600.746336
 124.694434, 1659618.706528
 124.696101, 1659636.666721
 124.697767, 1659654.626913
 124.699434, 1659672.587106
 124.701101, 1659690.547298
 124.702767, 1659708.507491
 124.704434, 1659726.467684
 124.706101, 1659744.427876
 124.707767, 1659762.388069
 124.709434, 1659780.350252
 124.711101, 1659798.312824
 124.712767, 1659816.275395
 124.714434, 1659834.237967
 124.716101, 1659852.200538
 124.717767, 1659870.163109
 124.719434, 1659888.125681
 124.721101, 1659906.088252
 124.722767, 1659924.050824
 124.724434, 1659942.013395
 124.726101, 1659959.977944
 124.727767, 1659977.942878
 124.729434, 1659995.907812
 124.731101, 1660013.872746
 124.732767, 1660031.837680
 124.734434, 1660049.802614
 124.736101, 1660067.767548
 124.737767, 1660085.732482
 124.739434, 1660103.697415
 124.741101, 1660121.662349
 124.742767, 1660139.629275
 124.744434, 1660157.596589
 124.746101, 1660175.563903
 124.747767, 1660193.531217
 124.749434, 1660211.498531
 124.751101, 1660229.465845
 124.752767, 1660247.433159
 124.754434, 1660265.400473
 124.756101, 1660283.367787
 124.757767, 1660301.335101
 124.759434, 1660319.304410
 124.761101, 1660337.274108
 124.762767, 1660355.243806
 124.764434, 1660373.213504
 124.766101, 1660391.183201
 124.767767, 1660409.152899
 124.769434, 1660427.122597
 124.771101, 1660445.092295
 124.772767, 1660463.061993
 124.774434, 1660481.031691
 124.776101, 1660499.003357
 124.777767, 1660516.975407
 124.779434, 1660534.947457
 124.781101, 1660552.919507
 124.782767, 1660570.891557
 124.784434, 1660588.863607
 124.786101, 1660606.835657
 124.787767, 1660624.807707
 124.789434, 1660642.779756
 124.791101, 1660660.751806
 124.792767, 1660678.725797
 124.794434, 1660696.700167
 124.796101, 1660714.674536
 124.797767, 1660732.648905
 124.799434, 1660750.623275
 124.801101, 1660768.597644
 124.802767, 1660786.572014
 124.804434, 1660804.546383
 124.806101, 1660822.520752
 124.807767, 1660840.495122
 124.809434, 1660858.471423
 124.811101, 1660876.448102
 124.812767, 1660894.424781
 124.814434, 1660912.401459
 124.816101, 1660930.378138
 124.817767, 1660948.354816
 124.819434, 1660966.331495
 124.821101, 1660984.308173
 124.822767, 1661002.284852
 124.824434, 1661020.261530
 124.826101, 1661038.240155
 124.827767, 1661056.219159
 124.829434, 1661074.198164
 124.831101, 1661092.177168
 124.832767, 1661110.156173
 124.834434, 1661128.135177
 124.836101, 1661146.114181
 124.837767, 1661164.093186
 124.839434, 1661182.072190
 124.841101, 1661200.051194
 124.842767, 1661218.031477
 124.844434, 1661236.012008
 124.846101, 1661253.992540
 124.846511, 1661258.420832
 124.848178, 1661276.402525
 124.849844, 1661294.384219
 124.851511, 1661312.365913
 124.853178, 1661330.347606
 124.854844, 1661348.329300
 124.856511, 1661366.310993
 124.858178, 1661383.450629
 124.859844, 1661391.305553
 124.861511, 1661399.160477
 124.863178, 1661407.015402
 124.864844, 1661414.870326
 124.866511, 1661422.725250
 124.868178, 1661430.580175
 124.869844, 1661438.435099
 124.871511, 1661446.290023
 124.873178, 1661454.144948
 124.874844, 1661461.998455
 124.876511, 1661469.836335
 124.878178, 1661477.674216
 124.879844, 1661485.512096
 124.881511, 1661493.349977
 124.883178, 1661501.187857
 124.884844, 1661509.025738
 124.886511, 1661516.863619
 124.888178, 1661524.701499
 124.889844, 1661532.539380
 124.891511, 1661540.375938
 124.893178, 1661548.197917
 124.894844, 1661556.019897
 124.896511, 1661563.841876
 124.898178, 1661571.663856
 124.899844, 1661579.485835
 124.901134, 1661585.537133
 124.902801, 1661593.347889
 124.904467, 1661601.158645
 124.906134, 1661608.969401
 124.907801, 1661616.780157
 124.909467, 1661619.981190
 124.911134, 1661622.522361
 124.912801, 1661625.063531
 124.914467, 1661627.604702
 124.916134, 1661630.145873
 124.917801, 1661632.687044
 124.919467, 1661635.228215
 124.921134, 1661637.769386
 124.922801, 1661640.310557
 124.924467, 1661642.851728
 124.926134, 1661636.976698
 124.927801, 1661629.896925
 124.929467, 1661622.817153
 124.931134, 1661615.737380
 124.932801, 1661608.657607
 124.934467, 1661601.577835
 124.936134, 1661594.498062
 124.937801, 1661587.418290
 124.939467, 1661580.338517
 124.941134, 1661573.258744
 124.942801, 1661553.206439
 124.944467, 1661531.297172
 124.946134, 1661509.387906
 124.947801, 1661487.478639
 124.949467, 1661465.569373
 124.951134, 1661443.660106
 124.952801, 1661421.750840
 124.954467, 1661399.841574
 124.956134, 1661377.932307
 124.957801, 1661356.023041
 124.959467, 1661329.029660
 124.961134, 1661301.308510
 124.962081, 1661285.554046
 124.963748, 1657642.662899
 124.965414, 1653999.771752
 124.967081, 1650356.880605
 124.968748, 1646713.989457
 124.970414, 1643071.098310
 124.972081, 1639428.207163
 124.973748, 1635785.316016
 124.975414, 1633756.584437
 124.977081, 1633756.584437
 124.978748, 1633756.584437
 124.980414, 1633756.584437
 124.982081, 1633756.584437
 124.983748, 1633756.584437
 124.985414, 1633756.584437
 124.987081, 1633756.584437
 124.988748, 1633756.584437
 124.990414, 1633756.584437
 124.992081, 1633756.584437
 124.993748, 1633756.584437
 124.995414, 1633756.584437
 124.997081, 1633756.584437
 124.998748, 1633756.584437
 125.000414, 1633756.584437
 125.002081, 1633756.584437
 125.003748, 1633756.584437
 125.005414, 1633756.584437
 125.007081, 1633756.584437
 125.008748, 1633756.584437
 125.010414, 1633756.584437
 125.012081, 1633756.584437
 125.013748, 1633756.584437
 125.015414, 1633756.584437
 125.017081, 1633756.584437
 125.018748, 1633756.584437
 125.020414, 1633756.584437
 125.022081, 1633756.584437
 125.023748, 1633756.584437
 125.025414, 1633756.584437
 125.027081, 1633756.584437
 125.028748, 1633756.584437
 125.030414, 1633756.584437
 125.032081, 1633756.584437
 125.033748, 1633756.584437
 125.035414, 1633756.584437
 125.037081, 1633756.584437
 125.038748, 1633756.584437
 125.040414, 1633756.584437
 125.042081, 1633756.584437
 125.043748, 1633756.584437
 125.045414, 1633756.584437
 125.047081, 1633756.584437
 125.048748, 1633756.584437
 125.050414, 1633756.584437
 125.052081, 1633756.584437
 125.053748, 1633756.584437
 125.055414, 1633756.584437
 125.057081, 1633756.584437
 125.058748, 1633756.584437
 125.060414, 1633756.584437
 125.062081, 1633756.584437
 125.063748, 1633756.584437
 125.065414, 1633756.584437
 125.067081, 1633756.584437
 125.068748, 1633756.584437
 125.070414, 1633756.584437
 125.072081, 1633756.584437
 125.073748, 1633756.584437
 125.075414, 1633756.584437
 125.077081, 1633756.584437
 125.078748, 1633756.584437
 125.080414, 1633756.584437
 125.082081, 1633756.584437
 125.083748, 1633756.584437
 125.085414, 1633756.584437
 125.087081, 1633756.584437
 125.088748, 1633756.584437
 125.090414, 1633756.584437
 125.092081, 1633756.584437
 125.093748, 1633756.584437
 125.095414, 1633756.584437
 125.097081, 1633756.584437
 125.098748, 1633756.584437
 125.100414, 1633756.584437
 125.102081, 1633756.584437
 125.103748, 1633756.584437
 125.105414, 1633756.584437
 125.107081, 1633756.584437
 125.108748, 1633756.584437
 125.110414, 1633756.584437
 125.112081, 1633756.584437
 125.113748, 1633756.584437
 125.115414, 1633756.584437
 125.117081, 1633756.584437
 125.118748, 1633756.584437
 125.120414, 1633756.584437
 125.122081, 1633756.584437
 125.123748, 1633756.584437
 125.125414, 1633756.584437
 125.127081, 1633756.584437
 125.128748, 1633756.584437
 125.130414, 1633756.584437
 125.132081, 1633756.584437
 125.133748, 1633756.584437
 125.135414, 1633756.584437
 125.137081, 1633756.584437
 125.138748, 1633756.584437
 125.140414, 1633756.584437
 125.142081, 1633756.584437
 125.143748, 1633756.584437
 125.145414, 1633756.584437
 125.147081, 1633756.584437
 125.148748, 1633756.584437
 125.150414, 1633756.584437
 125.152081, 1633756.584437
 125.153748, 1633756.584437
 125.155414, 1633756.584437
 125.157081, 1633756.584437
 125.158748, 1633756.584437
 125.160050, 1633756.584437
