Ground Distance, Speed
   0.000000,    0.000548
   0.000001,    0.003088
   0.000022,    0.011928
   0.000269,    0.041826
   0.001546,    0.100237
   0.008568,    0.235929
   0.025861,    0.409860
   0.052564,    0.584262
   0.088636,    0.758624
   0.134260,    0.933576
   0.189567,    1.109211
   0.254546,    1.285203
   0.329154,    1.461313
   0.413194,    1.637105
   0.507589,    1.814307
   0.612937,    1.993504
   0.728495,    2.173087
   0.855500,    2.354658
   0.992684,    2.536164
   1.141479,    2.719314
   1.301537,    2.903402
   1.473335,    3.088748
   1.657281,    3.275536
   1.856357,    3.466303
   2.064703,    3.655245
   2.284095,    3.844118
   2.519148,    4.036616
   2.764670,    4.228276
   3.025114,    4.422451
   3.302165,    4.619991
   3.594172,    4.819369
   3.901938,    5.020875
   4.223707,    5.223172
   4.559049,    5.425911
   4.906882,    5.628419
   5.272356,    5.833556
   5.658541,    6.042679
   6.056934,    6.251010
   6.471883,    6.460783
   6.914256,    6.677085
   7.365086,    6.890458
   7.844327,    7.110177
   8.339092,    7.330022
   8.847488,    7.549171
   9.384387,    7.773815
   9.940316,    7.999685
  10.520586,    8.228743
  11.118386,    8.458142
  11.730878,    8.686804
  12.372581,    8.919991
  13.033546,    9.153872
  13.713755,    9.388382
  14.415991,    9.624394
  15.134796,    9.860026
  15.881504,   10.098882
  16.651854,   10.339417
  17.454734,   10.584185
  18.270663,   10.827157
  19.120896,   11.074565
  20.005401,   11.326098
  20.896828,   11.573958
  21.831988,   11.828280
  22.782725,   12.081236
  23.761666,   12.336159
  24.782155,   12.596288
  25.821214,   12.855621
  26.888161,   13.116456
  27.977529,   13.377402
  29.101494,   13.641277
  30.257344,   13.907287
  31.455474,   14.177628
  32.675265,   14.447526
  33.922279,   14.718198
  35.206782,   14.991761
  36.525429,   15.267358
  37.871281,   15.543461
  39.245326,   15.820237
  40.668389,   16.101726
  42.108591,   16.381535
  43.587833,   16.663891
  45.102566,   16.947998
  46.646903,   17.232684
  48.222500,   17.518214
  49.859166,   17.809807
  51.506035,   18.098319
  53.200157,   18.390228
  54.948154,   18.686476
  56.724014,   18.982548
  58.542927,   19.280919
  60.382809,   19.577936
  62.296748,   19.882027
  64.221366,   20.183023
  66.185778,   20.485509
  68.186983,   20.788961
  70.214108,   21.091718
  72.307794,   21.399740
  74.437013,   21.708327
  76.609570,   22.018553
  78.816847,   22.329139
  81.065995,   22.641049
  81.523823,   22.703992
  81.752331,   22.735340
  81.890141,   22.754224
  81.979757,   22.766495
  82.288379,   22.808701
  82.290218,   22.808953
  82.293266,   22.809369
  82.294563,   22.809546
  82.294931,   22.809597
  82.295104,   22.809620
  82.295280,   22.809644
  82.297037,   22.809884
  82.311917,   22.811917
  82.403383,   22.824408
  82.742660,   22.870679
  83.750408,   23.007536
  85.765766,   23.278681
  87.880349,   23.559629
  90.049472,   23.844184
  92.241110,   24.128083
  94.472934,   24.413593
  96.738497,   24.699839
  99.038907,   24.986928
 101.372310,   25.274595
 103.759468,   25.565330
 106.184136,   25.857073
 108.669010,   26.152466
 111.180834,   26.447491
 113.727822,   26.743102
 116.315732,   27.039931
 118.941353,   27.337569
 121.594479,   27.634844
 124.303954,   27.934940
 127.055404,   28.236192
 129.818370,   28.535277
 132.652319,   28.838590
 135.502317,   29.140204
 138.399958,   29.443459
 141.328085,   29.746528
 144.323802,   30.053191
 147.354415,   30.360033
 150.420513,   30.667101
 153.533701,   30.975526
 156.688149,   31.284692
 159.869704,   31.593204
 163.108979,   31.903999
 166.387815,   32.215286
 169.716474,   32.528003
 173.096650,   32.842257
 176.510832,   33.156392
 179.991805,   33.473376
 183.532600,   33.792493
 187.090616,   34.109891
 190.684141,   34.427223
 194.356124,   34.748220
 198.062317,   35.068959
 201.829259,   35.391703
 205.639115,   35.714883
 209.462352,   36.036011
 213.366553,   36.360736
 217.297304,   36.684487
 221.309155,   37.011716
 225.342035,   37.337487
 229.449810,   37.666125
 233.586588,   37.993924
 237.773418,   38.322546
 242.015797,   38.652389
 246.313696,   38.983410
 250.667623,   39.315608
 255.034014,   39.645669
 259.483373,   39.978900
 263.953234,   40.310597
 268.483789,   40.643735
 273.079864,   40.978622
 277.722250,   41.313824
 282.401820,   41.648676
 287.170539,   41.986850
 292.003009,   42.326476
 296.873854,   42.665748
 301.781817,   43.004586
 306.728806,   43.343123
 311.775603,   43.685468
 316.881327,   44.028778
 322.010292,   44.370654
 327.195141,   44.713276
 332.428907,   45.056163
 337.733883,   45.400746
 338.798812,   45.469564
 339.429380,   45.510257
 339.793002,   45.533704
 340.127613,   45.555269
 340.389217,   45.572121
 340.602746,   45.585870
 340.757250,   45.595816
 340.907402,   45.605480
 341.078768,   45.616506
 341.109825,   45.618504
 341.117717,   45.619011
 341.119563,   45.619130
 341.120548,   45.619194
 341.120982,   45.619221
 341.121506,   45.619255
 341.126748,   45.619592
 341.179168,   45.622964
 341.551583,   45.646912
 342.888562,   45.732763
 347.509362,   46.028048
 352.360722,   46.335715
 357.245043,   46.643091
 362.195167,   46.952218
 367.169723,   47.260499
 372.191739,   47.569357
 377.233110,   47.877065
 382.370418,   48.188267
 387.540271,   48.499081
 392.746985,   48.809767
 397.983687,   49.119917
 403.294958,   49.432149
 408.632681,   49.743614
 414.019632,   50.055638
 419.476226,   50.369373
 424.964014,   50.682591
 430.501911,   50.996364
 436.084350,   51.310363
 441.700069,   51.623952
 447.374846,   51.938558
 453.121995,   52.254884
 458.929855,   52.572253
 464.751711,   52.888112
 470.640873,   53.205348
 476.577751,   53.522885
 482.560927,   53.840633
 488.584817,   54.158292
 494.658612,   54.476335
 500.801416,   54.795741
 506.989869,   55.115273
 513.245823,   55.436040
 519.532068,   55.756122
 525.854295,   56.075815
 532.247322,   56.396864
 538.711834,   56.719271
 545.202425,   57.040759
 551.769230,   57.363802
 558.361466,   57.685888
 565.019589,   58.008988
 571.736462,   58.332734
 578.489367,   58.656022
 585.288218,   58.979328
 592.121504,   59.302102
 599.048383,   59.627116
 606.001993,   59.951216
 613.016788,   60.276002
 620.075486,   60.600664
 627.200938,   60.926240
 634.366026,   61.251479
 641.594396,   61.577446
 648.902659,   61.904861
 656.261662,   62.232399
 663.678577,   62.560368
 671.134632,   62.887930
 678.667845,   63.216744
 686.221305,   63.544319
 693.850830,   63.873070
 701.525176,   64.201637
 709.266697,   64.530965
 717.076192,   64.861068
 724.915951,   65.190346
 732.855346,   65.521697
 740.822625,   65.852108
 748.841274,   66.182557
 756.937612,   66.514112
 765.081381,   66.845519
 773.288737,   67.177427
 781.572988,   67.510353
 789.887260,   67.842408
 798.252951,   68.174447
 799.931507,   68.240823
 801.052919,   68.285122
 804.574996,   68.424017
 804.644271,   68.426745
 804.661729,   68.427433
 804.689703,   68.428534
 804.693503,   68.428684
 804.695667,   68.428769
 804.697021,   68.428823
 804.698265,   68.428872
 804.710704,   68.429361
 804.819537,   68.433647
 805.412610,   68.456995
 808.390296,   68.574059
 815.755773,   68.862471
 823.198659,   69.152263
 830.690559,   69.442312
 838.221195,   69.732214
 845.788810,   70.021899
 853.386272,   70.311095
 861.039621,   70.600788
 868.741994,   70.890707
 876.485137,   71.180536
 884.276542,   71.470549
 892.126942,   71.761134
 900.025367,   72.051873
 907.986891,   72.343311
 915.999041,   72.634977
 924.015597,   72.925193
 932.116424,   73.216847
 940.248941,   73.508031
 948.422568,   73.799084
 956.669505,   74.091139
 964.956937,   74.383022
 973.252676,   74.673607
 981.602575,   74.964503
 990.018928,   75.256124
 998.500415,   75.548409
1007.030168,   75.840765
1015.607553,   76.133165
1024.200615,   76.424521
1032.859135,   76.716520
1041.555800,   77.008233
1050.303704,   77.300095
1059.113780,   77.592461
1067.979729,   77.885110
1076.872243,   78.177072
1085.837976,   78.469874
1094.830943,   78.762006
1103.900330,   79.055060
1113.019149,   79.348151
1122.156321,   79.640281
1131.379614,   79.933611
1140.629076,   80.226226
1149.909471,   80.518279
1159.235442,   80.810233
1168.622571,   81.102569
1178.062574,   81.395018
1187.549256,   81.687383
1197.101518,   81.980240
1206.689224,   82.272658
1216.342495,   82.565551
1226.034989,   82.858112
1235.800986,   83.151370
1245.563482,   83.443013
1255.398759,   83.735322
1265.302418,   84.028153
1275.247001,   84.320687
1285.250477,   84.613447
1295.298804,   84.906018
1305.429965,   85.199494
1315.565197,   85.491593
1325.745889,   85.783513
1336.010797,   86.076356
1346.319357,   86.368954
1356.680569,   86.661559
1367.100663,   86.954340
1377.565770,   87.246903
1388.081973,   87.539414
1398.661123,   87.832197
1409.268380,   88.124285
1419.956398,   88.417123
1430.677998,   88.709412
1441.465645,   89.002032
1452.319402,   89.294975
1463.210653,   89.587465
1474.135114,   89.879389
1485.133499,   90.171831
1496.167017,   90.463753
1507.281527,   90.756363
1518.428108,   91.048366
1520.670171,   91.106927
1522.282798,   91.149012
1523.391538,   91.177929
1524.418028,   91.204688
1525.276645,   91.227062
1525.435737,   91.231207
1525.617616,   91.235945
1525.656517,   91.236958
1525.695023,   91.237961
1525.708337,   91.238308
1525.713428,   91.238441
1525.719070,   91.238588
1525.775488,   91.240057
1526.239614,   91.252145
1528.752816,   91.317558
1538.092773,   91.560020
1549.302998,   91.849724
1560.609325,   92.140480
1571.977531,   92.431393
1583.346792,   92.720911
1594.792449,   93.010952
1606.298556,   93.301105
1617.875562,   93.591622
1629.508299,   93.882117
1641.158126,   94.171626
1652.892457,   94.461821
1664.688258,   94.752121
1676.493441,   95.041249
1688.351807,   95.330279
1700.283377,   95.619694
1712.260987,   95.908827
1724.299242,   96.198028
1736.396226,   96.487246
1748.551544,   96.776465
1760.739235,   97.065067
1773.005785,   97.354148
1785.326812,   97.643127
1797.677590,   97.931422
1810.099839,   98.220007
1822.578976,   98.508535
1835.106161,   98.796799
1847.698104,   99.085179
1860.357504,   99.373730
1873.056215,   99.661807
1885.823307,   99.950067
1898.648553,  100.238272
1911.507467,  100.525872
1924.433722,  100.813618
1937.443794,  101.101867
1950.485492,  101.389458
1963.583883,  101.676945
1976.724447,  101.964006
1989.945433,  102.251473
2003.200414,  102.538332
2016.507350,  102.824973
2029.878092,  103.111647
2043.299367,  103.398065
2056.767164,  103.684141
2070.299823,  103.970262
2083.936703,  104.257247
2097.592688,  104.543302
2111.289369,  104.828883
2125.048530,  105.114441
2138.859633,  105.399756
2152.775822,  105.685915
2166.696588,  105.970850
2180.704840,  106.256257
2181.652943,  106.275526
2194.761700,  106.541338
2208.865517,  106.826165
2223.040296,  107.111229
2237.262696,  107.396056
2251.604799,  107.682030
2265.994426,  107.967687
2280.425097,  108.252900
2294.937791,  108.538474
2309.518545,  108.824072
2324.130937,  109.108963
2338.840799,  109.394427
2353.592632,  109.679381
2368.384404,  109.963733
2383.265842,  110.248408
2398.145886,  110.531664
2413.085865,  110.814675
2428.076690,  111.097238
2443.169160,  111.380259
2458.275233,  111.662085
2473.412573,  111.943052
2488.603231,  112.223572
2503.828277,  112.503232
2519.088245,  112.782045
2534.397591,  113.060275
2549.724255,  113.337345
2565.115232,  113.614065
2580.521564,  113.889475
2583.613685,  113.944532
2586.478870,  113.995493
2587.542756,  114.014250
2588.607182,  114.033003
2588.820167,  114.036753
2589.433236,  114.047545
2589.442911,  114.047716
2589.456728,  114.047959
2589.459692,  114.048011
2589.460758,  114.048030
2589.461977,  114.048051
2589.470087,  114.048194
2589.512005,  114.048932
2589.677446,  114.051843
2590.122070,  114.059665
2590.847414,  114.072421
2591.910109,  114.091098
2592.974237,  114.109786
2594.039253,  114.128475
2595.106842,  114.147194
2596.175187,  114.165911
2597.244065,  114.184622
2598.313370,  114.203325
2599.383945,  114.222036
2600.450152,  114.240654
2601.516786,  114.259265
2602.587634,  114.277933
2603.660124,  114.296614
2604.734454,  114.315311
2605.809519,  114.334005
2606.884317,  114.352678
2607.961310,  114.371372
2609.038710,  114.390057
2610.114954,  114.408706
2611.194181,  114.427389
2612.274423,  114.446074
2613.355698,  114.464759
2614.438000,  114.483444
2615.517900,  114.502071
2616.600904,  114.520735
2617.680917,  114.539329
2618.766463,  114.558001
2619.853706,  114.576684
2620.941833,  114.595364
2622.024215,  114.613928
2623.114186,  114.632604
2624.203856,  114.651255
2625.291412,  114.669852
2626.384041,  114.688517
2627.477033,  114.707170
2628.570084,  114.725804
2629.664992,  114.744450
2630.761945,  114.763113
2631.859679,  114.781769
2632.955820,  114.800378
2634.053842,  114.818999
2635.151939,  114.837602
2636.248656,  114.856162
2637.345006,  114.874696
2638.449512,  114.893347
2639.553199,  114.911964
2640.659571,  114.930605
2641.767258,  114.949248
2642.871290,  114.967809
2643.981534,  114.986453
2645.091495,  115.005072
2646.200989,  115.023661
2647.314373,  115.042294
2648.422246,  115.060813
2649.533292,  115.079364
2650.649617,  115.097981
2651.767072,  115.116595
2652.885922,  115.135210
2653.999400,  115.153713
2655.119898,  115.172311
2656.243093,  115.190930
2657.368085,  115.209557
2658.495206,  115.228196
2659.612706,  115.246653
2660.740709,  115.265260
2661.864577,  115.283776
2662.994159,  115.302362
2664.119904,  115.320862
2665.253433,  115.339466
2666.380316,  115.357936
2667.513151,  115.376481
2668.648842,  115.395048
2669.785771,  115.413610
2670.924692,  115.432181
2672.066780,  115.450778
2673.208991,  115.469352
2674.348750,  115.487861
2675.488910,  115.506352
2676.637451,  115.524953
2677.779239,  115.543419
2678.928200,  115.561975
2680.081511,  115.580576
2681.234555,  115.599146
2682.384002,  115.617632
2683.536843,  115.636146
2684.687016,  115.654591
2685.844104,  115.673119
2687.006218,  115.691702
2688.162450,  115.710163
2689.322401,  115.728656
2690.471231,  115.746944
2691.639227,  115.765511
2692.798909,  115.783917
2693.969532,  115.802474
2695.139155,  115.820993
2696.307599,  115.839471
2697.479913,  115.857987
2698.653108,  115.876494
2699.827129,  115.894991
2701.006249,  115.913545
2702.189669,  115.932144
2703.370685,  115.950682
2704.551306,  115.969190
2705.730915,  115.987659
2706.913598,  116.006153
2708.097652,  116.024644
2709.288848,  116.043224
2710.475426,  116.061708
2711.670766,  116.080305
2712.867044,  116.098892
2714.061737,  116.117430
2715.257172,  116.135956
2716.451233,  116.154437
2717.650720,  116.172977
2718.851873,  116.191519
2720.048302,  116.209964
2721.251453,  116.228488
2722.456478,  116.247017
2723.658920,  116.265481
2724.865112,  116.283978
2726.071634,  116.302456
2727.282434,  116.320974
2728.494954,  116.339494
2729.711175,  116.358045
2730.925004,  116.376534
2732.143378,  116.395068
2733.360951,  116.413564
2734.579475,  116.432049
2735.805297,  116.450620
2737.031301,  116.469167
2738.256284,  116.487674
2739.481992,  116.506166
2740.706340,  116.524611
2741.936910,  116.543125
2743.161281,  116.561519
2744.392181,  116.579986
2745.627118,  116.598487
2746.862925,  116.616975
2748.109376,  116.635596
2749.354077,  116.654164
2750.596973,  116.672678
2751.840957,  116.691182
2753.086744,  116.709686
2754.334182,  116.728188
2755.590859,  116.746799
2756.847463,  116.765383
2758.101029,  116.783894
2759.357313,  116.802418
2760.612030,  116.820891
2761.872848,  116.839427
2763.133600,  116.857935
2764.404849,  116.876568
2765.676639,  116.895182
2766.948180,  116.913763
2768.216423,  116.932269
2769.493283,  116.950872
2770.772485,  116.969480
2772.047382,  116.987998
2773.321949,  117.006483
2774.603829,  117.025044
2775.895984,  117.043726
2777.185172,  117.062336
2778.473613,  117.080906
2779.764449,  117.099481
2781.061890,  117.118122
2782.359748,  117.136740
2783.658583,  117.155342
2784.957500,  117.173915
2786.252323,  117.192400
2787.559237,  117.211029
2788.870258,  117.229685
2790.186092,  117.248380
2791.143519,  117.261963
2791.494592,  117.266940
2792.810204,  117.285571
2794.130426,  117.304236
2795.449490,  117.322854
2796.772223,  117.341493
2798.095569,  117.360110
2799.419086,  117.378698
2800.737067,  117.397178
2802.068260,  117.415811
2803.392321,  117.434314
2804.727567,  117.452942
2806.065548,  117.471576
2807.405699,  117.490208
2808.743394,  117.508774
2810.079748,  117.527290
2811.414392,  117.545751
2812.762850,  117.564370
2814.111401,  117.582959
2815.463332,  117.601561
2816.818093,  117.620170
2818.178646,  117.638825
2819.536894,  117.657416
2820.896876,  117.675997
2822.257389,  117.694552
2823.618998,  117.713090
2824.983303,  117.731630
2826.351809,  117.750195
2827.725050,  117.768790
2829.102759,  117.787411
2830.485108,  117.806061
2831.871528,  117.824731
2833.255418,  117.843332
2834.639984,  117.861909
2836.035624,  117.880599
2837.426560,  117.899191
2838.826488,  117.917868
2840.224911,  117.936489
2841.621685,  117.955054
2843.032407,  117.973768
2844.441820,  117.992429
2845.850995,  118.011051
2847.263469,  118.029680
2848.674883,  118.048259
2850.094243,  118.066907
2851.510666,  118.085480
2852.941394,  118.104203
2854.372855,  118.122898
2855.796694,  118.141458
2857.232431,  118.160135
2858.658336,  118.178647
2860.094813,  118.197258
2861.528821,  118.215801
2862.966558,  118.234354
2864.405216,  118.252881
2865.857392,  118.271544
2867.312447,  118.290206
2868.768018,  118.308835
2870.225920,  118.327456
2871.685103,  118.346054
2873.145828,  118.364632
2874.621673,  118.383364
2876.095150,  118.402025
2877.566735,  118.420623
2879.042280,  118.439231
2880.520228,  118.457829
2881.998751,  118.476395
2883.490673,  118.495088
2884.973431,  118.513626
2886.463783,  118.532218
2887.943635,  118.550638
2889.440312,  118.569227
2890.942123,  118.587839
2892.435548,  118.606305
2893.940132,  118.624867
2895.454220,  118.643505
2896.963377,  118.662040
2898.481809,  118.680647
2899.996883,  118.699169
2901.507585,  118.717597
2903.032670,  118.736156
2904.562189,  118.754727
2906.094992,  118.773294
2907.629513,  118.791838
2909.168656,  118.810394
2910.709328,  118.828925
2912.246957,  118.847375
2913.792231,  118.865873
2915.342168,  118.884382
2916.893362,  118.902861
2918.448972,  118.921348
2920.004993,  118.939795
2921.567838,  118.958278
2923.137692,  118.976797
2924.712722,  118.995332
2926.284838,  119.013786
2927.853044,  119.032148
2929.436779,  119.050646
2931.019184,  119.069081
2932.611837,  119.087588
2934.198097,  119.105975
2935.797892,  119.124470
2937.391567,  119.142847
2938.988911,  119.161218
2940.596970,  119.179665
2942.200449,  119.198011
2943.809290,  119.216369
2945.421994,  119.234723
2947.030175,  119.252977
2948.652147,  119.271339
2950.274256,  119.289652
2951.905092,  119.308015
2953.527873,  119.326237
2955.153837,  119.344445
2956.788712,  119.362702
2958.429637,  119.380977
2960.066242,  119.399153
2961.706581,  119.417320
2963.358207,  119.435560
2965.005636,  119.453703
2966.659930,  119.471870
2968.323228,  119.490084
2969.978922,  119.508163
2971.652559,  119.526385
2973.312738,  119.544408
2974.987135,  119.562533
2976.669300,  119.580689
2978.347555,  119.598749
2980.031994,  119.616821
2981.704931,  119.634718
2983.395417,  119.652748
2985.080067,  119.670662
2986.782734,  119.688712
2988.485065,  119.706705
2990.193999,  119.724711
2991.895081,  119.742580
2993.599851,  119.760433
2995.306158,  119.778246
2997.021561,  119.796098
2998.735351,  119.813878
3000.457889,  119.831692
3002.177261,  119.849417
3003.896279,  119.867082
3005.620423,  119.884743
3007.358866,  119.902494
3009.089486,  119.920107
3010.835324,  119.937817
3012.568932,  119.955345
3014.306933,  119.972861
3016.073101,  119.990601
3017.817554,  120.008064
3019.579994,  120.025648
3021.327968,  120.043030
3023.095916,  120.060550
3024.866110,  120.078033
3026.640251,  120.095495
3028.416958,  120.112921
3030.190127,  120.130253
3031.980688,  120.147693
3033.773339,  120.165092
3035.555597,  120.182329
3037.351414,  120.199635
3039.154630,  120.216951
3040.942893,  120.234061
3042.750896,  120.251297
3044.564845,  120.268528
3046.370037,  120.285612
3048.180139,  120.302679
3049.993491,  120.319714
3051.818776,  120.336798
3053.636494,  120.353746
3055.462948,  120.370712
3057.304653,  120.387755
3059.146818,  120.404736
3060.978678,  120.421558
3062.809854,  120.438309
3064.664235,  120.455205
3066.508166,  120.471941
3068.350206,  120.488594
3070.204900,  120.505296
3072.079462,  120.522108
3073.924538,  120.538590
3075.793240,  120.555216
3077.657876,  120.571739
3079.527387,  120.588237
3081.402972,  120.604720
3083.279518,  120.621144
3085.171008,  120.637630
3087.053299,  120.653966
3088.942166,  120.670291
3090.841384,  120.686636
3092.749463,  120.702986
3094.643842,  120.719149
3096.540923,  120.735265
3098.436741,  120.751301
3100.350570,  120.767418
3102.242679,  120.783283
3104.174394,  120.799408
3106.097723,  120.815391
3108.003643,  120.831158
3109.927578,  120.847002
3111.859264,  120.862838
3113.784492,  120.878549
3115.718072,  120.894256
3117.624970,  120.909674
3119.545644,  120.925132
3121.476673,  120.940601
3123.424130,  120.956128
3125.369363,  120.971564
3127.325253,  120.987010
3129.289886,  121.002450
3131.243962,  121.017732
3133.188647,  121.032866
3135.135673,  121.047946
3137.093398,  121.063033
3139.052313,  121.078054
3141.035746,  121.093188
3143.007322,  121.108154
3144.978074,  121.123039
3146.956213,  121.137903
3148.944047,  121.152762
3150.937835,  121.167589
3152.919678,  121.182250
3154.909000,  121.196889
3156.899890,  121.211462
3158.884191,  121.225909
3160.854001,  121.240175
3162.848868,  121.254545
3164.861571,  121.268964
3166.847377,  121.283113
3168.857455,  121.297356
3170.873353,  121.311561
3172.889773,  121.325690
3174.907344,  121.339747
3176.922742,  121.353709
3178.928468,  121.367526
3180.958708,  121.381430
3182.957914,  121.395043
3185.000805,  121.408873
3187.010514,  121.422398
3189.046679,  121.436021
3191.068654,  121.449467
3193.095128,  121.462864
3195.122767,  121.476187
3197.158221,  121.489480
3199.203907,  121.502758
3201.249705,  121.515955
3203.276108,  121.528945
3205.331303,  121.542038
3207.397563,  121.555117
3209.451028,  121.568032
3211.521286,  121.580969
3213.581361,  121.593759
3215.652868,  121.606535
3217.724891,  121.619230
3219.779139,  121.631733
3221.840530,  121.644195
3223.906086,  121.656599
3225.948383,  121.668781
3228.037941,  121.681160
3230.120264,  121.693410
3232.185664,  121.705476
3234.255008,  121.717481
3236.352222,  121.729562
3238.446061,  121.741537
3240.547311,  121.753467
3242.629359,  121.765203
3244.710865,  121.776850
3246.805954,  121.788487
3248.911609,  121.800095
3251.007498,  121.811563
3253.126930,  121.823071
3255.249589,  121.834508
3257.360061,  121.845792
3259.488280,  121.857081
3261.610961,  121.868252
3263.699501,  121.879156
3265.807205,  121.890074
3267.923065,  121.900945
3270.051381,  121.911791
3272.166240,  121.922480
3274.291456,  121.933133
3276.403218,  121.943630
3278.533670,  121.954130
3280.655466,  121.964499
3282.817733,  121.974974
3284.946099,  121.985195
3287.077689,  121.995341
3289.234850,  122.005518
3291.384276,  122.015567
3293.516310,  122.025445
3295.662601,  122.035298
3297.798672,  122.045013
3299.934847,  122.054639
3302.088706,  122.064254
3304.213334,  122.073648
3306.381087,  122.083141
3308.524558,  122.092436
3310.696084,  122.101760
3312.710029,  122.110325
