Speed, Forces
  78.622866, 24587.103397
  79.314662, 24470.648115
  80.006458, 24354.192833
  80.698254, 24237.737551
  81.390050, 24121.282270
  82.081846, 24004.826988
  82.773641, 23888.371706
  83.465437, 23771.916424
  84.157233, 23655.461142
  84.849029, 23539.005860
  85.540825, 23422.550579
  86.232620, 23306.095297
  86.924416, 23189.640015
  87.616212, 23073.184733
  88.308008, 22958.888350
  88.999804, 22859.854698
  89.691600, 22760.821046
  90.383395, 22661.787393
  91.075191, 22562.753741
  91.766987, 22463.720089
  92.458783, 22364.686436
  93.150579, 22265.652784
  93.842374, 22166.619132
  94.534170, 22067.585479
  95.225966, 21968.551827
  95.917762, 21869.518175
  96.609558, 21770.484522
  97.301354, 21671.450870
  97.993149, 21572.417218
  98.684945, 21473.383565
  99.376741, 21376.925876
 100.068537, 21291.959545
 100.760333, 21206.993214
 101.452128, 21122.026883
 102.143924, 21037.060552
 102.835720, 20952.094220
 103.527516, 20867.127889
 104.219312, 20782.161558
 104.911108, 20697.195227
 105.602903, 20612.228896
 106.294699, 20527.262564
 106.986495, 20442.296233
 107.678291, 20357.329902
 108.370087, 20272.363571
 109.061883, 20187.397240
 109.753678, 20102.430908
 110.445474, 20019.721542
 111.137270, 19944.069993
 111.829066, 19868.418445
 112.520862, 19792.766896
 113.212657, 19717.115347
 113.904453, 19641.463799
 114.596249, 19565.812250
 115.288045, 19490.160701
 115.979841, 19414.509153
 116.671637, 19338.857604
 117.363432, 19263.206055
 118.055228, 19187.554506
 118.747024, 19111.902958
 119.438820, 19036.251409
 120.130616, 18960.599860
 120.822411, 18884.948312
 121.514207, 18812.106557
 122.206003, 18745.774532
 122.897799, 18679.442507
 123.589595, 18613.110482
 124.281391, 18546.778457
 124.973186, 18480.446432
 125.664982, 18414.114408
 126.356778, 18347.782383
 127.048574, 18281.450358
 127.740370, 18215.118333
 128.432165, 18148.786308
 129.123961, 18082.454283
 129.815757, 18016.122258
 130.507553, 17949.790233
 131.199349, 17883.458208
 131.891145, 17817.126183
 132.582940, 17753.758221
 133.274736, 17695.644230
 133.966532, 17637.530239
 134.658328, 17579.416248
 135.350124, 17521.302256
 136.041920, 17463.188265
 136.733715, 17405.074274
 137.425511, 17346.960283
 138.117307, 17288.846291
 138.809103, 17230.732300
 139.500899, 17172.618309
 140.192694, 17114.504318
 140.884490, 17056.390326
 141.576286, 16998.276335
 142.268082, 16940.162344
 142.959878, 16882.048353
 143.651674, 16826.528393
 144.343469, 16774.592519
 145.035265, 16722.656644
 145.727061, 16670.720770
 146.418857, 16618.784896
 147.110653, 16566.849022
