Speed, Forces
  60.363785, 40896.984738
  61.335214, 40555.882078
  62.306642, 40214.779418
  63.278071, 39873.676758
  64.249500, 39532.574098
  65.220928, 39191.471439
  66.192357, 38850.368779
  67.163786, 38509.266119
  68.135214, 38168.163459
  69.106643, 37827.060799
  70.078072, 37485.958140
  71.049500, 37171.074573
  72.020929, 36869.530722
  72.992358, 36567.986871
  73.963786, 36266.443019
  74.935215, 35964.899168
  75.906644, 35663.355317
  76.878072, 35361.811466
  77.849501, 35060.267614
  78.820930, 34758.723763
  79.792358, 34457.179912
  80.763787, 34155.636061
  81.735216, 33854.092209
  82.706644, 33571.629815
  83.678073, 33302.793714
  84.649502, 33033.957612
  85.620930, 32765.121511
  86.592359, 32496.285410
  87.563788, 32227.449309
  88.535216, 31958.613208
  89.506645, 31689.777107
  90.478073, 31420.941006
  91.449502, 31152.104905
  92.420931, 30883.268804
  93.392359, 30614.432703
  94.363788, 30360.995402
  95.335217, 30122.712957
  96.306645, 29884.430512
  97.278074, 29646.148067
  98.249503, 29407.865623
  99.220931, 29169.583178
 100.192360, 28931.300733
 101.163789, 28693.018288
 102.135217, 28454.735843
 103.106646, 28216.453398
 104.078075, 27978.170953
 105.049503, 27739.888508
 106.020932, 27513.546390
 106.992361, 27303.385509
 107.963789, 27093.224629
 108.935218, 26883.063748
 109.906647, 26672.902867
 110.878075, 26462.741986
 111.849504, 26252.581105
 112.820933, 26042.420224
 113.792361, 25832.259343
 114.763790, 25622.098462
 115.735219, 25411.937582
 116.706647, 25201.776701
 117.678076, 25000.664168
 118.649504, 24816.715859
 119.620933, 24632.767551
 120.592362, 24448.819242
 121.563790, 24264.870934
 122.535219, 24080.922625
 123.506648, 23896.974316
 124.478076, 23713.026008
 125.449505, 23529.077699
 126.420934, 23345.129391
 127.392362, 23161.181082
 128.363791, 22977.232774
 129.335220, 22797.912965
 130.306648, 22631.378394
 131.278077, 22464.843823
 132.249506, 22298.309252
 133.220934, 22131.774681
 134.192363, 21965.240109
 135.163792, 21798.705538
 136.135220, 21632.170967
 137.106649, 21465.636396
 138.078078, 21299.101824
 139.049506, 21132.567253
 140.020935, 20966.032682
 140.992364, 20801.559561
 141.963792, 20646.084851
 142.935221, 20490.610142
 143.906650, 20335.135432
 144.878078, 20179.660722
 145.849507, 20024.186013
 146.820935, 19868.711303
 147.792364, 19713.236594
 148.763793, 19557.761884
 149.735221, 19402.287174
 150.706650, 19246.812465
 151.678079, 19091.337755
 152.649507, 18935.885342
 153.620936, 18780.619022
 154.592365, 18625.352701
 155.563793, 18470.086381
 156.535222, 18314.820060
