Speed, Forces
  68.612846, 33311.657993
  69.454071, 33108.690992
  70.295296, 32905.723990
  71.136522, 32702.756988
  71.977747, 32499.789986
  72.818972, 32296.822985
  73.660197, 32093.855983
  74.501422, 31890.888981
  75.342647, 31687.921980
  76.183872, 31484.954978
  77.025097, 31281.987976
  77.866322, 31079.020974
  78.707547, 30876.053973
  79.548772, 30673.086971
  80.389998, 30489.532677
  81.231223, 30310.390710
  82.072448, 30131.248742
  82.913673, 29952.106774
  83.754898, 29772.964807
  84.596123, 29593.822839
  85.437348, 29414.680872
  86.278573, 29235.538904
  87.119798, 29056.396937
  87.961023, 28877.254969
  88.802249, 28698.113001
  89.643474, 28518.971034
  90.484699, 28339.829066
  91.325924, 28165.849051
  92.167149, 28005.185924
  93.008374, 27844.522797
  93.849599, 27683.859671
  94.690824, 27523.196544
  95.532049, 27362.533417
  96.373274, 27201.870291
  97.214500, 27041.207164
  98.055725, 26880.544037
  98.896950, 26719.880911
  99.738175, 26559.217784
 100.579400, 26398.554657
 101.420625, 26237.891530
 102.261850, 26077.228404
 103.103075, 25927.335591
 103.944300, 25781.150819
 104.785525, 25634.966047
 105.626751, 25488.781275
 106.467976, 25342.596502
 107.309201, 25196.411730
 108.150426, 25050.226958
 108.991651, 24904.042186
 109.832876, 24757.857413
 110.674101, 24611.672641
 111.515326, 24465.487869
 112.356551, 24319.303096
 113.197776, 24173.118324
 114.039001, 24030.931440
 114.880227, 23903.928006
 115.721452, 23776.924571
 116.562677, 23649.921136
 117.403902, 23522.917702
 118.245127, 23395.914267
 119.086352, 23268.910833
 119.927577, 23141.907398
 120.768802, 23014.903963
 121.610027, 22887.900529
 122.451252, 22760.897094
 123.292478, 22633.893660
 124.133703, 22506.890225
 124.974928, 22379.886791
 125.816153, 22263.381899
 126.657378, 22151.978715
 127.498603, 22040.575530
 128.339828, 21929.172345
 129.181053, 21817.769160
 130.022278, 21706.365975
 130.863503, 21594.962790
 131.704729, 21483.559606
 132.545954, 21372.156421
 133.387179, 21260.753236
 134.228404, 21149.350051
 135.069629, 21037.946866
 135.910854, 20926.543681
 136.752079, 20816.843968
 137.593304, 20717.828955
 138.434529, 20618.813942
 139.275754, 20519.798929
 140.116980, 20420.783916
 140.958205, 20321.768903
 141.799430, 20222.753890
 142.640655, 20123.738877
 143.481880, 20024.723863
 144.323105, 19925.708850
 145.164330, 19826.693837
 146.005555, 19727.678824
 146.846780, 19628.663811
 147.688005, 19529.648798
 148.529230, 19436.298721
 149.370456, 19346.693046
 150.211681, 19257.087370
 151.052906, 19167.481695
 151.894131, 19077.876020
