Time, Altitude
   0.000100,    0.000000
   0.000632,    0.000000
   0.002658,    0.000000
   0.010813,    0.000000
   0.025337,    0.000000
   0.052438,    0.000000
   0.080756,    0.000000
   0.109151,    0.000000
   0.137475,    0.000000
   0.165924,    0.000000
   0.194561,    0.000000
   0.223268,    0.000000
   0.251881,    0.000000
   0.280809,    0.000000
   0.309715,    0.000000
   0.338699,    0.000000
   0.368081,    0.000000
   0.397342,    0.000000
   0.426895,    0.000000
   0.456628,    0.000000
   0.486143,    0.000000
   0.515893,    0.000000
   0.546240,    0.000000
   0.576696,    0.000000
   0.607149,    0.000000
   0.637996,    0.000000
   0.668871,    0.000000
   0.700113,    0.000000
   0.731322,    0.000000
   0.763022,    0.000000
   0.794720,    0.000000
   0.826546,    0.000000
   0.858859,    0.000000
   0.891226,    0.000000
   0.923987,    0.000000
   0.957066,    0.000000
   0.990520,    0.000000
   1.023672,    0.000000
   1.056808,    0.000000
   1.090362,    0.000000
   1.124297,    0.000000
   1.158939,    0.000000
   1.193709,    0.000000
   1.228613,    0.000000
   1.263827,    0.000000
   1.299374,    0.000000
   1.335333,    0.000000
   1.371267,    0.000000
   1.407707,    0.000000
   1.444142,    0.000000
   1.480707,    0.000000
   1.518105,    0.000000
   1.555786,    0.000000
   1.593149,    0.000000
   1.630917,    0.000000
   1.668815,    0.000000
   1.707771,    0.000000
   1.746453,    0.000000
   1.785409,    0.000000
   1.824306,    0.000000
   1.863714,    0.000000
   1.903442,    0.000000
   1.943357,    0.000000
   1.983599,    0.000000
   2.023895,    0.000000
   2.064363,    0.000000
   2.105067,    0.000000
   2.146850,    0.000000
   2.188147,    0.000000
   2.229894,    0.000000
   2.271762,    0.000000
   2.313916,    0.000000
   2.356660,    0.000000
   2.399529,    0.000000
   2.442515,    0.000000
   2.486167,    0.000000
   2.529532,    0.000000
   2.573081,    0.000000
   2.617413,    0.000000
   2.661707,    0.000000
   2.706131,    0.000000
   2.751359,    0.000000
   2.796088,    0.000000
   2.841126,    0.000000
   2.886382,    0.000000
   2.931919,    0.000000
   2.978012,    0.000000
   3.023810,    0.000000
   3.069837,    0.000000
   3.117171,    0.000000
   3.164173,    0.000000
   3.211172,    0.000000
   3.258823,    0.000000
   3.306476,    0.000000
   3.354392,    0.000000
   3.402537,    0.000000
   3.451201,    0.000000
   3.499963,    0.000000
   3.548561,    0.000000
   3.597683,    0.000000
   3.646529,    0.000000
   3.695882,    0.000000
   3.745358,    0.000000
   3.795275,    0.000000
   3.845122,    0.000000
   3.895289,    0.000000
   3.946060,    0.000000
   3.997251,    0.000000
   4.048293,    0.000000
   4.099339,    0.000000
   4.150836,    0.000000
   4.203207,    0.000000
   4.213623,    0.000000
   4.222181,    0.000000
   4.248275,    0.000000
   4.248673,    0.000000
   4.249019,    0.000000
   4.249095,    0.000000
   4.249133,    0.000000
   4.249201,    0.000000
   4.249210,    0.000000
   4.249215,    0.000000
   4.249219,    0.000000
   4.249267,    0.000000
   4.249690,    0.000000
   4.252402,    0.000000
   4.263208,    0.000000
   4.296545,    0.000000
   4.346130,    0.000000
   4.394214,    0.000000
   4.442159,    0.000000
   4.490780,    0.000000
   4.539116,    0.000000
   4.588034,    0.000000
   4.637220,    0.000000
   4.686517,    0.000000
   4.736073,    0.000000
   4.785890,    0.000000
   4.835599,    0.000000
   4.885333,    0.000000
   4.935507,    0.000000
   4.985866,    0.000000
   5.036514,    0.000000
   5.087323,    0.000000
   5.138593,    0.000000
   5.189482,    0.000000
   5.240800,    0.000000
   5.292242,    0.000000
   5.343674,    0.000000
   5.395388,    0.000000
   5.447523,    0.000000
   5.499790,    0.000000
   5.551821,    0.000000
   5.604327,    0.000000
   5.657122,    0.000000
   5.709862,    0.000000
   5.762575,    0.000000
   5.815843,    0.000000
   5.869189,    0.000000
   5.922726,    0.000000
   5.976250,    0.000000
   6.030013,    0.000000
   6.083682,    0.000000
   6.137844,    0.000000
   6.192220,    0.000000
   6.246317,    0.000000
   6.300580,    0.000000
   6.355191,    0.000000
   6.410002,    0.000000
   6.465018,    0.000000
   6.520351,    0.000000
   6.575494,    0.000000
   6.631043,    0.000000
   6.686863,    0.000000
   6.742963,    0.000000
   6.799092,    0.000000
   6.855475,    0.000000
   6.911870,    0.000000
   6.968183,    0.000000
   7.024938,    0.000000
   7.081384,    0.000000
   7.138307,    0.000000
   7.195322,    0.000000
   7.252454,    0.000000
   7.309991,    0.000000
   7.367677,    0.000000
   7.425368,    0.000000
   7.483269,    0.000000
   7.541544,    0.000000
   7.599963,    0.000000
   7.658227,    0.000000
   7.716613,    0.000000
   7.775218,    0.000000
   7.833858,    0.000000
   7.892667,    0.000000
   7.951721,    0.000000
   8.011161,    0.000000
   8.070831,    0.000000
   8.130410,    0.000000
   8.189876,    0.000000
   8.249436,    0.000000
   8.309561,    0.000000
   8.369460,    0.000000
   8.429665,    0.000000
   8.490076,    0.000000
   8.550362,    0.000000
   8.611048,    0.000000
   8.671989,    0.000000
   8.733065,    0.000000
   8.735514,    0.000000
   8.737607,    0.000000
   8.739641,    0.000000
   8.742127,    0.000000
   8.742682,    0.000000
   8.743352,    0.000000
   8.743493,    0.000000
   8.743563,    0.000000
   8.743701,    0.000000
   8.743716,    0.000000
   8.743725,    0.000000
   8.743816,    0.000000
   8.743929,    0.000000
   8.745058,    0.000000
   8.751410,    0.000000
   8.773873,    0.000000
   8.825941,    0.000000
   8.881811,    0.000000
   8.937860,    0.000000
   8.993927,    0.000000
   9.050154,    0.000000
   9.106220,    0.000000
   9.162728,    0.000000
   9.219317,    0.000000
   9.276054,    0.000000
   9.332797,    0.000000
   9.389730,    0.000000
   9.446577,    0.000000
   9.503703,    0.000000
   9.560852,    0.000000
   9.618324,    0.000000
   9.675771,    0.000000
   9.733194,    0.000000
   9.790908,    0.000000
   9.848630,    0.000000
   9.906377,    0.000000
   9.964418,    0.000000
  10.022419,    0.000000
  10.080549,    0.000000
  10.139048,    0.000000
  10.197540,    0.000000
  10.256306,    0.000000
  10.314900,    0.000000
  10.373545,    0.000000
  10.432610,    0.000000
  10.491838,    0.000000
  10.550919,    0.000000
  10.610485,    0.000000
  10.669931,    0.000000
  10.729587,    0.000000
  10.789269,    0.000000
  10.848904,    0.000000
  10.908531,    0.000000
  10.968608,    0.000000
  11.028690,    0.000000
  11.088953,    0.000000
  11.149277,    0.000000
  11.209650,    0.000000
  11.270424,    0.000000
  11.331182,    0.000000
  11.392066,    0.000000
  11.452787,    0.000000
  11.513669,    0.000000
  11.574900,    0.000000
  11.636200,    0.000000
  11.697552,    0.000000
  11.759047,    0.000000
  11.820512,    0.000000
  11.882249,    0.000000
  11.943990,    0.000000
  12.005911,    0.000000
  12.067807,    0.000000
  12.129737,    0.000000
  12.191896,    0.000000
  12.254202,    0.000000
  12.316645,    0.000000
  12.379231,    0.000000
  12.441718,    0.000000
  12.504194,    0.000000
  12.567178,    0.000000
  12.630040,    0.000000
  12.693062,    0.000000
  12.756189,    0.000000
  12.819533,    0.000000
  12.883028,    0.000000
  12.946426,    0.000000
  13.009801,    0.000000
  13.073526,    0.000000
  13.137278,    0.000000
  13.201257,    0.000000
  13.265230,    0.000000
  13.329196,    0.000000
  13.393376,    0.000000
  13.457570,    0.000000
  13.522034,    0.000000
  13.586432,    0.000000
  13.599392,    0.000000
  13.608217,    0.000000
  13.615227,    0.000000
  13.620126,    0.000000
  13.623802,    0.000000
  13.627521,    0.000000
  13.630650,    0.000000
  13.631552,    0.000000
  13.632899,    0.000000
  13.633184,    0.000000
  13.633296,    0.000000
  13.633519,    0.000000
  13.633534,    0.000000
  13.633549,    0.000000
  13.633692,    0.000000
  13.634882,    0.000000
  13.642222,    0.000000
  13.681772,    0.000000
  13.739743,    0.000000
  13.797912,    0.000000
  13.856017,    0.000000
  13.914109,    0.000000
  13.972329,    0.000000
  14.030702,    0.000000
  14.089048,    0.000000
  14.147659,    0.000000
  14.206281,    0.000000
  14.264802,    0.000000
  14.323447,    0.000000
  14.382239,    0.000000
  14.441245,    0.000000
  14.500144,    0.000000
  14.559290,    0.000000
  14.618562,    0.000000
  14.677885,    0.000000
  14.737128,    0.000000
  14.796642,    0.000000
  14.856058,    0.000000
  14.915644,    0.000000
  14.975266,    0.000000
  15.035017,    0.000000
  15.094719,    0.000000
  15.154784,    0.000000
  15.214706,    0.000000
  15.274816,    0.000000
  15.335089,    0.000000
  15.395270,    0.000000
  15.455589,    0.000000
  15.516108,    0.000000
  15.576628,    0.000000
  15.637224,    0.000000
  15.697817,    0.000000
  15.758578,    0.000000
  15.819490,    0.000000
  15.880458,    0.000000
  15.941488,    0.000000
  16.002586,    0.000000
  16.063799,    0.000000
  16.124990,    0.000000
  16.186168,    0.000000
  16.247844,    0.000000
  16.309469,    0.000000
  16.370863,    0.000000
  16.432565,    0.000000
  16.494322,    0.000000
  16.556203,    0.000000
  16.618024,    0.000000
  16.680143,    0.000000
  16.742204,    0.000000
  16.804267,    0.000000
  16.866480,    0.000000
  16.929038,    0.000000
  16.991566,    0.000000
  17.054138,    0.000000
  17.116678,    0.000000
  17.179318,    0.000000
  17.242122,    0.000000
  17.304960,    0.000000
  17.367945,    0.000000
  17.431010,    0.000000
  17.494262,    0.000000
  17.557292,    0.000000
  17.620391,    0.000000
  17.683846,    0.000000
  17.747425,    0.000000
  17.810979,    0.000000
  17.874352,    0.000000
  17.938096,    0.000000
  18.001987,    0.000000
  18.065859,    0.000000
  18.129744,    0.000000
  18.193673,    0.000000
  18.257823,    0.000000
  18.321894,    0.000000
  18.386184,    0.000000
  18.450438,    0.000000
  18.514793,    0.000000
  18.579328,    0.000000
  18.643987,    0.000000
  18.708539,    0.000000
  18.773222,    0.000000
  18.838009,    0.000000
  18.902914,    0.000000
  18.967936,    0.000000
  19.033104,    0.000000
  19.098203,    0.000000
  19.163320,    0.000000
  19.176408,    0.000000
  19.178533,    0.000000
  19.180862,    0.000000
  19.181386,    0.000000
  19.181743,    0.000000
  19.181922,    0.000000
  19.182050,    0.000000
  19.182125,    0.000000
  19.182172,    0.000000
  19.182215,    0.000000
  19.182643,    0.000000
  19.186108,    0.000000
  19.207347,    0.000000
  19.264769,    0.000000
  19.330096,    0.000000
  19.395185,    0.000000
  19.460489,    0.000000
  19.525808,    0.000000
  19.591274,    0.000000
  19.656838,    0.000000
  19.722436,    0.000000
  19.788088,    0.000000
  19.853770,    0.000000
  19.919587,    0.000000
  19.985511,    0.000000
  20.051414,    0.000000
  20.117350,    0.000000
  20.183326,    0.000000
  20.249442,    0.000000
  20.315737,    0.000000
  20.381975,    0.000000
  20.448427,    0.000000
  20.514867,    0.000000
  20.581477,    0.000000
  20.648104,    0.000000
  20.714923,    0.000000
  20.781694,    0.000000
  20.848595,    0.000000
  20.915508,    0.000000
  20.982529,    0.000000
  21.049656,    0.000000
  21.116935,    0.000000
  21.184116,    0.000000
  21.251573,    0.000000
  21.318992,    0.000000
  21.386447,    0.000000
  21.453954,    0.000000
  21.521493,    0.000000
  21.589342,    0.000000
  21.657052,    0.000000
  21.724956,    0.000000
  21.792864,    0.000000
  21.860877,    0.000000
  21.929004,    0.000000
  21.997206,    0.000000
  22.065524,    0.000000
  22.133808,    0.000000
  22.202272,    0.000000
  22.270736,    0.000000
  22.339293,    0.000000
  22.407878,    0.000000
  22.476730,    0.000000
  22.545552,    0.000000
  22.614458,    0.000000
  22.683398,    0.000000
  22.752445,    0.000000
  22.821702,    0.000000
  22.890851,    0.000000
  22.959974,    0.000000
  23.029289,    0.000000
  23.098736,    0.000000
  23.168081,    0.000000
  23.237668,    0.000000
  23.307226,    0.000000
  23.377005,    0.000000
  23.446710,    0.000000
  23.516719,    0.000000
  23.586575,    0.000000
  23.656507,    0.000000
  23.726536,    0.000000
  23.796740,    0.000000
  23.867005,    0.000000
  23.937359,    0.000000
  23.967061,    0.000000
  24.007723,    0.000000
  24.078299,    0.000000
  24.148844,    0.000000
  24.219490,    0.000000
  24.290268,    0.000000
  24.361048,    0.000000
  24.431805,    0.000000
  24.502713,    0.000000
  24.573733,    0.000000
  24.644876,    0.000000
  24.715999,    0.000000
  24.787062,    0.000000
  24.858332,    0.000000
  24.929562,    0.000000
  25.000896,    0.000000
  25.072192,    0.000000
  25.143504,    0.000000
  25.215019,    0.000000
  25.286510,    0.000000
  25.358125,    0.000000
  25.429753,    0.000000
  25.501380,    0.000000
  25.573152,    0.000000
  25.644947,    0.000000
  25.716642,    0.000000
  25.731009,    0.000000
  25.781596,    0.000000
  25.784464,    0.000000
  25.785359,    0.000000
  25.786514,    0.000000
  25.786789,    0.000000
  25.787313,    0.000000
  25.787437,    0.000000
  25.787475,    0.000000
  25.787514,    0.000000
  25.787551,    0.000000
  25.787926,    0.000000
  25.790516,    0.000000
  25.804901,    0.000000
  25.867860,    0.000000
  25.942166,    0.000000
  26.016388,    0.000000
  26.090677,    0.000000
  26.164910,    0.000000
  26.239166,    0.000000
  26.313450,    0.000000
  26.387905,    0.000000
  26.462339,    0.000000
  26.536750,    0.000000
  26.611017,    0.000000
  26.685460,    0.000000
  26.759824,    0.000000
  26.765667,    0.000028
  26.771513,    0.000113
  26.777368,    0.000257
  26.783225,    0.000460
  26.789082,    0.000724
  26.794942,    0.001050
  26.800784,    0.001438
  26.806649,    0.001891
  26.812524,    0.002411
  26.818386,    0.002997
  26.824261,    0.003652
  26.830126,    0.004376
  26.835999,    0.005171
  26.841878,    0.006038
  26.847777,    0.006982
  26.853662,    0.007998
  26.859552,    0.009091
  26.865462,    0.010265
  26.871357,    0.011514
  26.877278,    0.012848
  26.883207,    0.014266
  26.889132,    0.015766
  26.895061,    0.017351
  26.900984,    0.019019
  26.906924,    0.020778
  26.912830,    0.022615
  26.918780,    0.024555
  26.924697,    0.026574
  26.930650,    0.028697
  26.936594,    0.030910
  26.942555,    0.033223
  26.948526,    0.035637
  26.954503,    0.038151
  26.960489,    0.040768
  26.966479,    0.043488
  26.972461,    0.046305
  26.978470,    0.049239
  26.984490,    0.052284
  26.990500,    0.055430
  26.996513,    0.058685
  27.002526,    0.062050
  27.008539,    0.065524
  27.014576,    0.069125
  27.020614,    0.072841
  27.026633,    0.076658
  27.032691,    0.080618
  27.038701,    0.084663
  27.044756,    0.088857
  27.050800,    0.093165
  27.056859,    0.097605
  27.062920,    0.102170
  27.068995,    0.106871
  27.075073,    0.111702
  27.081174,    0.116679
  27.087300,    0.121809
  27.093414,    0.127061
  27.099527,    0.132445
  27.105629,    0.137955
  27.111735,    0.143605
  27.117876,    0.149425
  27.124017,    0.155385
  27.130169,    0.161498
  27.136320,    0.167754
  27.142479,    0.174162
  27.148664,    0.180746
  27.154855,    0.187484
  27.161043,    0.194370
  27.167259,    0.201440
  27.173481,    0.208673
  27.179690,    0.216045
  27.185887,    0.223560
  27.192141,    0.231305
  27.198387,    0.239200
  27.204623,    0.247247
  27.210826,    0.255413
  27.217052,    0.263775
  27.223332,    0.272378
  27.229594,    0.281125
  27.235882,    0.290081
  27.242161,    0.299198
  27.248459,    0.308518
  27.254793,    0.318071
  27.261100,    0.327761
  27.267450,    0.337700
  27.273810,    0.347841
  27.280124,    0.358093
  27.286479,    0.368598
  27.292837,    0.379296
  27.299215,    0.390222
  27.305613,    0.401375
  27.312015,    0.412734
  27.318419,    0.424293
  27.324834,    0.436071
  27.331235,    0.448027
  27.337695,    0.460296
  27.344134,    0.472734
  27.350578,    0.485388
  27.357029,    0.498268
  27.363466,    0.511328
  27.369929,    0.524658
  27.376423,    0.538266
  27.382977,    0.552225
  27.389477,    0.566289
  27.396045,    0.580724
  27.402605,    0.595368
  27.409143,    0.610187
  27.415656,    0.625174
  27.422223,    0.640512
  27.428800,    0.656102
  27.435373,    0.671912
  27.441921,    0.687887
  27.448481,    0.704124
  27.455121,    0.720791
  27.461772,    0.737721
  27.468416,    0.754871
  27.475046,    0.772218
  27.481676,    0.789805
  27.488361,    0.807774
  27.495047,    0.825988
  27.501731,    0.844442
  27.508440,    0.863204
  27.515165,    0.882259
  27.521860,    0.901471
  27.528564,    0.920953
  27.535309,    0.940804
  27.542039,    0.960860
  27.548794,    0.981238
  27.555536,    1.001828
  27.562329,    1.022827
  27.569092,    1.043984
  27.575883,    1.065486
  27.582704,    1.087337
  27.589541,    1.109502
  27.596372,    1.131905
  27.603192,    1.154531
  27.610025,    1.177463
  27.616901,    1.200800
  27.623803,    1.224493
  27.630654,    1.248275
  27.637524,    1.272387
  27.644453,    1.296979
  27.651372,    1.321802
  27.658279,    1.346858
  27.665224,    1.372318
  27.672201,    1.398176
  27.679111,    1.424056
  27.686102,    1.450516
  27.693098,    1.477278
  27.700072,    1.504233
  27.707063,    1.531533
  27.714104,    1.559313
  27.721121,    1.587281
  27.728186,    1.615728
  27.735265,    1.644520
  27.742318,    1.673497
  27.749336,    1.702617
  27.756460,    1.732466
  27.763568,    1.762545
  27.770675,    1.792914
  27.777806,    1.823684
  27.784901,    1.854592
  27.792031,    1.885951
  27.799167,    1.917631
  27.806338,    1.949774
  27.813541,    1.982365
  27.820746,    2.015272
  27.827995,    2.048687
  27.835214,    2.082279
  27.842472,    2.116363
  27.849722,    2.150720
  27.856966,    2.185362
  27.864238,    2.220455
  27.871559,    2.256104
  27.878882,    2.292081
  27.882977,    2.312345
  27.886268,    2.328701
  27.893635,    2.365548
  27.901014,    2.402784
  27.908377,    2.440268
  27.915771,    2.478242
  27.923157,    2.516505
  27.930567,    2.555225
  27.937993,    2.594360
  27.945427,    2.633881
  27.952918,    2.674043
  27.960366,    2.714313
  27.967863,    2.755196
  27.975332,    2.796266
  27.982815,    2.837759
  27.990329,    2.879770
  27.997821,    2.922003
  28.005413,    2.965156
  28.013003,    3.008655
  28.020577,    3.052418
  28.028238,    3.097044
  28.035852,    3.141765
  28.043515,    3.187132
  28.051180,    3.232882
  28.058845,    3.279000
  28.066558,    3.325776
  28.074237,    3.372718
  28.081932,    3.420130
  28.089663,    3.468142
  28.097406,    3.516602
  28.105171,    3.565586
  28.112938,    3.614965
  28.120735,    3.664913
  28.128531,    3.715247
  28.136326,    3.765962
  28.144136,    3.817161
  28.151925,    3.868613
  28.159784,    3.920916
  28.167622,    3.973481
  28.175569,    4.027174
  28.183441,    4.080765
  28.191382,    4.135227
  28.199340,    4.190215
  28.207273,    4.245437
  28.215249,    4.301375
  28.223180,    4.357402
  28.231122,    4.413918
  28.239113,    4.471198
  28.247170,    4.529365
  28.255253,    4.588157
  28.263391,    4.647776
  28.271434,    4.707120
  28.279550,    4.767442
  28.287622,    4.827862
  28.295736,    4.889026
  28.303870,    4.950786
  28.312021,    5.013105
  28.320222,    5.076254
  28.328370,    5.139438
  28.336554,    5.203338
  28.344821,    5.268343
  28.353071,    5.333669
  28.361355,    5.399721
  28.369599,    5.465908
  28.377906,    5.533065
  28.386232,    5.600832
  28.394603,    5.669441
  28.402921,    5.738078
  28.411280,    5.807527
  28.419658,    5.877605
  28.428038,    5.948172
  28.436504,    6.019955
  28.444934,    6.091907
  28.453373,    6.164414
  28.461835,    6.237614
  28.470275,    6.311109
  28.478752,    6.385410
  28.487301,    6.460845
  28.495795,    6.536285
  28.504307,    6.612387
  28.512901,    6.689727
  28.521514,    6.767736
  28.530179,    6.846744
  28.538803,    6.925883
  28.547455,    7.005801
  28.556044,    7.085648
  28.564723,    7.166851
  28.573393,    7.248491
  28.582098,    7.330979
  28.590775,    7.413733
  28.599565,    7.498105
  28.608284,    7.582318
  28.617053,    7.667555
  28.625840,    7.753507
  28.634593,    7.839658
  28.643411,    7.927002
  28.652272,    8.015318
  28.661153,    8.104392
  28.670041,    8.194083
  28.678937,    8.284426
  28.687775,    8.374725
  28.696662,    8.466083
  28.705632,    8.558868
  28.714550,    8.651678
  28.723519,    8.745588
  28.732440,    8.839560
  28.741409,    8.934620
  28.750423,    9.030728
  28.759467,    9.127735
  28.768583,    9.226124
  28.777680,    9.324886
  28.786659,    9.422956
  28.795755,    9.522891
  28.804835,    9.623252
  28.813982,    9.724955
  28.823182,    9.827853
  28.832294,    9.930361
  28.841460,   10.034100
  28.850676,   10.139007
  28.859880,   10.244396
  28.869210,   10.351859
  28.878449,   10.458901
  28.887687,   10.566549
  28.897017,   10.675893
  28.906286,   10.785160
  28.915582,   10.895378
  28.924813,   11.005450
  28.934099,   11.116816
  28.943392,   11.228895
  28.952726,   11.342112
  28.962125,   11.456758
  28.971474,   11.571438
  28.980899,   11.687722
  28.990202,   11.803131
  28.999548,   11.919717
  29.009085,   12.039357
  29.018549,   12.158754
  29.027989,   12.278503
  29.037560,   12.400587
  29.047047,   12.522285
  29.056604,   12.645554
  29.066213,   12.770182
  29.075783,   12.894996
  29.085283,   13.019575
  29.094978,   13.147401
  29.104563,   13.274477
  29.114101,   13.401612
  29.123685,   13.530050
  29.133347,   13.660234
  29.142962,   13.790470
  29.152587,   13.921559
  29.162212,   14.053338
  29.171903,   14.186744
  29.181508,   14.319653
  29.191230,   14.454896
  29.200944,   14.590757
  29.210686,   14.727712
  29.220389,   14.864849
  29.230192,   15.004128
  29.239881,   15.142510
  29.249636,   15.282547
  29.259402,   15.423479
  29.269160,   15.565030
  29.279021,   15.708802
  29.288938,   15.854151
  29.298816,   15.999686
  29.308749,   16.146774
  29.318584,   16.293167
  29.328538,   16.442089
  29.338435,   16.590919
  29.348336,   16.740568
  29.358304,   16.891983
  29.368231,   17.043546
  29.378164,   17.195967
  29.388126,   17.349606
  29.398015,   17.502867
  29.407997,   17.658351
  29.417965,   17.814388
  29.427913,   17.970879
  29.437997,   18.130295
  29.448066,   18.290278
  29.458107,   18.450588
  29.468246,   18.613272
  29.478254,   18.774652
  29.488348,   18.938205
  29.498445,   19.102604
  29.508611,   19.268921
  29.518706,   19.434903
  29.528818,   19.601952
  29.538949,   19.770129
  29.549118,   19.939756
  29.559397,   20.112024
  29.569669,   20.285034
  29.579828,   20.456948
  29.589965,   20.629306
  29.600053,   20.801619
  29.610233,   20.976349
  29.620422,   21.152041
  29.630651,   21.329253
  29.640805,   21.505988
  29.650985,   21.683994
  29.661433,   21.867544
  29.671687,   22.048543
  29.681950,   22.230532
  29.692180,   22.412772
  29.702307,   22.593985
  29.712630,   22.779570
  29.722980,   22.966483
  29.733242,   23.152667
  29.743500,   23.339608
  29.753730,   23.526883
  29.764032,   23.716313
  29.774359,   23.907074
  29.784667,   24.098320
  29.795017,   24.291215
  29.805401,   24.485609
  29.815775,   24.680699
  29.826172,   24.877075
  29.836553,   25.074009
  29.847139,   25.275744
  29.857585,   25.475677
  29.867989,   25.675708
  29.878448,   25.877654
  29.888887,   26.080113
  29.899359,   26.284090
  29.909832,   26.488988
  29.920247,   26.693606
  29.930717,   26.900210
  29.941221,   27.108384
  29.951757,   27.318086
  29.962330,   27.529431
  29.972939,   27.742405
  29.983510,   27.955543
  29.994067,   28.169293
  30.004620,   28.383862
  30.015140,   28.598680
  30.025646,   28.814118
  30.036298,   29.033442
  30.046869,   29.252041
  30.057501,   29.472807
  30.068141,   29.694672
  30.078752,   29.916842
  30.089423,   30.141227
  30.100033,   30.365232
  30.110612,   30.589499
  30.121151,   30.813826
  30.131828,   31.042043
  30.142474,   31.270499
  30.153179,   31.501177
  30.163889,   31.732922
  30.174544,   31.964393
  30.185261,   32.198142
  30.195962,   32.432491
  30.206630,   32.667074
  30.217331,   32.903309
  30.227972,   33.139151
  30.238721,   33.378347
  30.249493,   33.619015
  30.260295,   33.861302
  30.271111,   34.104862
  30.281862,   34.347920
  30.292666,   34.593146
  30.303465,   34.839231
  30.310498,   35.000000
