Time, Vertical Forces
   0.000100,    0.000001
   0.000834,    0.000056
   0.003455,    0.000954
   0.013481,    0.014522
   0.041935,    0.140477
   0.074333,    0.441249
   0.106675,    0.908483
   0.139111,    1.544460
   0.171528,    2.347413
   0.204109,    3.322847
   0.236729,    4.468423
   0.269690,    5.797561
   0.302865,    7.309359
   0.336067,    8.996971
   0.369308,   10.861359
   0.402497,   12.897187
   0.436116,   15.136811
   0.469867,   17.564783
   0.504170,   20.216453
   0.538666,   23.069960
   0.573178,   26.112266
   0.607951,   29.366951
   0.642782,   32.817565
   0.677934,   36.492809
   0.713709,   40.432173
   0.749855,   44.615927
   0.786376,   49.050756
   0.822939,   53.699333
   0.860079,   58.635020
   0.897345,   63.803484
   0.935352,   69.297682
   0.972769,   74.925990
   1.010422,   80.809656
   1.049205,   87.099831
   1.088346,   93.684700
   1.127532,  100.514791
   1.166502,  107.542884
   1.206849,  115.066584
   1.246713,  122.746856
   1.287332,  130.824830
   1.327658,  139.095880
   1.369212,  147.880235
   1.411386,  157.067144
   1.453819,  166.585705
   1.496743,  176.495489
   1.538956,  186.515713
   1.581694,  196.938410
   1.624900,  207.758435
   1.668517,  218.970410
   1.712480,  230.564302
   1.757238,  242.669762
   1.801894,  255.050904
   1.847149,  267.906652
   1.893257,  281.323886
   1.939800,  295.193829
   1.985995,  309.283439
   2.032742,  323.869420
   2.079120,  338.665208
   2.126742,  354.194742
   2.174492,  370.108039
   2.222404,  386.419133
   2.270863,  403.266377
   2.319781,  420.629016
   2.368896,  438.421390
   2.419044,  456.959035
   2.468881,  475.752713
   2.519665,  495.283407
   2.570700,  515.296239
   2.622152,  535.863487
   2.673377,  556.729110
   2.725123,  578.200628
   2.777272,  600.239242
   2.830107,  622.975676
   2.883263,  646.265004
   2.936304,  669.917526
   2.989817,  694.197896
   3.044474,  719.430316
   3.099543,  745.294121
   3.154329,  771.464294
   3.209607,  798.311913
   3.265053,  825.687827
   3.320065,  853.289868
   3.376196,  881.905108
   3.432074,  910.844692
   3.488376,  940.458807
   3.544829,  970.611688
   3.601954, 1001.589662
   3.659424, 1033.227862
   3.717406, 1065.627811
   3.775571, 1098.613233
   3.833604, 1132.005116
   3.892167, 1166.189368
   3.951315, 1201.209966
   4.010898, 1236.990508
   4.070940, 1273.555984
   4.131217, 1310.777869
   4.191371, 1348.434685
   4.252592, 1387.283851
   4.264912, 1395.165701
   4.266236, 1396.014134
   4.267386, 1396.751143
   4.268463, 1397.441538
   4.268692, 1397.588418
   4.268748, 1397.624190
   4.268860, 1397.695735
   4.268867, 1397.700592
   4.268882, 1397.710319
   4.268896, 1397.719250
   4.269036, 1397.808568
   4.269933, 1398.384280
   4.274232, 1401.142095
   4.290868, 1411.840532
   4.331364, 1438.042293
   4.385933, 1473.708962
   4.440866, 1510.028564
   4.495908, 1546.837968
   4.551586, 1584.495615
   4.606841, 1622.288188
   4.662584, 1660.837158
   4.718355, 1699.830556
   4.774835, 1739.751661
   4.831694, 1780.378447
   4.888503, 1821.407029
   4.945978, 1863.360573
   5.003862, 1906.063653
   5.061447, 1948.993711
   5.119727, 1992.895596
   5.178012, 2037.255852
   5.236721, 2082.397356
   5.295174, 2127.799320
   5.354041, 2173.981501
   5.413287, 2220.924865
   5.472676, 2268.448179
   5.532094, 2316.461008
   5.591980, 2365.321613
   5.652111, 2414.855894
   5.712514, 2465.091770
   5.773343, 2516.163090
   5.834037, 2567.602033
   5.895350, 2620.052086
   5.957178, 2673.435769
   6.018925, 2727.242982
   6.080182, 2781.109239
   6.142006, 2835.963331
   6.204184, 2891.625551
   6.266517, 2947.923724
   6.329607, 3005.410776
   6.392447, 3063.173082
   6.455824, 3121.936205
   6.519303, 3181.304100
   6.583197, 3241.572961
   6.647166, 3302.428323
   6.711354, 3364.008282
   6.775940, 3426.489489
   6.840683, 3489.645785
   6.905644, 3553.540208
   6.970879, 3618.229507
   7.036113, 3683.445550
   7.101258, 3749.096822
   7.167290, 3816.174498
   7.233220, 3883.682346
   7.299399, 3951.979701
   7.365894, 4021.142401
   7.432768, 4091.241069
   7.499521, 4161.753977
   7.566937, 4233.513540
   7.634106, 4305.555153
   7.701694, 4378.594414
   7.769566, 4452.490763
   7.837622, 4527.140730
   7.905678, 4602.341566
   7.974398, 4678.834180
   8.042962, 4755.710744
   8.112278, 4833.994491
   8.181158, 4912.346019
   8.250483, 4991.765411
   8.320048, 5072.025190
   8.389907, 5153.191173
   8.459650, 5234.788752
   8.529942, 5317.598265
   8.600092, 5400.808740
   8.670887, 5485.359205
   8.741817, 5570.646604
   8.756001, 5587.770822
   8.757697, 5589.819797
   8.758031, 5590.223563
   8.758158, 5590.377199
   8.758399, 5590.667822
   8.758478, 5590.763757
   8.758500, 5590.790673
   8.758510, 5590.802573
   8.758526, 5590.821570
   8.758540, 5590.838803
   8.758683, 5591.011141
   8.759801, 5592.362244
   8.766457, 5600.408859
   8.791821, 5631.116076
   8.855031, 5707.948270
   8.918150, 5785.106486
   8.981219, 5862.636194
   9.044774, 5941.199449
   9.108539, 6020.460861
   9.172471, 6100.369684
   9.236587, 6180.948521
   9.300808, 6262.099366
   9.365268, 6343.993339
   9.429759, 6426.367556
   9.494452, 6509.440639
   9.559497, 6593.409401
   9.624499, 6677.765714
   9.689786, 6762.935810
   9.755122, 6848.613024
   9.820802, 6935.187487
   9.886639, 7022.414036
   9.952294, 7109.843798
  10.018325, 7198.218041
  10.084664, 7287.451945
  10.151141, 7377.320528
  10.217537, 7467.523281
  10.284353, 7558.746168
  10.351222, 7650.488205
  10.418440, 7743.159854
  10.485619, 7836.225986
  10.552848, 7929.808873
  10.620291, 8024.136027
  10.687956, 8119.223569
  10.755962, 8215.240195
  10.824091, 8311.881809
  10.892249, 8409.015075
  10.960832, 8507.206274
  11.029522, 8606.004025
  11.098145, 8705.155925
  11.166941, 8805.007826
  11.236113, 8905.858317
  11.305225, 9007.072566
  11.374671, 9109.227571
  11.444232, 9212.003880
  11.513975, 9315.502503
  11.583859, 9419.663354
  11.654133, 9524.859744
  11.724494, 9630.639836
  11.794720, 9736.670879
  11.865064, 9843.328499
  11.935919, 9951.216016
  12.006704, 10059.448493
  12.077673, 10168.415856
  12.148965, 10278.331488
  12.220172, 10388.567661
  12.291717, 10499.779474
  12.363510, 10611.830799
  12.435420, 10724.517890
  12.507277, 10837.575088
  12.579455, 10951.587511
  12.651782, 11066.288200
  12.724307, 11181.753891
  12.797182, 11298.232921
  12.870078, 11415.197399
  12.942913, 11532.515686
  13.015993, 11650.677224
  13.089288, 11769.639716
  13.162551, 11888.997288
  13.236228, 12009.480185
  13.310034, 12130.625338
  13.383724, 12252.029010
  13.458069, 12374.960798
  13.532170, 12497.939913
  13.547070, 12522.721615
  13.556968, 12539.193804
  13.564963, 12552.505332
  13.570884, 12562.365944
  13.575559, 12570.155005
  13.576705, 12572.065024
  13.578352, 12574.809003
  13.580236, 12577.948141
  13.580657, 12578.649911
  13.580775, 12578.847379
  13.581012, 12579.242318
  13.581032, 12579.275407
  13.581047, 12579.300392
  13.581053, 12579.309896
  13.581060, 12579.320775
  13.581125, 12579.429567
  13.581705, 12580.396869
  13.584970, 12585.839228
  13.599294, 12609.722360
  13.657272, 12706.544229
  13.722141, 12815.161778
  13.787294, 12924.556356
  13.852390, 13034.155784
  13.917662, 13144.352601
  13.982989, 13254.940960
  14.048495, 13366.130634
  14.113986, 13477.593175
  14.179942, 13590.143410
  14.246087, 13703.315939
  14.311999, 13816.385375
  14.378247, 13930.325590
  14.444544, 14044.645060
  14.510960, 14159.463712
  14.577300, 14274.441882
  14.643653, 14389.731588
  14.710345, 14505.900826
  14.776962, 14622.226960
  14.843989, 14739.557128
  14.911116, 14857.352233
  14.978115, 14975.205737
  15.045418, 15093.881578
  15.112842, 15213.055141
  15.180379, 15332.711946
  15.248207, 15453.166848
  15.315969, 15573.787649
  15.383801, 15694.814546
  15.451813, 15816.442079
  15.519863, 15938.415820
  15.588168, 16061.123572
  15.656475, 16184.111908
  15.725022, 16307.810409
  15.793732, 16432.077013
  15.862598, 16556.901284
  15.931667, 16682.367062
  16.000621, 16807.895949
  16.069699, 16933.921503
  16.139120, 17060.844000
  16.208576, 17188.101366
  16.278219, 17315.967902
  16.347779, 17443.949785
  16.417701, 17572.865711
  16.487626, 17702.051352
  16.557658, 17831.698132
  16.627902, 17962.000126
  16.698239, 18092.737527
  16.768528, 18223.646074
  16.839154, 18355.442382
  16.909748, 18487.437217
  16.980498, 18619.979016
  17.051415, 18753.090847
  17.122430, 18886.641547
  17.193669, 19020.866311
  17.264890, 19155.311434
  17.336148, 19290.076598
  17.407561, 19425.383474
  17.479120, 19561.216452
  17.550827, 19697.576720
  17.622742, 19834.579007
  17.694782, 19972.064520
  17.766949, 20110.037640
  17.839165, 20248.347163
  17.911444, 20387.017147
  17.983929, 20526.323540
  18.056605, 20666.237054
  18.129428, 20806.669805
  18.202084, 20947.017396
  18.275076, 21088.247932
  18.348193, 21229.954251
  18.421288, 21371.850125
  18.494517, 21514.236567
  18.567901, 21657.154061
  18.641457, 21800.634661
  18.715045, 21944.402244
  18.788791, 22088.705201
  18.862591, 22233.338948
  18.877359, 22262.307095
  18.927244, 22360.226960
  18.927834, 22361.384815
  18.928260, 22362.221171
  18.928468, 22362.629870
  18.928618, 22362.924371
  18.928763, 22363.208995
  18.928917, 22363.511306
  18.929057, 22363.787484
  18.930456, 22366.535571
  18.938447, 22382.230937
  18.983577, 22470.922967
  19.057331, 22616.041321
  19.131291, 22761.779493
  19.205262, 22907.752171
  19.279156, 23053.781971
  19.353278, 23200.470931
  19.427635, 23347.832775
  19.502040, 23495.495673
  19.576679, 23643.829741
  19.651527, 23792.784362
  19.726410, 23942.008759
  19.801287, 24091.422784
  19.876363, 24241.433333
  19.951546, 24391.856402
  20.026843, 24542.703403
  20.102184, 24693.834482
  20.177586, 24845.280047
  20.253233, 24997.408066
  20.328965, 25149.898109
  20.404910, 25303.006465
  20.480793, 25456.177299
  20.556999, 25610.185686
  20.633281, 25764.531769
  20.709666, 25919.271482
  20.786032, 26074.151266
  20.862507, 26229.433117
  20.939307, 26385.551739
  21.016119, 26541.871834
  21.092920, 26698.345680
  21.170066, 26855.694497
  21.247279, 27013.352601
  21.324518, 27171.234189
  21.402028, 27329.837143
  21.479691, 27488.923257
  21.557293, 27648.049759
  21.634958, 27807.467285
  21.712784, 27967.378277
  21.790703, 28127.642059
  21.868714, 28288.251183
  21.946919, 28449.418838
  22.025400, 28611.311047
  22.103939, 28773.478591
  22.142906, 28853.994329
  22.182647, 28936.146948
  22.261432, 29396.891156
  22.340333, 30152.774949
  22.419280, 30910.851267
  22.498424, 31670.891155
  22.577692, 32433.812934
  22.657150, 33199.210855
  22.736932, 33967.866978
  22.816704, 34739.935496
  22.896719, 35513.505132
  22.976852, 36290.101620
  23.057129, 37068.859553
  23.137635, 37850.137801
  23.218303, 38634.311469
  23.298964, 39420.416101
  23.379577, 40207.104424
  23.460250, 40994.331727
  23.541282, 41783.609582
  23.622187, 42575.677496
  23.703260, 43367.897242
  23.784288, 44161.698615
  23.865399, 44955.888825
  23.946417, 45750.798278
  24.027784, 46546.478756
  24.108982, 47344.397146
  24.190269, 48141.726850
  24.271523, 48939.769669
  24.352718, 49737.583740
  24.358186, 50296.027565
  24.363651, 50349.176409
  24.369124, 50402.324160
  24.374600, 50455.524864
  24.380081, 50508.751641
  24.385556, 50561.985202
  24.391044, 50615.209814
  24.396531, 50668.507881
  24.402027, 50721.822435
  24.407521, 50775.178784
  24.413020, 50828.527243
  24.418498, 50881.831206
  24.424001, 50935.068093
  24.429515, 50988.491863
  24.435023, 51041.961181
  24.440544, 51095.420105
  24.446068, 51148.965472
  24.451570, 51202.450207
  24.457089, 51255.830866
  24.462620, 51309.350467
  24.468161, 51362.966240
  24.473692, 51416.609767
  24.479190, 51470.073311
  24.484744, 51523.488251
  24.490291, 51577.232640
  24.495850, 51630.955380
  24.501416, 51684.764268
  24.506984, 51738.612530
  24.512543, 51792.438532
  24.518110, 51846.214661
  24.523652, 51899.952913
  24.529237, 51953.651976
  24.534803, 52007.556510
  24.540395, 52061.407076
  24.545971, 52115.360622
  24.551566, 52169.254613
  24.557159, 52223.252352
  24.562758, 52277.244248
  24.568354, 52331.255763
  24.573963, 52385.265918
  24.579577, 52439.362650
  24.585195, 52493.496870
  24.590816, 52547.644150
  24.596446, 52601.825691
  24.602094, 52656.109010
  24.607747, 52710.506749
  24.613397, 52764.918219
  24.619055, 52819.314054
  24.624705, 52873.719685
  24.630376, 52928.121504
  24.636017, 52982.553754
  24.641680, 53036.839556
  24.647363, 53091.317220
  24.653059, 53145.947097
  24.658760, 53200.655712
  24.664442, 53255.320279
  24.670145, 53309.915084
  24.675867, 53364.686544
  24.681556, 53419.455513
  24.687268, 53474.067536
  24.693013, 53528.915342
  24.698730, 53583.870021
  24.704469, 53638.691250
  24.710179, 53693.544337
  24.715948, 53748.372833
  24.721704, 53803.526123
  24.727442, 53858.519507
  24.733216, 53913.484199
  24.739008, 53968.723507
  24.744774, 54023.979180
  24.750577, 54079.156338
  24.756348, 54134.453888
  24.762160, 54189.647315
  24.767941, 54244.990595
  24.773769, 54300.259599
  24.779572, 54318.182497
  24.785413, 54336.207971
  24.791258, 54354.228013
  24.797092, 54372.196495
  24.802939, 54390.192702
  24.808789, 54408.181559
  24.814659, 54426.213262
  24.820540, 54444.262211
  24.826411, 54462.267682
  24.832276, 54480.237334
  24.838175, 54498.292298
  24.844068, 54516.314304
  24.849959, 54534.312416
  24.855788, 54552.105134
  24.861712, 54570.172379
  24.867634, 54588.214190
  24.873565, 54606.270966
  24.879492, 54624.293086
  24.885373, 54642.161201
  24.891306, 54660.171770
  24.897247, 54678.186401
  24.903202, 54696.226320
  24.909181, 54714.324535
  24.915130, 54732.313081
  24.921107, 54750.367790
  24.927078, 54768.385883
  24.933044, 54786.372346
  24.939034, 54804.415616
  24.945007, 54822.387384
  24.951026, 54840.478934
  24.957019, 54858.475443
  24.963048, 54876.563527
  24.969070, 54894.609505
  24.975107, 54912.682362
  24.981118, 54930.660986
  24.987136, 54948.642254
  24.993177, 54966.671290
  24.999238, 54984.744407
  25.005314, 55002.841262
  25.011371, 55020.862809
  25.017431, 55038.877467
  25.023537, 55057.007415
  25.029634, 55075.091428
  25.035722, 55093.127081
  25.041842, 55111.242050
  25.047955, 55129.316478
  25.054066, 55147.365297
  25.060212, 55165.495336
  25.066330, 55183.524721
  25.072467, 55201.591829
  25.078578, 55219.562187
  25.084743, 55237.672683
  25.090889, 55255.704812
  25.092125, 55259.327461
  25.092983, 55261.842739
  25.093595, 55263.637480
  25.094099, 55265.114722
  25.095520, 55269.278111
  25.095690, 55269.778286
  25.095714, 55269.847275
  25.095721, 55269.868296
  25.095728, 55269.889750
  25.095780, 55270.041316
  25.096050, 55270.831554
  25.097024, 55273.683971
  25.099401, 55280.646287
  25.104719, 55296.210771
  25.110867, 55314.183876
  25.117063, 55332.278203
  25.123265, 55350.370763
  25.129502, 55368.544112
  25.135726, 55386.659717
  25.141965, 55404.795312
  25.148221, 55422.964155
  25.154460, 55441.058209
  25.160708, 55459.160300
  25.166990, 55477.337958
  25.173259, 55495.458719
  25.179547, 55513.611079
  25.185837, 55531.750545
  25.192142, 55549.908141
  25.198457, 55568.075926
  25.204804, 55586.311193
  25.211118, 55604.432752
  25.217457, 55622.601998
  25.223808, 55640.783355
  25.230154, 55658.930498
  25.236525, 55677.125969
  25.242904, 55695.319408
  25.249281, 55713.486614
  25.255665, 55731.652597
  25.262098, 55749.933084
  25.268510, 55768.129342
  25.273769, 55783.037959
  25.274931, 55786.330797
  25.281361, 55804.535105
  25.287786, 55822.700113
  25.294261, 55840.982544
  25.300727, 55859.218081
  25.307217, 55877.497737
  25.313699, 55895.729482
  25.320169, 55913.904953
  25.326676, 55932.159509
  25.333208, 55950.460640
  25.339759, 55968.789291
  25.346309, 55987.091895
  25.352860, 56005.370258
  25.359432, 56023.685031
  25.365996, 56041.951820
  25.372593, 56060.285356
  25.379198, 56078.616300
  25.385796, 56096.900909
  25.392391, 56115.153208
  25.399010, 56133.447826
  25.405663, 56151.807976
  25.412311, 56170.129188
  25.418964, 56188.439443
  25.425642, 56206.793621
  25.432314, 56225.100866
  25.438993, 56243.404925
  25.445686, 56261.719902
  25.452397, 56280.056683
  25.459138, 56298.447738
  25.465864, 56316.773082
  25.472624, 56335.160715
  25.479369, 56353.483223
  25.486127, 56371.813673
  25.492896, 56390.145408
  25.499720, 56408.596774
  25.506544, 56427.022518
  25.513350, 56445.370081
  25.520164, 56463.712544
  25.526979, 56482.029300
  25.533822, 56500.391783
  25.540703, 56518.829836
  25.547527, 56537.084076
  25.554435, 56555.534437
  25.561320, 56573.895718
  25.568241, 56592.322812
  25.575137, 56610.653905
  25.582063, 56629.036963
  25.588991, 56647.392748
  25.595970, 56665.856036
  25.602914, 56684.194258
  25.609904, 56702.626122
  25.616878, 56720.984535
  25.623890, 56739.413008
  25.630937, 56757.901552
  25.637962, 56776.301521
  25.645050, 56794.836193
  25.652112, 56813.271193
  25.659209, 56831.763373
  25.666254, 56850.092965
  25.673371, 56868.573276
  25.680488, 56887.025073
  25.687627, 56905.498928
  25.694756, 56923.917245
  25.701896, 56942.329838
  25.709037, 56960.712298
  25.716194, 56979.103779
  25.723403, 56997.596913
  25.730586, 57015.986918
  25.737817, 57034.470344
  25.745065, 57052.960514
  25.752265, 57071.294229
  25.759560, 57089.836182
  25.766783, 57108.161896
  25.774096, 57126.680975
  25.781358, 57145.037747
  25.788658, 57163.453049
  25.795969, 57181.862909
  25.803278, 57200.233574
  25.810652, 57218.729932
  25.818029, 57237.200660
  25.825447, 57255.736716
  25.832814, 57274.107460
  25.840185, 57292.454167
  25.847545, 57310.738058
  25.854954, 57329.105456
  25.862389, 57347.500765
  25.869854, 57365.935910
  25.877326, 57384.348295
  25.884787, 57402.696371
  25.892318, 57421.181323
  25.899888, 57439.722034
  25.907400, 57458.082829
  25.914933, 57476.456081
  25.922465, 57494.788402
  25.930048, 57513.205877
  25.937670, 57531.679868
  25.945249, 57550.011125
  25.952855, 57568.366897
  25.960490, 57586.753718
  25.968168, 57605.202778
  25.975834, 57623.585089
  25.983518, 57641.969555
  25.991245, 57660.413613
  25.998953, 57678.774457
  26.006713, 57697.216928
  26.014459, 57715.583211
  26.022186, 57733.863650
  26.029992, 57752.290149
  26.037758, 57770.579397
  26.045595, 57788.994891
  26.053435, 57807.371024
  26.061233, 57825.609580
  26.069095, 57843.954115
  26.076940, 57862.214558
  26.084835, 57880.549966
  26.092731, 57898.840893
  26.100697, 57917.251844
  26.108677, 57935.649772
  26.116636, 57953.953554
  26.124579, 57972.177437
  26.132512, 57990.332365
  26.140501, 58008.570737
  26.148468, 58026.713950
  26.156547, 58045.065628
  26.164571, 58063.246684
  26.172568, 58081.321007
  26.180568, 58099.356729
  26.188609, 58117.437346
  26.196670, 58135.515813
  26.204702, 58153.485352
  26.212846, 58171.654621
  26.220912, 58189.604396
  26.229039, 58207.642438
  26.237240, 58225.796417
  26.245414, 58243.841987
  26.253609, 58261.885054
  26.261840, 58279.956696
  26.270026, 58297.881961
  26.278272, 58315.888330
  26.286492, 58333.789012
  26.294696, 58351.607104
  26.302988, 58369.563363
  26.311316, 58387.547511
  26.319576, 58405.334352
  26.327818, 58423.033615
  26.336119, 58440.805642
  26.344411, 58458.510060
  26.352670, 58476.093939
  26.361100, 58493.988071
  26.369443, 58511.645765
  26.377858, 58529.402832
  26.386272, 58547.105885
  26.394659, 58564.699248
  26.403188, 58582.534794
  26.411690, 58600.262756
  26.420130, 58617.805159
  26.428583, 58635.321077
  26.437121, 58652.959354
  26.445671, 58670.567638
  26.454193, 58688.062279
  26.462690, 58705.452089
  26.471222, 58722.856829
  26.479807, 58740.316692
  26.488403, 58757.739449
  26.497022, 58775.154017
  26.505639, 58792.507628
  26.514237, 58809.766958
  26.522872, 58827.043078
  26.531611, 58844.470117
  26.540221, 58861.582323
  26.548951, 58878.874243
  26.557724, 58896.192475
  26.566506, 58913.468502
  26.575252, 58930.615797
  26.583993, 58947.692048
  26.592746, 58964.734176
  26.601513, 58981.744493
  26.610255, 58998.645356
  26.619064, 59015.617317
  26.627887, 59032.555079
  26.636695, 59049.402432
  26.645624, 59066.420199
  26.654418, 59083.120060
  26.663239, 59099.809393
  26.672203, 59116.707641
  26.681142, 59133.496157
  26.690084, 59150.228331
  26.699010, 59166.866406
  26.707927, 59183.424195
  26.717015, 59200.235380
  26.726023, 59216.835685
  26.734985, 59233.285238
  26.744097, 59249.947014
  26.753095, 59266.334522
  26.762163, 59282.785260
  26.771191, 59299.096546
  26.780408, 59315.683528
  26.789491, 59331.962603
  26.798572, 59348.173646
  26.807752, 59364.492667
  26.816871, 59380.636119
  26.826009, 59396.747512
  26.835258, 59412.987007
  26.844477, 59429.103595
  26.853596, 59444.978493
  26.862812, 59460.953670
  26.872039, 59476.879912
  26.881224, 59492.665190
  26.890397, 59508.361192
  26.899646, 59524.119010
  26.908910, 59539.831349
  26.918212, 59555.540120
  26.927501, 59571.155014
  26.936808, 59586.729249
  26.946079, 59602.173914
  26.955331, 59617.517010
  26.964680, 59632.949787
  26.974025, 59648.305039
  26.983440, 59663.701261
  26.992799, 59678.934777
  27.002242, 59694.232330
  27.011702, 59709.483516
  27.021110, 59724.578412
  27.030543, 59739.639163
  27.040057, 59754.755710
  27.049546, 59769.756104
  27.059060, 59784.722638
  27.068610, 59799.671556
  27.078062, 59814.390764
  27.087626, 59829.209429
  27.097240, 59844.028077
  27.106780, 59858.657565
  27.116189, 59873.011547
  27.125650, 59887.370998
  27.135320, 59901.970680
  27.144918, 59916.383911
  27.154444, 59930.612322
  27.164002, 59944.811392
  27.173582, 59958.967399
  27.183104, 59972.961927
  27.192768, 59987.086552
  27.202455, 60001.164976
  27.212068, 60015.058998
  27.221714, 60028.922333
  27.231455, 60042.841264
  27.241133, 60056.592797
  27.250834, 60070.296457
  27.260497, 60083.866481
  27.270178, 60097.383069
  27.279861, 60110.823290
  27.289513, 60124.140123
  27.299283, 60137.540021
  27.309042, 60150.844276
  27.318745, 60163.990847
  27.328595, 60177.254507
  27.338440, 60190.429085
  27.348202, 60203.410870
  27.358006, 60216.365589
  27.367897, 60229.352429
  27.377789, 60242.257232
  27.387564, 60254.927556
  27.397434, 60267.636046
  27.407257, 60280.202165
  27.417178, 60292.809707
  27.427134, 60305.375433
  27.437005, 60317.750140
  27.446901, 60330.072725
  27.456765, 60342.270361
  27.466721, 60354.496814
  27.476721, 60366.691281
  27.486724, 60378.801875
  27.496628, 60390.708552
  27.506646, 60402.665364
  27.516554, 60414.405318
  27.526558, 60426.173089
  27.536558, 60437.848089
  27.546534, 60449.409638
  27.556525, 60460.901181
  27.566613, 60472.415635
  27.576741, 60483.887347
  27.586686, 60495.063972
  27.596854, 60506.402557
  27.606893, 60517.508839
  27.616906, 60528.498101
  27.626948, 60539.432036
  27.637089, 60550.382721
  27.647137, 60561.145176
  27.657210, 60571.845176
  27.667309, 60582.484329
  27.677410, 60593.034665
  27.687541, 60603.527867
  27.697622, 60613.878714
  27.707898, 60624.337188
  27.718054, 60634.583460
  27.728326, 60644.853173
  27.738563, 60654.996623
  27.748721, 60664.969096
  27.758901, 60674.872803
  27.769061, 60684.664975
  27.779241, 60694.385982
  27.789424, 60704.017561
  27.799688, 60713.632601
  27.809889, 60723.096356
  27.820112, 60732.488199
  27.830301, 60741.757217
  27.836774, 60747.597385
