Time, Vertical Forces
   0.000100, 48645.496260
   0.000834, 48645.496260
   0.003455, 48645.496260
   0.013481, 48645.496260
   0.041935, 48645.496260
   0.074333, 48645.496260
   0.106675, 48645.496260
   0.139111, 48645.496260
   0.171528, 48645.496260
   0.204109, 48645.496260
   0.236729, 48645.496260
   0.269690, 48645.496260
   0.302865, 48645.496260
   0.336067, 48645.496260
   0.369308, 48645.496260
   0.402497, 48645.496260
   0.436116, 48645.496260
   0.469867, 48645.496260
   0.504170, 48645.496260
   0.538666, 48645.496260
   0.573178, 48645.496260
   0.607951, 48645.496260
   0.642782, 48645.496260
   0.677934, 48645.496260
   0.713709, 48645.496260
   0.749855, 48645.496260
   0.786376, 48645.496260
   0.822939, 48645.496260
   0.860079, 48645.496260
   0.897345, 48645.496260
   0.935352, 48645.496260
   0.972769, 48645.496260
   1.010422, 48645.496260
   1.049205, 48645.496260
   1.088346, 48645.496260
   1.127532, 48645.496260
   1.166502, 48645.496260
   1.206849, 48645.496260
   1.246713, 48645.496260
   1.287332, 48645.496260
   1.327658, 48645.496260
   1.369212, 48645.496260
   1.411386, 48645.496260
   1.453819, 48645.496260
   1.496743, 48645.496260
   1.538956, 48645.496260
   1.581694, 48645.496260
   1.624900, 48645.496260
   1.668517, 48645.496260
   1.712480, 48645.496260
   1.757238, 48645.496260
   1.801894, 48645.496260
   1.847149, 48645.496260
   1.893257, 48645.496260
   1.939800, 48645.496260
   1.985995, 48645.496260
   2.032742, 48645.496260
   2.079120, 48645.496260
   2.126742, 48645.496260
   2.174492, 48645.496260
   2.222404, 48645.496260
   2.270863, 48645.496260
   2.319781, 48645.496260
   2.368896, 48645.496260
   2.419044, 48645.496260
   2.468881, 48645.496260
   2.519665, 48645.496260
   2.570700, 48645.496260
   2.622152, 48645.496260
   2.673377, 48645.496260
   2.725123, 48645.496260
   2.777272, 48645.496260
   2.830107, 48645.496260
   2.883263, 48645.496260
   2.936304, 48645.496260
   2.989817, 48645.496260
   3.044474, 48645.496260
   3.099543, 48645.496260
   3.154329, 48645.496260
   3.209607, 48645.496260
   3.265053, 48645.496260
   3.320065, 48645.496260
   3.376196, 48645.496260
   3.432074, 48645.496260
   3.488376, 48645.496260
   3.544829, 48645.496260
   3.601954, 48645.496260
   3.659424, 48645.496260
   3.717406, 48645.496260
   3.775571, 48645.496260
   3.833604, 48645.496260
   3.892167, 48645.496260
   3.951315, 48645.496260
   4.010898, 48645.496260
   4.070940, 48645.496260
   4.131217, 48645.496260
   4.191371, 48645.496260
   4.252592, 48645.496260
   4.264912, 48645.496260
   4.266236, 48645.496260
   4.267386, 48645.496260
   4.268463, 48645.496260
   4.268692, 48645.496260
   4.268748, 48645.496260
   4.268860, 48645.496260
   4.268867, 48645.496260
   4.268882, 48645.496260
   4.268896, 48645.496260
   4.269036, 48645.496260
   4.269933, 48645.496260
   4.274232, 48645.496260
   4.290868, 48645.496260
   4.331364, 48645.496260
   4.385933, 48645.496260
   4.440866, 48645.496260
   4.495908, 48645.496260
   4.551586, 48645.496260
   4.606841, 48645.496260
   4.662584, 48645.496260
   4.718355, 48645.496260
   4.774835, 48645.496260
   4.831694, 48645.496260
   4.888503, 48645.496260
   4.945978, 48645.496260
   5.003862, 48645.496260
   5.061447, 48645.496260
   5.119727, 48645.496260
   5.178012, 48645.496260
   5.236721, 48645.496260
   5.295174, 48645.496260
   5.354041, 48645.496260
   5.413287, 48645.496260
   5.472676, 48645.496260
   5.532094, 48645.496260
   5.591980, 48645.496260
   5.652111, 48645.496260
   5.712514, 48645.496260
   5.773343, 48645.496260
   5.834037, 48645.496260
   5.895350, 48645.496260
   5.957178, 48645.496260
   6.018925, 48645.496260
   6.080182, 48645.496260
   6.142006, 48645.496260
   6.204184, 48645.496260
   6.266517, 48645.496260
   6.329607, 48645.496260
   6.392447, 48645.496260
   6.455824, 48645.496260
   6.519303, 48645.496260
   6.583197, 48645.496260
   6.647166, 48645.496260
   6.711354, 48645.496260
   6.775940, 48645.496260
   6.840683, 48645.496260
   6.905644, 48645.496260
   6.970879, 48645.496260
   7.036113, 48645.496260
   7.101258, 48645.496260
   7.167290, 48645.496260
   7.233220, 48645.496260
   7.299399, 48645.496260
   7.365894, 48645.496260
   7.432768, 48645.496260
   7.499521, 48645.496260
   7.566937, 48645.496260
   7.634106, 48645.496260
   7.701694, 48645.496260
   7.769566, 48645.496260
   7.837622, 48645.496260
   7.905678, 48645.496260
   7.974398, 48645.496260
   8.042962, 48645.496260
   8.112278, 48645.496260
   8.181158, 48645.496260
   8.250483, 48645.496260
   8.320048, 48645.496260
   8.389907, 48645.496260
   8.459650, 48645.496260
   8.529942, 48645.496260
   8.600092, 48645.496260
   8.670887, 48645.496260
   8.741817, 48645.496260
   8.756001, 48645.496260
   8.757697, 48645.496260
   8.758031, 48645.496260
   8.758158, 48645.496260
   8.758399, 48645.496260
   8.758478, 48645.496260
   8.758500, 48645.496260
   8.758510, 48645.496260
   8.758526, 48645.496260
   8.758540, 48645.496260
   8.758683, 48645.496260
   8.759801, 48645.496260
   8.766457, 48645.496260
   8.791821, 48645.496260
   8.855031, 48645.496260
   8.918150, 48645.496260
   8.981219, 48645.496260
   9.044774, 48645.496260
   9.108539, 48645.496260
   9.172471, 48645.496260
   9.236587, 48645.496260
   9.300808, 48645.496260
   9.365268, 48645.496260
   9.429759, 48645.496260
   9.494452, 48645.496260
   9.559497, 48645.496260
   9.624499, 48645.496260
   9.689786, 48645.496260
   9.755122, 48645.496260
   9.820802, 48645.496260
   9.886639, 48645.496260
   9.952294, 48645.496260
  10.018325, 48645.496260
  10.084664, 48645.496260
  10.151141, 48645.496260
  10.217537, 48645.496260
  10.284353, 48645.496260
  10.351222, 48645.496260
  10.418440, 48645.496260
  10.485619, 48645.496260
  10.552848, 48645.496260
  10.620291, 48645.496260
  10.687956, 48645.496260
  10.755962, 48645.496260
  10.824091, 48645.496260
  10.892249, 48645.496260
  10.960832, 48645.496260
  11.029522, 48645.496260
  11.098145, 48645.496260
  11.166941, 48645.496260
  11.236113, 48645.496260
  11.305225, 48645.496260
  11.374671, 48645.496260
  11.444232, 48645.496260
  11.513975, 48645.496260
  11.583859, 48645.496260
  11.654133, 48645.496260
  11.724494, 48645.496260
  11.794720, 48645.496260
  11.865064, 48645.496260
  11.935919, 48645.496260
  12.006704, 48645.496260
  12.077673, 48645.496260
  12.148965, 48645.496260
  12.220172, 48645.496260
  12.291717, 48645.496260
  12.363510, 48645.496260
  12.435420, 48645.496260
  12.507277, 48645.496260
  12.579455, 48645.496260
  12.651782, 48645.496260
  12.724307, 48645.496260
  12.797182, 48645.496260
  12.870078, 48645.496260
  12.942913, 48645.496260
  13.015993, 48645.496260
  13.089288, 48645.496260
  13.162551, 48645.496260
  13.236228, 48645.496260
  13.310034, 48645.496260
  13.383724, 48645.496260
  13.458069, 48645.496260
  13.532170, 48645.496260
  13.547070, 48645.496260
  13.556968, 48645.496260
  13.564963, 48645.496260
  13.570884, 48645.496260
  13.575559, 48645.496260
  13.576705, 48645.496260
  13.578352, 48645.496260
  13.580236, 48645.496260
  13.580657, 48645.496260
  13.580775, 48645.496260
  13.581012, 48645.496260
  13.581032, 48645.496260
  13.581047, 48645.496260
  13.581053, 48645.496260
  13.581060, 48645.496260
  13.581125, 48645.496260
  13.581705, 48645.496260
  13.584970, 48645.496260
  13.599294, 48645.496260
  13.657272, 48645.496260
  13.722141, 48645.496260
  13.787294, 48645.496260
  13.852390, 48645.496260
  13.917662, 48645.496260
  13.982989, 48645.496260
  14.048495, 48645.496260
  14.113986, 48645.496260
  14.179942, 48645.496260
  14.246087, 48645.496260
  14.311999, 48645.496260
  14.378247, 48645.496260
  14.444544, 48645.496260
  14.510960, 48645.496260
  14.577300, 48645.496260
  14.643653, 48645.496260
  14.710345, 48645.496260
  14.776962, 48645.496260
  14.843989, 48645.496260
  14.911116, 48645.496260
  14.978115, 48645.496260
  15.045418, 48645.496260
  15.112842, 48645.496260
  15.180379, 48645.496260
  15.248207, 48645.496260
  15.315969, 48645.496260
  15.383801, 48645.496260
  15.451813, 48645.496260
  15.519863, 48645.496260
  15.588168, 48645.496260
  15.656475, 48645.496260
  15.725022, 48645.496260
  15.793732, 48645.496260
  15.862598, 48645.496260
  15.931667, 48645.496260
  16.000621, 48645.496260
  16.069699, 48645.496260
  16.139120, 48645.496260
  16.208576, 48645.496260
  16.278219, 48645.496260
  16.347779, 48645.496260
  16.417701, 48645.496260
  16.487626, 48645.496260
  16.557658, 48645.496260
  16.627902, 48645.496260
  16.698239, 48645.496260
  16.768528, 48645.496260
  16.839154, 48645.496260
  16.909748, 48645.496260
  16.980498, 48645.496260
  17.051415, 48645.496260
  17.122430, 48645.496260
  17.193669, 48645.496260
  17.264890, 48645.496260
  17.336148, 48645.496260
  17.407561, 48645.496260
  17.479120, 48645.496260
  17.550827, 48645.496260
  17.622742, 48645.496260
  17.694782, 48645.496260
  17.766949, 48645.496260
  17.839165, 48645.496260
  17.911444, 48645.496260
  17.983929, 48645.496260
  18.056605, 48645.496260
  18.129428, 48645.496260
  18.202084, 48645.496260
  18.275076, 48645.496260
  18.348193, 48645.496260
  18.421288, 48645.496260
  18.494517, 48645.496260
  18.567901, 48645.496260
  18.641457, 48645.496260
  18.715045, 48645.496260
  18.788791, 48645.496260
  18.862591, 48645.496260
  18.877359, 48645.496260
  18.927244, 48645.496260
  18.927834, 48645.496260
  18.928260, 48645.496260
  18.928468, 48645.496260
  18.928618, 48645.496260
  18.928763, 48645.496260
  18.928917, 48645.496260
  18.929057, 48645.496260
  18.930456, 48645.496260
  18.938447, 48645.496260
  18.983577, 48645.496260
  19.057331, 48645.496260
  19.131291, 48645.496260
  19.205262, 48645.496260
  19.279156, 48645.496260
  19.353278, 48645.496260
  19.427635, 48645.496260
  19.502040, 48645.496260
  19.576679, 48645.496260
  19.651527, 48645.496260
  19.726410, 48645.496260
  19.801287, 48645.496260
  19.876363, 48645.496260
  19.951546, 48645.496260
  20.026843, 48645.496260
  20.102184, 48645.496260
  20.177586, 48645.496260
  20.253233, 48645.496260
  20.328965, 48645.496260
  20.404910, 48645.496260
  20.480793, 48645.496260
  20.556999, 48645.496260
  20.633281, 48645.496260
  20.709666, 48645.496260
  20.786032, 48645.496260
  20.862507, 48645.496260
  20.939307, 48645.496260
  21.016119, 48645.496260
  21.092920, 48645.496260
  21.170066, 48645.496260
  21.247279, 48645.496260
  21.324518, 48645.496260
  21.402028, 48645.496260
  21.479691, 48645.496260
  21.557293, 48645.496260
  21.634958, 48645.496260
  21.712784, 48645.496260
  21.790703, 48645.496260
  21.868714, 48645.496260
  21.946919, 48645.496260
  22.025400, 48645.496260
  22.103939, 48645.496260
  22.142906, 48645.496260
  22.182647, 48645.496260
  22.261432, 48645.496260
  22.340333, 48645.496260
  22.419280, 48645.496260
  22.498424, 48645.496260
  22.577692, 48645.496260
  22.657150, 48645.496260
  22.736932, 48645.496260
  22.816704, 48645.496260
  22.896719, 48645.496260
  22.976852, 48645.496260
  23.057129, 48645.496260
  23.137635, 48645.496260
  23.218303, 48645.496260
  23.298964, 48645.496260
  23.379577, 48645.496260
  23.460250, 48645.496260
  23.541282, 48645.496260
  23.622187, 48645.496260
  23.703260, 48645.496260
  23.784288, 48645.496260
  23.865399, 48645.496260
  23.946417, 48645.496260
  24.027784, 48645.496260
  24.108982, 48645.496260
  24.190269, 48645.496260
  24.271523, 48645.496260
  24.352718, 48645.496260
  24.358186, 48645.496192
  24.363651, 48645.495984
  24.369124, 48645.495627
  24.374600, 48645.495111
  24.380081, 48645.494429
  24.385556, 48645.493572
  24.391044, 48645.492529
  24.396531, 48645.491291
  24.402027, 48645.489848
  24.407521, 48645.488192
  24.413020, 48645.486311
  24.418498, 48645.484206
  24.424001, 48645.481848
  24.429515, 48645.479231
  24.435023, 48645.476352
  24.440544, 48645.473190
  24.446068, 48645.469739
  24.451570, 48645.466006
  24.457089, 48645.461952
  24.462620, 48645.457570
  24.468161, 48645.452845
  24.473692, 48645.447784
  24.479190, 48645.442400
  24.484744, 48645.436592
  24.490291, 48645.430409
  24.495850, 48645.423817
  24.501416, 48645.416808
  24.506984, 48645.409371
  24.512543, 48645.401513
  24.518110, 48645.393195
  24.523652, 48645.384454
  24.529237, 48645.375169
  24.534803, 48645.365426
  24.540395, 48645.355131
  24.545971, 48645.344347
  24.551566, 48645.332991
  24.557159, 48645.321089
  24.562758, 48645.308606
  24.568354, 48645.295551
  24.573963, 48645.281871
  24.579577, 48645.267560
  24.585195, 48645.252612
  24.590816, 48645.237010
  24.596446, 48645.220717
  24.602094, 48645.203691
  24.607747, 48645.185944
  24.613397, 48645.167491
  24.619055, 48645.148275
  24.624705, 48645.128336
  24.630376, 48645.107546
  24.636017, 48645.086084
  24.641680, 48645.063732
  24.647363, 48645.040472
  24.653059, 48645.016310
  24.658760, 48644.991257
  24.664442, 48644.965399
  24.670145, 48644.938536
  24.675867, 48644.910656
  24.681556, 48644.881990
  24.687268, 48644.852239
  24.693013, 48644.821320
  24.698730, 48644.789540
  24.704469, 48644.756604
  24.710179, 48644.722786
  24.715948, 48644.687534
  24.721704, 48644.651254
  24.727442, 48644.613972
  24.733216, 48644.575303
  24.739008, 48644.535329
  24.744774, 48644.494345
  24.750577, 48644.451869
  24.756348, 48644.408388
  24.762160, 48644.363326
  24.767941, 48644.317205
  24.773769, 48644.269398
  24.779572, 48644.220723
  24.785413, 48644.170649
  24.791258, 48644.119457
  24.797092, 48644.067272
  24.802939, 48644.013857
  24.808789, 48643.959305
  24.814659, 48643.903448
  24.820540, 48643.846351
  24.826411, 48643.788198
  24.832276, 48643.728961
  24.838175, 48643.668225
  24.844068, 48643.606373
  24.849959, 48643.543369
  24.855788, 48643.479861
  24.861712, 48643.414118
  24.867634, 48643.347195
  24.873565, 48643.278932
  24.879492, 48643.209507
  24.885373, 48643.139391
  24.891306, 48643.067409
  24.897247, 48642.994088
  24.903202, 48642.919327
  24.909181, 48642.842967
  24.915130, 48642.765713
  24.921107, 48642.686802
  24.927078, 48642.606668
  24.933044, 48642.525286
  24.939034, 48642.442240
  24.945007, 48642.358111
  24.951026, 48642.271986
  24.957019, 48642.184872
  24.963048, 48642.095855
  24.969070, 48642.005573
  24.975107, 48641.913672
  24.981118, 48641.820762
  24.987136, 48641.726343
  24.993177, 48641.630158
  24.999238, 48641.532204
  25.005314, 48641.432567
  25.011371, 48641.331788
  25.017431, 48641.229481
  25.023537, 48641.124926
  25.029634, 48641.019029
  25.035722, 48640.911805
  25.041842, 48640.802475
  25.047955, 48640.691746
  25.054066, 48640.579520
  25.060212, 48640.465112
  25.066330, 48640.349659
  25.072467, 48640.232269
  25.078578, 48640.113810
  25.084743, 48639.992701
  25.090889, 48639.870379
  25.092125, 48639.845594
  25.092983, 48639.828344
  25.093595, 48639.816015
  25.094099, 48639.805854
  25.095520, 48639.777152
  25.095690, 48639.773698
  25.095714, 48639.773221
  25.095721, 48639.773076
  25.095728, 48639.772928
  25.095780, 48639.771881
  25.096050, 48639.766419
  25.097024, 48639.746677
  25.099401, 48639.698305
  25.104719, 48639.589214
  25.110867, 48639.461592
  25.117063, 48639.331310
  25.123265, 48639.199221
  25.129502, 48639.064694
  25.135726, 48638.928737
  25.141965, 48638.790757
  25.148221, 48638.650629
  25.154460, 48638.509176
  25.160708, 48638.365748
  25.166990, 48638.219779
  25.173259, 48638.072314
  25.179547, 48637.922620
  25.185837, 48637.771047
  25.192142, 48637.617316
  25.198457, 48637.461474
  25.204804, 48637.303000
  25.211118, 48637.143460
  25.217457, 48636.981426
  25.223808, 48636.817189
  25.230154, 48636.651153
  25.236525, 48636.482544
  25.242904, 48636.311803
  25.249281, 48636.139143
  25.255665, 48635.964314
  25.262098, 48635.786165
  25.268510, 48635.606607
  25.273769, 48635.457821
  25.274931, 48635.424755
  25.281361, 48635.240612
  25.287786, 48635.054592
  25.294261, 48634.865057
  25.300727, 48634.673678
  25.307217, 48634.479481
  25.313699, 48634.283424
  25.320169, 48634.085599
  25.326676, 48633.884508
  25.333208, 48633.680463
  25.339759, 48633.473644
  25.346309, 48633.264632
  25.352860, 48633.053397
  25.359432, 48632.839214
  25.365996, 48632.623053
  25.372593, 48632.403529
  25.379198, 48632.181439
  25.385796, 48631.957300
  25.392391, 48631.730937
  25.399010, 48631.501400
  25.405663, 48631.268350
  25.412311, 48631.033087
  25.418964, 48630.795239
  25.425642, 48630.554063
  25.432314, 48630.310731
  25.438993, 48630.064648
  25.445686, 48629.815601
  25.452397, 48629.563409
  25.459138, 48629.307585
  25.465864, 48629.049775
  25.472624, 48628.788155
  25.479369, 48628.524515
  25.486127, 48628.257790
  25.492896, 48627.988052
  25.499720, 48627.713502
  25.506544, 48627.436254
  25.513350, 48627.157097
  25.520164, 48626.874914
  25.526979, 48626.590005
  25.533822, 48626.301225
  25.540703, 48626.008048
  25.547527, 48625.714597
  25.554435, 48625.414736
  25.561320, 48625.113042
  25.568241, 48624.806949
  25.575137, 48624.499124
  25.582063, 48624.187065
  25.588991, 48623.872083
  25.595970, 48623.551812
  25.602914, 48623.230262
  25.609904, 48622.903576
  25.616878, 48622.574681
  25.623890, 48622.240975
  25.630937, 48621.902571
  25.637962, 48621.562166
  25.645050, 48621.215583
  25.652112, 48620.867162
  25.659209, 48620.513920
  25.666254, 48620.160053
  25.673371, 48619.799483
  25.680488, 48619.435636
  25.687627, 48619.067482
  25.694756, 48618.696545
  25.701896, 48618.321806
  25.709037, 48617.943738
  25.716194, 48617.561507
  25.723403, 48617.173118
  25.730586, 48616.782834
  25.737817, 48616.386451
  25.745065, 48615.985758
  25.752265, 48615.584304
  25.759560, 48615.174048
  25.766783, 48614.764346
  25.774096, 48614.346011
  25.781358, 48613.927026
  25.788658, 48613.502350
  25.795969, 48613.073398
  25.803278, 48612.640933
  25.810652, 48612.201000
  25.818029, 48611.757122
  25.825447, 48611.307054
  25.832814, 48610.856392
  25.840185, 48610.401700
  25.847545, 48609.943928
  25.854954, 48609.479362
  25.862389, 48609.009321
  25.869854, 48608.533429
  25.877326, 48608.053252
  25.884787, 48607.569860
  25.892318, 48607.077878
  25.899888, 48606.579339
  25.907400, 48606.080584
  25.914933, 48605.576408
  25.922465, 48605.068240
  25.930048, 48604.552517
  25.937670, 48604.029931
  25.945249, 48603.506104
  25.952855, 48602.976259
  25.960490, 48602.440130
  25.968168, 48601.896715
  25.975834, 48601.349761
  25.983518, 48600.797195
  25.991245, 48600.237208
  25.998953, 48599.674090
  26.006713, 48599.102731
  26.014459, 48598.527962
  26.022186, 48597.950104
  26.029992, 48597.361740
  26.037758, 48596.771854
  26.045595, 48596.171894
  26.053435, 48595.567151
  26.061233, 48594.960886
  26.069095, 48594.344957
  26.076940, 48593.725673
  26.084835, 48593.097581
  26.092731, 48592.464694
  26.100697, 48591.821216
  26.108677, 48591.171674
  26.116636, 48590.518923
  26.124579, 48589.862480
  26.132512, 48589.201964
  26.140501, 48588.531755
  26.148468, 48587.858354
  26.156547, 48587.170357
  26.164571, 48586.481884
  26.172568, 48585.790602
  26.180568, 48585.093914
  26.188609, 48584.388521
  26.196670, 48583.676159
  26.204702, 48582.961027
  26.212846, 48582.230711
  26.220912, 48581.501997
  26.229039, 48580.762392
  26.237240, 48580.010559
  26.245414, 48579.255703
  26.253609, 48578.493382
  26.261840, 48577.722183
  26.270026, 48576.949564
  26.278272, 48576.165679
  26.286492, 48575.378589
  26.294696, 48574.587317
  26.302988, 48573.781935
  26.311316, 48572.967190
  26.319576, 48572.153308
  26.327818, 48571.335374
  26.336119, 48570.505896
  26.344411, 48569.671331
  26.352670, 48568.834215
  26.361100, 48567.973808
  26.369443, 48567.116249
  26.377858, 48566.245230
  26.386272, 48565.368144
  26.394659, 48564.487768
  26.403188, 48563.586295
  26.411690, 48562.681195
  26.420130, 48561.776570
  26.428583, 48560.864274
  26.437121, 48559.936373
  26.445671, 48559.000701
  26.454193, 48558.061705
  26.462690, 48557.118979
  26.471222, 48556.165989
  26.479807, 48555.200366
  26.488403, 48554.227077
  26.497022, 48553.244430
  26.505639, 48552.255339
  26.514237, 48551.261718
  26.522872, 48550.257117
  26.531611, 48549.233465
  26.540221, 48548.218141
  26.548951, 48547.181794
  26.557724, 48546.133301
  26.566506, 48545.076693
  26.575252, 48544.017285
  26.583993, 48542.951566
  26.592746, 48541.877195
  26.601513, 48540.793950
  26.610255, 48539.706775
  26.619064, 48538.603952
  26.627887, 48537.492143
  26.636695, 48536.375017
  26.645624, 48535.235050
  26.654418, 48534.104954
  26.663239, 48532.964116
  26.672203, 48531.797175
  26.681142, 48530.625877
  26.690084, 48529.446512
  26.699010, 48528.261744
  26.707927, 48527.070618
  26.717015, 48525.848770
  26.726023, 48524.629729
  26.734985, 48523.409317
  26.744097, 48522.160360
  26.753095, 48520.919222
  26.762163, 48519.660409
  26.771191, 48518.399343
  26.780408, 48517.103578
  26.789491, 48515.818558
  26.798572, 48514.525619
  26.807752, 48513.210482
  26.816871, 48511.895890
  26.826009, 48510.570223
  26.835258, 48509.219979
  26.844477, 48507.865817
  26.853596, 48506.517991
  26.862812, 48505.147449
  26.872039, 48503.766712
  26.881224, 48502.383805
  26.890397, 48500.994300
  26.899646, 48499.584644
  26.908910, 48498.164191
  26.918212, 48496.728994
  26.927501, 48495.287217
  26.936808, 48493.833908
  26.946079, 48492.377381
  26.955331, 48490.915105
  26.964680, 48489.428629
  26.974025, 48487.933795
  26.983440, 48486.418873
  26.992799, 48484.903843
  27.002242, 48483.366049
  27.011702, 48481.816299
  27.021110, 48480.265827
  27.030543, 48478.702130
  27.040057, 48477.115559
  27.049546, 48475.523982
  27.059060, 48473.918642
  27.068610, 48472.297594
  27.078062, 48470.683982
  27.087626, 48469.041658
  27.097240, 48467.381159
  27.106780, 48465.723722
  27.116189, 48464.079683
  27.125650, 48462.417059
  27.135320, 48460.707885
  27.144918, 48459.001683
  27.154444, 48457.298659
  27.164002, 48455.580297
  27.173582, 48453.848068
  27.183104, 48452.116539
  27.192768, 48450.349351
  27.202455, 48448.568031
  27.212068, 48446.790194
  27.221714, 48444.996269
  27.231455, 48443.174662
  27.241133, 48441.354427
  27.250834, 48439.519839
  27.260497, 48437.682404
  27.270178, 48435.831300
  27.279861, 48433.969572
  27.289513, 48432.103803
  27.299283, 48430.204752
  27.309042, 48428.297354
  27.318745, 48426.390705
  27.328595, 48424.444617
  27.338440, 48422.488821
  27.348202, 48420.538991
  27.358006, 48418.570352
  27.367897, 48416.573427
  27.377789, 48414.565423
  27.387564, 48412.570448
  27.397434, 48410.545628
  27.407257, 48408.519526
  27.417178, 48406.462287
  27.427134, 48404.386972
  27.437005, 48402.318384
  27.446901, 48400.233501
  27.456765, 48398.144643
  27.466721, 48396.025223
  27.476721, 48393.885218
  27.486724, 48391.733524
  27.496628, 48389.591822
  27.506646, 48387.414322
  27.516554, 48385.249608
  27.526558, 48383.052589
  27.536558, 48380.845377
  27.546534, 48378.631969
  27.556525, 48376.404057
  27.566613, 48374.143128
  27.576741, 48371.861456
  27.586686, 48369.609823
  27.596854, 48367.295949
  27.606893, 48364.999848
  27.616906, 48362.698352
  27.626948, 48360.378498
  27.637089, 48358.024389
  27.647137, 48355.680037
  27.657210, 48353.318330
  27.667309, 48350.938646
  27.677410, 48348.547086
  27.687541, 48346.136287
  27.697622, 48343.725895
  27.707898, 48341.256972
  27.718054, 48338.804619
  27.728326, 48336.312430
  27.738563, 48333.816298
  27.748721, 48331.327782
  27.758901, 48328.821643
  27.769061, 48326.308667
  27.779241, 48323.778467
  27.789424, 48321.235647
  27.799688, 48318.660493
  27.809889, 48316.088971
  27.820112, 48313.499712
  27.830301, 48310.906787
  27.836774, 48309.253388
