Speed, Forces
 132.149924, 3390.715124
 133.569015, 3363.995639
 134.988106, 3337.451352
 136.407198, 3312.634021
 137.826289, 3289.447871
 139.245380, 3267.793607
 140.664471, 3247.568411
 142.083563, 3229.191408
 143.502654, 3212.303743
 144.921745, 3196.613006
 146.340836, 3182.108332
 147.759928, 3169.501228
 149.179019, 3157.837195
 150.598110, 3147.215611
 152.017201, 3138.350201
 153.436293, 3130.152285
 154.855384, 3123.403421
 156.274475, 3117.688010
 157.693566, 3112.843115
 159.112658, 3109.435150
 160.531749, 3106.501455
 161.950840, 3105.215314
 163.369931, 3104.196526
 164.789023, 3104.836020
 166.208114, 3105.732327
 167.627205, 3108.090701
 169.046297, 3110.898767
 170.465388, 3114.758700
 171.884479, 3119.471670
 173.303570, 3124.605275
 174.722662, 3131.212768
 176.141753, 3137.874146
 177.560844, 3145.869710
 178.979935, 3154.425937
 180.399027, 3163.176056
 181.818118, 3173.609121
 183.237209, 3184.123937
 184.656300, 3195.139649
 186.075392, 3207.522823
 187.494483, 3220.000799
 188.913574, 3232.945276
 190.332665, 3247.278434
 191.751757, 3261.718859
 193.170848, 3276.266549
 194.589939, 3292.511875
 196.009030, 3308.908755
 197.428122, 3325.424778
 198.847213, 3342.827368
 200.266304, 3361.169427
 201.685395, 3379.641920
 203.104487, 3398.244848
 204.523578, 3418.068120
 205.942669, 3438.479936
 207.361760, 3459.032890
 208.780852, 3479.726983
 210.199943, 3501.469090
 211.619034, 3523.949055
 213.038125, 3546.580275
 214.457217, 3569.362749
 215.876308, 3592.486623
 217.295399, 3617.026085
 218.714491, 3641.726331
 220.133582, 3666.587362
 221.552673, 3691.609178
 222.971764, 3717.103978
 224.390856, 3743.856967
 225.809947, 3770.779684
 227.229038, 3797.872128
 228.648129, 3825.134301
 230.067221, 3852.566201
 231.486312, 3881.262229
 232.905403, 3910.400801
 234.324494, 3939.717457
 235.743586, 3969.212197
 237.162677, 3998.885020
 238.581768, 4028.735927
 240.000859, 4059.793324
 241.419951, 4091.318183
 242.839042, 4123.028896
 244.258133, 4154.925461
 245.677224, 4187.007879
 247.096316, 4219.276149
 248.515407, 4251.781095
 249.934498, 4285.682382
 251.353589, 4319.776703
 252.772681, 4354.064059
 254.191772, 4388.544449
 255.610863, 4423.217874
 257.029954, 4458.084334
 258.449046, 4493.143828
 259.868137, 4528.896792
 261.287228, 4565.553338
 262.706319, 4602.409513
 264.125411, 4639.465318
 265.544502, 4676.720753
 266.963593, 4714.175816
 268.382685, 4751.830510
 269.801776, 4789.684833
 271.220867, 4827.738785
 272.639958, 4866.795909
