Speed, Forces
 141.497774, 3592.843633
 143.042738, 3561.447489
 144.587701, 3530.295683
 146.132665, 3501.071476
 147.677628, 3473.670475
 149.222592, 3447.984337
 150.767555, 3423.900767
 152.312519, 3401.594658
 153.857483, 3381.199207
 155.402446, 3362.153019
 156.947410, 3344.329975
 158.492373, 3328.420836
 160.037337, 3313.858676
 161.582300, 3300.232118
 163.127264, 3288.523736
 164.672228, 3277.832994
 166.217191, 3268.174580
 167.762155, 3260.240204
 169.307118, 3252.749010
 170.852082, 3247.275521
 172.397045, 3242.160318
 173.942009, 3238.744915
 175.486973, 3235.793992
 177.031936, 3234.438554
 178.576900, 3233.428349
 180.121863, 3234.130805
 181.666827, 3234.839313
 183.211791, 3237.580233
 184.756754, 3240.357887
 186.301718, 3244.529600
 187.846681, 3249.365771
 189.391645, 3254.705868
 190.936608, 3261.585975
 192.481572, 3268.521978
 194.026536, 3276.725707
 195.571499, 3285.702414
 197.116463, 3294.750315
 198.661426, 3305.470645
 200.206390, 3316.550750
 201.751353, 3327.716689
 203.296317, 3340.582887
 204.841281, 3353.767261
 206.386244, 3367.051453
 207.931208, 3381.669081
 209.476171, 3396.952673
 211.021135, 3412.349405
 212.566098, 3428.300325
 214.111062, 3445.672156
 215.656026, 3463.169791
 217.200989, 3480.793229
 218.745953, 3499.455325
 220.290916, 3519.036300
 221.835880, 3538.755086
 223.380843, 3558.611682
 224.925807, 3579.437071
 226.470771, 3601.227056
 228.015734, 3623.166200
 229.560698, 3645.254501
 231.105661, 3667.655798
 232.650625, 3691.646758
 234.195589, 3715.797565
 235.740552, 3740.108221
 237.285516, 3764.578723
 238.830479, 3789.634531
 240.375443, 3815.980409
 241.920406, 3842.496164
 243.465370, 3869.181799
 245.010334, 3896.037312
 246.555297, 3923.062703
 248.100261, 3951.678451
 249.645224, 3980.553405
 251.190188, 4009.607610
 252.735151, 4038.841066
 254.280115, 4068.253773
 255.825079, 4097.882550
 257.370042, 4129.101076
 258.915006, 4160.507566
 260.459969, 4192.102023
 262.004933, 4223.884445
 263.549896, 4255.854832
 265.094860, 4288.013185
 266.639824, 4320.904822
 268.184787, 4354.833459
 269.729751, 4388.958118
 271.274714, 4423.278797
 272.819678, 4457.795498
 274.364641, 4492.508221
 275.909605, 4527.416964
 277.454569, 4562.521729
 278.999532, 4599.012391
 280.544496, 4635.848769
 282.089459, 4672.888567
 283.634423, 4710.131783
 285.179387, 4747.578417
 286.724350, 4785.228471
 288.269314, 4823.081943
 289.814277, 4861.138834
 291.359241, 4899.804616
 292.904204, 4939.542598
 294.449168, 4979.490739
