Speed, Forces
 149.149370, 3390.715124
 150.319548, 3371.656070
 151.489725, 3351.646304
 152.659902, 3332.377642
 153.830079, 3314.523401
 155.000257, 3297.182033
 156.170434, 3280.862619
 157.340611, 3265.471994
 158.510789, 3250.566221
 159.680966, 3237.014821
 160.851143, 3223.674407
 162.021321, 3211.699620
 163.191498, 3199.967329
 164.361675, 3189.407973
 165.531852, 3179.156935
 166.702030, 3170.013945
 167.872207, 3161.111649
 169.042384, 3153.384080
 170.212562, 3145.692376
 171.382739, 3139.377402
 172.552916, 3133.019162
 173.723093, 3127.845415
 174.893271, 3122.905164
 176.063448, 3118.632104
 177.233625, 3115.102944
 178.403803, 3111.573933
 179.573980, 3109.447086
 180.744157, 3107.306333
 181.914334, 3105.764654
 183.084512, 3105.024715
 184.254689, 3104.280031
 185.424866, 3104.523215
 186.595044, 3105.175341
 187.765221, 3105.831568
 188.935398, 3107.645868
 190.105575, 3109.692393
 191.275753, 3111.751554
 192.445930, 3114.911943
 193.616107, 3118.352382
 194.786285, 3121.813678
 195.956462, 3126.083849
 197.126639, 3130.914898
 198.296817, 3135.774711
 199.466994, 3140.907078
 200.637171, 3147.122612
 201.807348, 3153.374503
 202.977526, 3159.662752
 204.147703, 3166.701274
 205.317880, 3174.335986
 206.488058, 3182.014336
 207.658235, 3189.736323
 208.828412, 3198.365171
 209.998589, 3207.421230
 211.168767, 3216.527894
 212.338944, 3225.685162
 213.509121, 3235.569706
 214.679299, 3246.045523
 215.849476, 3256.578597
 217.019653, 3267.168928
 218.189830, 3277.955740
 219.360008, 3289.845962
 220.530185, 3301.799782
 221.700362, 3313.817201
 222.870540, 3325.898218
 224.040717, 3338.429568
 225.210894, 3351.794711
 226.381072, 3365.229479
 227.551249, 3378.733872
 228.721426, 3392.307891
 229.891603, 3406.136563
 231.061781, 3420.975183
 232.231958, 3435.889143
 233.402135, 3450.878441
 234.572313, 3465.943077
 235.742490, 3481.083053
 236.912667, 3496.899609
 238.082844, 3513.286303
 239.253022, 3529.753736
 240.423199, 3546.301908
 241.593376, 3562.930819
 242.763554, 3579.640469
 243.933731, 3596.881490
 245.103908, 3614.815589
 246.274085, 3632.835514
 247.444263, 3650.941264
 248.614440, 3669.132841
 249.784617, 3687.410244
 250.954795, 3705.773472
 252.124972, 3724.948026
 253.295149, 3744.513820
 254.465326, 3764.170213
 255.635504, 3783.917206
 256.805681, 3803.754799
 257.975858, 3823.682992
 259.146036, 3843.701784
 260.316213, 3864.100319
 261.486390, 3885.294780
 262.656568, 3906.584301
 263.826745, 3927.968881
 264.996922, 3949.448522
