Speed, Forces
 160.258924, 3592.843633
 161.528630, 3570.575847
 162.798335, 3547.298874
 164.068041, 3524.793861
 165.337747, 3503.881988
 166.607452, 3483.548019
 167.877158, 3464.238662
 169.146863, 3446.047091
 170.416569, 3428.263338
 171.686274, 3412.092934
 172.955980, 3396.171152
 174.225685, 3381.565431
 175.495391, 3367.412993
 176.765097, 3354.336148
 178.034802, 3341.814834
 179.304508, 3330.268329
 180.574213, 3319.233678
 181.843919, 3309.216897
 183.113624, 3299.518210
 184.383330, 3291.028456
 185.653036, 3282.508793
 186.922741, 3275.541291
 188.192447, 3268.526301
 189.462152, 3262.585366
 190.731858, 3257.096600
 192.001563, 3251.982323
 193.271269, 3248.010499
 194.540974, 3244.012496
 195.810680, 3241.079242
 197.080386, 3238.596953
 198.350091, 3236.105751
 199.619797, 3235.125388
 200.889502, 3234.138769
 202.159208, 3233.390323
 203.428913, 3233.899202
 204.698619, 3234.411267
 205.968324, 3235.162042
 207.238030, 3237.160404
 208.507736, 3239.171046
 209.777441, 3241.193970
 211.047147, 3244.649993
 212.316852, 3248.155987
 213.586558, 3251.683011
 214.856263, 3256.090248
 216.125969, 3261.085248
 217.395674, 3266.109680
 218.665380, 3271.184729
 219.935086, 3277.659269
 221.204791, 3284.171295
 222.474497, 3290.720808
 223.744202, 3297.559768
 225.013908, 3305.546456
 226.283613, 3313.578338
 227.553319, 3321.655415
 228.823024, 3329.895039
 230.092730, 3339.392893
 231.362436, 3348.943302
 232.632141, 3358.546268
 233.901847, 3368.201790
 235.171552, 3378.806384
 236.441258, 3389.869831
 237.710963, 3400.992849
 238.980669, 3412.175439
 240.250375, 3423.417600
 241.520080, 3435.928288
 242.789786, 3448.561363
 244.059491, 3461.260677
 245.329197, 3474.026231
 246.598902, 3486.858025
 247.868608, 3500.784731
 249.138313, 3514.986267
 250.408019, 3529.260364
 251.677725, 3543.607023
 252.947430, 3558.026242
 254.217136, 3572.847691
 255.486841, 3588.611321
 256.756547, 3604.453488
 258.026252, 3620.374191
 259.295958, 3636.373431
 260.565663, 3652.451207
 261.835369, 3668.851303
 263.105075, 3686.249626
 264.374780, 3703.732114
 265.644486, 3721.298767
 266.914191, 3738.949585
 268.183897, 3756.684567
 269.453602, 3774.503714
 270.723308, 3793.033168
 271.993013, 3812.149427
 273.262719, 3831.355133
 274.532425, 3850.650285
 275.802130, 3870.034884
 277.071836, 3889.508929
 278.341541, 3909.072420
 279.611247, 3928.957826
 280.880952, 3949.789448
 282.150658, 3970.715451
 283.420364, 3991.735836
 284.690069, 4012.850602
 285.959775, 4034.059750
