Speed, Forces
 124.696901, 3390.715124
 126.229097, 3359.960237
 127.761293, 3329.911709
 129.293489, 3302.079934
 130.825685, 3276.525139
 132.357881, 3253.098121
 133.890077, 3231.675508
 135.422273, 3212.145134
 136.954469, 3194.390225
 138.486665, 3178.289393
 140.018861, 3163.932109
 141.551057, 3151.618923
 143.083253, 3140.684446
 144.615449, 3130.991153
 146.147644, 3123.272622
 147.679840, 3116.898742
 149.212036, 3111.450714
 150.744232, 3108.112359
 152.276428, 3105.624151
 153.808624, 3104.461791
 155.340820, 3104.733171
 156.873016, 3105.758377
 158.405212, 3108.575281
 159.937408, 3111.795013
 161.469604, 3116.929543
 163.001800, 3122.346151
 164.533996, 3129.556577
 166.066192, 3137.167798
 167.598388, 3146.198554
 169.130584, 3155.997515
 170.662780, 3166.579203
 172.194976, 3178.554421
 173.727171, 3190.636671
 175.259367, 3204.539188
 176.791563, 3218.798687
 178.323759, 3233.634045
 179.855955, 3250.049318
 181.388151, 3266.605031
 182.920347, 3284.047737
 184.452543, 3302.748690
 185.984739, 3321.605633
 187.516935, 3341.249398
 189.049131, 3362.234898
 190.581327, 3383.391172
 192.113523, 3404.802039
 193.645719, 3428.064038
 195.177915, 3451.510826
 196.710111, 3475.142402
 198.242307, 3499.750706
 199.774502, 3525.472273
 201.306698, 3551.391874
 202.838894, 3577.509510
 204.371090, 3604.741693
 205.903286, 3632.925900
 207.435482, 3661.320619
 208.967678, 3689.925850
 210.499874, 3719.162241
 212.032070, 3749.802939
 213.564266, 3780.665858
 215.096462, 3811.750996
 216.628658, 3843.058355
 218.160854, 3875.407630
 219.693050, 3908.722607
 221.225246, 3942.270745
 222.757442, 3976.052043
 224.289638, 4010.066502
 225.821834, 4044.712110
 227.354029, 4080.697115
 228.886225, 4116.925452
 230.418421, 4153.397122
 231.950617, 4190.112123
 233.482813, 4227.070456
 235.015009, 4264.807600
 236.547205, 4303.699589
 238.079401, 4342.844314
 239.611597, 4382.241774
 241.143793, 4421.891968
 242.675989, 4461.794898
 244.208185, 4501.950563
 245.740381, 4543.336424
 247.272577, 4585.386730
 248.804773, 4627.698405
 250.336969, 4670.271450
 251.869165, 4713.105864
 253.401360, 4756.201649
 254.933556, 4799.558802
 256.465752, 4843.294237
 257.997948, 4888.494719
 259.530144, 4933.964438
 261.062340, 4979.703392
 262.594536, 5025.711582
 264.126732, 5071.989007
 265.658928, 5118.535669
 267.191124, 5165.351566
 268.723320, 5212.436698
 270.255516, 5260.121516
 271.787712, 5309.000564
 273.319908, 5358.155946
 274.852104, 5407.587661
 276.384300, 5457.295709
