Speed, Forces
 141.497774, 7142.897044
 143.042738, 7100.745238
 144.587701, 7058.593432
 146.132665, 7016.441626
 147.677628, 6974.289820
 149.222592, 6932.138014
 150.767555, 6889.986208
 152.312519, 6847.834402
 153.857483, 6805.682596
 155.402446, 6763.530790
 156.947410, 6721.378983
 158.492373, 6679.227177
 160.037337, 6637.123655
 161.582300, 6601.999162
 163.127264, 6566.874669
 164.672228, 6531.750175
 166.217191, 6496.625682
 167.762155, 6461.501189
 169.307118, 6426.376696
 170.852082, 6391.252203
 172.397045, 6356.127710
 173.942009, 6321.003217
 175.486973, 6285.878724
 177.031936, 6250.754231
 178.576900, 6215.629738
 180.121863, 6180.505245
 181.666827, 6145.380752
 183.211791, 6110.256259
 184.756754, 6075.131766
 186.301718, 6040.007272
 187.846681, 6004.882779
 189.391645, 5969.758286
 190.936608, 5934.633793
 192.481572, 5901.060762
 194.026536, 5871.268682
 195.571499, 5841.476603
 197.116463, 5811.684524
 198.661426, 5781.892444
 200.206390, 5752.100365
 201.751353, 5722.308286
 203.296317, 5692.516206
 204.841281, 5662.724127
 206.386244, 5632.932048
 207.931208, 5603.139969
 209.476171, 5573.347889
 211.021135, 5543.555810
 212.566098, 5513.763731
 214.111062, 5483.971651
 215.656026, 5454.179572
 217.200989, 5424.387493
 218.745953, 5394.595413
 220.290916, 5364.803334
 221.835880, 5335.011255
 223.380843, 5305.219175
 224.925807, 5278.520037
 226.470771, 5254.106728
 228.015734, 5229.693418
 229.560698, 5205.280109
 231.105661, 5180.866800
 232.650625, 5156.453490
 234.195589, 5132.040181
 235.740552, 5107.626872
 237.285516, 5083.213562
 238.830479, 5058.800253
 240.375443, 5034.386944
 241.920406, 5009.973635
 243.465370, 4985.560325
 245.010334, 4961.147016
 246.555297, 4936.733707
 248.100261, 4912.320397
 249.645224, 4887.907088
 251.190188, 4863.493779
 252.735151, 4839.080469
 254.280115, 4814.667160
 255.825079, 4790.253851
 257.370042, 4769.445110
 258.915006, 4749.227521
 260.459969, 4729.009932
 262.004933, 4708.792344
 263.549896, 4688.574755
 265.094860, 4668.357166
 266.639824, 4648.139578
 268.184787, 4627.921989
 269.729751, 4607.704400
 271.274714, 4587.486812
 272.819678, 4567.269223
 274.364641, 4547.051634
 275.909605, 4526.834046
 277.454569, 4506.616457
 278.999532, 4486.398868
 280.544496, 4466.181280
 282.089459, 4445.963691
 283.634423, 4425.746102
 285.179387, 4405.528514
 286.724350, 4385.310925
 288.269314, 4365.410691
 289.814277, 4347.409509
 291.359241, 4329.408327
 292.904204, 4311.407145
 294.449168, 4293.405963
