Speed, Forces
 133.303333, 8081.884523
 134.973053, 8033.206167
 136.642774, 7984.527812
 138.312494, 7935.849456
 139.982215, 7887.171101
 141.651935, 7838.492745
 143.321656, 7789.814390
 144.991377, 7741.136034
 146.661097, 7692.457679
 148.330818, 7643.779323
 150.000538, 7595.100968
 151.670259, 7546.422612
 153.339979, 7497.744257
 155.009700, 7449.065901
 156.679421, 7400.387546
 158.349141, 7351.709190
 160.018862, 7303.030835
 161.688582, 7254.352479
 163.358303, 7209.209160
 165.028023, 7166.033741
 166.697744, 7122.858321
 168.367464, 7079.682902
 170.037185, 7036.507483
 171.706906, 6993.332063
 173.376626, 6950.156644
 175.046347, 6906.981225
 176.716067, 6863.805805
 178.385788, 6820.630386
 180.055508, 6777.454967
 181.725229, 6734.279547
 183.394950, 6691.104128
 185.064670, 6647.928709
 186.734391, 6604.753289
 188.404111, 6561.577870
 190.073832, 6518.402451
 191.743552, 6475.227031
 193.413273, 6432.051612
 195.082994, 6389.450552
 196.752714, 6349.094400
 198.422435, 6308.738248
 200.092155, 6268.382096
 201.761876, 6228.025944
 203.431596, 6187.669792
 205.101317, 6147.313640
 206.771037, 6106.957489
 208.440758, 6066.601337
 210.110479, 6026.245185
 211.780199, 5985.889033
 213.449920, 5945.532881
 215.119640, 5905.176729
 216.789361, 5864.820577
 218.459081, 5824.464425
 220.128802, 5784.108273
 221.798523, 5743.752121
 223.468243, 5703.395969
 225.137964, 5663.039817
 226.807684, 5622.683665
 228.477405, 5587.402571
 230.147125, 5553.679944
 231.816846, 5519.957317
 233.486567, 5486.234690
 235.156287, 5452.512063
 236.826008, 5418.789436
 238.495728, 5385.066809
 240.165449, 5351.344182
 241.835169, 5317.621555
 243.504890, 5283.898928
 245.174611, 5250.176301
 246.844331, 5216.453674
 248.514052, 5182.731047
 250.183772, 5149.008420
 251.853493, 5115.285793
 253.523213, 5081.563166
 255.192934, 5047.840539
 256.862654, 5014.117912
 258.532375, 4980.395285
 260.202096, 4948.244064
 261.871816, 4919.335831
 263.541537, 4890.427597
 265.211257, 4861.519364
 266.880978, 4832.611131
 268.550698, 4803.702898
 270.220419, 4774.794664
 271.890140, 4745.886431
 273.559860, 4716.978198
 275.229581, 4688.069965
 276.899301, 4659.161732
 278.569022, 4630.253498
 280.238742, 4601.345265
 281.908463, 4572.437032
 283.578184, 4543.528799
 285.247904, 4514.620565
 286.917625, 4485.712332
 288.587345, 4456.804099
 290.257066, 4427.895866
 291.926786, 4398.987633
 293.596507, 4371.397361
 295.266227, 4343.973765
 296.935948, 4316.550169
 298.605669, 4289.126574
