Speed, Forces
 150.451151, 6251.587270
 151.863106, 6216.159681
 153.275061, 6180.732092
 154.687017, 6145.304504
 156.098972, 6109.876915
 157.510927, 6074.449326
 158.922883, 6045.408793
 160.334838, 6017.581146
 161.746793, 5989.753498
 163.158748, 5961.925850
 164.570704, 5934.098202
 165.982659, 5906.270554
 167.394614, 5878.442906
 168.806570, 5850.615259
 170.218525, 5822.787611
 171.630480, 5794.959963
 173.042435, 5767.132315
 174.454391, 5739.304667
 175.866346, 5711.477019
 177.278301, 5683.649371
 178.690257, 5655.821724
 180.102212, 5627.994076
 181.514167, 5600.166428
 182.926122, 5572.338780
 184.338078, 5544.511132
 185.750033, 5516.683484
 187.161988, 5488.855837
 188.573944, 5461.028189
 189.985899, 5435.401542
 191.397854, 5411.998426
 192.809809, 5388.595309
 194.221765, 5365.192192
 195.633720, 5341.789075
 197.045675, 5318.385959
 198.457631, 5294.982842
 199.869586, 5271.579725
 201.281541, 5248.176608
 202.693496, 5224.773492
 204.105452, 5201.370375
 205.517407, 5177.967258
 206.929362, 5154.564141
 208.341318, 5131.161025
 209.753273, 5107.757908
 211.165228, 5084.354791
 212.577183, 5060.951674
 213.989139, 5037.548558
 215.401094, 5014.145441
 216.813049, 4990.742324
 218.225005, 4967.339207
 219.636960, 4943.936091
 221.048915, 4921.124392
 222.460870, 4901.549227
 223.872826, 4881.974063
 225.284781, 4862.398899
 226.696736, 4842.823735
 228.108692, 4823.248571
 229.520647, 4803.673406
 230.932602, 4784.098242
 232.344557, 4764.523078
 233.756513, 4744.947914
 235.168468, 4725.372749
 236.580423, 4705.797585
 237.992379, 4686.222421
 239.404334, 4666.647257
 240.816289, 4647.072093
 242.228244, 4627.496928
 243.640200, 4607.921764
 245.052155, 4588.346600
 246.464110, 4568.771436
 247.876066, 4549.196271
 249.288021, 4529.621107
 250.699976, 4510.045943
 252.111931, 4490.470779
 253.523887, 4473.692424
 254.935842, 4457.563536
 256.347797, 4441.434649
 257.759753, 4425.305761
 259.171708, 4409.176873
 260.583663, 4393.047986
 261.995618, 4376.919098
 263.407574, 4360.790210
 264.819529, 4344.661323
 266.231484, 4328.532435
 267.643440, 4312.403547
 269.055395, 4296.274660
 270.467350, 4280.145772
 271.879305, 4264.016884
 273.291261, 4247.887997
 274.703216, 4231.759109
 276.115171, 4215.630221
 277.527127, 4199.501334
 278.939082, 4183.372446
 280.351037, 4167.243558
 281.762992, 4151.114671
 283.174948, 4134.985783
 284.586903, 4119.776320
 285.998858, 4105.609538
 287.410814, 4091.442756
 288.822769, 4077.275973
 290.234724, 4063.109191
