Time, Energies
   0.000000,    0.000000
   0.000028,    0.000679
   0.000056,    0.002706
   0.000083,    0.006074
   0.000111,    0.010780
   0.000139,    0.016819
   0.000167,    0.024188
   0.000194,    0.032881
   0.000222,    0.042894
   0.000250,    0.054224
   0.000278,    0.066866
   0.000306,    0.080815
   0.000333,    0.095982
   0.000361,    0.112423
   0.000389,    0.130143
   0.000417,    0.149137
   0.000444,    0.169403
   0.000472,    0.190934
   0.000500,    0.213728
   0.000528,    0.237780
   0.000556,    0.263086
   0.000583,    0.289641
   0.000611,    0.317284
   0.000639,    0.346135
   0.000667,    0.376207
   0.000694,    0.407496
   0.000722,    0.440000
   0.000750,    0.473712
   0.000778,    0.508629
   0.000806,    0.544748
   0.000833,    0.582063
   0.000861,    0.620572
   0.000889,    0.660039
   0.000917,    0.700649
   0.000944,    0.742424
   0.000972,    0.785361
   0.001000,    0.829455
   0.001028,    0.874703
   0.001056,    0.921100
   0.001083,    0.968643
   0.001111,    1.017327
   0.001139,    1.067149
   0.001167,    1.117802
   0.001194,    1.169534
   0.001222,    1.222377
   0.001250,    1.276326
   0.001278,    1.331379
   0.001306,    1.387531
   0.001333,    1.444778
   0.001361,    1.503116
   0.001389,    1.562542
   0.001417,    1.623052
   0.001444,    1.683641
   0.001472,    1.745118
   0.001500,    1.807601
   0.001528,    1.871083
   0.001556,    1.935560
   0.001583,    2.001026
   0.001611,    2.067475
   0.001639,    2.134904
   0.001667,    2.203307
   0.001694,    2.272678
   0.001722,    2.342226
   0.001750,    2.412605
   0.001778,    2.483906
   0.001806,    2.556122
   0.001833,    2.629249
   0.001861,    2.703282
   0.001889,    2.778215
   0.001917,    2.854042
   0.001944,    2.930759
   0.001972,    3.008360
   0.002000,    3.086189
   0.002028,    3.164795
   0.002056,    3.244254
   0.002083,    3.324562
   0.002111,    3.405713
   0.002139,    3.487701
   0.002167,    3.570523
   0.002194,    3.654172
   0.002222,    3.738644
   0.002250,    3.823933
   0.002278,    3.909317
   0.002306,    3.995405
   0.002333,    4.082281
   0.002361,    4.169942
   0.002389,    4.258381
   0.002417,    4.347593
   0.002444,    4.437575
   0.002472,    4.528321
   0.002500,    4.619826
   0.002528,    4.712085
   0.002556,    4.804315
   0.002583,    4.897181
   0.002611,    4.990774
   0.002639,    5.085089
   0.002667,    5.180122
   0.002694,    5.275868
   0.002722,    5.372322
   0.002750,    5.469481
   0.002778,    5.567338
   0.002806,    5.665889
   0.002833,    5.764298
   0.002861,    5.863278
   0.002889,    5.962927
   0.002917,    6.063240
   0.002944,    6.164213
   0.002972,    6.265842
   0.003000,    6.368122
   0.003028,    6.471048
   0.003056,    6.574617
   0.003083,    6.678823
   0.003111,    6.779063
   0.003139,    6.879217
   0.003167,    6.979846
   0.003194,    7.080943
   0.003222,    7.182503
   0.003250,    7.284519
   0.003278,    7.386985
   0.003306,    7.489896
   0.003333,    7.593245
   0.003361,    7.697027
   0.003389,    7.799974
   0.003417,    7.903173
   0.003444,    8.006775
   0.003472,    8.110774
   0.003500,    8.215163
   0.003528,    8.319939
   0.003556,    8.425094
   0.003583,    8.530623
   0.003611,    8.636520
   0.003639,    8.742780
   0.003667,    8.848340
   0.003694,    8.954115
   0.003722,    9.060234
   0.003750,    9.166690
   0.003778,    9.273477
   0.003806,    9.380592
   0.003833,    9.488027
   0.003861,    9.595779
   0.003889,    9.703841
   0.003917,    9.812208
   0.003944,    9.919825
   0.003972,   10.027604
   0.004000,   10.135671
   0.004028,   10.244021
   0.004056,   10.352649
   0.004083,   10.461549
   0.004111,   10.570718
   0.004139,   10.680149
   0.004167,   10.789838
   0.004194,   10.899780
   0.004222,   11.008935
   0.004250,   11.118203
   0.004278,   11.227710
   0.004306,   11.337450
   0.004333,   11.447419
   0.004361,   11.557611
   0.004389,   11.668023
   0.004417,   11.778649
   0.004444,   11.889484
   0.004472,   12.000525
   0.004500,   12.110754
   0.004528,   12.221055
   0.004556,   12.331548
   0.004583,   12.442229
   0.004611,   12.553094
   0.004639,   12.664139
   0.004667,   12.775358
   0.004694,   12.886747
   0.004722,   12.998303
   0.004750,   13.110020
   0.004778,   13.220932
   0.004806,   13.331881
   0.004833,   13.442981
   0.004861,   13.554229
   0.004889,   13.665621
   0.004917,   13.777152
   0.004944,   13.888818
   0.004972,   14.000615
   0.005000,   14.112539
   0.005028,   14.224586
   0.005056,   14.336400
   0.005083,   14.448297
   0.005111,   14.560317
   0.005139,   14.672456
   0.005167,   14.784711
   0.005194,   14.897078
   0.005211,   14.962883
   0.005238,   15.074898
   0.005266,   15.187017
   0.005294,   15.299237
   0.005322,   15.411029
   0.005350,   15.522337
   0.005377,   15.633738
   0.005405,   15.745230
   0.005433,   15.856809
   0.005461,   15.968472
   0.005488,   16.080214
   0.005516,   16.192032
   0.005544,   16.303923
   0.005572,   16.415884
   0.005600,   16.527052
   0.005627,   16.637340
   0.005655,   16.747696
   0.005683,   16.858118
   0.005711,   16.968602
   0.005738,   17.079147
   0.005766,   17.189747
   0.005794,   17.300401
   0.005822,   17.411105
   0.005850,   17.521856
   0.005877,   17.631714
   0.005905,   17.740581
   0.005933,   17.849499
   0.005961,   17.958464
   0.005988,   18.067474
   0.006016,   18.176526
   0.006044,   18.285617
   0.006072,   18.394744
   0.006100,   18.503905
   0.006127,   18.613098
   0.006142,   18.670525
   0.006170,   18.770361
   0.006198,   18.870259
   0.006225,   18.970217
   0.006253,   19.070234
   0.006281,   19.170310
   0.006309,   19.270443
   0.006336,   19.370632
   0.006364,   19.470876
   0.006392,   19.571175
   0.006420,   19.671527
   0.006448,   19.764438
   0.006475,   19.857395
   0.006503,   19.950396
   0.006531,   20.043442
   0.006559,   20.136533
   0.006586,   20.225592
   0.006614,   20.314677
   0.006642,   20.403788
   0.006670,   20.492926
   0.006698,   20.582089
   0.006725,   20.666922
   0.006753,   20.751752
   0.006781,   20.836577
   0.006809,   20.921397
   0.006836,   21.006213
   0.006836,    0.000000
   0.026757,   56.254381
   0.047086,  113.776608
   0.068071,  171.161709
   0.090566,  225.785814
   0.115349,  282.608999
   0.142786,  342.877124
   0.173432,  406.487238
   0.208269,  474.401224
   0.249702,  544.192187
   0.249702,    0.000000
   0.263354,   28.306592
   0.277005,   56.600557
   0.290657,   84.881897
   0.304309,  113.150615
   0.317960,  141.406715
   0.331612,  169.650200
   0.345264,  197.881072
   0.358916,  226.099335
   0.372567,  254.304992
   0.386219,  282.498046
   0.399871,  310.678500
   0.413522,  338.846357
   0.427174,  367.001621
   0.440826,  395.144293
   0.454478,  423.274378
   0.468129,  451.391879
   0.481781,  479.496797
   0.495433,  507.589138
   0.509085,  535.668903
   0.522736,  563.736096
   0.536388,  591.790719
   0.550040,  619.832777
   0.563691,  647.862271
   0.577343,  675.879206
   0.590995,  703.883584
   0.604647,  731.875408
   0.618298,  759.854681
   0.631950,  787.821406
   0.645602,  815.775587
   0.645602,    0.000000
   0.664934,   18.888452
   0.684313,   35.331984
   0.703668,   49.104568
   0.722937,   60.037467
   0.742083,   68.158093
   0.761033,   73.066352
   0.779720,   74.541732
   0.798344,   75.911280
   0.816842,   74.481665
   0.816842,    0.000000
   0.826499,   27.274293
   0.836249,   54.841822
   0.846091,   82.729519
   0.856070,  110.491809
   0.866366,  137.056229
   0.877135,  163.878886
   0.888427,  191.021714
   0.900279,  218.853492
   0.912724,  247.383902
   0.912724,    0.000000
   0.943594,   32.387236
   0.974477,   64.703764
   1.005373,   96.949647
   1.036283,  129.124946
   1.067207,  161.229725
   1.098144,  193.264046
   1.129095,  225.227971
   1.160059,  257.121563
   1.191037,  288.944885
   1.191037,    0.000000
   1.201810,    8.396956
   1.212414,   15.476155
   1.223061,   22.358413
   1.233751,   28.761737
   1.244489,   34.713799
   1.255271,   40.186639
   1.266093,   45.190719
   1.276950,   49.665059
   1.287824,   53.487104
   1.287824,    0.000000
   1.371157,   86.429190
   1.454491,  172.380976
   1.537824,  257.862781
   1.621157,  342.894583
   1.704491,  427.467815
   1.787824,  511.584066
   1.871157,  595.244924
   1.954491,  678.451973
   2.037824,  761.206792
   2.037824,    0.000000
   2.037852,    0.015485
   2.037879,    0.030971
   2.037907,    0.046456
   2.037935,    0.061942
   2.037963,    0.077428
   2.037991,    0.092914
   2.038018,    0.108400
   2.038046,    0.123887
   2.038074,    0.139373
   2.038102,    0.154860
   2.038129,    0.170347
   2.038157,    0.185834
   2.038185,    0.201321
   2.038213,    0.216808
   2.038241,    0.232296
   2.038268,    0.247783
   2.038296,    0.263271
   2.038324,    0.278758
   2.038352,    0.294246
   2.038379,    0.309734
   2.038407,    0.325223
   2.038435,    0.340711
   2.038463,    0.356200
   2.038491,    0.371688
   2.038518,    0.387177
   2.038546,    0.402666
   2.038574,    0.418155
   2.038602,    0.433644
   2.038629,    0.449134
   2.038657,    0.464623
   2.038685,    0.480113
   2.038713,    0.495602
   2.038741,    0.511092
   2.038768,    0.526582
   2.038796,    0.542071
   2.038824,    0.557560
   2.038852,    0.573050
   2.038879,    0.588539
   2.038907,    0.604029
   2.038935,    0.619519
   2.038963,    0.635008
   2.038991,    0.650498
   2.039018,    0.665988
   2.039046,    0.681479
   2.039074,    0.696971
   2.039102,    0.712462
   2.039129,    0.727953
   2.039157,    0.743445
   2.039185,    0.758937
   2.039213,    0.774429
   2.039241,    0.789921
   2.039268,    0.805413
   2.039296,    0.820905
   2.039324,    0.836397
   2.039352,    0.851889
   2.039379,    0.867381
   2.039407,    0.882874
   2.039435,    0.898366
   2.039463,    0.913858
   2.039491,    0.929351
   2.039518,    0.944844
   2.039546,    0.960337
   2.039574,    0.975830
   2.039602,    0.991323
   2.039629,    1.006816
   2.039657,    1.022310
   2.039685,    1.037803
   2.039713,    1.053297
   2.039741,    1.068791
   2.039768,    1.084285
   2.039796,    1.099779
   2.039824,    1.115273
   2.039852,    1.130767
   2.039879,    1.146262
   2.039907,    1.161758
   2.039935,    1.177253
   2.039963,    1.192749
   2.039991,    1.208245
   2.040018,    1.223741
   2.040046,    1.239237
   2.040074,    1.254733
   2.040102,    1.270229
   2.040129,    1.285726
   2.040157,    1.301222
   2.040185,    1.316718
   2.040213,    1.332214
   2.040241,    1.347710
   2.040268,    1.363206
   2.040296,    1.378703
   2.040324,    1.394199
   2.040352,    1.409696
   2.040379,    1.425192
   2.040407,    1.440689
   2.040435,    1.456186
   2.040463,    1.471683
   2.040491,    1.487180
   2.040518,    1.502678
   2.040546,    1.518175
   2.040574,    1.533673
   2.040602,    1.549170
   2.040629,    1.564668
   2.040657,    1.580166
   2.040685,    1.595664
   2.040713,    1.611160
   2.040741,    1.626656
   2.040768,    1.642151
   2.040796,    1.657647
   2.040824,    1.673143
   2.040852,    1.688639
   2.040879,    1.704135
   2.040907,    1.719631
   2.040935,    1.735127
   2.040963,    1.750623
   2.040991,    1.766119
   2.041018,    1.781614
   2.041046,    1.797110
   2.041074,    1.812606
   2.041102,    1.828102
   2.041129,    1.843598
   2.041157,    1.859094
   2.041185,    1.874590
   2.041213,    1.890087
   2.041241,    1.905583
   2.041268,    1.921079
   2.041296,    1.936575
   2.041324,    1.952072
   2.041352,    1.967568
   2.041379,    1.983064
   2.041407,    1.998561
   2.041435,    2.014057
   2.041463,    2.029554
   2.041491,    2.045051
   2.041518,    2.060547
   2.041546,    2.076046
   2.041574,    2.091544
   2.041602,    2.107042
   2.041629,    2.122541
   2.041657,    2.138040
   2.041685,    2.153538
   2.041713,    2.169037
   2.041741,    2.184536
   2.041768,    2.200035
   2.041796,    2.215534
   2.041824,    2.231032
   2.041852,    2.246530
   2.041879,    2.262027
   2.041907,    2.277525
   2.041935,    2.293023
   2.041963,    2.308520
   2.041991,    2.324018
   2.042018,    2.339516
   2.042046,    2.355014
   2.042074,    2.370512
   2.042102,    2.386010
   2.042129,    2.401509
   2.042157,    2.417007
   2.042185,    2.432505
   2.042213,    2.448004
   2.042241,    2.463502
   2.042268,    2.479001
   2.042296,    2.494500
   2.042324,    2.509998
   2.042352,    2.525497
   2.042379,    2.540998
   2.042407,    2.556499
   2.042435,    2.572000
   2.042463,    2.587501
   2.042491,    2.603003
   2.042518,    2.618504
   2.042546,    2.634006
   2.042574,    2.649507
   2.042602,    2.665009
   2.042629,    2.680511
   2.042657,    2.696011
   2.042685,    2.711512
   2.042713,    2.727012
   2.042741,    2.742512
   2.042768,    2.758013
   2.042796,    2.773513
   2.042824,    2.789014
   2.042852,    2.804515
   2.042879,    2.820015
   2.042907,    2.835516
   2.042935,    2.851017
   2.042963,    2.866519
   2.042991,    2.882020
   2.043018,    2.897522
   2.043046,    2.913023
   2.043074,    2.928525
   2.043102,    2.944027
   2.043129,    2.959528
   2.043157,    2.975030
   2.043185,    2.990532
   2.043213,    3.006037
   2.043241,    3.021541
   2.043268,    3.037046
   2.043296,    3.052551
   2.043324,    3.068057
   2.043352,    3.083562
   2.043379,    3.099067
   2.043407,    3.114573
   2.043435,    3.130078
   2.043463,    3.145584
   2.043491,    3.161088
   2.043518,    3.176592
   2.043546,    3.192096
   2.043574,    3.207600
   2.043602,    3.223105
   2.043629,    3.238609
   2.043657,    3.254113
   2.043685,    3.269618
   2.043713,    3.285122
   2.043741,    3.300627
   2.043768,    3.316132
   2.043796,    3.331637
   2.043824,    3.347142
   2.043852,    3.362648
   2.043879,    3.378153
   2.043907,    3.393659
   2.043935,    3.409165
   2.043963,    3.424670
   2.043991,    3.440176
   2.044018,    3.455682
   2.044046,    3.471191
   2.044074,    3.486700
   2.044102,    3.502209
   2.044129,    3.517719
   2.044157,    3.533229
   2.044185,    3.548738
   2.044213,    3.564248
   2.044241,    3.579758
   2.044268,    3.595268
   2.044296,    3.610778
   2.044324,    3.626287
   2.044352,    3.641795
   2.044379,    3.657303
   2.044407,    3.672811
   2.044435,    3.688319
   2.044463,    3.703828
   2.044491,    3.719336
   2.044518,    3.734845
   2.044546,    3.750353
   2.044574,    3.765862
   2.044602,    3.781371
   2.044629,    3.796880
   2.044657,    3.812390
   2.044685,    3.827899
   2.044713,    3.843409
   2.044741,    3.858918
   2.044768,    3.874428
   2.044796,    3.889938
   2.044824,    3.905448
   2.044852,    3.920958
   2.044879,    3.936470
   2.044907,    3.951984
   2.044935,    3.967497
   2.044963,    3.983011
   2.044991,    3.998525
   2.045018,    4.014039
   2.045046,    4.029553
   2.045074,    4.045067
   2.045102,    4.060581
   2.045129,    4.076096
   2.045157,    4.091607
   2.045185,    4.107119
   2.045213,    4.122631
   2.045241,    4.138142
   2.045268,    4.153654
   2.045296,    4.169166
   2.045324,    4.184678
   2.045352,    4.200190
   2.045379,    4.215703
   2.045407,    4.231215
   2.045435,    4.246727
   2.045463,    4.262240
   2.045491,    4.277752
   2.045518,    4.293265
   2.045546,    4.308777
   2.045574,    4.324290
   2.045602,    4.339803
   2.045629,    4.355316
   2.045657,    4.370829
   2.045685,    4.386343
   2.045713,    4.401858
   2.045741,    4.417375
   2.045768,    4.432892
   2.045796,    4.448409
   2.045824,    4.463926
   2.045852,    4.479443
   2.045879,    4.494960
   2.045907,    4.510477
   2.045935,    4.525995
   2.045963,    4.541512
   2.045991,    4.557027
   2.046018,    4.572541
   2.046046,    4.588055
   2.046074,    4.603569
   2.046102,    4.619083
   2.046129,    4.634598
   2.046157,    4.650112
   2.046185,    4.665627
   2.046213,    4.681141
   2.046241,    4.696656
   2.046268,    4.712179
   2.046296,    4.727704
   2.046324,    4.743230
   2.046352,    4.758755
   2.046379,    4.774281
   2.046407,    4.789806
   2.046435,    4.805332
   2.046463,    4.820859
   2.046491,    4.836385
   2.046518,    4.851911
   2.046546,    4.867439
   2.046574,    4.882967
   2.046602,    4.898495
   2.046629,    4.914023
   2.046657,    4.929552
   2.046685,    4.945080
   2.046713,    4.960609
   2.046741,    4.976138
   2.046768,    4.991668
   2.046796,    5.007197
   2.046824,    5.022722
   2.046852,    5.038246
   2.046879,    5.053770
   2.046907,    5.069295
   2.046935,    5.084819
   2.046963,    5.100344
   2.046991,    5.115869
   2.047018,    5.131394
   2.047046,    5.146919
   2.047074,    5.162444
   2.047102,    5.177968
   2.047129,    5.193491
   2.047157,    5.209015
   2.047185,    5.224539
   2.047213,    5.240063
   2.047241,    5.255587
   2.047268,    5.271111
   2.047296,    5.286635
   2.047324,    5.302160
   2.047352,    5.317684
   2.047379,    5.333209
   2.047407,    5.348733
   2.047435,    5.364258
   2.047463,    5.379782
   2.047491,    5.395307
   2.047518,    5.410832
   2.047546,    5.426357
   2.047574,    5.441883
   2.047602,    5.457408
   2.047629,    5.472933
   2.047657,    5.488462
   2.047685,    5.503991
   2.047713,    5.519521
   2.047741,    5.535050
   2.047768,    5.550580
   2.047796,    5.566110
   2.047824,    5.581640
   2.047852,    5.597170
   2.047879,    5.612701
   2.047907,    5.628231
   2.047935,    5.643758
   2.047963,    5.659284
   2.047991,    5.674810
   2.048018,    5.690336
   2.048046,    5.705863
   2.048074,    5.721389
   2.048102,    5.736916
   2.048129,    5.752442
   2.048157,    5.767969
   2.048185,    5.783496
   2.048213,    5.799023
   2.048241,    5.814549
   2.048268,    5.830076
   2.048296,    5.845603
   2.048324,    5.861130
   2.048352,    5.876657
   2.048379,    5.892184
   2.048407,    5.907712
   2.048435,    5.923239
   2.048463,    5.938767
   2.048491,    5.954286
   2.048518,    5.969804
   2.048546,    5.985322
   2.048574,    6.000840
   2.048602,    6.016358
   2.048629,    6.031876
   2.048657,    6.047394
   2.048685,    6.062912
   2.048713,    6.078430
   2.048741,    6.093948
   2.048768,    6.109465
   2.048796,    6.124982
   2.048824,    6.140498
   2.048852,    6.156015
   2.048879,    6.171532
   2.048907,    6.187049
   2.048935,    6.202565
   2.048963,    6.218082
   2.048991,    6.233599
   2.049018,    6.249116
   2.049046,    6.264633
   2.049074,    6.280150
   2.049102,    6.295667
   2.049129,    6.311184
   2.049157,    6.326701
   2.049185,    6.342218
   2.049213,    6.357735
   2.049241,    6.373252
   2.049268,    6.388769
   2.049296,    6.404286
   2.049324,    6.419808
   2.049352,    6.435330
   2.049379,    6.450853
   2.049407,    6.466376
   2.049435,    6.481898
   2.049463,    6.497421
   2.049491,    6.512944
   2.049518,    6.528467
   2.049546,    6.543990
   2.049574,    6.559513
   2.049602,    6.575033
   2.049629,    6.590552
   2.049657,    6.606071
   2.049685,    6.621590
   2.049713,    6.637109
   2.049741,    6.652628
   2.049768,    6.668147
   2.049796,    6.683666
   2.049824,    6.699185
   2.049852,    6.714705
   2.049879,    6.730225
   2.049907,    6.745745
   2.049935,    6.761266
   2.049963,    6.776786
   2.049991,    6.792307
   2.050018,    6.807828
   2.050046,    6.823349
   2.050074,    6.838869
   2.050102,    6.854390
   2.050129,    6.869911
   2.050157,    6.885438
   2.050185,    6.900966
   2.050213,    6.916494
   2.050241,    6.932022
   2.050268,    6.947550
   2.050296,    6.963078
   2.050324,    6.978606
   2.050352,    6.994135
   2.050379,    7.009663
   2.050407,    7.025192
   2.050435,    7.040717
   2.050463,    7.056242
   2.050491,    7.071767
   2.050518,    7.087292
   2.050546,    7.102817
   2.050574,    7.118343
   2.050602,    7.133868
   2.050629,    7.149394
   2.050657,    7.164919
   2.050685,    7.180445
   2.050713,    7.195960
   2.050741,    7.211474
   2.050768,    7.226987
   2.050796,    7.242501
   2.050824,    7.258015
   2.050852,    7.273528
   2.050879,    7.289042
   2.050907,    7.304556
   2.050935,    7.320070
   2.050963,    7.335584
   2.050991,    7.351096
   2.051018,    7.366608
   2.051046,    7.382121
   2.051074,    7.397633
   2.051102,    7.413145
   2.051129,    7.428657
   2.051157,    7.444170
   2.051185,    7.459682
   2.051213,    7.475194
   2.051241,    7.490707
   2.051268,    7.506220
   2.051296,    7.521733
   2.051324,    7.537246
   2.051352,    7.552760
   2.051379,    7.568273
   2.051407,    7.583786
   2.051435,    7.599300
   2.051463,    7.614813
   2.051491,    7.630327
   2.051518,    7.645840
   2.051546,    7.661360
   2.051574,    7.676881
   2.051602,    7.692403
   2.051629,    7.707924
   2.051657,    7.723446
   2.051685,    7.738967
   2.051713,    7.754489
   2.051741,    7.770010
   2.051768,    7.785532
   2.051796,    7.801054
   2.051824,    7.816573
   2.051852,    7.832092
   2.051879,    7.847610
   2.051907,    7.863129
   2.051935,    7.878648
   2.051963,    7.894167
   2.051991,    7.909686
   2.052018,    7.925204
   2.052046,    7.940723
   2.052074,    7.956242
   2.052102,    7.971769
   2.052129,    7.987297
   2.052157,    8.002826
   2.052185,    8.018354
   2.052213,    8.033883
   2.052241,    8.049412
   2.052268,    8.064941
   2.052296,    8.080469
   2.052324,    8.095998
   2.052352,    8.111527
   2.052379,    8.127052
   2.052407,    8.142576
   2.052435,    8.158101
   2.052463,    8.173625
   2.052491,    8.189150
   2.052518,    8.204674
   2.052546,    8.220199
   2.052574,    8.235723
   2.052602,    8.251248
   2.052629,    8.266773
   2.052657,    8.282297
   2.052685,    8.297822
   2.052713,    8.313347
   2.052741,    8.328872
   2.052768,    8.344398
   2.052796,    8.359923
   2.052824,    8.375448
   2.052852,    8.390973
   2.052879,    8.406499
   2.052907,    8.422024
   2.052935,    8.437556
   2.052963,    8.453089
   2.052991,    8.468621
   2.053018,    8.484154
   2.053046,    8.499688
   2.053074,    8.515221
   2.053102,    8.530754
   2.053129,    8.546287
   2.053157,    8.561821
   2.053185,    8.577354
   2.053213,    8.592883
   2.053241,    8.608412
   2.053268,    8.623940
   2.053296,    8.639468
   2.053324,    8.654997
   2.053352,    8.670525
   2.053379,    8.686054
   2.053407,    8.701583
   2.053435,    8.717111
   2.053463,    8.732640
   2.053491,    8.748170
   2.053518,    8.763701
   2.053546,    8.779231
   2.053574,    8.794762
   2.053602,    8.810293
   2.053629,    8.825824
   2.053657,    8.841354
   2.053685,    8.856885
   2.053713,    8.872416
   2.053741,    8.887947
   2.053768,    8.903486
   2.053796,    8.919026
   2.053824,    8.934566
   2.053852,    8.950107
   2.053879,    8.965647
   2.053907,    8.981188
   2.053935,    8.996728
   2.053963,    9.012269
   2.053991,    9.027810
   2.054018,    9.043351
   2.054046,    9.058888
   2.054074,    9.074424
   2.054102,    9.089961
   2.054129,    9.105497
   2.054157,    9.121034
   2.054185,    9.136570
   2.054213,    9.152107
   2.054241,    9.167644
   2.054268,    9.183181
   2.054296,    9.198718
   2.054324,    9.214242
   2.054352,    9.229763
   2.054379,    9.245285
   2.054407,    9.260807
   2.054435,    9.276328
   2.054463,    9.291850
   2.054491,    9.307371
   2.054518,    9.322893
   2.054546,    9.338415
   2.054574,    9.353937
   2.054602,    9.369457
   2.054629,    9.384976
   2.054657,    9.400496
   2.054685,    9.416015
   2.054713,    9.431535
   2.054741,    9.447055
   2.054768,    9.462574
   2.054796,    9.478094
   2.054824,    9.493614
   2.054852,    9.509133
   2.054879,    9.524654
   2.054907,    9.540174
   2.054935,    9.555695
   2.054963,    9.571215
   2.054991,    9.586736
   2.055018,    9.602257
   2.055046,    9.617777
   2.055074,    9.633298
   2.055102,    9.648819
   2.055129,    9.664339
   2.055157,    9.679868
   2.055185,    9.695399
   2.055213,    9.710929
   2.055241,    9.726460
   2.055268,    9.741990
   2.055296,    9.757521
   2.055324,    9.773051
   2.055352,    9.788582
   2.055379,    9.804113
   2.055407,    9.819644
   2.055435,    9.835171
   2.055463,    9.850697
   2.055491,    9.866224
   2.055518,    9.881750
   2.055546,    9.897277
   2.055574,    9.912804
   2.055602,    9.928330
   2.055629,    9.943857
   2.055657,    9.959384
   2.055685,    9.974910
   2.055713,    9.990447
   2.055741,   10.005985
   2.055768,   10.021523
   2.055796,   10.037061
   2.055824,   10.052599
   2.055852,   10.068138
   2.055879,   10.083676
   2.055907,   10.099215
   2.055935,   10.114754
   2.055963,   10.130292
   2.055991,   10.145826
   2.056018,   10.161358
   2.056046,   10.176890
   2.056074,   10.192423
   2.056102,   10.207955
   2.056129,   10.223488
   2.056157,   10.239020
   2.056185,   10.254553
   2.056213,   10.270086
   2.056241,   10.285618
   2.056268,   10.301151
   2.056296,   10.316683
   2.056324,   10.332216
   2.056352,   10.347748
   2.056379,   10.363281
   2.056407,   10.378813
   2.056435,   10.394346
   2.056463,   10.409879
   2.056491,   10.425411
   2.056518,   10.440944
   2.056546,   10.456484
   2.056574,   10.472025
   2.056602,   10.487567
   2.056629,   10.503108
   2.056657,   10.518650
   2.056685,   10.534192
   2.056713,   10.549733
   2.056741,   10.565275
   2.056768,   10.580817
   2.056796,   10.596359
   2.056824,   10.611895
   2.056852,   10.627431
   2.056879,   10.642966
   2.056907,   10.658501
   2.056935,   10.674037
   2.056963,   10.689572
   2.056991,   10.705108
   2.057018,   10.720643
   2.057046,   10.736179
   2.057074,   10.751714
   2.057102,   10.767251
   2.057129,   10.782789
   2.057157,   10.798326
   2.057185,   10.813864
   2.057213,   10.829401
   2.057241,   10.844939
   2.057268,   10.860477
   2.057296,   10.876014
   2.057324,   10.891552
   2.057352,   10.907090
   2.057379,   10.922637
   2.057407,   10.938185
   2.057435,   10.953734
   2.057463,   10.969283
   2.057491,   10.984832
   2.057518,   11.000381
   2.057546,   11.015930
   2.057574,   11.031480
   2.057602,   11.047029
   2.057629,   11.062578
   2.057657,   11.078123
   2.057685,   11.093667
   2.057713,   11.109211
   2.057741,   11.124755
   2.057768,   11.140300
   2.057796,   11.155844
   2.057824,   11.171388
   2.057852,   11.186933
   2.057879,   11.202477
   2.057907,   11.218022
   2.057935,   11.233551
   2.057963,   11.249077
   2.057991,   11.264603
   2.058018,   11.280129
   2.058046,   11.295655
   2.058074,   11.311181
   2.058102,   11.326708
   2.058129,   11.342234
   2.058157,   11.357760
   2.058185,   11.373286
   2.058213,   11.388810
   2.058241,   11.404334
   2.058268,   11.419858
   2.058296,   11.435382
   2.058324,   11.450905
   2.058352,   11.466429
   2.058379,   11.481953
   2.058407,   11.497477
   2.058435,   11.513001
   2.058463,   11.528525
   2.058491,   11.544050
   2.058518,   11.559575
   2.058546,   11.575100
   2.058574,   11.590625
   2.058602,   11.606150
   2.058629,   11.621675
   2.058657,   11.637201
   2.058685,   11.652726
   2.058713,   11.668251
   2.058741,   11.683776
   2.058768,   11.699312
   2.058796,   11.714849
   2.058824,   11.730387
   2.058852,   11.745924
   2.058879,   11.761462
   2.058907,   11.776999
   2.058935,   11.792537
   2.058963,   11.808075
   2.058991,   11.823612
   2.059018,   11.839150
   2.059046,   11.854684
   2.059074,   11.870218
   2.059102,   11.885751
   2.059129,   11.901284
   2.059157,   11.916818
   2.059185,   11.932351
   2.059213,   11.947885
   2.059241,   11.963419
   2.059268,   11.978952
   2.059296,   11.994486
   2.059324,   12.010031
   2.059352,   12.025579
   2.059379,   12.041127
   2.059407,   12.056674
   2.059435,   12.072222
   2.059463,   12.087770
   2.059491,   12.103318
   2.059518,   12.118866
   2.059546,   12.134414
   2.059574,   12.149963
   2.059602,   12.165505
   2.059629,   12.181047
   2.059657,   12.196588
   2.059685,   12.212130
   2.059713,   12.227672
   2.059741,   12.243214
   2.059768,   12.258756
   2.059796,   12.274298
   2.059824,   12.289840
   2.059852,   12.305382
   2.059879,   12.320924
   2.059907,   12.336466
   2.059935,   12.352008
   2.059963,   12.367551
   2.059991,   12.383093
   2.060018,   12.398636
   2.060046,   12.414178
   2.060074,   12.429721
   2.060102,   12.445264
   2.060129,   12.460806
   2.060157,   12.476358
   2.060185,   12.491912
   2.060213,   12.507466
   2.060241,   12.523019
   2.060268,   12.538573
   2.060296,   12.554127
   2.060324,   12.569681
   2.060352,   12.585236
   2.060379,   12.600790
   2.060407,   12.616344
   2.060435,   12.631892
   2.060463,   12.647439
   2.060491,   12.662986
   2.060518,   12.678533
   2.060546,   12.694080
   2.060574,   12.709627
   2.060602,   12.725174
   2.060629,   12.740721
   2.060657,   12.756269
   2.060685,   12.771816
   2.060713,   12.787365
   2.060741,   12.802915
   2.060768,   12.818465
   2.060796,   12.834014
   2.060824,   12.849564
   2.060852,   12.865114
   2.060879,   12.880664
   2.060907,   12.896215
   2.060935,   12.911765
   2.060963,   12.927315
   2.060991,   12.942876
   2.061018,   12.958440
   2.061046,   12.974003
   2.061074,   12.989567
   2.061102,   13.005130
   2.061129,   13.020694
   2.061157,   13.036258
   2.061185,   13.051822
   2.061213,   13.067386
   2.061241,   13.082950
   2.061268,   13.098509
   2.061296,   13.114066
   2.061324,   13.129624
   2.061352,   13.145182
   2.061379,   13.160740
   2.061407,   13.176298
   2.061435,   13.191856
   2.061463,   13.207414
   2.061491,   13.222972
   2.061518,   13.238531
   2.061546,   13.254070
   2.061574,   13.269607
   2.061602,   13.285143
   2.061629,   13.300679
   2.061657,   13.316215
   2.061685,   13.331751
   2.061713,   13.347288
   2.061741,   13.362824
   2.061768,   13.378360
   2.061796,   13.393897
   2.061824,   13.409430
   2.061852,   13.424963
   2.061879,   13.440496
   2.061907,   13.456029
   2.061935,   13.471563
   2.061963,   13.487096
   2.061991,   13.502629
   2.062018,   13.518162
   2.062046,   13.533695
   2.062074,   13.549228
   2.062102,   13.564762
   2.062129,   13.580297
   2.062157,   13.595831
   2.062185,   13.611365
   2.062213,   13.626899
   2.062241,   13.642433
   2.062268,   13.657967
   2.062296,   13.673502
   2.062324,   13.689036
   2.062352,   13.704570
   2.062379,   13.720116
   2.062407,   13.735664
   2.062435,   13.751212
   2.062463,   13.766760
   2.062491,   13.782308
   2.062518,   13.797856
   2.062546,   13.813404
   2.062574,   13.828952
   2.062602,   13.844501
   2.062629,   13.860049
   2.062657,   13.875592
   2.062685,   13.891135
   2.062713,   13.906677
   2.062741,   13.922219
   2.062768,   13.937762
   2.062796,   13.953304
   2.062824,   13.968847
   2.062852,   13.984390
   2.062879,   13.999932
   2.062907,   14.015475
   2.062935,   14.031031
   2.062963,   14.046589
   2.062991,   14.062147
   2.063018,   14.077706
   2.063046,   14.093264
   2.063074,   14.108823
   2.063102,   14.124381
   2.063129,   14.139940
   2.063157,   14.155499
   2.063185,   14.171057
   2.063213,   14.186609
   2.063241,   14.202159
   2.063268,   14.217710
   2.063296,   14.233260
   2.063324,   14.248811
   2.063352,   14.264361
   2.063379,   14.279912
   2.063407,   14.295463
   2.063435,   14.311013
   2.063463,   14.326564
   2.063491,   14.342115
   2.063518,   14.357665
   2.063546,   14.373215
   2.063574,   14.388766
   2.063602,   14.404316
   2.063629,   14.419867
   2.063657,   14.435417
   2.063685,   14.450968
   2.063713,   14.466519
   2.063741,   14.482070
   2.063768,   14.497630
   2.063796,   14.513193
   2.063824,   14.528756
   2.063852,   14.544319
   2.063879,   14.559883
   2.063907,   14.575446
   2.063935,   14.591009
   2.063963,   14.606573
   2.063991,   14.622136
   2.064018,   14.637700
   2.064046,   14.653256
   2.064074,   14.668810
   2.064102,   14.684365
   2.064129,   14.699919
   2.064157,   14.715474
   2.064185,   14.731028
   2.064213,   14.746583
   2.064241,   14.762138
   2.064268,   14.777693
   2.064296,   14.793247
   2.064324,   14.808804
   2.064352,   14.824362
   2.064379,   14.839919
   2.064407,   14.855477
   2.064435,   14.871034
   2.064463,   14.886592
   2.064491,   14.902150
   2.064518,   14.917708
   2.064546,   14.933265
   2.064574,   14.948823
   2.064602,   14.964394
   2.064629,   14.979967
   2.064657,   14.995540
   2.064685,   15.011113
   2.064713,   15.026686
   2.064741,   15.042260
   2.064768,   15.057833
   2.064796,   15.073407
   2.064824,   15.088981
   2.064852,   15.104554
   2.064879,   15.120122
   2.064907,   15.135688
   2.064935,   15.151255
   2.064963,   15.166821
   2.064991,   15.182388
   2.065018,   15.197954
   2.065046,   15.213521
   2.065074,   15.229088
   2.065102,   15.244655
   2.065129,   15.260222
   2.065157,   15.275767
   2.065185,   15.291309
   2.065213,   15.306851
   2.065241,   15.322392
   2.065268,   15.337934
   2.065296,   15.353476
   2.065324,   15.369017
   2.065352,   15.384559
   2.065379,   15.400101
   2.065407,   15.415643
   2.065435,   15.431181
   2.065463,   15.446720
   2.065491,   15.462258
   2.065518,   15.477797
   2.065546,   15.493335
   2.065574,   15.508873
   2.065602,   15.524412
   2.065629,   15.539950
   2.065657,   15.555489
   2.065685,   15.571027
   2.065713,   15.586567
   2.065741,   15.602107
   2.065768,   15.617647
   2.065796,   15.633188
   2.065824,   15.648728
   2.065852,   15.664268
   2.065879,   15.679808
   2.065907,   15.695348
   2.065935,   15.710889
   2.065963,   15.726429
   2.065991,   15.741983
   2.066018,   15.757539
   2.066046,   15.773096
   2.066074,   15.788653
   2.066102,   15.804209
   2.066129,   15.819766
   2.066157,   15.835323
   2.066185,   15.850880
   2.066213,   15.866437
   2.066241,   15.881994
   2.066268,   15.897545
   2.066296,   15.913096
   2.066324,   15.928647
   2.066352,   15.944198
   2.066379,   15.959749
   2.066407,   15.975300
   2.066435,   15.990851
   2.066463,   16.006402
   2.066491,   16.021953
   2.066518,   16.037504
   2.066546,   16.053070
   2.066574,   16.068640
   2.066602,   16.084210
   2.066629,   16.099779
   2.066657,   16.115349
   2.066685,   16.130919
   2.066713,   16.146489
   2.066741,   16.162059
   2.066768,   16.177630
   2.066796,   16.193200
   2.066824,   16.208762
   2.066852,   16.224323
   2.066879,   16.239885
   2.066907,   16.255446
   2.066935,   16.271007
   2.066963,   16.286568
   2.066991,   16.302130
   2.067018,   16.317691
   2.067046,   16.333253
   2.067074,   16.348814
   2.067102,   16.364376
   2.067129,   16.379937
   2.067157,   16.395499
   2.067185,   16.411061
   2.067213,   16.426623
   2.067241,   16.442184
   2.067268,   16.457746
   2.067296,   16.473308
   2.067324,   16.488870
   2.067352,   16.504433
   2.067379,   16.520006
   2.067407,   16.535583
   2.067435,   16.551159
   2.067463,   16.566736
   2.067491,   16.582313
   2.067518,   16.597889
   2.067546,   16.613466
   2.067574,   16.629043
   2.067602,   16.644620
   2.067629,   16.660197
   2.067657,   16.675766
   2.067685,   16.691332
   2.067713,   16.706899
   2.067741,   16.722466
   2.067768,   16.738033
   2.067796,   16.753601
   2.067824,   16.769168
   2.067852,   16.784735
   2.067879,   16.800302
   2.067907,   16.815870
   2.067935,   16.831440
   2.067963,   16.847010
   2.067991,   16.862581
   2.068018,   16.878151
   2.068046,   16.893722
   2.068074,   16.909292
   2.068102,   16.924863
   2.068129,   16.940434
   2.068157,   16.956005
   2.068185,   16.971576
   2.068213,   16.987161
   2.068241,   17.002749
   2.068268,   17.018338
   2.068296,   17.033926
   2.068324,   17.049514
   2.068352,   17.065103
   2.068379,   17.080692
   2.068407,   17.096280
   2.068435,   17.111869
   2.068463,   17.127458
   2.068491,   17.143040
   2.068518,   17.158620
   2.068546,   17.174200
   2.068574,   17.189781
   2.068602,   17.205361
   2.068629,   17.220942
   2.068657,   17.236523
   2.068685,   17.252104
   2.068713,   17.267684
   2.068741,   17.283265
   2.068768,   17.298822
   2.068796,   17.314374
   2.068824,   17.329926
   2.068852,   17.345477
   2.068879,   17.361029
   2.068907,   17.376581
   2.068935,   17.392133
   2.068963,   17.407685
   2.068991,   17.423237
   2.069018,   17.438789
   2.069046,   17.454338
   2.069074,   17.469885
   2.069102,   17.485433
   2.069129,   17.500981
   2.069157,   17.516529
   2.069185,   17.532076
   2.069213,   17.547624
   2.069241,   17.563172
   2.069268,   17.578720
   2.069296,   17.594268
   2.069324,   17.609817
   2.069352,   17.625366
   2.069379,   17.640916
   2.069407,   17.656465
   2.069435,   17.672014
   2.069463,   17.687563
   2.069491,   17.703113
   2.069518,   17.718662
   2.069546,   17.734212
   2.069574,   17.749761
   2.069602,   17.765325
   2.069629,   17.780893
   2.069657,   17.796460
   2.069685,   17.812027
   2.069713,   17.827595
   2.069741,   17.843162
   2.069768,   17.858730
   2.069796,   17.874298
   2.069824,   17.889865
   2.069852,   17.905433
   2.069879,   17.920994
   2.069907,   17.936554
   2.069935,   17.952115
   2.069963,   17.967675
   2.069991,   17.983235
   2.070018,   17.998795
   2.070046,   18.014356
   2.070074,   18.029916
   2.070102,   18.045476
   2.070129,   18.061037
   2.070157,   18.076614
   2.070185,   18.092195
   2.070213,   18.107776
   2.070241,   18.123357
   2.070268,   18.138938
   2.070296,   18.154519
   2.070324,   18.170101
   2.070352,   18.185682
   2.070379,   18.201263
   2.070407,   18.216845
   2.070435,   18.232417
   2.070463,   18.247988
   2.070491,   18.263558
   2.070518,   18.279129
   2.070546,   18.294700
   2.070574,   18.310271
   2.070602,   18.325842
   2.070629,   18.341413
   2.070657,   18.356984
   2.070685,   18.372555
   2.070713,   18.388126
   2.070741,   18.403696
   2.070768,   18.419267
   2.070796,   18.434838
   2.070824,   18.450409
   2.070852,   18.465980
   2.070879,   18.481551
   2.070907,   18.497122
   2.070935,   18.512693
   2.070963,   18.528264
   2.070991,   18.543848
   2.071018,   18.559435
   2.071046,   18.575022
   2.071074,   18.590610
   2.071102,   18.606197
   2.071129,   18.621784
   2.071157,   18.637372
   2.071185,   18.652959
   2.071213,   18.668547
   2.071241,   18.684134
   2.071268,   18.699712
   2.071296,   18.715288
   2.071324,   18.730864
   2.071352,   18.746440
   2.071379,   18.762017
   2.071407,   18.777593
   2.071435,   18.793169
   2.071463,   18.808745
   2.071491,   18.824322
   2.071518,   18.839898
   2.071546,   18.855478
   2.071574,   18.871057
   2.071602,   18.886637
   2.071629,   18.902217
   2.071657,   18.917797
   2.071685,   18.933377
   2.071713,   18.948957
   2.071741,   18.964538
   2.071768,   18.980118
   2.071796,   18.995698
   2.071824,   19.011295
   2.071852,   19.026895
   2.071879,   19.042494
   2.071907,   19.058094
   2.071935,   19.073694
   2.071963,   19.089294
   2.071991,   19.104894
   2.072018,   19.120495
   2.072046,   19.136095
   2.072074,   19.151696
   2.072102,   19.167288
   2.072129,   19.182879
   2.072157,   19.198470
   2.072185,   19.214061
   2.072213,   19.229653
   2.072241,   19.245244
   2.072268,   19.260835
   2.072296,   19.276427
   2.072324,   19.292018
   2.072352,   19.307610
   2.072379,   19.323175
   2.072407,   19.338734
   2.072435,   19.354293
   2.072463,   19.369852
   2.072491,   19.385412
   2.072518,   19.400971
   2.072546,   19.416530
   2.072574,   19.432090
   2.072602,   19.447649
   2.072629,   19.463209
   2.072657,   19.478764
   2.072685,   19.494319
   2.072713,   19.509874
   2.072741,   19.525429
   2.072768,   19.540985
   2.072796,   19.556540
   2.072824,   19.572095
   2.072852,   19.587650
   2.072879,   19.603205
   2.072907,   19.618761
   2.072935,   19.634317
   2.072963,   19.649874
   2.072991,   19.665432
   2.073018,   19.680989
   2.073046,   19.696546
   2.073074,   19.712103
   2.073102,   19.727660
   2.073129,   19.743218
   2.073157,   19.758775
   2.073185,   19.774332
   2.073213,   19.789907
   2.073241,   19.805485
   2.073268,   19.821062
   2.073296,   19.836640
   2.073324,   19.852218
   2.073352,   19.867796
   2.073379,   19.883374
   2.073407,   19.898952
   2.073435,   19.914531
   2.073463,   19.930109
   2.073491,   19.945680
   2.073518,   19.961250
   2.073546,   19.976821
   2.073574,   19.992391
   2.073602,   20.007961
   2.073629,   20.023531
   2.073657,   20.039102
   2.073685,   20.054672
   2.073713,   20.070243
   2.073741,   20.085814
   2.073768,   20.101403
   2.073796,   20.116997
   2.073824,   20.132591
   2.073852,   20.148185
   2.073879,   20.163779
   2.073907,   20.179373
   2.073935,   20.194967
   2.073963,   20.210561
   2.073991,   20.226155
   2.074018,   20.241750
   2.074046,   20.257334
   2.074074,   20.272917
   2.074102,   20.288499
   2.074129,   20.304082
   2.074157,   20.319665
   2.074185,   20.335248
   2.074213,   20.350831
   2.074241,   20.366414
   2.074268,   20.381997
   2.074296,   20.397580
   2.074324,   20.413163
   2.074352,   20.428746
   2.074379,   20.444329
   2.074407,   20.459912
   2.074435,   20.475496
   2.074463,   20.491079
   2.074491,   20.506662
   2.074518,   20.522246
   2.074546,   20.537829
   2.074574,   20.553413
   2.074602,   20.569011
   2.074629,   20.584612
   2.074657,   20.600214
   2.074685,   20.615815
   2.074713,   20.631417
   2.074741,   20.647018
   2.074768,   20.662620
   2.074796,   20.678222
   2.074824,   20.693824
   2.074852,   20.709426
   2.074879,   20.725017
   2.074907,   20.740606
   2.074935,   20.756195
   2.074963,   20.771785
   2.074991,   20.787374
   2.075018,   20.802963
   2.075046,   20.818553
   2.075074,   20.834142
   2.075102,   20.849732
   2.075129,   20.865322
   2.075157,   20.880914
   2.075185,   20.896508
   2.075213,   20.912101
   2.075241,   20.927694
   2.075268,   20.943288
   2.075296,   20.958882
   2.075324,   20.974475
   2.075352,   20.990069
   2.075379,   21.005663
   2.075407,   21.021257
   2.075435,   21.036868
   2.075463,   21.052484
   2.075491,   21.068099
   2.075518,   21.083714
   2.075546,   21.099330
   2.075574,   21.114946
   2.075602,   21.130562
   2.075629,   21.146177
   2.075657,   21.161793
   2.075685,   21.177410
   2.075713,   21.193017
   2.075741,   21.208622
   2.075768,   21.224227
   2.075796,   21.239833
   2.075824,   21.255438
   2.075852,   21.271044
   2.075879,   21.286650
   2.075907,   21.302255
   2.075935,   21.317861
   2.075963,   21.333467
   2.075991,   21.349043
   2.076018,   21.364613
   2.076046,   21.380182
   2.076074,   21.395752
   2.076102,   21.411322
   2.076129,   21.426892
   2.076157,   21.442462
   2.076185,   21.458032
   2.076213,   21.473602
   2.076241,   21.489172
   2.076268,   21.504738
   2.076296,   21.520302
   2.076324,   21.535867
   2.076352,   21.551432
   2.076379,   21.566997
   2.076407,   21.582562
   2.076435,   21.598126
   2.076463,   21.613691
   2.076491,   21.629256
   2.076518,   21.644821
   2.076546,   21.660388
   2.076574,   21.675954
   2.076602,   21.691521
   2.076629,   21.707088
   2.076657,   21.722654
   2.076685,   21.738221
   2.076713,   21.753788
   2.076741,   21.769355
   2.076768,   21.784922
   2.076796,   21.800489
   2.076824,   21.816074
   2.076852,   21.831663
   2.076879,   21.847252
   2.076907,   21.862842
   2.076935,   21.878431
   2.076963,   21.894020
   2.076991,   21.909610
   2.077018,   21.925199
   2.077046,   21.940789
   2.077074,   21.956378
   2.077102,   21.971960
   2.077129,   21.987540
   2.077157,   22.003121
   2.077185,   22.018701
   2.077213,   22.034281
   2.077241,   22.049862
   2.077268,   22.065442
   2.077296,   22.081023
   2.077324,   22.096604
   2.077352,   22.112184
   2.077379,   22.127786
   2.077407,   22.143392
   2.077435,   22.158998
   2.077463,   22.174604
   2.077491,   22.190210
   2.077518,   22.205816
   2.077546,   22.221423
   2.077574,   22.237029
   2.077602,   22.252636
   2.077629,   22.268242
   2.077657,   22.283838
   2.077685,   22.299431
   2.077713,   22.315024
   2.077741,   22.330618
   2.077768,   22.346211
   2.077796,   22.361805
   2.077824,   22.377398
   2.077852,   22.392992
   2.077879,   22.408586
   2.077907,   22.424180
   2.077935,   22.439773
   2.077963,   22.455367
   2.077991,   22.470960
   2.078018,   22.486554
   2.078046,   22.502147
   2.078074,   22.517741
   2.078102,   22.533335
   2.078129,   22.548929
   2.078157,   22.564523
   2.078185,   22.580117
   2.078213,   22.595727
   2.078241,   22.611340
   2.078268,   22.626954
   2.078296,   22.642567
   2.078324,   22.658181
   2.078352,   22.673795
   2.078379,   22.689409
   2.078407,   22.705023
   2.078435,   22.720637
   2.078463,   22.736251
   2.078491,   22.751853
   2.078518,   22.767453
   2.078546,   22.783053
   2.078574,   22.798653
   2.078602,   22.814253
   2.078629,   22.829853
   2.078657,   22.845453
   2.078685,   22.861053
   2.078713,   22.876654
   2.078741,   22.892254
   2.078768,   22.907858
   2.078796,   22.923462
   2.078824,   22.939067
   2.078852,   22.954671
   2.078879,   22.970276
   2.078907,   22.985881
   2.078935,   23.001486
   2.078963,   23.017091
   2.078991,   23.032696
   2.079018,   23.048301
   2.079046,   23.063926
   2.079074,   23.079554
   2.079102,   23.095183
   2.079129,   23.110812
   2.079157,   23.126441
   2.079185,   23.142070
   2.079213,   23.157699
   2.079241,   23.173329
   2.079268,   23.188958
   2.079296,   23.204588
   2.079324,   23.220207
   2.079352,   23.235825
   2.079379,   23.251443
   2.079407,   23.267061
   2.079435,   23.282679
   2.079463,   23.298297
   2.079491,   23.313916
   2.079518,   23.329534
   2.079546,   23.345153
   2.079574,   23.360771
   2.079602,   23.376357
   2.079629,   23.391935
   2.079657,   23.407514
   2.079685,   23.423094
   2.079713,   23.438673
   2.079741,   23.454252
   2.079768,   23.469831
   2.079796,   23.485410
   2.079824,   23.500989
   2.079852,   23.516569
   2.079879,   23.532143
   2.079907,   23.547717
   2.079935,   23.563291
   2.079963,   23.578865
   2.079991,   23.594438
   2.080018,   23.610012
   2.080046,   23.625586
   2.080074,   23.641160
   2.080102,   23.656734
   2.080129,   23.672308
   2.080157,   23.687884
   2.080185,   23.703460
   2.080213,   23.719036
   2.080241,   23.734613
   2.080268,   23.750189
   2.080296,   23.765765
   2.080324,   23.781342
   2.080352,   23.796918
   2.080379,   23.812494
   2.080407,   23.828071
   2.080435,   23.843668
   2.080463,   23.859269
   2.080491,   23.874870
   2.080518,   23.890471
   2.080546,   23.906073
   2.080574,   23.921674
   2.080602,   23.937275
   2.080629,   23.952877
   2.080657,   23.968478
   2.080685,   23.984080
   2.080713,   23.999679
   2.080741,   24.015278
   2.080768,   24.030877
   2.080775,   24.034719
   2.080803,   17.677475
   2.080831,   11.311970
   2.080859,    4.938204
   2.080886,   -1.443823
   2.080914,   -7.834112
   2.080942,  -14.232663
   2.080970,  -20.107045
   2.080997,  -20.114476
   2.081025,  -20.121810
   2.081053,  -20.129048
   2.081081,  -20.136188
   2.081109,  -20.143232
   2.081136,  -20.150178
   2.081164,  -20.157026
   2.081192,  -20.163777
   2.081220,  -20.170430
   2.081247,  -20.176978
   2.081275,  -20.183342
   2.081303,  -20.189605
   2.081331,  -20.195767
   2.081359,  -20.201827
   2.081386,  -20.207786
   2.081414,  -20.213642
   2.081442,  -20.219396
   2.081470,  -20.225049
   2.081497,  -20.230598
   2.081525,  -20.236038
   2.081553,  -20.241292
   2.081581,  -20.246440
   2.081609,  -20.251483
   2.081636,  -20.256420
   2.081664,  -20.261251
   2.081686,  -20.264916
   2.081713,  -22.805350
   2.081741,  -25.339896
   2.081769,  -27.868537
   2.081797,  -30.391254
   2.081824,  -32.871242
   2.081852,  -35.333839
   2.081880,  -37.783869
   2.081908,  -40.221305
   2.081936,  -42.646115
   2.081963,  -45.058270
   2.081991,  -47.457742
   2.082019,  -49.844499
   2.082047,  -52.218514
   2.082074,  -54.579755
   2.082102,  -56.854375
   2.082130,  -59.098583
   2.082158,  -61.322435
   2.082186,  -63.525886
   2.082213,  -65.708894
   2.082241,  -67.871414
   2.082269,  -70.013405
   2.082297,  -72.134821
   2.082324,  -74.235619
   2.082352,  -76.315757
   2.082380,  -77.427603
   2.082408,  -78.387383
   2.082436,  -79.330998
   2.082463,  -80.258415
   2.082491,  -81.169602
   2.082519,  -82.064526
   2.082547,  -82.943155
   2.082574,  -83.805458
   2.082602,  -84.651400
   2.082630,  -85.480951
   2.082658,  -85.139546
   2.082686,  -84.631196
   2.082701,  -84.341980
   2.082729,  -81.138137
   2.082757,  -77.965554
   2.082785,  -74.824296
   2.082812,  -71.714427
   2.082840,  -68.636015
   2.082868,  -65.589123
   2.082896,  -62.573818
   2.082924,  -60.601120
   2.082951,  -59.910220
   2.082979,  -59.222615
   2.083007,  -58.538311
   2.083035,  -57.857318
   2.083062,  -57.179641
   2.083090,  -56.505291
   2.083118,  -55.834273
   2.083146,  -55.166596
   2.083174,  -54.502267
   2.083201,  -53.536664
   2.083229,  -52.200002
   2.083257,  -50.878437
   2.083285,  -49.572001
   2.083312,  -48.280725
   2.083340,  -47.004638
   2.083368,  -45.743773
   2.083396,  -44.498159
   2.083424,  -43.229020
   2.083451,  -41.960162
   2.083479,  -40.708102
   2.083507,  -39.472873
   2.083535,  -38.254510
   2.083562,  -37.053046
   2.083590,  -35.868513
   2.083618,  -34.706453
   2.083646,  -33.564250
   2.083674,  -32.438823
   2.083701,  -31.330204
   2.083729,  -30.238428
   2.083757,  -29.163526
   2.083785,  -28.105532
   2.083812,  -27.064480
   2.083840,  -26.040402
   2.083868,  -25.033330
   2.083896,  -24.051992
   2.083924,  -23.092180
   2.083951,  -22.148996
   2.083979,  -21.222472
   2.084007,  -20.312641
   2.084035,  -19.419534
   2.084062,  -18.543185
   2.084090,  -17.683624
   2.084118,  -16.840885
   2.084146,  -16.014999
   2.084174,  -15.356578
   2.084201,  -14.793169
   2.084229,  -14.239606
   2.084257,  -13.695909
   2.084285,  -13.162098
   2.084312,  -12.638190
   2.084340,  -12.124205
   2.084368,  -11.620162
   2.084396,  -11.126079
   2.084424,  -10.641977
   2.084451,  -10.195140
   2.084479,   -9.772283
   2.084507,   -9.357959
   2.084535,   -8.952183
   2.084562,   -8.554972
   2.084590,   -8.166342
   2.084618,   -7.786308
   2.084646,   -7.414888
   2.084674,   -7.052097
   2.084701,   -6.697951
   2.084729,   -6.353179
   2.084757,   -6.017434
   2.084785,   -5.690326
   2.084812,   -5.371871
   2.084840,   -5.062084
   2.084868,   -4.760983
   2.084896,   -4.468581
   2.084924,   -4.184897
   2.084951,   -3.909946
   2.084979,   -3.643743
   2.085007,   -3.387737
   2.085035,   -3.141181
   2.085062,   -2.903266
   2.085090,   -2.674009
   2.085118,   -2.453424
   2.085146,   -2.241528
   2.085174,   -2.038337
   2.085201,   -1.843865
   2.085229,   -1.658130
   2.085257,   -1.481145
   2.085285,   -1.314428
   2.085312,   -1.157123
   2.085340,   -1.008367
   2.085368,   -0.868175
   2.085396,   -0.736562
   2.085424,   -0.613543
   2.085451,   -0.499133
   2.085479,   -0.393349
   2.085507,   -0.296205
   2.085535,   -0.207716
   2.085562,   -0.128846
   2.085590,   -0.058913
   2.085618,    0.002657
   2.085646,    0.055849
   2.085674,    0.100648
   2.085701,    0.137039
   2.085729,    0.165008
   2.085757,    0.184540
   2.085785,    0.195620
   2.085812,    0.198234
   2.085840,    0.159704
   2.085868,    0.109261
   2.085896,    0.068342
   2.085924,    0.036964
   2.085951,    0.015143
   2.085979,    0.002896
   2.086001,   -0.000000
