Time, Horizontal Forces
   0.000000, 61882.569542
   0.000000, 61882.293853
   0.000006, 61881.405890
   0.000045, 61879.306059
   0.000257, 61874.714060
   0.002960, 61855.775820
   0.008586, 61836.893793
   0.017173, 61817.938224
   0.028768, 61798.890413
   0.043370, 61779.798712
   0.060988, 61760.672673
   0.081735, 61741.425986
   0.105445, 61722.226921
   0.132220, 61702.989483
   0.162156, 61683.663813
   0.195392, 61664.195129
   0.231720, 61644.722593
   0.271676, 61624.992108
   0.315028, 61605.159929
   0.362235, 61585.055445
   0.413254, 61564.746270
   0.468359, 61544.168705
   0.526601, 61523.691634
   0.588799, 61503.033171
   0.655101, 61482.174777
   0.724817, 61461.346459
   0.798876, 61440.285258
   0.877095, 61419.070150
   0.961189, 61397.285711
   1.048118, 61375.741294
   1.140246, 61353.856207
   1.237373, 61331.715020
   1.339257, 61309.398116
   1.445750, 61286.955164
   1.558804, 61264.009847
   1.673977, 61241.468425
   1.796007, 61218.409081
   1.923189, 61195.188648
   2.057411, 61171.494188
   2.196482, 61147.738395
   2.342007, 61123.664898
   2.493665, 61099.352630
   2.649984, 61075.047628
   2.812360, 61050.541033
   2.984529, 61025.309524
   3.160672, 61000.229955
   3.342404, 60975.068957
   3.534500, 60949.197831
   3.732648, 60923.229596
   3.936662, 60897.194892
   4.148037, 60870.914371
   4.363791, 60844.762667
   4.587212, 60818.345988
   4.817952, 60791.722099
   5.058599, 60764.616898
   5.308198, 60737.167161
   5.562257, 60709.872742
   5.824131, 60682.374484
   6.094604, 60654.605540
   6.374588, 60626.492186
   6.660851, 60598.370267
   6.956373, 60569.955968
   7.258766, 60541.489446
   7.578887, 60511.982757
   7.901604, 60482.850934
   8.234360, 60453.419025
   8.575180, 60423.873737
   8.929484, 60393.765024
   9.292447, 60363.522880
   9.665136, 60333.068039
  10.049271, 60302.275327
  10.441683, 60271.409845
  10.839012, 60240.732088
  11.250479, 60209.538633
  11.671446, 60178.198601
  12.102417, 60146.682540
  12.544910, 60114.890949
  12.999908, 60082.768587
  13.459102, 60050.903485
  13.937159, 60018.289792
  14.426167, 59985.490633
  14.924042, 59952.650905
  15.433605, 59919.590430
  15.956969, 59886.185491
  16.495264, 59852.381609
  17.043778, 59818.485988
  17.600637, 59784.615426
  18.171260, 59750.446296
  18.752438, 59716.179384
  19.346262, 59681.698068
  19.956950, 59646.771909
  20.576840, 59611.848616
  21.212421, 59576.569919
  21.855769, 59541.381068
  22.513389, 59505.929422
  23.177890, 59470.615623
  23.867633, 59434.478062
  24.566626, 59398.370949
  25.283572, 59361.852235
  25.312484, 59360.390204
  25.330782, 59359.465322
  25.334059, 59359.299752
  25.339287, 59359.035552
  25.340479, 59358.975339
  25.342254, 59358.885656
  25.342712, 59358.862513
  25.343561, 59358.819592
  25.343669, 59358.814161
  25.343718, 59358.811225
  25.343776, 59358.807463
  25.344353, 59358.769845
  25.349816, 59358.413917
  25.380886, 59356.390207
  25.492802, 59349.110971
  25.789555, 59329.886422
  26.414959, 59289.729093
  27.076776, 59247.747034
  27.756363, 59205.167264
  28.440966, 59162.795899
  29.139411, 59120.089062
  29.847543, 59077.308024
  30.565182, 59034.466135
  31.301779, 58991.011124
  32.044632, 58947.700538
  32.801295, 58904.096572
  33.569724, 58860.324992
  34.351960, 58816.277165
  35.144699, 58772.145317
  35.951852, 58727.718076
  36.767891, 58683.304522
  37.601641, 58638.431771
  38.442832, 58593.658515
  39.294344, 58548.830720
  40.156447, 58503.936110
  41.038534, 58458.495396
  41.926600, 58413.236033
  42.834552, 58367.454654
  43.753060, 58321.630709
  44.687164, 58275.517929
  45.635639, 58229.184885
  46.593534, 58182.876483
  47.571969, 58136.062527
  48.565877, 58088.997240
  49.566639, 58042.090164
  50.581795, 57994.988430
  51.610978, 57947.714613
  52.654149, 57900.275596
  53.706850, 57852.875948
  54.780486, 57805.008550
  55.869159, 57756.946150
  56.975179, 57708.593849
  58.093604, 57660.172974
  59.226846, 57611.582632
  60.375993, 57562.781599
  61.543226, 57513.684562
  62.724047, 57464.486470
  63.911771, 57415.464745
  65.114394, 57366.289069
  66.339892, 57316.642081
  67.578053, 57266.944721
  68.825523, 57217.331255
  70.094365, 57167.326113
  71.378079, 57117.192573
  72.679916, 57066.808925
  73.992841, 57016.450476
  75.324257, 56965.836383
  76.677096, 56914.863462
  78.035465, 56864.132137
  79.420345, 56812.862748
  80.820309, 56761.486938
  82.225014, 56710.382108
  83.661095, 56658.584781
  85.106137, 56606.910828
  86.574388, 56554.854158
  88.057797, 56502.706380
  89.554485, 56450.535015
  91.066068, 56398.285099
  92.600011, 56345.703837
  94.146380, 56293.135763
  95.717426, 56240.169336
  97.299164, 56187.280055
  98.894631, 56134.365829
 100.517782, 56080.970099
 102.160953, 56027.353672
 103.817368, 55973.740332
 104.151099, 55962.990397
 104.333238, 55957.130733
 104.490874, 55952.063471
 104.635301, 55947.424215
 104.740825, 55944.036611
 104.817691, 55941.570067
 104.909420, 55938.627805
 104.996776, 55935.826974
 105.014647, 55935.254141
 105.016516, 55935.194221
 105.017437, 55935.164696
 105.018148, 55935.141916
 105.018589, 55935.127794
 105.018898, 55935.117877
 105.019015, 55935.113820
 105.019135, 55935.108961
 105.020331, 55935.060371
 105.030881, 55934.631773
 105.104022, 55931.661151
 105.447220, 55917.736545
 106.630624, 55869.904040
 108.138127, 55809.373977
 109.659894, 55748.719571
 111.190826, 55688.144930
 112.744437, 55627.119884
 114.307929, 55566.151903
 115.879477, 55505.310591
 117.476012, 55443.945237
 119.083980, 55382.582927
 120.701838, 55321.282243
 122.339550, 55259.668859
 123.995222, 55197.820300
 125.665045, 55135.882796
 127.344697, 55074.017316
 129.044471, 55011.847629
 130.755296, 54949.708842
 132.476463, 54887.626354
 134.218825, 54825.211937
 135.978619, 54762.606369
 137.752620, 54699.927578
 139.540260, 54637.197349
 141.340816, 54574.442385
 143.168992, 54511.156340
 144.998790, 54448.241319
 146.847275, 54385.109510
 148.713468, 54321.798824
 150.593557, 54258.441312
 152.492233, 54194.881922
 154.408499, 54131.158179
 156.337004, 54067.450032
 158.278817, 54003.722644
 160.237975, 53939.845755
 162.220940, 53875.614138
 164.214177, 53811.469309
 166.227994, 53747.081645
 168.256896, 53682.630293
 170.298454, 53618.193434
 172.357612, 53553.616755
 174.437848, 53488.795405
 176.540141, 53423.704344
 178.655100, 53358.637238
 180.776695, 53293.777909
 182.921664, 53228.616097
 185.084096, 53163.335905
 187.265504, 53097.894807
 189.468225, 53032.226867
 191.677068, 52966.785567
 193.909962, 52901.040942
 196.155571, 52835.329855
 198.419388, 52769.492940
 200.698947, 52703.604134
 203.001013, 52637.471171
 205.322970, 52571.173546
 207.664249, 52504.730857
 210.016633, 52438.377363
 212.391371, 52371.797653
 214.778019, 52305.286470
 217.185353, 52238.600794
 219.612015, 52171.781585
 222.059262, 52104.797490
 224.511580, 52038.072884
 226.973660, 51971.477254
 229.463063, 51904.538089
 231.975233, 51837.383368
 234.511080, 51769.993340
 237.054332, 51702.801399
 239.617951, 51635.465130
 242.206591, 51567.866512
 244.810820, 51500.254794
 247.443826, 51432.291390
 247.549225, 51429.579004
 247.565859, 51429.150997
 247.570674, 51429.027118
 247.579146, 51428.809111
 247.581628, 51428.745274
 247.586396, 51428.622593
 247.587308, 51428.599114
 247.587921, 51428.583344
 247.588131, 51428.577508
 247.588341, 51428.570564
 247.590436, 51428.501116
 247.611385, 51427.806648
 247.745424, 51423.364169
 248.379412, 51402.370919
 250.050773, 51347.177809
 252.371362, 51270.904377
 254.692879, 51195.012853
 257.037820, 51118.768479
 259.391231, 51042.660192
 261.758504, 50966.513773
 264.140715, 50890.296397
 266.541644, 50813.890198
 268.951291, 50737.614768
 271.373286, 50661.355010
 273.805152, 50585.188956
 276.259270, 50508.731358
 278.723710, 50432.356478
 281.211476, 50355.664118
 283.714770, 50278.898755
 286.225181, 50202.318321
 288.746337, 50125.811094
 291.292748, 50048.939982
 293.847716, 49972.211763
 296.417936, 49895.425653
 299.006737, 49818.484803
 301.609312, 49741.534333
 304.226675, 49664.545607
 306.859256, 49587.507616
 309.503425, 49510.527434
 312.171631, 49433.245544
 314.841893, 49356.299293
 317.532265, 49279.168225
 320.240910, 49201.908390
 322.968392, 49124.506745
 325.703437, 49047.283907
 328.454399, 48970.004063
 331.221243, 48892.670017
 334.006156, 48815.222875
 336.802574, 48737.846500
 339.622293, 48660.216837
 342.459022, 48582.510564
 345.308647, 48504.841666
 348.175689, 48427.088268
 351.051602, 48349.482641
 353.946206, 48271.760582
 356.855834, 48194.022489
 359.779538, 48116.294718
 362.720121, 48038.504203
 365.677484, 47960.655391
 368.650287, 47882.785177
 371.641586, 47804.815417
 374.644031, 47726.938695
 377.669657, 47648.844806
 380.702543, 47570.945869
 383.757195, 47492.870130
 386.836038, 47414.559645
 389.918722, 47336.532706
 393.019360, 47258.431522
 396.141608, 47180.166802
 399.276500, 47101.965030
 402.422159, 47023.872780
 405.590527, 46945.595147
 408.774913, 46867.299967
 411.972110, 46789.066733
 415.180818, 46710.927187
 418.417615, 46632.480182
 421.667435, 46554.093661
 424.940302, 46475.527693
 428.223424, 46397.090784
 431.514051, 46318.847332
 434.826411, 46240.459716
 438.159698, 46161.949929
 441.515576, 46083.281840
 444.879203, 46004.804147
 448.258811, 45926.324520
 451.656875, 45847.786942
 455.067920, 45769.318898
 458.503121, 45690.665184
 461.960634, 45611.871363
 465.422887, 45533.338095
 468.910866, 45454.590081
 468.938816, 45453.960538
 468.946956, 45453.777180
 468.952581, 45453.650493
 468.955151, 45453.592606
 468.980853, 45453.007614
 469.006985, 45452.412849
 469.193105, 45448.177297
 470.177987, 45425.781898
 473.552022, 45349.282260
 477.059136, 45270.128515
 480.576797, 45191.104530
 484.113189, 45112.027001
 487.659656, 45033.089973
 491.225976, 44954.076429
 494.812850, 44874.973042
 498.414422, 44795.910390
 502.045553, 44716.564969
 505.688316, 44637.330778
 509.354951, 44557.942972
 513.023109, 44478.885294
 516.706441, 44399.862150
 520.411931, 44320.725258
 524.135355, 44241.566914
 527.879066, 44162.338739
 531.629022, 44083.337935
 535.400773, 44004.237153
 539.192713, 43925.072235
 543.006526, 43845.810247
 546.837184, 43766.557345
 550.689545, 43687.214695
 554.560195, 43607.854413
 558.439703, 43528.669923
 562.336278, 43449.493498
 566.248495, 43370.354903
 570.174307, 43291.295863
 574.124107, 43212.108496
 578.094147, 43132.870254
 582.082554, 43053.620042
 586.080268, 42974.537955
 590.105875, 42895.257614
 594.154756, 42815.873145
 598.216493, 42736.589928
 602.294738, 42657.336932
 606.392045, 42578.065557
 610.504307, 42498.856082
 614.622577, 42419.880015
 618.771987, 42340.656597
 622.939773, 42261.432310
 627.116907, 42182.378733
 631.234941, 42104.781715
 631.323195, 42103.122375
 635.539018, 42024.666298
 639.777253, 41965.108237
 644.029358, 41904.841193
 648.312490, 41843.536699
 652.619627, 41781.420066
 656.952822, 41709.978405
 661.293399, 41634.861521
 665.663739, 41558.820240
 670.044135, 41482.250024
 674.451272, 41401.160707
 678.886806, 41311.728589
 683.334392, 41221.754094
 687.800630, 41131.180821
 692.284652, 41040.029357
 696.783577, 40940.243528
 701.304805, 40837.638240
 705.836300, 40734.622411
 710.397081, 40630.950994
 714.958354, 40526.285245
 719.550661, 40411.053834
 724.147841, 40295.499037
 728.757051, 40179.726504
 733.388698, 40063.520850
 738.017788, 39945.626740
 742.669547, 39818.754506
 747.330231, 39691.635849
 752.004188, 39564.358868
 756.693464, 39436.860808
 757.009206, 39369.717458
 757.322174, 39347.686530
 757.637903, 39325.312365
 757.954568, 39302.625193
 758.270679, 39279.735599
 758.587030, 39256.616525
 758.904235, 39233.219983
 759.221363, 39209.593969
 759.537701, 39185.795365
 759.855821, 39161.673113
 760.173706, 39137.319173
 760.491426, 39112.755752
 760.809604, 39087.942108
 761.128094, 39062.879011
 761.445140, 39037.684926
 761.763885, 39012.174412
 762.082543, 38986.424919
 762.402943, 38960.334399
 762.723390, 38933.993451
 763.043995, 38907.416320
 763.364006, 38880.654786
 763.685643, 38853.561459
 764.006799, 38826.256554
 764.327561, 38798.762191
 764.649614, 38770.954441
 764.971023, 38742.952854
 765.293725, 38714.638747
 765.616490, 38686.077873
 765.939289, 38657.288413
 766.262062, 38628.275539
 766.583830, 38599.116638
 766.907665, 38569.585570
 767.231713, 38539.785431
 767.557157, 38509.645559
 767.880371, 38479.440052
 768.206017, 38448.842044
 768.531057, 38418.035345
 768.857248, 38386.915662
 769.183476, 38355.551021
 769.510231, 38323.914715
 769.837325, 38292.015702
 770.163774, 38259.940026
 770.490600, 38227.613852
 770.816770, 38195.113423
 771.145179, 38162.200238
 771.473716, 38129.018757
 771.803562, 38095.491343
 772.133265, 38061.730406
 772.464314, 38027.620828
 772.794439, 37993.347405
 773.122993, 37959.001020
 773.453806, 37924.239655
 773.782143, 37889.450461
 774.112743, 37854.255318
 774.444121, 37818.729181
 774.775752, 37782.939859
 775.108605, 37746.800883
 775.442690, 37710.296652
 775.775839, 37673.635594
 776.109176, 37636.737821
 776.443163, 37599.543182
 776.778130, 37562.011905
 777.114304, 37524.115344
 777.449608, 37486.057675
 777.786357, 37447.632797
 778.122951, 37408.971721
 778.460286, 37370.003451
 778.796819, 37330.875085
 779.133119, 37291.549058
 779.472528, 37251.668446
 779.811757, 37211.531333
 780.150463, 37171.217090
 780.489389, 37135.179195
 780.829083, 37098.997776
 781.169817, 37062.643602
 781.511499, 37026.126078
 781.853400, 36989.522824
 782.195474, 36952.838781
 782.538109, 36916.032430
 782.881081, 36879.127408
 783.223850, 36842.182220
 783.567792, 36805.048139
 783.911829, 36767.841554
 784.256625, 36730.490430
 784.600286, 36693.200194
 784.944848, 36655.750069
 785.290133, 36618.159136
 785.636313, 36580.408376
 785.981907, 36542.659239
 786.328687, 36504.718180
 786.676181, 36466.636497
 787.024405, 36428.412043
 787.372476, 36390.141841
 787.721173, 36351.740209
 788.070492, 36313.207349
 788.420338, 36274.553586
 788.771233, 36235.720932
 789.120401, 36197.016830
 789.470399, 36158.158369
 789.821200, 36119.148168
 790.171722, 36080.106539
 790.524300, 36040.773000
 790.877472, 36001.310141
 791.229152, 35961.951391
 791.581533, 35922.451723
 791.935540, 35882.706868
 792.290312, 35842.813018
 792.645374, 35802.823385
 793.001428, 35762.658699
 793.355397, 35722.666626
 793.711067, 35682.419530
 794.068967, 35641.856667
 794.427382, 35601.171724
 794.785626, 35560.442741
 795.143409, 35519.702878
 795.503262, 35478.663789
 795.862562, 35437.624190
 796.222588, 35396.438166
 796.580976, 35355.376642
 796.940514, 35314.120111
 797.012568, 35305.844515
 797.178711, 35286.752733
 797.192059, 35285.218245
 797.200623, 35284.233719
 797.207592, 35283.432617
 797.212738, 35282.840892
 797.214843, 35282.598913
 797.215744, 35282.495315
 797.216615, 35282.395978
 797.217405, 35282.305858
 797.222890, 35281.680588
 797.249593, 35278.636254
 797.327996, 35269.695551
 797.669406, 35230.727817
 798.032137, 35189.263965
 798.394953, 35147.726054
 798.756965, 35106.216197
 799.120075, 35064.516284
 799.484612, 35022.588213
 799.848580, 34980.661278
 800.214075, 34938.493906
 800.579717, 34896.245126
 800.946411, 34853.810008
 801.315418, 34811.042173
 801.682796, 34768.398166
 802.047110, 34726.046055
 802.414410, 34683.282690
 802.785235, 34640.043770
 803.155591, 34596.794277
 803.525533, 34553.528213
 803.896071, 34510.127434
 804.267811, 34466.520775
 804.639199, 34422.890501
 805.011865, 34379.044790
 805.385736, 34334.991868
 805.760270, 34290.795240
 806.134863, 34246.526072
 806.511527, 34201.946335
 806.888391, 34157.276901
 807.263915, 34112.700830
 807.640679, 34067.911944
 808.016937, 34023.117841
 808.393891, 33978.175405
 808.771497, 33933.089816
 809.152294, 33887.556956
 809.451666, 33851.713787
 809.533813, 33841.871301
 809.912969, 33796.402875
 810.295484, 33750.465131
 810.675327, 33704.782614
 811.058309, 33658.656421
 811.441505, 33612.437962
 811.824370, 33566.193339
 812.209345, 33519.627284
 812.594481, 33472.975216
 812.981235, 33426.060349
 813.367616, 33379.123943
 813.754085, 33332.110227
 814.141808, 33284.877271
 814.531942, 33237.283310
 814.920638, 33189.797661
 815.311401, 33141.992352
 815.702085, 33094.129481
 816.093210, 33046.145343
 816.485318, 32997.973322
 816.878816, 32949.563059
 817.270424, 32901.318178
 817.664957, 32852.645361
 818.061208, 32803.692806
 818.455696, 32754.890398
 818.850936, 32705.927578
 819.248952, 32656.552806
 819.647570, 32607.035190
 820.046261, 32557.440297
 820.447422, 32507.469587
 820.845371, 32457.831203
 821.247553, 32407.596418
 821.651284, 32357.098999
 822.051778, 32306.938331
 822.455111, 32256.353739
 822.859817, 32205.527970
 823.265766, 32154.477031
 823.671470, 32103.387949
 824.075291, 32052.467763
 824.482061, 32001.106919
 824.891970, 31949.280155
 825.302298, 31897.330737
 825.711950, 31845.397321
 826.122434, 31793.289064
 826.532698, 31741.139618
 826.945145, 31688.642975
 827.358974, 31635.900520
 827.774581, 31582.861107
 828.187406, 31530.107084
 828.602212, 31477.030433
 829.018141, 31423.740001
 829.433928, 31370.398083
 829.849992, 31316.951003
 830.268992, 31263.056444
 830.691175, 31208.681463
 831.110539, 31154.599079
 831.528657, 31100.607602
 831.950911, 31046.011659
 832.371635, 30991.543400
 832.795431, 30936.606796
 833.219919, 30881.509445
 833.643825, 30826.417135
 834.069249, 30771.056927
 834.497515, 30715.255345
 834.926697, 30659.262983
 835.356998, 30603.052699
 835.784113, 30547.187817
 836.215617, 30490.677378
 836.646808, 30434.136346
 837.079030, 30377.388545
 837.508935, 30320.874048
 837.944620, 30263.527735
 838.379159, 30206.260502
 838.814719, 30148.786799
 839.251435, 30091.088502
 839.686836, 30033.492330
 840.126280, 29975.289241
 840.565777, 29917.006613
 841.007402, 29858.369209
 841.446821, 29799.952556
 841.888565, 29741.154552
 842.330292, 29682.286643
 842.774716, 29622.986654
 843.219130, 29563.615200
 843.663404, 29504.190160
 844.111023, 29444.244593
 844.557541, 29384.373769
 845.005032, 29324.299817
 845.451781, 29264.253019
 845.902298, 29203.626932
 846.351152, 29143.151902
 846.804632, 29081.980092
 847.254582, 29021.211865
 847.706045, 28960.166762
 848.163156, 28898.284073
 848.617797, 28836.662263
 849.072404, 28774.972259
 849.531931, 28712.540559
 849.990203, 28650.205545
 850.451274, 28587.415761
 850.908019, 28525.142042
 851.367879, 28462.370352
 851.827959, 28399.495376
 852.287173, 28336.665847
 852.752384, 28272.941926
 853.219309, 28208.908635
 853.687315, 28144.652240
 854.153105, 28080.626218
 854.622865, 28015.979707
 855.093875, 27951.086417
 855.566655, 27885.874030
 856.035977, 27821.064245
 856.508187, 27755.781336
 856.983064, 27690.054690
 857.455086, 27624.648940
 857.930961, 27558.634607
 858.407252, 27492.487711
 858.882042, 27426.475081
 859.360048, 27359.940671
 859.837659, 27293.386551
 860.315408, 27226.739193
 860.793222, 27160.008577
 861.275676, 27092.555151
 861.758195, 27025.017741
 862.237049, 26957.919373
 862.718972, 26890.317103
 863.205510, 26821.992433
 863.693157, 26753.436665
 864.178241, 26685.166622
 864.664195, 26616.699960
 865.153007, 26547.755855
 865.642638, 26478.621354
 866.131423, 26409.531743
 866.625159, 26339.667215
 867.122788, 26269.175571
 867.618834, 26198.832357
 868.118583, 26127.887718
 868.619100, 26056.757710
 869.114499, 25986.279832
 869.613549, 25915.207453
 870.115106, 25843.702285
 870.615270, 25772.320401
 871.115391, 25700.869666
 871.616588, 25629.190495
 872.119410, 25557.203909
 872.626706, 25484.500939
 873.130858, 25412.173449
 873.637854, 25339.362825
 874.142505, 25266.814183
 874.651582, 25193.554290
 875.161210, 25120.139759
 875.669779, 25046.803036
 876.184184, 24972.549167
 876.696018, 24898.591188
 877.210124, 24824.229864
 877.724659, 24749.731202
 878.235769, 24675.654450
 878.750728, 24600.945404
 879.268376, 24525.771368
 879.782219, 24451.075881
 880.298319, 24375.978450
 880.819814, 24300.021215
 881.337621, 24224.527029
 881.860002, 24148.291401
 882.381103, 24072.168208
 882.903374, 23995.800155
 883.431167, 23918.549732
 883.959051, 23841.210781
 884.481620, 23764.576988
 885.012453, 23686.656608
 885.536172, 23609.706974
 886.061492, 23532.449321
 886.588475, 23454.874043
 887.120087, 23376.543560
 887.649945, 23298.398084
 888.185483, 23219.340851
 888.717288, 23140.761302
 889.251883, 23061.696135
 889.791887, 22981.756742
 890.326785, 22902.499898
 890.862730, 22823.015083
 891.400379, 22743.204645
 891.935415, 22663.710023
 892.477438, 22583.104436
 893.018133, 22502.623358
 893.557820, 22422.220226
 894.100093, 22341.359442
 894.644492, 22260.109141
 895.189347, 22178.718485
 895.730879, 22097.752741
 896.276717, 22016.071549
 896.830387, 21933.145356
 897.384802, 21850.033970
 897.937978, 21767.035513
 898.493579, 21683.600316
 899.046225, 21600.536878
 899.599784, 21517.264561
 900.155114, 21433.654058
 900.707524, 21350.412257
 901.261255, 21266.900965
 901.815529, 21183.237383
 902.375228, 21098.683748
 902.931655, 21014.554167
 903.498006, 20928.852333
 904.059974, 20843.742732
 904.617329, 20759.262090
 905.186597, 20672.904585
 905.752851, 20586.933543
 906.314456, 20501.598862
 906.880881, 20415.462057
 907.450281, 20328.802709
 908.015139, 20242.765576
 908.583590, 20156.112139
 909.156660, 20068.684922
 909.720556, 19982.589424
 910.294145, 19894.945152
 910.860536, 19808.333135
 911.434291, 19720.527020
 912.003342, 19633.373355
 912.578295, 19545.248240
 913.151510, 19457.322217
 913.727271, 19368.938462
 914.299674, 19281.003838
 914.873710, 19192.752186
 915.456164, 19103.139225
 916.032192, 19014.448857
 916.611096, 18925.249703
 917.186925, 18836.459232
 917.760556, 18747.943629
 918.336359, 18659.028851
 918.920601, 18568.745892
 919.497758, 18479.493713
 920.081663, 18389.133801
 920.663939, 18298.962062
 921.248546, 18208.365310
 921.828318, 18118.455270
 922.413765, 18027.602198
 922.996768, 17937.065798
 923.582640, 17846.021488
 924.175940, 17753.759670
 924.761293, 17662.671597
 925.350017, 17570.997262
 925.943391, 17478.536571
 926.539111, 17385.648108
 927.133283, 17292.939332
 927.728604, 17199.989698
 928.320043, 17107.585798
 928.918245, 17014.064306
 929.518388, 16920.178378
 930.117375, 16826.412818
 930.712817, 16733.142636
 931.312432, 16639.159285
 931.907949, 16545.759748
 932.507895, 16451.606789
 933.102167, 16358.286769
 933.701931, 16264.046638
 934.301979, 16169.704209
 934.905556, 16074.749504
 935.509182, 15979.729695
 936.108038, 15885.404503
 936.714977, 15789.749440
 937.314050, 15695.278692
 937.918955, 15599.832753
 938.528072, 15503.666269
 939.130707, 15408.468506
 939.735746, 15312.836578
 940.346249, 15216.286387
 940.956485, 15119.723915
 941.564006, 15023.537436
 942.175530, 14926.663635
 942.788106, 14829.569879
 943.397615, 14732.909455
 944.005103, 14636.517948
 944.614569, 14539.761069
 945.226843, 14442.506818
 945.837379, 14345.477937
 946.453105, 14247.573181
 947.068959, 14149.597369
 947.682644, 14051.916648
 948.295316, 13954.347762
 948.915055, 13855.603756
 949.535099, 13756.761683
 950.153672, 13658.105206
 950.773337, 13559.226034
 951.396879, 13459.679769
 952.014675, 13361.003347
 952.634427, 13261.967577
 953.257915, 13162.287583
 953.875625, 13063.485353
 954.499168, 12963.704096
 955.124651, 12863.566416
 955.750780, 12763.279698
 956.378598, 12662.677123
 957.001023, 12562.894358
 957.630045, 12462.009563
 958.255703, 12361.620746
 958.879880, 12261.426384
 959.511339, 12160.019929
 960.141639, 12058.756749
 960.771966, 11957.446924
 961.398666, 11856.678630
 962.029465, 11755.209866
 962.658300, 11654.016392
 963.283194, 11553.417332
 963.888097, 11455.999090
