V/VsTO, Thrust - Yawing Moment
   0.327588, 16011.873357
   0.330811, 16328.445350
   0.334033, 16648.116267
   0.337256, 16970.886110
   0.340478, 17296.754878
   0.343701, 17625.722572
   0.346924, 17957.789190
   0.350146, 18292.954734
   0.353369, 18631.219203
   0.356591, 18972.582596
   0.359814, 19317.044915
   0.363036, 19664.606160
   0.366259, 20015.266329
   0.369481, 20369.025424
   0.372704, 20725.883443
   0.375926, 21085.840388
   0.379149, 21448.896258
   0.382371, 21815.051053
   0.385594, 22184.304774
   0.388817, 22556.657419
   0.392039, 22932.108990
   0.395262, 23310.659486
   0.398484, 23692.308907
   0.401707, 24077.057253
   0.404929, 24464.904524
   0.408152, 24855.850721
   0.411374, 25249.895842
   0.414597, 25647.039889
   0.417819, 26047.282861
   0.421042, 26450.624758
   0.424264, 26857.065581
   0.427487, 27266.605328
   0.430710, 27679.244001
   0.433932, 28094.981598
   0.437155, 28513.818121
   0.440377, 28935.753569
   0.443600, 29360.787943
   0.446822, 29788.921241
   0.450045, 30220.153465
   0.453267, 30654.484613
   0.456490, 31091.914687
   0.459712, 31532.443686
   0.462935, 31976.071611
   0.466157, 32422.798460
   0.469380, 32872.624234
   0.472602, 33325.548934
   0.475825, 33781.572559
   0.479048, 34240.695109
   0.482270, 34702.916584
   0.485493, 35168.236985
   0.488715, 35636.656310
   0.491938, 36108.174561
   0.495160, 36582.791737
   0.498383, 37060.507838
   0.501605, 37541.322864
   0.504828, 38025.236815
   0.508050, 38512.249691
   0.511273, 39002.361493
   0.514495, 39495.572220
   0.517718, 39991.881872
   0.520941, 40491.290449
   0.524163, 40993.797951
   0.527386, 41499.404379
   0.530608, 42008.109731
   0.533831, 42519.914009
   0.537053, 43034.817212
   0.540276, 43552.819340
   0.543498, 44073.920393
   0.546721, 44598.120372
   0.549943, 45125.419275
   0.553166, 45655.817104
   0.556388, 46189.313858
   0.559611, 46725.909537
   0.562834, 47265.604141
   0.566056, 47808.397670
   0.569279, 48354.290125
   0.572501, 48903.281504
   0.575724, 49455.371809
   0.578946, 50010.561039
   0.582169, 50568.849194
   0.585391, 51130.236275
   0.588614, 51694.722280
   0.591836, 52262.307211
   0.595059, 52832.991067
   0.598281, 53406.773848
   0.601504, 53983.655554
   0.604726, 54563.636185
   0.607949, 55146.715742
   0.611172, 55732.894223
   0.614394, 56322.171630
   0.617617, 56914.547962
   0.620839, 57510.023219
   0.624062, 58108.597401
   0.627284, 58710.270509
   0.630507, 59315.042541
   0.633729, 59922.913499
   0.636952, 60533.883382
   0.640174, 61147.952190
   0.643397, 61765.119923
   0.646619, 62385.386581
   0.649842, 63008.752165
   0.653065, 63635.216674
   0.656287, 64264.780108
   0.659510, 64897.442467
   0.662732, 65533.203751
   0.665955, 66172.063960
   0.669177, 66814.023095
   0.672400, 67459.081154
   0.675622, 68107.238139
   0.678845, 68758.494049
   0.682067, 69412.848884
   0.685290, 70070.302645
   0.688512, 70730.855330
   0.691735, 71394.506941
   0.694958, 72061.257476
   0.698180, 72731.106937
   0.701403, 73404.055323
   0.704625, 74080.102635
   0.707848, 74759.248871
   0.711070, 75441.494033
   0.714293, 76126.838119
   0.717515, 76815.281131
   0.720738, 77506.823068
   0.723960, 78201.463931
   0.727183, 78899.203718
   0.730405, 79600.042431
   0.733628, 80303.980068
   0.736851, 81011.016631
   0.740073, 81721.152119
   0.743296, 82434.386532
   0.746518, 83150.719871
   0.749741, 83870.152134
   0.752963, 84592.683323
   0.756186, 85318.313437
   0.759408, 86047.042476
   0.762631, 86778.870440
   0.765853, 87513.797329
   0.769076, 88251.823144
   0.772298, 88992.947884
   0.775521, 89737.171548
   0.778743, 90484.494138
   0.781966, 91234.915653
   0.785189, 91988.436094
   0.788411, 92745.055459
   0.791634, 93504.773750
   0.794856, 94267.590966
   0.798079, 95033.507106
   0.801301, 95802.522173
   0.804524, 96574.636164
   0.807746, 97349.849080
   0.810969, 98128.160922
   0.814191, 98909.571689
   0.817414, 99694.081380
   0.820636, 100481.689997
   0.823859, 101272.397540
   0.827082, 102066.204007
   0.830304, 102863.109400
   0.833527, 103663.113717
   0.836749, 104466.216960
   0.839972, 105272.419128
   0.843194, 106081.720221
   0.846417, 106894.120240
   0.849639, 107709.619183
   0.852862, 108528.217052
   0.856084, 109349.913846
   0.859307, 110174.709565
   0.862529, 111002.604209
   0.865752, 111833.597778
   0.868975, 112667.690273
   0.872197, 113504.881692
   0.875420, 114345.172037
   0.878642, 115188.561307
   0.881865, 116035.049502
   0.885087, 116884.636622
   0.888310, 117737.322668
   0.891532, 118593.107638
   0.894755, 119451.991534
   0.897977, 120313.974355
   0.901200, 121179.056101
   0.904422, 122047.236772
   0.907645, 122918.516369
   0.910867, 123792.894890
   0.914090, 124670.372337
   0.917313, 125550.948709
   0.920535, 126434.624006
   0.923758, 127321.398228
   0.926980, 128211.271376
   0.930203, 129104.243448
   0.933425, 130000.314446
   0.936648, 130899.484369
   0.939870, 131801.753217
   0.943093, 132707.120990
   0.946315, 133615.587688
   0.949538, 134527.153312
   0.952760, 135441.817860
   0.955983, 136359.581334
   0.959206, 137280.443733
   0.962428, 138204.405057
   0.965651, 139131.465306
   0.968873, 140061.624481
   0.972096, 140994.882580
   0.975318, 141931.239605
   0.978541, 142870.695555
   0.981763, 143813.250430
   0.984986, 144758.904231
   0.988208, 145707.656956
   0.991431, 146659.508607
   0.994653, 147614.459182
   0.997876, 148572.508683
   1.001099, 149533.657109
   1.004321, 150497.904460
   1.007544, 151465.250737
   1.010766, 152435.695938
   1.013989, 153409.240065
   1.017211, 154385.883117
   1.020434, 155365.625094
   1.023656, 156348.465996
   1.026879, 157334.405823
   1.030101, 158323.444576
   1.033324, 159315.582254
   1.036546, 160310.818856
   1.039769, 161309.154384
   1.042992, 162310.588838
   1.046214, 163315.122216
   1.049437, 164322.754519
   1.052659, 165333.485748
   1.055882, 166347.315902
   1.059104, 167364.244981
   1.062327, 168384.272985
   1.065549, 169407.399914
   1.068772, 170433.625769
   1.071994, 171462.950548
   1.075217, 172495.374253
   1.078439, 173530.896883
   1.081662, 174569.518438
   1.084884, 175611.238918
   1.088107, 176656.058324
   1.091330, 177703.976654
   1.094552, 178754.993910
   1.097775, 179809.110091
   1.100997, 180866.325197
   1.104220, 181926.639228
   1.107442, 182990.052184
   1.110665, 184056.564066
   1.113887, 185126.174873
   1.117110, 186198.884604
   1.120332, 187274.693261
   1.123555, 188353.600844
   1.126777, 189435.607351
   1.130000, 190520.712783
