Time, Angles
   0.000100,    0.000000
   0.000584,    0.000000
   0.002073,    0.000000
   0.007621,    0.000000
   0.022321,    0.000000
   0.049722,    0.000000
   0.081356,    0.000000
   0.113166,    0.000000
   0.145277,    0.000000
   0.177393,    0.000000
   0.209532,    0.000000
   0.241854,    0.000000
   0.274280,    0.000000
   0.306882,    0.000000
   0.339730,    0.000000
   0.372575,    0.000000
   0.405964,    0.000000
   0.439430,    0.000000
   0.472825,    0.000000
   0.506325,    0.000000
   0.540098,    0.000000
   0.574229,    0.000000
   0.609346,    0.000000
   0.644354,    0.000000
   0.679669,    0.000000
   0.715179,    0.000000
   0.750675,    0.000000
   0.785860,    0.000000
   0.821893,    0.000000
   0.857909,    0.000000
   0.894515,    0.000000
   0.931043,    0.000000
   0.968537,    0.000000
   1.005886,    0.000000
   1.044333,    0.000000
   1.082764,    0.000000
   1.121413,    0.000000
   1.161278,    0.000000
   1.200983,    0.000000
   1.241003,    0.000000
   1.281467,    0.000000
   1.322069,    0.000000
   1.362716,    0.000000
   1.404287,    0.000000
   1.445182,    0.000000
   1.487010,    0.000000
   1.528752,    0.000000
   1.571489,    0.000000
   1.614202,    0.000000
   1.657967,    0.000000
   1.701698,    0.000000
   1.745542,    0.000000
   1.789414,    0.000000
   1.834346,    0.000000
   1.879129,    0.000000
   1.924414,    0.000000
   1.970399,    0.000000
   2.017542,    0.000000
   2.064104,    0.000000
   2.111435,    0.000000
   2.158594,    0.000000
   2.206390,    0.000000
   2.254473,    0.000000
   2.302484,    0.000000
   2.351116,    0.000000
   2.399608,    0.000000
   2.448748,    0.000000
   2.498052,    0.000000
   2.547871,    0.000000
   2.598380,    0.000000
   2.649071,    0.000000
   2.700299,    0.000000
   2.750985,    0.000000
   2.802877,    0.000000
   2.854696,    0.000000
   2.907415,    0.000000
   2.959664,    0.000000
   3.012867,    0.000000
   3.066210,    0.000000
   3.119630,    0.000000
   3.173988,    0.000000
   3.227889,    0.000000
   3.282497,    0.000000
   3.336984,    0.000000
   3.392637,    0.000000
   3.447887,    0.000000
   3.503542,    0.000000
   3.559556,    0.000000
   3.616151,    0.000000
   3.672641,    0.000000
   3.729920,    0.000000
   3.787722,    0.000000
   3.845655,    0.000000
   3.903844,    0.000000
   3.962158,    0.000000
   4.020726,    0.000000
   4.079826,    0.000000
   4.138894,    0.000000
   4.198709,    0.000000
   4.259339,    0.000000
   4.261732,    0.000000
   4.263376,    0.000000
   4.264846,    0.000000
   4.266029,    0.000000
   4.267395,    0.000000
   4.268425,    0.000000
   4.268643,    0.000000
   4.268936,    0.000000
   4.268999,    0.000000
   4.269101,    0.000000
   4.269134,    0.000000
   4.269141,    0.000000
   4.269155,    0.000000
   4.269297,    0.000000
   4.270417,    0.000000
   4.275457,    0.000000
   4.292645,    0.000000
   4.335010,    0.000000
   4.388526,    0.000000
   4.442973,    0.000000
   4.497748,    0.000000
   4.552408,    0.000000
   4.607470,    0.000000
   4.663114,    0.000000
   4.718737,    0.000000
   4.774412,    0.000000
   4.830740,    0.000000
   4.887156,    0.000000
   4.943781,    0.000000
   5.000516,    0.000000
   5.057691,    0.000000
   5.115276,    0.000000
   5.172681,    0.000000
   5.230246,    0.000000
   5.287799,    0.000000
   5.346022,    0.000000
   5.404634,    0.000000
   5.463307,    0.000000
   5.522280,    0.000000
   5.581576,    0.000000
   5.641038,    0.000000
   5.701063,    0.000000
   5.760788,    0.000000
   5.820606,    0.000000
   5.881098,    0.000000
   5.941476,    0.000000
   6.002515,    0.000000
   6.063594,    0.000000
   6.124919,    0.000000
   6.186398,    0.000000
   6.247619,    0.000000
   6.309897,    0.000000
   6.372032,    0.000000
   6.434853,    0.000000
   6.497487,    0.000000
   6.560135,    0.000000
   6.623474,    0.000000
   6.686793,    0.000000
   6.750442,    0.000000
   6.814215,    0.000000
   6.877942,    0.000000
   6.942629,    0.000000
   7.007074,    0.000000
   7.071978,    0.000000
   7.136997,    0.000000
   7.202150,    0.000000
   7.267139,    0.000000
   7.332824,    0.000000
   7.398377,    0.000000
   7.464226,    0.000000
   7.530701,    0.000000
   7.597320,    0.000000
   7.664215,    0.000000
   7.731196,    0.000000
   7.798631,    0.000000
   7.865891,    0.000000
   7.933280,    0.000000
   8.000869,    0.000000
   8.068602,    0.000000
   8.137049,    0.000000
   8.205340,    0.000000
   8.274102,    0.000000
   8.343123,    0.000000
   8.412167,    0.000000
   8.481110,    0.000000
   8.550446,    0.000000
   8.620046,    0.000000
   8.690094,    0.000000
   8.760025,    0.000000
   8.760583,    0.000000
   8.760711,    0.000000
   8.760765,    0.000000
   8.760871,    0.000000
   8.760883,    0.000000
   8.760890,    0.000000
   8.760901,    0.000000
   8.761005,    0.000000
   8.762046,    0.000000
   8.768146,    0.000000
   8.788762,    0.000000
   8.838617,    0.000000
   8.901477,    0.000000
   8.964032,    0.000000
   9.027050,    0.000000
   9.089980,    0.000000
   9.153001,    0.000000
   9.216338,    0.000000
   9.280075,    0.000000
   9.343747,    0.000000
   9.407314,    0.000000
   9.471508,    0.000000
   9.535590,    0.000000
   9.599870,    0.000000
   9.664424,    0.000000
   9.729177,    0.000000
   9.793985,    0.000000
   9.858985,    0.000000
   9.924385,    0.000000
   9.989800,    0.000000
  10.055364,    0.000000
  10.121031,    0.000000
  10.186767,    0.000000
  10.253013,    0.000000
  10.319102,    0.000000
  10.385218,    0.000000
  10.451713,    0.000000
  10.518584,    0.000000
  10.585689,    0.000000
  10.652664,    0.000000
  10.719871,    0.000000
  10.786986,    0.000000
  10.854623,    0.000000
  10.922088,    0.000000
  10.989977,    0.000000
  11.057713,    0.000000
  11.125725,    0.000000
  11.193926,    0.000000
  11.262169,    0.000000
  11.330929,    0.000000
  11.399607,    0.000000
  11.468377,    0.000000
  11.537439,    0.000000
  11.606572,    0.000000
  11.675659,    0.000000
  11.745265,    0.000000
  11.814940,    0.000000
  11.884953,    0.000000
  11.954992,    0.000000
  12.025201,    0.000000
  12.095311,    0.000000
  12.165734,    0.000000
  12.236348,    0.000000
  12.307019,    0.000000
  12.377985,    0.000000
  12.449122,    0.000000
  12.520551,    0.000000
  12.591971,    0.000000
  12.663224,    0.000000
  12.734765,    0.000000
  12.806686,    0.000000
  12.878724,    0.000000
  12.951162,    0.000000
  13.023347,    0.000000
  13.095648,    0.000000
  13.168206,    0.000000
  13.240875,    0.000000
  13.313840,    0.000000
  13.386788,    0.000000
  13.460238,    0.000000
  13.533769,    0.000000
  13.548545,    0.000000
  13.558164,    0.000000
  13.565430,    0.000000
  13.571280,    0.000000
  13.576999,    0.000000
  13.582791,    0.000000
  13.587035,    0.000000
  13.587790,    0.000000
  13.588741,    0.000000
  13.589851,    0.000000
  13.589913,    0.000000
  13.589951,    0.000000
  13.589978,    0.000000
  13.590001,    0.000000
  13.590008,    0.000000
  13.590015,    0.000000
  13.590088,    0.000000
  13.590718,    0.000000
  13.594722,    0.000000
  13.609897,    0.000000
  13.661568,    0.000000
  13.725456,    0.000000
  13.789945,    0.000000
  13.854426,    0.000000
  13.919196,    0.000000
  13.983766,    0.000000
  14.048667,    0.000000
  14.113674,    0.000000
  14.178717,    0.000000
  14.243987,    0.000000
  14.309339,    0.000000
  14.374654,    0.000000
  14.440255,    0.000000
  14.505934,    0.000000
  14.571876,    0.000000
  14.637860,    0.000000
  14.703855,    0.000000
  14.769972,    0.000000
  14.836330,    0.000000
  14.902604,    0.000000
  14.969066,    0.000000
  15.035784,    0.000000
  15.102643,    0.000000
  15.169427,    0.000000
  15.236500,    0.000000
  15.303596,    0.000000
  15.370850,    0.000000
  15.438251,    0.000000
  15.505609,    0.000000
  15.573112,    0.000000
  15.640913,    0.000000
  15.708836,    0.000000
  15.776790,    0.000000
  15.844768,    0.000000
  15.912918,    0.000000
  15.981328,    0.000000
  16.049689,    0.000000
  16.118299,    0.000000
  16.187145,    0.000000
  16.256094,    0.000000
  16.324967,    0.000000
  16.394038,    0.000000
  16.463189,    0.000000
  16.532509,    0.000000
  16.602093,    0.000000
  16.671547,    0.000000
  16.741036,    0.000000
  16.810682,    0.000000
  16.880394,    0.000000
  16.950334,    0.000000
  17.020257,    0.000000
  17.090429,    0.000000
  17.160952,    0.000000
  17.231269,    0.000000
  17.301920,    0.000000
  17.372595,    0.000000
  17.443469,    0.000000
  17.514489,    0.000000
  17.585532,    0.000000
  17.656536,    0.000000
  17.727801,    0.000000
  17.799501,    0.000000
  17.870856,    0.000000
  17.942631,    0.000000
  18.014268,    0.000000
  18.086135,    0.000000
  18.158237,    0.000000
  18.230292,    0.000000
  18.302423,    0.000000
  18.374675,    0.000000
  18.447159,    0.000000
  18.519768,    0.000000
  18.592329,    0.000000
  18.665294,    0.000000
  18.738072,    0.000000
  18.811104,    0.000000
  18.884234,    0.000000
  18.898885,    0.000000
  18.949814,    0.000000
  18.952736,    0.000000
  18.953239,    0.000000
  18.953452,    0.000000
  18.953508,    0.000000
  18.953541,    0.000000
  18.953579,    0.000000
  18.953956,    0.000000
  18.956648,    0.000000
  18.974442,    0.000000
  19.052213,    0.000000
  19.125225,    0.000000
  19.198472,    0.000000
  19.271808,    0.000000
  19.345310,    0.000000
  19.418896,    0.000000
  19.492550,    0.000000
  19.566208,    0.000000
  19.640256,    0.000000
  19.714222,    0.000000
  19.788416,    0.000000
  19.862617,    0.000000
  19.936878,    0.000000
  20.011333,    0.000000
  20.086035,    0.000000
  20.160678,    0.000000
  20.235439,    0.000000
  20.310249,    0.000000
  20.385193,    0.000000
  20.460414,    0.000000
  20.535681,    0.000000
  20.611020,    0.000000
  20.686603,    0.000000
  20.762273,    0.000000
  20.838004,    0.000000
  20.913812,    0.000000
  20.989552,    0.000000
  21.065520,    0.000000
  21.141666,    0.000000
  21.217863,    0.000000
  21.294062,    0.000000
  21.370428,    0.000000
  21.447001,    0.000000
  21.523602,    0.000000
  21.600422,    0.000000
  21.677465,    0.000000
  21.754504,    0.000000
  21.831640,    0.000000
  21.908849,    0.000000
  21.986223,    0.000000
  22.063752,    0.000000
  22.141408,    0.000000
  22.219220,    0.000000
  22.296996,    0.000000
  22.374981,    0.000000
  22.452979,    0.000000
  22.531031,    0.000000
  22.609294,    0.000000
  22.687637,    0.000000
  22.766179,    0.000000
  22.844803,    0.000000
  22.923621,    0.000000
  23.002508,    0.000000
  23.043817,    0.000000
  23.081417,    0.000000
  23.160468,    0.112801
  23.239533,    0.348886
  23.318947,    0.582770
  23.398465,    0.815458
  23.478213,    1.046230
  23.557896,    1.275461
  23.637608,    1.502316
  23.717738,    1.727080
  23.798066,    1.950865
  23.878346,    2.173043
  23.958845,    2.392949
  24.039417,    2.611329
  24.119967,    2.827799
  24.200732,    3.042115
  24.281554,    3.254927
  24.362343,    3.465824
  24.443226,    3.674592
  24.524295,    3.881575
  24.605270,    4.087020
  24.686181,    4.290233
  24.767184,    4.491310
  24.848154,    4.690661
  24.929227,    4.887994
  25.010132,    5.083660
  25.091006,    5.277019
  25.094248,    5.468429
  25.098612,    5.476027
  25.102907,    5.486251
  25.104037,    5.496309
  25.105470,    5.498953
  25.105811,    5.502308
  25.106320,    5.503105
  25.106356,    5.504296
  25.106370,    5.504379
  25.106385,    5.504413
  25.106535,    5.504449
  25.108035,    5.504799
  25.116815,    5.508309
  25.151641,    5.528844
  25.235294,    5.610216
  25.319622,    5.804858
  25.325225,    5.999101
  25.330817,    6.011877
  25.336429,    6.024617
  25.342040,    6.037397
  25.347658,    6.050164
  25.353275,    6.062940
  25.358887,    6.075705
  25.364516,    6.088448
  25.370148,    6.101224
  25.375783,    6.113997
  25.381398,    6.126766
  25.387014,    6.139482
  25.392660,    6.152194
  25.398300,    6.164963
  25.403950,    6.177711
  25.409594,    6.190473
  25.415226,    6.203211
  25.420890,    6.215916
  25.426562,    6.228682
  25.432232,    6.241459
  25.437852,    6.254222
  25.443492,    6.266866
  25.449164,    6.279544
  25.454857,    6.292286
  25.460496,    6.305064
  25.466160,    6.317715
  25.471835,    6.330414
  25.477505,    6.343128
  25.483206,    6.355822
  25.488889,    6.368577
  25.494598,    6.381282
  25.500318,    6.394038
  25.506039,    6.406809
  25.511774,    6.419573
  25.517521,    6.432361
  25.523267,    6.445166
  25.528998,    6.457960
  25.534747,    6.470711
  25.540508,    6.483494
  25.546274,    6.496296
  25.552026,    6.509098
  25.557806,    6.521861
  25.563553,    6.534677
  25.569312,    6.547413
  25.575086,    6.560165
  25.580889,    6.572941
  25.586681,    6.585774
  25.592480,    6.598571
  25.598266,    6.611377
  25.604073,    6.624145
  25.609837,    6.636950
  25.615624,    6.649650
  25.621439,    6.662393
  25.627271,    6.675191
  25.633096,    6.688016
  25.638939,    6.700816
  25.644755,    6.713644
  25.650622,    6.726408
  25.656481,    6.739272
  25.662363,    6.752112
  25.668245,    6.764993
  25.674133,    6.777862
  25.680025,    6.790738
  25.685907,    6.790738
  25.691831,    6.790738
  25.697701,    6.790738
  25.703601,    6.790738
  25.709514,    6.790738
  25.715420,    6.790738
  25.721365,    6.790738
  25.727302,    6.790738
  25.733187,    6.790738
  25.739144,    6.790738
  25.745107,    6.790738
  25.751044,    6.790738
  25.757011,    6.790738
  25.762978,    6.790738
  25.768945,    6.790738
  25.774885,    6.790738
  25.780880,    6.790738
  25.786861,    6.790738
  25.792864,    6.790738
  25.798835,    6.790738
  25.804858,    6.790738
  25.810888,    6.790738
  25.816906,    6.790738
  25.822929,    6.790738
  25.828968,    6.790738
  25.834989,    6.790738
  25.841013,    6.790738
  25.847064,    6.790738
  25.853127,    6.790738
  25.859167,    6.790738
  25.865227,    6.790738
  25.871316,    6.790738
  25.877401,    6.790738
  25.883508,    6.790738
  25.889585,    6.790738
  25.895695,    6.790738
  25.901805,    6.790738
  25.907923,    6.790738
  25.914048,    6.790738
  25.920163,    6.790738
  25.926284,    6.790738
  25.932431,    6.790738
  25.938592,    6.790738
  25.944772,    6.790738
  25.950932,    6.790738
  25.957106,    6.790738
  25.963299,    6.790738
  25.969503,    6.790738
  25.975729,    6.790738
  25.981943,    6.790738
  25.988168,    6.790738
  25.994396,    6.790738
  26.000630,    6.790738
  26.006863,    6.790738
  26.013097,    6.790738
  26.019355,    6.790738
  26.025623,    6.790738
  26.031890,    6.790738
  26.038148,    6.790738
  26.044451,    6.790738
  26.050760,    6.790738
  26.057072,    6.790738
  26.063347,    6.790738
  26.069610,    6.790738
  26.075948,    6.790738
  26.082289,    6.790738
  26.088618,    6.790738
  26.094965,    6.790738
  26.101346,    6.790738
  26.107735,    6.790738
  26.114114,    6.790738
  26.120491,    6.790738
  26.126880,    6.790738
  26.133298,    6.790738
  26.139711,    6.790738
  26.146141,    6.790738
  26.152582,    6.790738
  26.159013,    6.790738
  26.165490,    6.790738
  26.171947,    6.790738
  26.178412,    6.790738
  26.180025,    6.790738
  26.184885,    6.790738
  26.191388,    6.790738
  26.197895,    6.790738
  26.204379,    6.790738
  26.210889,    6.790738
  26.217389,    6.790738
  26.223919,    6.790738
  26.230461,    6.790738
  26.237031,    6.790738
  26.243594,    6.790738
  26.250218,    6.790738
  26.256791,    6.790738
  26.263397,    6.790738
  26.270007,    6.790738
  26.276629,    6.790738
  26.283241,    6.790738
  26.289898,    6.790738
  26.296484,    6.790738
  26.303158,    6.790738
  26.309793,    6.790738
  26.316470,    6.790738
  26.323132,    6.790738
  26.329856,    6.790738
  26.336585,    6.790738
  26.343310,    6.790738
  26.350051,    6.790738
  26.356796,    6.790738
  26.363586,    6.790738
  26.370389,    6.790738
  26.377168,    6.790738
  26.383948,    6.790738
  26.390780,    6.790738
  26.397554,    6.790738
  26.404379,    6.790738
  26.411203,    6.790738
  26.418064,    6.790738
  26.424917,    6.790738
  26.431807,    6.790738
  26.438671,    6.790738
  26.445554,    6.790738
  26.452483,    6.790738
  26.459403,    6.790738
  26.466321,    6.790738
  26.473273,    6.790738
  26.480202,    6.790738
  26.487145,    6.790738
  26.494091,    6.790738
  26.501087,    6.790738
  26.508107,    6.790738
  26.515100,    6.790738
  26.522117,    6.790738
  26.529161,    6.790738
  26.536241,    6.790738
  26.543285,    6.790738
  26.550363,    6.790738
  26.557440,    6.790738
  26.564539,    6.790738
  26.571629,    6.790738
  26.578778,    6.790738
  26.585902,    6.790738
  26.593034,    6.790738
  26.600228,    6.790738
  26.607371,    6.790738
  26.614571,    6.790738
  26.621782,    6.790738
  26.629012,    6.790738
  26.636242,    6.790738
  26.643470,    6.790738
  26.650699,    6.790738
  26.657945,    6.790738
  26.665209,    6.790738
  26.672534,    6.790738
  26.679829,    6.790738
  26.687193,    6.790738
  26.694513,    6.790738
  26.701868,    6.790738
  26.709213,    6.790738
  26.716606,    6.790738
  26.724011,    6.790738
  26.731374,    6.790738
  26.738741,    6.790738
  26.746146,    6.790738
  26.753521,    6.790738
  26.761011,    6.790738
  26.768457,    6.790738
  26.775938,    6.790738
  26.783423,    6.790738
  26.790973,    6.790738
  26.798551,    6.790738
  26.806111,    6.790738
  26.813602,    6.790738
  26.821185,    6.790738
  26.828760,    6.790738
  26.836375,    6.790738
  26.843943,    6.790738
  26.851535,    6.790738
  26.859210,    6.790738
  26.866804,    6.790738
  26.874496,    6.790738
  26.882158,    6.790738
  26.889852,    6.790738
  26.897593,    6.790738
  26.905318,    6.790738
  26.913087,    6.790738
  26.920878,    6.790738
  26.928651,    6.790738
  26.936454,    6.790738
  26.944286,    6.790738
  26.952135,    6.790738
  26.959984,    6.790738
  26.967846,    6.790738
  26.975723,    6.790738
  26.983567,    6.790738
  26.991438,    6.790738
  26.999291,    6.790738
  27.007248,    6.790738
  27.015178,    6.790738
  27.023099,    6.790738
  27.031078,    6.790738
  27.038996,    6.790738
  27.046965,    6.790738
  27.054961,    6.790738
  27.062975,    6.790738
  27.071026,    6.790738
  27.079033,    6.790738
  27.087064,    6.790738
  27.095102,    6.790738
  27.103206,    6.790738
  27.111317,    6.790738
  27.119431,    6.790738
  27.127629,    6.790738
  27.135818,    6.790738
  27.143996,    6.790738
  27.152183,    6.790738
  27.160355,    6.790738
  27.168575,    6.790738
  27.176813,    6.790738
  27.185085,    6.790738
  27.193355,    6.790738
  27.201634,    6.790738
  27.209942,    6.790738
  27.218253,    6.790738
  27.226590,    6.790738
  27.235029,    6.790738
  27.243381,    6.790738
  27.251777,    6.790738
  27.260152,    6.790738
  27.268561,    6.790738
  27.276955,    6.790738
  27.285439,    6.790738
  27.293878,    6.790738
  27.302391,    6.790738
  27.310884,    6.790738
  27.319361,    6.790738
  27.327940,    6.790738
  27.336492,    6.790738
  27.345099,    6.790738
  27.353614,    6.790738
  27.362129,    6.790738
  27.370682,    6.790738
  27.379220,    6.790738
  27.387895,    6.790738
  27.396563,    6.790738
  27.405196,    6.790738
  27.413797,    6.790738
  27.422488,    6.790738
  27.431256,    6.790738
  27.440001,    6.790738
  27.448743,    6.790738
  27.457478,    6.790738
  27.466253,    6.790738
  27.475057,    6.790738
  27.483782,    6.790738
  27.492570,    6.790738
  27.501372,    6.790738
  27.510258,    6.790738
  27.519089,    6.790738
  27.527941,    6.790738
  27.536880,    6.790738
  27.545747,    6.790738
  27.554668,    6.790738
  27.563571,    6.790738
  27.572536,    6.790738
  27.581514,    6.790738
  27.590483,    6.790738
  27.599507,    6.790738
  27.608491,    6.790738
  27.617502,    6.790738
  27.626519,    6.790738
  27.635518,    6.790738
  27.644580,    6.790738
  27.653600,    6.790738
  27.662711,    6.790738
  27.671892,    6.790738
  27.681023,    6.790738
  27.690159,    6.790738
  27.699339,    6.790738
  27.708497,    6.790738
  27.717663,    6.790738
  27.726860,    6.790738
  27.736052,    6.790738
  27.745269,    6.790738
  27.754387,    6.790738
  27.763591,    6.790738
  27.772876,    6.790738
  27.782074,    6.790738
  27.791399,    6.790738
  27.800760,    6.790738
  27.810062,    6.790738
  27.819400,    6.790738
  27.828729,    6.790738
  27.838074,    6.790738
  27.847481,    6.790738
  27.856860,    6.790738
  27.866309,    6.790738
  27.875638,    6.790738
  27.885053,    6.790738
  27.894537,    6.790738
  27.903958,    6.790738
  27.913407,    6.790738
  27.922906,    6.790738
  27.932390,    6.790738
  27.941895,    6.790738
  27.951424,    6.790738
  27.960984,    6.790738
  27.970484,    6.790738
  27.980021,    6.790738
  27.989542,    6.790738
  27.999086,    6.790738
  28.008690,    6.790738
  28.018275,    6.790738
  28.027923,    6.790738
  28.037539,    6.790738
  28.047168,    6.790738
  28.056806,    6.790738
  28.066518,    6.790738
  28.076220,    6.790738
  28.085971,    6.790738
  28.095740,    6.790738
  28.105490,    6.790738
  28.115314,    6.790738
  28.125190,    6.790738
  28.135081,    6.790738
  28.144863,    6.790738
  28.154633,    6.790738
  28.164593,    6.790738
  28.174448,    6.790738
  28.184265,    6.790738
  28.194118,    6.790738
  28.203925,    6.790738
  28.213753,    6.790738
  28.223727,    6.790738
  28.233613,    6.790738
  28.243549,    6.790738
  28.253399,    6.790738
  28.263410,    6.790738
  28.273428,    6.790738
  28.283385,    6.790738
  28.293289,    6.790738
  28.303199,    6.790738
  28.313231,    6.790738
  28.323188,    6.790738
  28.333258,    6.790738
  28.343279,    6.790738
  28.353361,    6.790738
  28.363443,    6.790738
  28.373436,    6.790738
  28.383415,    6.790738
  28.393536,    6.790738
  28.403627,    6.790738
  28.413807,    6.790738
  28.423864,    6.790738
  28.434079,    6.790738
  28.444164,    6.790738
  28.454354,    6.790738
  28.464509,    6.790738
  28.474587,    6.790738
  28.484765,    6.790738
  28.494900,    6.790738
  28.505124,    6.790738
  28.515254,    6.790738
  28.525426,    6.790738
  28.535606,    6.790738
  28.545869,    6.790738
  28.556096,    6.790738
  28.566378,    6.790738
  28.576603,    6.790738
  28.586965,    6.790738
  28.597164,    6.790738
  28.607353,    6.790738
  28.617611,    6.790738
  28.627979,    6.790738
  28.638356,    6.790738
  28.648581,    6.790738
  28.658917,    6.790738
  28.669356,    6.790738
  28.679713,    6.790738
  28.690122,    6.790738
  28.700483,    6.790738
  28.710796,    6.790738
  28.721247,    6.790738
  28.731646,    6.790738
  28.742088,    6.790738
  28.752553,    6.790738
  28.763052,    6.790738
  28.773588,    6.790738
  28.784053,    6.790738
  28.794629,    6.790738
  28.805058,    6.790738
  28.815529,    6.790738
  28.826004,    6.790738
  28.836472,    6.790738
  28.847023,    6.790738
  28.857534,    6.790738
  28.868039,    6.790738
  28.870581,    6.790738
