Time, Angles
   0.000100,    0.000000
   0.000584,    0.000000
   0.002073,    0.000000
   0.007621,    0.000000
   0.022321,    0.000000
   0.049722,    0.000000
   0.081356,    0.000000
   0.113166,    0.000000
   0.145277,    0.000000
   0.177393,    0.000000
   0.209532,    0.000000
   0.241854,    0.000000
   0.274280,    0.000000
   0.306882,    0.000000
   0.339730,    0.000000
   0.372575,    0.000000
   0.405964,    0.000000
   0.439430,    0.000000
   0.472825,    0.000000
   0.506325,    0.000000
   0.540098,    0.000000
   0.574229,    0.000000
   0.609346,    0.000000
   0.644354,    0.000000
   0.679669,    0.000000
   0.715179,    0.000000
   0.750675,    0.000000
   0.785860,    0.000000
   0.821893,    0.000000
   0.857909,    0.000000
   0.894515,    0.000000
   0.931043,    0.000000
   0.968537,    0.000000
   1.005886,    0.000000
   1.044333,    0.000000
   1.082764,    0.000000
   1.121413,    0.000000
   1.161278,    0.000000
   1.200983,    0.000000
   1.241003,    0.000000
   1.281467,    0.000000
   1.322069,    0.000000
   1.362716,    0.000000
   1.404287,    0.000000
   1.445182,    0.000000
   1.487010,    0.000000
   1.528752,    0.000000
   1.571489,    0.000000
   1.614202,    0.000000
   1.657967,    0.000000
   1.701698,    0.000000
   1.745542,    0.000000
   1.789414,    0.000000
   1.834346,    0.000000
   1.879129,    0.000000
   1.924414,    0.000000
   1.970399,    0.000000
   2.017542,    0.000000
   2.064104,    0.000000
   2.111435,    0.000000
   2.158594,    0.000000
   2.206390,    0.000000
   2.254473,    0.000000
   2.302484,    0.000000
   2.351116,    0.000000
   2.399608,    0.000000
   2.448748,    0.000000
   2.498052,    0.000000
   2.547871,    0.000000
   2.598380,    0.000000
   2.649071,    0.000000
   2.700299,    0.000000
   2.750985,    0.000000
   2.802877,    0.000000
   2.854696,    0.000000
   2.907415,    0.000000
   2.959664,    0.000000
   3.012867,    0.000000
   3.066210,    0.000000
   3.119630,    0.000000
   3.173988,    0.000000
   3.227889,    0.000000
   3.282497,    0.000000
   3.336984,    0.000000
   3.392637,    0.000000
   3.447887,    0.000000
   3.503542,    0.000000
   3.559556,    0.000000
   3.616151,    0.000000
   3.672641,    0.000000
   3.729920,    0.000000
   3.787722,    0.000000
   3.845655,    0.000000
   3.903844,    0.000000
   3.962158,    0.000000
   4.020726,    0.000000
   4.079826,    0.000000
   4.138894,    0.000000
   4.198709,    0.000000
   4.259339,    0.000000
   4.261732,    0.000000
   4.263376,    0.000000
   4.264846,    0.000000
   4.266029,    0.000000
   4.267395,    0.000000
   4.268425,    0.000000
   4.268643,    0.000000
   4.268936,    0.000000
   4.268999,    0.000000
   4.269101,    0.000000
   4.269134,    0.000000
   4.269141,    0.000000
   4.269155,    0.000000
   4.269297,    0.000000
   4.270417,    0.000000
   4.275457,    0.000000
   4.292645,    0.000000
   4.335010,    0.000000
   4.388526,    0.000000
   4.442973,    0.000000
   4.497748,    0.000000
   4.552408,    0.000000
   4.607470,    0.000000
   4.663114,    0.000000
   4.718737,    0.000000
   4.774412,    0.000000
   4.830740,    0.000000
   4.887156,    0.000000
   4.943781,    0.000000
   5.000516,    0.000000
   5.057691,    0.000000
   5.115276,    0.000000
   5.172681,    0.000000
   5.230246,    0.000000
   5.287799,    0.000000
   5.346022,    0.000000
   5.404634,    0.000000
   5.463307,    0.000000
   5.522280,    0.000000
   5.581576,    0.000000
   5.641038,    0.000000
   5.701063,    0.000000
   5.760788,    0.000000
   5.820606,    0.000000
   5.881098,    0.000000
   5.941476,    0.000000
   6.002515,    0.000000
   6.063594,    0.000000
   6.124919,    0.000000
   6.186398,    0.000000
   6.247619,    0.000000
   6.309897,    0.000000
   6.372032,    0.000000
   6.434853,    0.000000
   6.497487,    0.000000
   6.560135,    0.000000
   6.623474,    0.000000
   6.686793,    0.000000
   6.750442,    0.000000
   6.814215,    0.000000
   6.877942,    0.000000
   6.942629,    0.000000
   7.007074,    0.000000
   7.071978,    0.000000
   7.136997,    0.000000
   7.202150,    0.000000
   7.267139,    0.000000
   7.332824,    0.000000
   7.398377,    0.000000
   7.464226,    0.000000
   7.530701,    0.000000
   7.597320,    0.000000
   7.664215,    0.000000
   7.731196,    0.000000
   7.798631,    0.000000
   7.865891,    0.000000
   7.933280,    0.000000
   8.000869,    0.000000
   8.068602,    0.000000
   8.137049,    0.000000
   8.205340,    0.000000
   8.274102,    0.000000
   8.343123,    0.000000
   8.412167,    0.000000
   8.481110,    0.000000
   8.550446,    0.000000
   8.620046,    0.000000
   8.690094,    0.000000
   8.760025,    0.000000
   8.760583,    0.000000
   8.760711,    0.000000
   8.760765,    0.000000
   8.760871,    0.000000
   8.760883,    0.000000
   8.760890,    0.000000
   8.760901,    0.000000
   8.761005,    0.000000
   8.762046,    0.000000
   8.768146,    0.000000
   8.788762,    0.000000
   8.838617,    0.000000
   8.901477,    0.000000
   8.964032,    0.000000
   9.027050,    0.000000
   9.089980,    0.000000
   9.153001,    0.000000
   9.216338,    0.000000
   9.280075,    0.000000
   9.343747,    0.000000
   9.407314,    0.000000
   9.471508,    0.000000
   9.535590,    0.000000
   9.599870,    0.000000
   9.664424,    0.000000
   9.729177,    0.000000
   9.793985,    0.000000
   9.858985,    0.000000
   9.924385,    0.000000
   9.989800,    0.000000
  10.055364,    0.000000
  10.121031,    0.000000
  10.186767,    0.000000
  10.253013,    0.000000
  10.319102,    0.000000
  10.385218,    0.000000
  10.451713,    0.000000
  10.518584,    0.000000
  10.585689,    0.000000
  10.652664,    0.000000
  10.719871,    0.000000
  10.786986,    0.000000
  10.854623,    0.000000
  10.922088,    0.000000
  10.989977,    0.000000
  11.057713,    0.000000
  11.125725,    0.000000
  11.193926,    0.000000
  11.262169,    0.000000
  11.330929,    0.000000
  11.399607,    0.000000
  11.468377,    0.000000
  11.537439,    0.000000
  11.606572,    0.000000
  11.675659,    0.000000
  11.745265,    0.000000
  11.814940,    0.000000
  11.884953,    0.000000
  11.954992,    0.000000
  12.025201,    0.000000
  12.095311,    0.000000
  12.165734,    0.000000
  12.236348,    0.000000
  12.307019,    0.000000
  12.377985,    0.000000
  12.449122,    0.000000
  12.520551,    0.000000
  12.591971,    0.000000
  12.663224,    0.000000
  12.734765,    0.000000
  12.806686,    0.000000
  12.878724,    0.000000
  12.951162,    0.000000
  13.023347,    0.000000
  13.095648,    0.000000
  13.168206,    0.000000
  13.240875,    0.000000
  13.313840,    0.000000
  13.386788,    0.000000
  13.460238,    0.000000
  13.533769,    0.000000
  13.548545,    0.000000
  13.558164,    0.000000
  13.565430,    0.000000
  13.571280,    0.000000
  13.576999,    0.000000
  13.582791,    0.000000
  13.587035,    0.000000
  13.587790,    0.000000
  13.588741,    0.000000
  13.589851,    0.000000
  13.589913,    0.000000
  13.589951,    0.000000
  13.589978,    0.000000
  13.590001,    0.000000
  13.590008,    0.000000
  13.590015,    0.000000
  13.590088,    0.000000
  13.590718,    0.000000
  13.594722,    0.000000
  13.609897,    0.000000
  13.661568,    0.000000
  13.725456,    0.000000
  13.789945,    0.000000
  13.854426,    0.000000
  13.919196,    0.000000
  13.983766,    0.000000
  14.048667,    0.000000
  14.113674,    0.000000
  14.178717,    0.000000
  14.243987,    0.000000
  14.309339,    0.000000
  14.374654,    0.000000
  14.440255,    0.000000
  14.505934,    0.000000
  14.571876,    0.000000
  14.637860,    0.000000
  14.703855,    0.000000
  14.769972,    0.000000
  14.836330,    0.000000
  14.902604,    0.000000
  14.969066,    0.000000
  15.035784,    0.000000
  15.102643,    0.000000
  15.169427,    0.000000
  15.236500,    0.000000
  15.303596,    0.000000
  15.370850,    0.000000
  15.438251,    0.000000
  15.505609,    0.000000
  15.573112,    0.000000
  15.640913,    0.000000
  15.708836,    0.000000
  15.776790,    0.000000
  15.844768,    0.000000
  15.912918,    0.000000
  15.981328,    0.000000
  16.049689,    0.000000
  16.118299,    0.000000
  16.187145,    0.000000
  16.256094,    0.000000
  16.324967,    0.000000
  16.394038,    0.000000
  16.463189,    0.000000
  16.532509,    0.000000
  16.602093,    0.000000
  16.671547,    0.000000
  16.741036,    0.000000
  16.810682,    0.000000
  16.880394,    0.000000
  16.950334,    0.000000
  17.020257,    0.000000
  17.090429,    0.000000
  17.160952,    0.000000
  17.231269,    0.000000
  17.301920,    0.000000
  17.372595,    0.000000
  17.443469,    0.000000
  17.514489,    0.000000
  17.585532,    0.000000
  17.656536,    0.000000
  17.727801,    0.000000
  17.799501,    0.000000
  17.870856,    0.000000
  17.942631,    0.000000
  18.014268,    0.000000
  18.086135,    0.000000
  18.158237,    0.000000
  18.230292,    0.000000
  18.302423,    0.000000
  18.374675,    0.000000
  18.447159,    0.000000
  18.519768,    0.000000
  18.592329,    0.000000
  18.665294,    0.000000
  18.738072,    0.000000
  18.811104,    0.000000
  18.884234,    0.000000
  18.898885,    0.000000
  18.949814,    0.000000
  18.952736,    0.000000
  18.953239,    0.000000
  18.953452,    0.000000
  18.953508,    0.000000
  18.953541,    0.000000
  18.953579,    0.000000
  18.953956,    0.000000
  18.956648,    0.000000
  18.974442,    0.000000
  19.052213,    0.000000
  19.125225,    0.000000
  19.198472,    0.000000
  19.271808,    0.000000
  19.345310,    0.000000
  19.418896,    0.000000
  19.492550,    0.000000
  19.566208,    0.000000
  19.640256,    0.000000
  19.714222,    0.000000
  19.788416,    0.000000
  19.862617,    0.000000
  19.936878,    0.000000
  20.011333,    0.000000
  20.086035,    0.000000
  20.160678,    0.000000
  20.235439,    0.000000
  20.310249,    0.000000
  20.385193,    0.000000
  20.460414,    0.000000
  20.535681,    0.000000
  20.611020,    0.000000
  20.686603,    0.000000
  20.762273,    0.000000
  20.838004,    0.000000
  20.913812,    0.000000
  20.989552,    0.000000
  21.065520,    0.000000
  21.141666,    0.000000
  21.217863,    0.000000
  21.294062,    0.000000
  21.370428,    0.000000
  21.447001,    0.000000
  21.523602,    0.000000
  21.600422,    0.000000
  21.677465,    0.000000
  21.754504,    0.000000
  21.831640,    0.000000
  21.908849,    0.000000
  21.986223,    0.000000
  22.063752,    0.000000
  22.141408,    0.000000
  22.219220,    0.000000
  22.296996,    0.000000
  22.374981,    0.000000
  22.452979,    0.000000
  22.531031,    0.000000
  22.609294,    0.000000
  22.687637,    0.000000
  22.766179,    0.000000
  22.844803,    0.000000
  22.923621,    0.000000
  23.002508,    0.000000
  23.043817,    0.000000
  23.081417,    0.000000
  23.160468,    0.112801
  23.239533,    0.348886
  23.318947,    0.582770
  23.398465,    0.815458
  23.478213,    1.046230
  23.557896,    1.275461
  23.637608,    1.502316
  23.717738,    1.727080
  23.798066,    1.950865
  23.878346,    2.173043
  23.958845,    2.392949
  24.039417,    2.611329
  24.119967,    2.827799
  24.200732,    3.042115
  24.281554,    3.254927
  24.362343,    3.465824
  24.443226,    3.674592
  24.524295,    3.881575
  24.605270,    4.087020
  24.686181,    4.290233
  24.767184,    4.491310
  24.848154,    4.690661
  24.929227,    4.887994
  25.010132,    5.083660
  25.091006,    5.277019
  25.094248,    5.468429
  25.098612,    5.476027
  25.102907,    5.486251
  25.104037,    5.496309
  25.105470,    5.498953
  25.105811,    5.502308
  25.106320,    5.503105
  25.106356,    5.504296
  25.106370,    5.504379
  25.106385,    5.504413
  25.106535,    5.504449
  25.108035,    5.504799
  25.116815,    5.508309
  25.151641,    5.528844
  25.235294,    5.610216
  25.319622,    5.804858
  25.325225,    6.002322
  25.330817,    6.018370
  25.336429,    6.034456
  25.342040,    6.050641
  25.347658,    6.066877
  25.353275,    6.083182
  25.358887,    6.099533
  25.364516,    6.115933
  25.370148,    6.132428
  25.375783,    6.148982
  25.381398,    6.165579
  25.387014,    6.182185
  25.392660,    6.198867
  25.398300,    6.215662
  25.403950,    6.232505
  25.409594,    6.249417
  25.415226,    6.266356
  25.420890,    6.283347
  25.426562,    6.300466
  25.432232,    6.317655
  25.437852,    6.334853
  25.443492,    6.352005
  25.449164,    6.369279
  25.454857,    6.386694
  25.460496,    6.404162
  25.466160,    6.421584
  25.471835,    6.439123
  25.477505,    6.456734
  25.483206,    6.474412
  25.488889,    6.492196
  25.494598,    6.510015
  25.500318,    6.527957
  25.506039,    6.545975
  25.511774,    6.564061
  25.517521,    6.582244
  25.523267,    6.600505
  25.528998,    6.618802
  25.534747,    6.637134
  25.540508,    6.655574
  25.546274,    6.674099
  25.552026,    6.692672
  25.557806,    6.711295
  25.563553,    6.730002
  25.569312,    6.748701
  25.575086,    6.767494
  25.580889,    6.786405
  25.586681,    6.805422
  25.592480,    6.824475
  25.598266,    6.843584
  25.604073,    6.862740
  25.609837,    6.881947
  25.615624,    6.901139
  25.621439,    6.920467
  25.627271,    6.939932
  25.633096,    6.959478
  25.638939,    6.979083
  25.644755,    6.998749
  25.650622,    7.018472
  25.656481,    7.038351
  25.662363,    7.058296
  25.668245,    7.078344
  25.674133,    7.098454
  25.680025,    7.118639
  25.685907,    7.125954
  25.691831,    7.133338
  25.697701,    7.140674
  25.703601,    7.148067
  25.709514,    7.155494
  25.715420,    7.162929
  25.721365,    7.170433
  25.727302,    7.177945
  25.733187,    7.185410
  25.739144,    7.192983
  25.745107,    7.200584
  25.751044,    7.208169
  25.757011,    7.215812
  25.762978,    7.223473
  25.768945,    7.231153
  25.774885,    7.238817
  25.780880,    7.246569
  25.786861,    7.254322
  25.792864,    7.262121
  25.798835,    7.269899
  25.804858,    7.277763
  25.810888,    7.285654
  25.816906,    7.293549
  25.822929,    7.301468
  25.828968,    7.309427
  25.834989,    7.317381
  25.841013,    7.325359
  25.847064,    7.333389
  25.853127,    7.341455
  25.859167,    7.349509
  25.865227,    7.357608
  25.871316,    7.365766
  25.877401,    7.373936
  25.883508,    7.382155
  25.889585,    7.390352
  25.895695,    7.398613
  25.901805,    7.406892
  25.907923,    7.415201
  25.914048,    7.423539
  25.920163,    7.431884
  25.926284,    7.440253
  25.932431,    7.448678
  25.938592,    7.457141
  25.944772,    7.465650
  25.950932,    7.474149
  25.957106,    7.482688
  25.963299,    7.491270
  25.969503,    7.499889
  25.975729,    7.508557
  25.981943,    7.517228
  25.988168,    7.525932
  25.994396,    7.534661
  26.000630,    7.543418
  26.006863,    7.552192
  26.013097,    7.560986
  26.019355,    7.569835
  26.025623,    7.578717
  26.031890,    7.587617
  26.038148,    7.596523
  26.044451,    7.605513
  26.050760,    7.614530
  26.057072,    7.623573
  26.063347,    7.632580
  26.069610,    7.641591
  26.075948,    7.650727
  26.082289,    7.659889
  26.088618,    7.669053
  26.094965,    7.678262
  26.101346,    7.687541
  26.107735,    7.696850
  26.114114,    7.706166
  26.120491,    7.715497
  26.126880,    7.724867
  26.133298,    7.734299
  26.139711,    7.743743
  26.146141,    7.753231
  26.152582,    7.762758
  26.159013,    7.772288
  26.165490,    7.781907
  26.171947,    7.791515
  26.178412,    7.801156
  26.180025,    7.803565
  26.184885,    7.810829
  26.191388,    7.820566
  26.197895,    7.830330
  26.204379,    7.840079
  26.210889,    7.849889
  26.217389,    7.859702
  26.223919,    7.869582
  26.230461,    7.879500
  26.237031,    7.889480
  26.243594,    7.899469
  26.250218,    7.909574
  26.256791,    7.919620
  26.263397,    7.929736
  26.270007,    7.939881
  26.276629,    7.950063
  26.283241,    7.960251
  26.289898,    7.970528
  26.296484,    7.980717
  26.303158,    7.991063
  26.309793,    8.001368
  26.316470,    8.011759
  26.323132,    8.022148
  26.329856,    8.032654
  26.336585,    8.043188
  26.343310,    8.053738
  26.350051,    8.064333
  26.356796,    8.074956
  26.363586,    8.085671
  26.370389,    8.096428
  26.377168,    8.107168
  26.383948,    8.117930
  26.390780,    8.128796
  26.397554,    8.139591
  26.404379,    8.150488
  26.411203,    8.161405
  26.418064,    8.172401
  26.424917,    8.183408
  26.431807,    8.194494
  26.438671,    8.205560
  26.445554,    8.216678
  26.452483,    8.227892
  26.459403,    8.239114
  26.466321,    8.250353
  26.473273,    8.261669
  26.480202,    8.272969
  26.487145,    8.284313
  26.494091,    8.295684
  26.501087,    8.307159
  26.508107,    8.318695
  26.515100,    8.330209
  26.522117,    8.341783
  26.529161,    8.353423
  26.536241,    8.365147
  26.543285,    8.376832
  26.550363,    8.388594
  26.557440,    8.400378
  26.564539,    8.412221
  26.571629,    8.424071
  26.578778,    8.436040
  26.585902,    8.447991
  26.593034,    8.459977
  26.600228,    8.472090
  26.607371,    8.484138
  26.614571,    8.496306
  26.621782,    8.508515
  26.629012,    8.520778
  26.636242,    8.533064
  26.643470,    8.545369
  26.650699,    8.557699
  26.657945,    8.570079
  26.665209,    8.582513
  26.672534,    8.595074
  26.679829,    8.607607
  26.687193,    8.620283
  26.694513,    8.632904
  26.701868,    8.645607
  26.709213,    8.658318
  26.716606,    8.671133
  26.724011,    8.683994
  26.731374,    8.696803
  26.738741,    8.709645
  26.746146,    8.722574
  26.753521,    8.735473
  26.761011,    8.748597
  26.768457,    8.761667
  26.775938,    8.774821
  26.783423,    8.788006
  26.790973,    8.801329
  26.798551,    8.814725
  26.806111,    8.828113
  26.813602,    8.841402
  26.821185,    8.854878
  26.828760,    8.868362
  26.836375,    8.881942
  26.843943,    8.895463
  26.851535,    8.909049
  26.859210,    8.922806
  26.866804,    8.936444
  26.874496,    8.950281
  26.882158,    8.964088
  26.889852,    8.977976
  26.897593,    8.991973
  26.905318,    9.005964
  26.913087,    9.020060
  26.920878,    9.034221
  26.928651,    9.048373
  26.936454,    9.062602
  26.944286,    9.076911
  26.952135,    9.091273
  26.959984,    9.105661
  26.967846,    9.120098
  26.975723,    9.134585
  26.983567,    9.149037
  26.991438,    9.163564
  26.999291,    9.178080
  27.007248,    9.192813
  27.015178,    9.207521
  27.023099,    9.222238
  27.031078,    9.237085
  27.038996,    9.251846
  27.046965,    9.266723
  27.054961,    9.281678
  27.062975,    9.296690
  27.071026,    9.311796
  27.079033,    9.326845
  27.087064,    9.341964
  27.095102,    9.357119
  27.103206,    9.372424
  27.111317,    9.387768
  27.119431,    9.403143
  27.127629,    9.418702
  27.135818,    9.434269
  27.143996,    9.449840
  27.152183,    9.465455
  27.160355,    9.481065
  27.168575,    9.496791
  27.176813,    9.512577
  27.185085,    9.528455
  27.193355,    9.544354
  27.201634,    9.560294
  27.209942,    9.576317
  27.218253,    9.592372
  27.226590,    9.608503
  27.235029,    9.624855
  27.243381,    9.641066
  27.251777,    9.657386
  27.260152,    9.673693
  27.268561,    9.690090
  27.276955,    9.706483
  27.285439,    9.723079
  27.293878,    9.739613
  27.302391,    9.756316
  27.310884,    9.773008
  27.319361,    9.789691
  27.327940,    9.806605
  27.336492,    9.823489
  27.345099,    9.840508
  27.353614,    9.857372
  27.362129,    9.874261
  27.370682,    9.891249
  27.379220,    9.908235
  27.387895,    9.925520
  27.396563,    9.942817
  27.405196,    9.960069
  27.413797,    9.977284
  27.422488,    9.994704
  27.431256,   10.012306
  27.440001,   10.029886
  27.448743,   10.047489
  27.457478,   10.065102
  27.466253,   10.082823
  27.475057,   10.100629
  27.483782,   10.118300
  27.492570,   10.136126
  27.501372,   10.154006
  27.510258,   10.172083
  27.519089,   10.190073
  27.527941,   10.208133
  27.536880,   10.226397
  27.545747,   10.244540
  27.554668,   10.262820
  27.563571,   10.281090
  27.572536,   10.299512
  27.581514,   10.317989
  27.590483,   10.336473
  27.599507,   10.355096
  27.608491,   10.373663
  27.617502,   10.392313
  27.626519,   10.411000
  27.635518,   10.429679
  27.644580,   10.448512
  27.653600,   10.467284
  27.662711,   10.486273
  27.671892,   10.505435
  27.681023,   10.524518
  27.690159,   10.543639
  27.699339,   10.562878
  27.708497,   10.582096
  27.717663,   10.601358
  27.726860,   10.620711
  27.736052,   10.640081
  27.745269,   10.659530
  27.754387,   10.678795
  27.763591,   10.698267
  27.772876,   10.717940
  27.782074,   10.737452
  27.791399,   10.757260
  27.800760,   10.777171
  27.810062,   10.796982
  27.819400,   10.816897
  27.828729,   10.836820
  27.838074,   10.856802
  27.847481,   10.876942
  27.856860,   10.897050
  27.866309,   10.917334
  27.875638,   10.937386
  27.885053,   10.957648
  27.894537,   10.978086
  27.903958,   10.998414
  27.913407,   11.018828
  27.922906,   11.039376
  27.932390,   11.059919
  27.941895,   11.080532
  27.951424,   11.101223
  27.960984,   11.122009
  27.970484,   11.142689
  27.980021,   11.163475
  27.989542,   11.184252
  27.999086,   11.205106
  28.008690,   11.226115
  28.018275,   11.247109
  28.027923,   11.268267
  28.037539,   11.289380
  28.047168,   11.310549
  28.056806,   11.331762
  28.066518,   11.353163
  28.076220,   11.374568
  28.085971,   11.396106
  28.095740,   11.417711
  28.105490,   11.439300
  28.115314,   11.461076
  28.125190,   11.482997
  28.135081,   11.504975
  28.144863,   11.526737
  28.154633,   11.548496
  28.164593,   11.570705
  28.174448,   11.592707
  28.184265,   11.614648
  28.194118,   11.636694
  28.203925,   11.658661
  28.213753,   11.680703
  28.223727,   11.703096
  28.233613,   11.725317
  28.243549,   11.747674
  28.253399,   11.769862
  28.263410,   11.792441
  28.273428,   11.815057
  28.283385,   11.837562
  28.293289,   11.859971
  28.303199,   11.882419
  28.313231,   11.905168
  28.323188,   11.927769
  28.333258,   11.950653
  28.343279,   11.973450
  28.353361,   11.996410
  28.363443,   12.019396
  28.373436,   12.042201
  28.383415,   12.064996
  28.393536,   12.088142
  28.403627,   12.111245
  28.413807,   12.134572
  28.423864,   12.157645
  28.434079,   12.181102
  28.444164,   12.204283
  28.454354,   12.227732
  28.464509,   12.251123
  28.474587,   12.274360
  28.484765,   12.297851
  28.494900,   12.321265
  28.505124,   12.344909
  28.515254,   12.368359
  28.525426,   12.391926
  28.535606,   12.415537
  28.545869,   12.439364
  28.556096,   12.463129
  28.566378,   12.487045
  28.576603,   12.510852
  28.586965,   12.535001
  28.597164,   12.558792
  28.607353,   12.582582
  28.617611,   12.606554
  28.627979,   12.630806
  28.638356,   12.655103
  28.648581,   12.679066
  28.658917,   12.703308
  28.669356,   12.727817
  28.679713,   12.752155
  28.690122,   12.776637
  28.700483,   12.801026
  28.710796,   12.825326
  28.721247,   12.849971
  28.731646,   12.874517
  28.742088,   12.899184
  28.752553,   12.923927
  28.763052,   12.948774
  28.773588,   12.973727
  28.784053,   12.998536
  28.794629,   13.023627
  28.805058,   13.048390
  28.815529,   13.073276
  28.826004,   13.098189
  28.836472,   13.123107
  28.847023,   13.148244
  28.857534,   13.173306
  28.868039,   13.198374
  28.870581,   13.204443
