Time, Horizontal Forces
   0.000000,    0.000000
   0.000000,    0.000001
   0.000006,    0.000014
   0.000081,    0.000195
   0.000699,    0.001671
   0.003468,    0.008289
   0.009283,    0.022185
   0.017960,    0.042912
   0.029596,    0.070698
   0.044123,    0.105379
   0.061553,    0.146976
   0.081999,    0.195758
   0.105450,    0.251692
   0.131994,    0.314984
   0.161747,    0.385903
   0.194513,    0.463982
   0.230914,    0.550694
   0.270526,    0.645027
   0.313173,    0.746555
   0.359084,    0.855817
   0.408542,    0.973482
   0.461757,    1.100047
   0.519904,    1.238294
   0.581296,    1.384207
   0.646687,    1.539573
   0.715945,    1.704073
   0.788688,    1.876790
   0.864259,    2.056161
   0.945221,    2.248264
   1.029760,    2.448782
   1.119383,    2.661287
   1.212530,    2.882067
   1.312001,    3.117756
   1.414970,    3.361644
   1.525017,    3.622202
   1.639121,    3.892267
   1.758011,    4.173554
   1.884984,    4.473851
   2.015833,    4.783197
   2.152143,    5.105328
   2.294481,    5.441575
   2.441864,    5.789604
   2.593988,    6.148685
   2.754303,    6.526954
   2.916678,    6.909926
   3.087543,    7.312765
   3.262882,    7.725983
   3.447395,    8.160644
   3.636847,    8.606752
   3.836192,    9.075960
   4.040665,    9.557035
   4.250971,   10.051619
   4.466715,   10.558778
   4.693176,   11.090900
   4.924425,   11.634033
   5.163882,   12.196198
   5.412825,   12.780373
   5.674078,   13.393157
   5.938114,   14.012184
   6.212622,   14.655464
   6.492260,   15.310467
   6.781912,   15.988608
   7.079639,   16.685328
   7.383248,   17.395476
   7.697232,   18.129544
   8.016771,   18.876241
   8.347162,   19.647929
   8.685301,   20.437330
   9.033737,   21.250371
   9.393934,   22.090443
   9.762446,   22.949475
  10.142003,   23.833811
  10.524603,   24.724789
  10.923586,   25.653445
  11.329340,   26.597377
  11.749655,   27.574679
  12.173712,   28.560166
  12.613157,   29.580881
  13.061504,   30.621723
  13.518263,   31.681531
  13.991016,   32.777860
  14.467732,   33.882785
  14.958757,   35.020260
  15.456775,   36.173306
  15.973773,   37.369639
  16.495344,   38.575884
  17.029105,   39.809640
  17.574798,   41.070269
  18.134788,   42.363197
  18.702388,   43.672954
  19.286740,   45.020597
  19.885425,   46.400497
  20.494528,   47.803595
  21.115462,   49.233108
  21.746890,   50.685931
  22.390314,   52.165482
  23.048963,   53.679146
  23.716674,   55.212717
  24.402398,   56.786719
  25.107305,   58.403764
  25.135325,   58.468023
  25.154587,   58.512193
  25.171818,   58.551708
  25.185688,   58.583512
  25.201701,   58.620232
  25.213792,   58.647959
  25.216352,   58.653829
  25.219779,   58.661687
  25.220523,   58.663394
  25.221723,   58.666144
  25.222112,   58.667038
  25.222191,   58.667218
  25.222357,   58.667599
  25.224019,   58.671409
  25.237170,   58.701566
  25.296358,   58.837280
  25.498740,   59.301263
  26.000947,   60.452181
  26.642256,   61.920963
  27.302605,   63.432289
  27.974971,   64.970020
  28.653947,   66.521758
  29.346020,   68.102295
  30.053653,   69.717196
  30.769314,   71.349232
  31.493917,   73.000455
  32.235460,   74.689041
  32.986662,   76.398356
  33.749175,   78.132125
  34.521758,   79.887482
  35.309010,   81.674830
  36.110702,   83.493589
  36.918686,   85.325237
  37.737715,   87.180520
  38.565372,   89.053925
  39.411603,   90.967909
  40.272584,   92.913759
  41.143597,   94.880754
  42.028225,   96.876947
  42.927001,   98.903480
  43.837619,  100.955102
  44.766343,  103.045862
  45.699879,  105.145791
  46.644286,  107.268491
  47.608940,  109.434969
  48.581376,  111.617174
  49.574219,  113.843380
  50.577529,  116.091229
  51.594742,  118.368373
  52.624413,  120.671524
  53.659619,  122.985163
  54.722782,  125.359332
  55.793643,  127.748709
  56.886581,  130.185314
  57.986542,  132.635522
  59.097008,  135.107060
  60.230149,  137.626945
  61.373373,  140.167096
  62.533107,  142.741744
  63.705654,  145.342616
  64.887957,  147.962885
  66.098842,  150.644190
  67.316009,  153.337070
  68.552761,  156.070903
  69.802626,  158.831309
  71.066063,  161.619250
  72.337267,  164.421871
  73.633184,  167.276464
  74.937627,  170.147297
  76.259104,  173.053038
  77.604494,  176.008723
  78.964225,  178.993227
  80.341091,  182.012614
  81.731271,  185.058439
  83.142511,  188.147592
  84.561698,  191.251307
  85.995265,  194.383608
  87.444770,  197.547838
  88.909104,  200.741500
  90.400811,  203.991854
  91.901031,  207.257719
  93.423639,  210.569231
  94.964104,  213.916437
  96.517240,  217.288005
  98.080217,  220.677741
  99.664272,  224.109952
 101.266676,  227.578628
 102.891796,  231.093119
 104.526630,  234.625235
 104.539735,  234.653535
 104.542737,  234.660017
 104.543987,  234.662718
 104.546489,  234.668120
 104.546777,  234.668742
 104.546938,  234.669091
 104.547182,  234.669618
 104.549626,  234.674894
 104.574059,  234.727656
 104.717274,  235.036904
 105.202036,  236.083419
 106.378729,  238.622139
 107.871336,  241.839304
 109.366606,  245.058708
 110.882950,  248.319937
 112.407164,  251.594513
 113.943577,  254.891695
 115.497772,  258.223380
 117.071981,  261.594248
 118.654749,  264.979693
 120.245072,  268.377538
 121.861354,  271.827012
 123.485075,  275.288498
 125.124172,  278.778859
 126.780605,  282.302179
 128.452606,  285.854609
 130.136489,  289.428244
 131.835861,  293.030670
 133.556284,  296.673572
 135.287735,  300.335638
 137.033772,  304.024332
 138.793246,  307.737149
 140.565230,  311.472071
 142.361784,  315.254410
 144.164887,  319.046140
 145.979488,  322.857632
 147.815380,  326.709364
 149.672591,  330.601271
 151.547364,  334.525363
 153.429532,  338.460300
 155.329287,  342.427328
 157.237444,  346.407199
 159.171616,  350.436553
 161.112003,  354.474054
 163.075804,  358.555407
 165.046358,  362.645907
 167.036178,  366.771462
 169.042826,  370.926915
 171.062032,  375.103342
 173.107959,  379.329926
 175.162859,  383.569897
 177.231972,  387.834014
 179.321368,  392.134687
 181.424434,  396.458211
 183.537603,  400.797195
 185.678299,  405.187307
 187.832754,  409.600187
 190.009434,  414.053074
 192.198701,  418.526152
 194.405030,  423.028484
 196.620050,  427.542926
 198.856798,  432.095964
 201.111476,  436.679751
 203.379910,  441.285717
 205.669758,  445.929307
 207.977134,  450.602528
 210.306103,  455.313497
 212.646846,  460.042259
 214.994192,  464.778333
 217.363102,  469.551832
 219.756760,  474.369029
 222.166594,  479.212549
 224.602090,  484.101331
 227.041404,  488.991455
 229.496927,  493.907713
 231.973480,  498.859654
 234.466238,  503.837522
 236.981575,  508.853928
 239.508770,  513.887397
 242.065907,  518.973821
 244.638466,  524.084176
 245.156938,  525.113299
 245.494762,  525.783702
 245.750051,  526.290241
 245.955696,  526.698230
 246.156817,  527.097202
 246.360575,  527.501362
 246.509926,  527.797578
 246.536485,  527.850252
 246.569959,  527.916639
 246.609033,  527.994130
 246.611229,  527.998486
 246.612549,  528.001102
 246.613518,  528.003025
 246.614303,  528.004582
 246.614556,  528.005084
 246.614814,  528.005596
 246.617397,  528.010718
 246.639574,  528.054699
 246.780542,  528.334244
 247.315184,  529.394231
 249.139642,  533.008633
 251.404036,  537.488607
 253.699369,  542.023069
 256.004014,  546.569152
 258.328686,  551.147902
 260.655828,  555.724672
 263.004579,  560.337032
 265.366922,  564.969122
 267.740256,  569.615767
 270.131666,  574.290750
 272.535832,  578.983569
 274.948439,  583.685745
 277.381395,  588.420396
 279.827113,  593.172648
 282.292498,  597.955813
 284.769320,  602.753821
 287.256506,  607.564536
 289.758171,  612.395844
 292.278909,  617.256506
 294.806368,  622.122627
 297.350989,  627.014242
 299.915435,  631.936345
 302.495314,  636.880385
 305.082355,  641.830451
 307.690629,  646.813378
 310.309911,  651.809529
 312.945474,  656.828879
 315.596902,  661.870531
 318.256757,  666.920271
 320.932506,  671.992209
 323.630245,  677.097770
 326.343042,  682.223707
 329.067365,  687.363269
 331.802828,  692.515667
 334.555459,  697.692167
 337.328881,  702.899454
 340.110638,  708.114050
 342.912817,  713.358528
 345.735048,  718.632050
 348.571929,  723.924409
 351.416009,  729.221650
 354.278718,  734.544986
 357.155150,  739.885190
 360.049072,  745.249156
 362.964475,  750.644150
 365.884928,  756.039690
 368.817322,  761.448470
 371.766818,  766.879923
 374.729592,  772.326910
 377.712618,  777.802149
 380.705417,  783.286309
 383.719420,  788.800244
 386.759157,  794.352069
 389.800591,  799.897804
 392.867138,  805.480069
 395.945380,  811.074312
 399.043014,  816.694430
 402.157724,  822.336095
 405.284131,  827.989480
 408.419544,  833.649670
 411.577222,  839.340504
 414.764999,  845.075908
 417.948210,  850.793441
 421.160956,  856.554288
 424.378335,  862.313684
 427.616846,  868.101094
 430.876829,  873.916979
 434.145576,  879.738574
 437.428615,  885.575668
 440.728039,  891.431887
 444.048966,  897.316189
 447.386551,  903.219864
 450.732892,  909.128863
 454.108833,  915.079869
 457.487058,  921.024629
 460.888088,  926.999188
 464.304706,  932.990739
 464.990495,  934.192123
 467.377924,  938.371232
 467.515046,  938.611106
 467.538661,  938.652416
 467.548684,  938.669948
 467.551293,  938.674512
 467.552849,  938.677234
 467.554620,  938.680331
 467.572325,  938.711303
 467.698666,  938.932295
 468.534335,  940.393670
 472.194187,  946.786504
 475.641414,  952.797061
 479.110670,  958.835422
 482.595078,  964.889499
 486.098418,  970.965749
 489.616727,  977.057193
 493.149280,  983.162491
 496.693071,  989.276380
 500.266628,  995.430686
 503.847318, 1001.586310
 507.450139, 1007.768951
 511.064352, 1013.960078
 514.692557, 1020.164074
 518.341361, 1026.392130
 522.013405, 1032.648604
 525.693678, 1038.907824
 529.390924, 1045.184597
 533.101684, 1051.472959
 536.830320, 1057.780213
 540.583884, 1064.118138
 544.350946, 1070.467312
 548.132836, 1076.829895
 551.938246, 1083.220387
 555.759270, 1089.625384
 559.594637, 1096.042669
 563.445223, 1102.473621
 567.303561, 1108.905721
 571.184742, 1115.364035
 575.086347, 1121.844390
 579.001870, 1128.335878
 582.928818, 1134.834301
 586.875636, 1141.353542
 590.844468, 1147.897005
 594.826134, 1154.449447
 598.830514, 1161.027014
 602.857980, 1167.630166
 606.896590, 1174.239215
 610.951745, 1180.862931
 615.022109, 1187.499035
 619.112651, 1194.155523
 623.222789, 1200.831319
 627.351194, 1207.524145
 631.499344, 1214.236276
 635.657072, 1220.951184
 639.837451, 1227.689885
 644.029999, 1234.435381
 648.237023, 1241.191316
 652.466889, 1247.971007
 656.712596, 1254.763113
 660.980636, 1261.577900
 665.264700, 1268.405174
 669.570956, 1275.254644
 673.892541, 1282.115281
 676.160155, 1285.709903
 678.226955, 1288.983040
 682.580782, 1302.433821
 686.946938, 1323.175904
 691.344019, 1343.974203
 695.758548, 1365.653129
 700.197558, 1388.789048
 704.644708, 1411.986405
 709.105097, 1435.193986
 713.600697, 1459.385325
 718.119169, 1485.128314
 722.646755, 1510.929382
 727.198480, 1536.758343
 731.766217, 1563.438937
 736.344433, 1591.918798
 740.946719, 1620.428184
 745.564039, 1649.010270
 750.191281, 1677.801981
 754.835658, 1708.765810
 759.502489, 1739.783117
 764.175716, 1770.847781
 768.856914, 1801.884178
 773.555080, 1834.428045
 778.263018, 1867.660057
 782.988593, 1900.892817
 787.715931, 1934.133819
 792.453010, 1967.594233
 792.643139, 1993.714002
 792.899094, 1995.256632
 793.151053, 1997.144805
 793.217329, 1998.632941
 793.301442, 1999.160070
 793.321433, 1999.652254
 793.351294, 1999.820384
 793.353384, 1999.984878
 793.354241, 1999.997843
 793.355122, 2000.004235
 793.363923, 2000.026898
 793.451944, 2000.253534
 793.967135, 2001.776034
 796.012112, 2008.712729
 800.932922, 2029.766496
 805.905826, 2066.441570
 806.236681, 2093.594825
 806.566898, 2096.017295
 806.898423, 2098.438269
 807.229874, 2100.865130
 807.561840, 2103.291820
 807.893824, 2105.720395
 808.225486, 2108.147538
 808.558288, 2110.574479
 808.891287, 2113.006938
 809.224474, 2115.439933
 809.556565, 2117.870767
 809.888823, 2120.295315
 810.222823, 2122.723438
 810.556584, 2125.374973
 810.890991, 2128.029828
 811.225027, 2130.686749
 811.558493, 2133.339329
 811.893839, 2135.991441
 812.229759, 2138.654792
 812.565602, 2141.320356
 812.898568, 2143.978513
 813.232727, 2146.621226
 813.568861, 2149.274003
 813.906228, 2151.939876
 814.240510, 2154.605572
 814.576350, 2157.255368
 814.912871, 2159.914646
 815.249137, 2162.576327
 815.587293, 2165.239350
 815.924423, 2167.910232
 816.263204, 2170.577438
 816.602649, 2173.254571
 816.942211, 2175.934718
 817.282686, 2178.616323
 817.623920, 2181.303686
 817.965140, 2183.994319
 818.305496, 2186.681952
 818.647001, 2189.365776
 818.989324, 2192.056824
 819.331926, 2194.752045
 819.673757, 2197.446127
 820.017327, 2200.138133
 820.359033, 2202.835217
 820.701454, 2205.521764
 821.044816, 2208.213205
 821.390004, 2210.912656
 821.734523, 2213.620088
 822.079587, 2216.323540
 822.423887, 2219.027337
 822.769502, 2221.728179
 823.112594, 2224.430196
 823.457130, 2227.119348
 823.803423, 2229.819196
 824.150767, 2232.530074
 824.497731, 2235.244946
 824.845767, 2237.958541
 825.192354, 2240.674031
 825.541948, 2243.386033
 825.891199, 2246.113325
 826.241842, 2248.840158
 826.592505, 2251.573689
 826.943630, 2254.306920
 827.295039, 2257.042023
 827.645908, 2257.759915
 827.999299, 2258.482253
 828.349563, 2259.197494
 828.701677, 2259.915801
 829.054635, 2260.635115
 829.407189, 2261.352890
 829.762143, 2262.074824
 830.116670, 2262.795164
 830.468208, 2263.508712
 830.824009, 2264.230182
 831.180284, 2264.951878
 831.535037, 2265.669758
 831.891661, 2266.390683
 832.248324, 2267.110944
 832.605092, 2267.830676
 832.960269, 2268.546456
 833.318761, 2269.268168
 833.676508, 2269.987626
 834.035569, 2270.708970
 834.392862, 2271.426008
 834.753261, 2272.148517
 835.114144, 2272.871226
 835.474406, 2273.591923
 835.834996, 2274.312506
 836.196586, 2275.034313
 836.557140, 2275.753277
 836.918014, 2276.472103
 837.280459, 2277.193277
 837.643742, 2277.915333
 838.005706, 2278.633979
 838.368911, 2279.354302
 838.733942, 2280.077448
 839.098750, 2280.799351
 839.464945, 2281.523195
 839.829376, 2282.242748
 840.195898, 2282.965622
 840.562416, 2283.687676
 840.929494, 2284.410018
 841.297076, 2285.132532
 841.664141, 2285.853210
 842.031536, 2286.573718
 842.400603, 2287.296675
 842.770595, 2288.020612
 843.141760, 2288.746003
 843.511769, 2289.468295
 843.882689, 2290.191524
 844.254771, 2290.916171
 844.627622, 2291.641462
 845.001863, 2292.368595
 845.375418, 2293.093536
 845.749667, 2293.818960
 846.124187, 2294.544042
 846.499161, 2295.269134
 846.874047, 2295.993184
 847.249101, 2296.716685
 847.625681, 2297.442252
 848.002908, 2298.168178
 848.380154, 2298.893256
 848.756866, 2299.616418
 849.136393, 2300.344089
 849.516274, 2301.071534
 849.896483, 2301.798703
 850.274475, 2302.520730
 850.651819, 2303.240624
 851.033687, 2303.968235
 851.415841, 2304.695473
 851.797365, 2305.420592
 852.179981, 2306.146859
 852.564766, 2306.876311
 852.950007, 2307.605687
 853.334789, 2308.333253
 853.719457, 2309.059662
 854.104943, 2309.786672
 854.492253, 2310.516166
 854.879276, 2311.244163
 855.267379, 2311.973232
 855.656270, 2312.702811
 856.044594, 2313.430362
 856.435740, 2314.162220
 856.825734, 2314.890943
 857.216260, 2315.619679
 857.313734, 2315.801417
 857.607364, 2316.348509
 858.000336, 2317.079826
 858.393600, 2317.810686
 858.785537, 2318.538086
 859.179128, 2319.267553
 859.572171, 2319.995000
 859.967117, 2320.724959
 860.362796, 2321.455254
 860.760255, 2322.187808
 861.157309, 2322.918588
 861.558207, 2323.655396
 861.956036, 2324.385526
 862.355882, 2325.118312
 862.756088, 2325.850708
 863.157061, 2326.583454
 863.557516, 2327.314197
 863.960706, 2328.048864
 864.359707, 2328.774844
 864.764125, 2329.509607
 865.166178, 2330.239001
 865.570859, 2330.972083
 865.974751, 2331.702653
 866.382404, 2332.438928
 866.790407, 2333.174731
 867.198303, 2333.909233
 867.607160, 2334.644355
 868.016387, 2335.379025
 868.428370, 2336.117511
 868.841258, 2336.856482
 869.252705, 2337.591739
 869.664291, 2338.326108
 870.079102, 2339.065080
 870.490432, 2339.796711
 870.904933, 2340.532829
 871.319475, 2341.267861
 871.736259, 2342.005700
 872.152709, 2342.741776
 872.571378, 2343.480593
 872.988585, 2344.215647
 873.407026, 2344.951692
 873.828325, 2345.691562
 874.249166, 2346.429422
 874.669900, 2347.165891
 875.092793, 2347.904925
 875.514340, 2348.640390
 875.936788, 2349.376210
 876.359515, 2350.111295
 876.785346, 2350.850539
 877.212719, 2351.591211
 877.638508, 2352.327890
 878.065822, 2353.065956
 878.494814, 2353.805655
 878.926131, 2354.548086
 879.355284, 2355.285518
 879.786560, 2356.025316
 880.217856, 2356.763862
 880.650605, 2357.503603
 881.082838, 2358.241166
 881.518686, 2358.983583
 881.953170, 2359.722365
 882.388135, 2360.460649
 882.827019, 2361.204249
 883.262775, 2361.941222
 883.702141, 2362.682957
 884.142207, 2363.424520
 884.583542, 2364.166863
 885.024929, 2364.907926
 885.466250, 2365.647515
 885.907722, 2366.385986
 886.350292, 2367.124919
 886.794035, 2367.864428
 887.241563, 2368.608838
 887.687342, 2369.348934
 888.137453, 2370.094799
 888.584883, 2370.834801
 889.034499, 2371.576991
 889.483631, 2372.316950
 889.935720, 2373.060336
 890.388675, 2373.803690
 890.839060, 2374.541381
 891.289848, 2375.278285
 891.742976, 2376.017554
 892.194337, 2376.752483
 892.652820, 2377.497519
 893.108670, 2378.236786
 893.566714, 2378.978111
 894.025099, 2379.718485
 894.487541, 2380.463881
 894.951755, 2381.210589
 895.414974, 2381.954152
 895.874008, 2382.689472
 896.338777, 2383.432432
 896.803065, 2384.173066
 897.269913, 2384.916214
 897.733999, 2385.653403
 898.199581, 2386.391401
 898.670297, 2387.135939
 899.136172, 2387.871239
 899.608136, 2388.614540
 900.078317, 2389.353422
 900.550524, 2390.093869
 901.025698, 2390.837327
 901.499913, 2391.577643
 901.976972, 2392.320741
 902.455443, 2393.064367
 902.932880, 2393.804716
 903.412175, 2394.546267
 903.893436, 2395.289162
 904.375710, 2396.031916
 904.858117, 2396.773164
 905.341414, 2397.514063
 905.825655, 2398.254682
 906.307963, 2398.990627
 906.792044, 2399.727551
 907.275054, 2400.461117
 907.764509, 2401.202712
 908.252413, 2401.940191
 908.739848, 2402.675199
 909.230884, 2403.413855
 909.718306, 2404.145303
 910.208872, 2404.879685
 910.701236, 2405.614957
 911.194743, 2406.350123
 911.690610, 2407.086975
 912.183854, 2407.818108
 912.678655, 2408.549724
 913.173923, 2409.280194
 913.673358, 2410.014950
 914.173322, 2410.748612
 914.673550, 2411.480783
 915.179006, 2412.218698
 915.683997, 2412.954015
 916.188370, 2413.686518
 916.693425, 2414.418088
 917.197598, 2415.146464
 917.704768, 2415.877233
 918.213165, 2416.607819
 918.723747, 2417.339577
 919.234283, 2418.069296
 919.745399, 2418.797865
 920.258433, 2419.527175
 920.771740, 2420.254873
 921.286737, 2420.982955
 921.808078, 2421.717949
 922.324138, 2422.443460
 922.842956, 2423.170802
 923.360616, 2423.894473
 923.880403, 2424.619059
 924.399356, 2425.340421
 924.923949, 2426.067529
 925.445867, 2426.788838
 925.972403, 2427.514412
 926.497827, 2428.236334
 927.022257, 2428.954775
 927.553174, 2429.679951
 928.082439, 2430.400710
 928.615170, 2431.124011
 929.142353, 2431.837623
 929.669570, 2432.549140
 930.199181, 2433.261724
 930.727988, 2433.971064
 931.265367, 2434.689685
 931.802384, 2435.405588
 932.337279, 2436.116440
 932.870322, 2436.822624
 933.408978, 2437.534001
 933.952512, 2438.249535
 934.494651, 2438.960944
 935.036756, 2439.670019
 935.578429, 2440.376242
 936.122733, 2441.083590
 936.668893, 2441.791026
 937.210190, 2442.489862
 937.755543, 2443.191619
 938.301797, 2443.892201
 938.853365, 2444.597227
 939.401540, 2445.295552
 939.951147, 2445.993334
 940.506242, 2446.695677
 941.056927, 2447.390046
 941.611036, 2448.086325
 942.164136, 2448.778924
 942.721136, 2449.473972
 943.279062, 2450.167722
 943.836490, 2450.858398
 944.397389, 2451.550899
 944.955884, 2452.237959
 945.516172, 2452.924746
 946.076851, 2453.609523
 946.636561, 2454.290631
 947.200212, 2454.974023
 947.761325, 2455.651834
 948.328218, 2456.334088
 948.899542, 2457.019088
 949.467815, 2457.697854
 950.036504, 2458.374543
 950.607997, 2459.051970
 951.178154, 2459.725219
 951.748932, 2460.396601
 952.321689, 2461.067696
 952.894253, 2461.735943
 953.468456, 2462.403468
 954.036535, 2463.061277
 954.610039, 2463.722744
 955.188737, 2464.387529
 955.762027, 2465.043450
 956.343323, 2465.705838
 956.926953, 2466.368152
 957.506950, 2467.023630
 958.089281, 2467.679022
 958.671177, 2468.331196
 959.254097, 2468.981780
 959.840943, 2469.633978
 960.426181, 2470.281620
 961.015847, 2470.931364
 961.598091, 2471.570172
 962.185732, 2472.212120
 962.777821, 2472.856101
 963.366047, 2473.493067
 963.956071, 2474.129163
 964.549300, 2474.765867
 965.141692, 2475.398821
 965.735435, 2476.030359
 966.330756, 2476.660698
 966.928131, 2477.290314
 967.521810, 2477.913157
 968.117845, 2478.535584
 968.712985, 2479.154185
 969.309653, 2479.771477
 969.910094, 2480.389738
 970.509475, 2481.003971
 971.112830, 2481.619311
 971.714277, 2482.229743
 972.316663, 2482.838161
 972.919621, 2483.444181
 973.527303, 2484.051936
 974.134409, 2484.656091
 974.744648, 2485.260318
 975.356137, 2485.862715
 975.966504, 2486.460945
 976.581516, 2487.060630
 977.199943, 2487.660509
 977.819353, 2488.258187
 978.432003, 2488.846234
 979.043925, 2489.430496
 979.667866, 2490.023056
 980.285347, 2490.606319
 980.900476, 2491.184231
 981.517911, 2491.761168
 982.132529, 2492.332344
 982.748605, 2492.901740
 983.373846, 2493.476398
 983.993658, 2494.042871
 984.616662, 2494.609057
 985.234317, 2495.167206
 985.862233, 2495.731386
 986.490554, 2496.292656
 987.115172, 2496.847370
 987.736511, 2497.395958
 988.358319, 2497.941749
 988.987877, 2498.491068
 989.612720, 2499.033014
 990.244768, 2499.577903
 990.873834, 2500.116919
 991.506753, 2500.655910
 992.139798, 2501.191668
 992.767273, 2501.719415
 993.393892, 2502.243164
 994.029562, 2502.771129
 994.663437, 2503.294244
 995.302882, 2503.818553
 995.934763, 2504.333304
 996.576569, 2504.852722
 997.210255, 2505.362187
 997.850668, 2505.873645
 998.488917, 2506.379957
 999.122395, 2506.879110
 999.762229, 2507.379857
1000.399394, 2507.875103
1001.042265, 2508.371333
1001.679256, 2508.859602
1002.318896, 2509.346474
1002.959184, 2509.830397
1003.604742, 2510.314815
1004.248075, 2510.794076
1004.894921, 2511.272446
1005.538273, 2511.744740
1006.190313, 2512.219856
1006.832135, 2512.684031
1007.473391, 2513.144330
1008.119030, 2513.604274
1008.771666, 2514.065630
1009.424936, 2514.523838
1010.068713, 2514.971863
1010.719465, 2515.421188
1011.376823, 2515.871443
1012.029079, 2516.314596
1012.684650, 2516.756379
1013.337218, 2517.192530
1013.986888, 2517.623166
1014.645253, 2518.055925
1015.300441, 2518.482953
1015.958363, 2518.908107
1016.617797, 2519.330560
1017.279458, 2519.750737
1017.943456, 2520.168670
1018.603081, 2520.580149
1019.269732, 2520.992264
1019.927122, 2521.394962
1020.587314, 2521.795686
1021.247711, 2522.192835
1021.907759, 2522.586073
1022.573135, 2522.978742
1023.235997, 2523.366189
1023.898553, 2523.749725
1024.058882, 2523.841975
