Ground distance, Load Factor
   0.000000,    0.000000
   0.000002,    0.000000
   0.000026,    0.000000
   0.000224,    0.000000
   0.001234,    0.000000
   0.005345,    0.000002
   0.018617,    0.000007
   0.042427,    0.000015
   0.075915,    0.000027
   0.119326,    0.000043
   0.172505,    0.000061
   0.235896,    0.000084
   0.308987,    0.000110
   0.393440,    0.000140
   0.487549,    0.000174
   0.591884,    0.000211
   0.707272,    0.000252
   0.833118,    0.000297
   0.971507,    0.000346
   1.120307,    0.000399
   1.282638,    0.000456
   1.455116,    0.000518
   1.641578,    0.000584
   1.839277,    0.000654
   2.049258,    0.000728
   2.274567,    0.000808
   2.513888,    0.000893
   2.767274,    0.000983
   3.034360,    0.001077
   3.315901,    0.001177
   3.607024,    0.001280
   3.921984,    0.001392
   4.246934,    0.001507
   4.584684,    0.001626
   4.945269,    0.001753
   5.317202,    0.001885
   5.708137,    0.002023
   6.115482,    0.002167
   6.537558,    0.002316
   6.978720,    0.002471
   7.437320,    0.002633
   7.928149,    0.002806
   8.438402,    0.002986
   8.958817,    0.003169
   9.500581,    0.003360
  10.060482,    0.003557
  10.654191,    0.003766
  11.264318,    0.003981
  11.897457,    0.004203
  12.544263,    0.004430
  13.223748,    0.004669
  13.918836,    0.004913
  14.646296,    0.005168
  15.384470,    0.005427
  16.154398,    0.005697
  16.946016,    0.005975
  17.765494,    0.006262
  18.621058,    0.006561
  19.491878,    0.006866
  20.394004,    0.007182
  21.332665,    0.007510
  22.292601,    0.007846
  23.275436,    0.008189
  24.310646,    0.008550
  25.352871,    0.008914
  26.421455,    0.009287
  27.525777,    0.009672
  28.656815,    0.010066
  29.826351,    0.010473
  31.027495,    0.010892
  32.262961,    0.011322
  33.515876,    0.011757
  34.812531,    0.012208
  36.141334,    0.012670
  37.519088,    0.013148
  38.920874,    0.013635
  40.345329,    0.014129
  41.811873,    0.014637
  43.300508,    0.015153
  44.840131,    0.015686
  46.404962,    0.016228
  48.013439,    0.016785
  49.681044,    0.017361
  51.383713,    0.017950
  53.111457,    0.018546
  54.869988,    0.019153
  56.679441,    0.019778
  58.512745,    0.020410
  60.386408,    0.021056
  62.311588,    0.021719
  64.278421,    0.022396
  66.279350,    0.023084
  68.308170,    0.023782
  70.401925,    0.024501
  72.556260,    0.025241
  74.719983,    0.025983
  76.941659,    0.026746
  79.194764,    0.027518
  81.514104,    0.028312
  81.985156,    0.028474
  82.213784,    0.028552
  82.346625,    0.028598
  82.445566,    0.028631
  82.530862,    0.028661
  82.601558,    0.028685
  82.655963,    0.028703
  82.697978,    0.028718
  82.735632,    0.028731
  82.737695,    0.028731
  82.740846,    0.028733
  82.741433,    0.028733
  82.741734,    0.028733
  82.741918,    0.028733
  82.742110,    0.028733
  82.744035,    0.028734
  82.762287,    0.028740
  82.851157,    0.028770
  83.233569,    0.028901
  84.259815,    0.029252
  86.402554,    0.029985
  88.555829,    0.030721
  90.768993,    0.031477
  93.020292,    0.032246
  95.296808,    0.033022
  97.632094,    0.033818
  99.978541,    0.034618
 102.376498,    0.035434
 104.797934,    0.036257
 107.276468,    0.037100
 109.810703,    0.037960
 112.370386,    0.038829
 114.969543,    0.039710
 117.609266,    0.040605
 120.276989,    0.041508
 122.991714,    0.042427
 125.732002,    0.043353
 128.528439,    0.044298
 131.372513,    0.045258
 134.262027,    0.046232
 137.173702,    0.047214
 140.139661,    0.048212
 143.157379,    0.049228
 146.215002,    0.050256
 149.311333,    0.051296
 152.460740,    0.052353
 155.648195,    0.053423
 158.877812,    0.054505
 162.170540,    0.055608
 165.492164,    0.056719
 168.856881,    0.057844
 172.261169,    0.058981
 175.725989,    0.060138
 179.228542,    0.061306
 182.811579,    0.062500
 186.415934,    0.063700
 190.057733,    0.064912
 193.754714,    0.066141
 197.500645,    0.067385
 201.295125,    0.068644
 205.135583,    0.069917
 209.023990,    0.071206
 212.940178,    0.072502
 216.949414,    0.073828
 220.989142,    0.075163
 225.092777,    0.076517
 229.219495,    0.077879
 233.412352,    0.079261
 237.659423,    0.080659
 241.971304,    0.082078
 246.354361,    0.083518
 250.763820,    0.084966
 255.220772,    0.086429
 259.727011,    0.087906
 264.284889,    0.089399
 268.930634,    0.090919
 273.630401,    0.092455
 278.358699,    0.094000
 283.133570,    0.095558
 287.987442,    0.097140
 292.876877,    0.098733
 297.813556,    0.100339
 302.816470,    0.101966
 307.890326,    0.103614
 313.021045,    0.105279
 318.219001,    0.106964
 323.450611,    0.108659
 328.747249,    0.110373
 334.099068,    0.112103
 339.509486,    0.113850
 340.596663,    0.114201
 341.374699,    0.114453
 341.901000,    0.114622
 342.340551,    0.114764
 342.696093,    0.114879
 342.748239,    0.114896
 342.799764,    0.114912
 342.855797,    0.114930
 342.857496,    0.114931
 342.858440,    0.114931
 342.859135,    0.114932
 342.859761,    0.114932
 342.866018,    0.114934
 342.928591,    0.114954
 343.273297,    0.115065
 344.614422,    0.115498
 349.248244,    0.116991
 354.159907,    0.118573
 359.110604,    0.120165
 364.147691,    0.121784
 369.209979,    0.123409
 374.294370,    0.125039
 379.455906,    0.126692
 384.647357,    0.128353
 389.892219,    0.130029
 395.199746,    0.131723
 400.529510,    0.133422
 405.932980,    0.135143
 411.382663,    0.136877
 416.869609,    0.138620
 422.442051,    0.140389
 428.035362,    0.142163
 433.686411,    0.143952
 439.404038,    0.145761
 445.164389,    0.147581
 450.977464,    0.149416
 456.820925,    0.151258
 462.739946,    0.153122
 468.676878,    0.154989
 474.680110,    0.156875
 480.752023,    0.158781
 486.854380,    0.160693
 492.982648,    0.162612
 499.185402,    0.164552
 505.422407,    0.166500
 511.735805,    0.168469
 518.096705,    0.170451
 524.506312,    0.172446
 530.997721,    0.174464
 537.525964,    0.176491
 544.134678,    0.178541
 550.764426,    0.180594
 557.455266,    0.182664
 564.180366,    0.184742
 570.957656,    0.186834
 577.837270,    0.188955
 584.766149,    0.191088
 591.724203,    0.193228
 598.746476,    0.195385
 605.817855,    0.197554
 612.926021,    0.199732
 620.100849,    0.201927
 627.349405,    0.204143
 634.618292,    0.206362
 641.969651,    0.208603
 649.370500,    0.210856
 656.817534,    0.213121
 664.350928,    0.215409
 671.936869,    0.217710
 679.563485,    0.220021
 687.251279,    0.222347
 695.000885,    0.224689
 702.800157,    0.227043
 710.657967,    0.229412
 718.586793,    0.231799
 726.576489,    0.234201
 734.605747,    0.236612
 742.696878,    0.239039
 750.827766,    0.241474
 759.044188,    0.243932
 767.296736,    0.246397
 775.672884,    0.248896
 784.069633,    0.251398
 792.516047,    0.253911
 801.016311,    0.256438
 802.729294,    0.256946
 803.879151,    0.257288
 804.890305,    0.257588
 808.078970,    0.258534
 808.142472,    0.258553
 808.222024,    0.258576
 808.241105,    0.258582
 808.274061,    0.258592
 808.284065,    0.258595
 808.285936,    0.258595
 808.286773,    0.258596
 808.287770,    0.258596
 808.297742,    0.258599
 808.386878,    0.258625
 808.938286,    0.258789
 812.117925,    0.259732
 819.806588,    0.262009
 827.349610,    0.264240
 834.944566,    0.266483
 842.617844,    0.268746
 850.336745,    0.271019
 858.076105,    0.273294
 865.878978,    0.275585
 873.704493,    0.277879
 881.603174,    0.280191
 889.540204,    0.282510
 897.535456,    0.284843
 905.577409,    0.287187
 913.662465,    0.289539
 921.792877,    0.291901
 929.962504,    0.294270
 938.196744,    0.296655
 946.493659,    0.299054
 954.830957,    0.301461
 963.186957,    0.303870
 971.588385,    0.306288
 980.058128,    0.308722
 988.574803,    0.311166
 997.170231,    0.313629
1005.792395,    0.316095
1014.469774,    0.318574
1023.202753,    0.321064
1031.989657,    0.323566
1040.784961,    0.326066
1049.662423,    0.328586
1058.601079,    0.331119
1067.567123,    0.333656
1076.571087,    0.336199
1085.651738,    0.338760
1094.771239,    0.341328
1103.925547,    0.343902
1113.157780,    0.346494
1122.409403,    0.349087
1131.739058,    0.351697
1141.141323,    0.354324
1150.559435,    0.356951
1160.041968,    0.359591
1169.575096,    0.362242
1179.174549,    0.364906
1188.785244,    0.367569
1198.451553,    0.370244
1208.185921,    0.372933
1217.961398,    0.375628
1227.790722,    0.378335
1237.691277,    0.381056
1247.631110,    0.383784
1257.637529,    0.386525
1267.680968,    0.389272
1277.824482,    0.392042
1287.989376,    0.394814
1298.203235,    0.397593
1308.478325,    0.400385
1318.785060,    0.403181
1329.146498,    0.405987
1339.566951,    0.408805
1350.057520,    0.411636
1360.589285,    0.414474
1371.140283,    0.417312
1381.805734,    0.420177
1392.496188,    0.423043
1403.231530,    0.425916
1414.030782,    0.428802
1424.909733,    0.431704
1435.806109,    0.434606
1446.755995,    0.437516
1457.762575,    0.440438
1468.826474,    0.443369
1479.952671,    0.446312
1491.136646,    0.449264
1502.386923,    0.452230
1513.665088,    0.455197
1525.018350,    0.458180
1527.293302,    0.458777
1529.201943,    0.459277
1530.691301,    0.459668
1530.750150,    0.459683
1530.865203,    0.459713
1530.900214,    0.459723
1530.909803,    0.459725
1530.917898,    0.459727
1530.925225,    0.459729
1530.998497,    0.459748
1531.559277,    0.459895
1534.712113,    0.460722
1544.593758,    0.463309
1556.050995,    0.466305
1567.522093,    0.469298
1579.082580,    0.472310
1590.650464,    0.475319
1602.311056,    0.478346
1613.988811,    0.481372
1625.743540,    0.484413
1637.550949,    0.487462
1649.416823,    0.490521
1661.368186,    0.493597
1673.385018,    0.496683
1685.433915,    0.499773
1697.507189,    0.502863
1709.686412,    0.505975
1721.880825,    0.509085
1734.177725,    0.512216
1746.513400,    0.515351
1758.900426,    0.518493
1771.354043,    0.521646
1783.865110,    0.524809
1796.404823,    0.527973
1809.013390,    0.531148
1821.675113,    0.534331
1834.394057,    0.537523
1847.183422,    0.540726
1860.028466,    0.543938
1872.930362,    0.547157
1885.880209,    0.550383
1898.868812,    0.553613
1911.939325,    0.556857
1925.058731,    0.560107
1938.258709,    0.563371
1951.506634,    0.566641
1964.792212,    0.569914
1978.139226,    0.573196
1991.581202,    0.576496
2005.038375,    0.579793
2018.585232,    0.583106
2032.176735,    0.586423
2045.839591,    0.589752
2049.371158,    0.590611
2059.554650,    0.593087
2073.311865,    0.605377
2087.152819,    0.620827
2101.084596,    0.636355
2115.093908,    0.651963
2129.142469,    0.667628
2143.258494,    0.683323
2157.454777,    0.699077
2171.748319,    0.714902
2186.059656,    0.730792
2200.472433,    0.746700
2214.920798,    0.762677
2229.453657,    0.778682
2244.037254,    0.794745
2258.688573,    0.810842
2273.397372,    0.826982
2288.158071,    0.843154
2302.931569,    0.859342
2317.779429,    0.875532
2332.640062,    0.891753
2347.583284,    0.907977
2362.567251,    0.924245
2377.598290,    0.940525
2392.677419,    0.956822
2407.813514,    0.973138
2422.970220,    0.989467
2438.156648,    1.005784
2453.385536,    1.022099
2454.413426,    1.033505
2455.442174,    1.034594
2456.466395,    1.035682
2457.493191,    1.036767
2458.523746,    1.037854
2459.552729,    1.038944
2460.584492,    1.040033
2461.618355,    1.041125
2462.652126,    1.042217
2463.686861,    1.043310
2464.722444,    1.044403
2465.758339,    1.045496
2466.795316,    1.046590
2467.832567,    1.047684
2468.866914,    1.048777
2469.907597,    1.049869
2470.944712,    1.050965
2471.986513,    1.052059
2473.022369,    1.053154
2474.065826,    1.054247
2475.107702,    1.055344
2476.146468,    1.056439
2477.187834,    1.057532
2478.228902,    1.058627
2479.270499,    1.059721
2480.318270,    1.060817
2481.366331,    1.061917
2482.418084,    1.063018
2483.470171,    1.064122
2484.521720,    1.065225
2485.575404,    1.066328
2486.631057,    1.067433
2487.687850,    1.068539
2488.744175,    1.069645
2489.803307,    1.070751
2490.861305,    1.071859
2491.922529,    1.072966
2492.982742,    1.074075
2494.042908,    1.075183
2495.101516,    1.076290
2496.167004,    1.077397
2497.230662,    1.078508
2498.296370,    1.079619
2499.365013,    1.080731
2500.433733,    1.081844
2501.499365,    1.082957
2502.566237,    1.084067
2503.628168,    1.085175
2504.700212,    1.086284
2505.776320,    1.087400
2506.850443,    1.088518
2507.928669,    1.089635
2509.008761,    1.090755
2510.086584,    1.091875
2511.164165,    1.092994
2512.244300,    1.094112
2513.326086,    1.095232
2514.410352,    1.096354
2515.497488,    1.097477
2516.579892,    1.098601
2517.663883,    1.099721
2518.752158,    1.100844
2519.837500,    1.101968
2520.928045,    1.103091
2522.024646,    1.104219
2523.120407,    1.105350
2524.209716,    1.106478
2525.308483,    1.107604
2526.404464,    1.108736
2527.500403,    1.109865
2528.600330,    1.110994
2529.703103,    1.112127
2530.809365,    1.113262
2531.918201,    1.114400
2533.022618,    1.115538
2534.131337,    1.116673
2535.245335,    1.117813
2536.357320,    1.118955
2537.469757,    1.119326
2538.587628,    1.119700
2539.700550,    1.120071
2540.816376,    1.120443
2541.935138,    1.120815
2543.055286,    1.121188
2544.172520,    1.121559
2545.295702,    1.121932
2546.419971,    1.122305
2547.549409,    1.122679
2548.672580,    1.123050
2549.798454,    1.123423
2550.928836,    1.123796
2552.064215,    1.124171
2553.197698,    1.124544
2554.331400,    1.124917
2555.468436,    1.125291
2556.605569,    1.125665
2557.744833,    1.126039
2558.883956,    1.126412
2560.019288,    1.126784
2561.160685,    1.127157
2562.308006,    1.127532
2563.450413,    1.127905
2564.597380,    1.128279
2565.749250,    1.128654
2566.896795,    1.129028
2568.046496,    1.129402
2569.198330,    1.129776
2570.352472,    1.130150
2571.505782,    1.130524
2572.663763,    1.130898
2573.825273,    1.131274
2574.987820,    1.131649
2576.154745,    1.132026
2577.316384,    1.132400
2578.481888,    1.132775
2579.644569,    1.133149
2580.812717,    1.133524
2581.983463,    1.133899
2583.159607,    1.134276
2584.331335,    1.134651
2585.501198,    1.135025
2586.678236,    1.135401
2587.856471,    1.135777
2589.035951,    1.136152
2590.218523,    1.136529
2591.400542,    1.136904
2592.588756,    1.137282
2593.773943,    1.137657
2594.960728,    1.138033
2596.152701,    1.138410
2597.346642,    1.138788
2598.537044,    1.139163
2599.735747,    1.139541
2600.932874,    1.139918
2602.130626,    1.140295
2603.328541,    1.140671
2603.568234,    1.140746
2604.105025,    1.140915
2604.150293,    1.140929
2604.186530,    1.140940
2604.216742,    1.140950
2604.237087,    1.140956
2604.254951,    1.140962
2604.271834,    1.140967
2604.286779,    1.140972
2604.292076,    1.140973
2604.295300,    1.140974
2604.297230,    1.140975
2604.298986,    1.140975
2604.312219,    1.140980
2604.364356,    1.140996
2604.528595,    1.141047
2605.164017,    1.141247
2606.209635,    1.141574
2607.420463,    1.141953
2608.627840,    1.142330
2609.839808,    1.142708
2611.053801,    1.143086
2612.266101,    1.143464
2613.478118,    1.143841
2614.690919,    1.144217
2615.905249,    1.144594
2617.123589,    1.144971
2618.341822,    1.145348
2619.571024,    1.145728
2620.792700,    1.146105
2622.016843,    1.146482
2623.245158,    1.146860
2624.478280,    1.147239
2625.710798,    1.147618
2626.952470,    1.147998
2628.187941,    1.148377
2629.423919,    1.148755
2630.665349,    1.149134
2631.911755,    1.149514
2632.330213,    1.149641
2633.161112,    1.149895
2634.410031,    1.150274
2635.663904,    1.150655
2636.913427,    1.151035
2638.166475,    1.151414
2639.425461,    1.151795
2640.681076,    1.152175
2641.943125,    1.152556
2643.210078,    1.152937
2644.480994,    1.153320
2645.747095,    1.153701
2647.015170,    1.154081
2648.285888,    1.154462
2649.560585,    1.154844
2650.837085,    1.155225
2652.121513,    1.155609
2653.405734,    1.155992
2654.684890,    1.156372
2655.973278,    1.156755
2657.258695,    1.157137
2658.544909,    1.157518
2659.835972,    1.157900
2661.133076,    1.158284
2662.430174,    1.158667
2663.736477,    1.159052
2665.045946,    1.159437
2666.350944,    1.159820
2667.658739,    1.160204
2668.967144,    1.160588
2670.287395,    1.160974
2671.609748,    1.161360
2672.931235,    1.161746
2674.251822,    1.162130
2675.579342,    1.162516
2676.913402,    1.162904
2678.246356,    1.163290
2679.584362,    1.163678
2680.917235,    1.164063
2682.252586,    1.164448
2683.593859,    1.164835
2684.940511,    1.165222
2686.291113,    1.165611
2687.641274,    1.165998
2688.998832,    1.166387
2690.351724,    1.166773
2691.707467,    1.167161
2693.063812,    1.167547
2694.423136,    1.167934
2695.788655,    1.168322
2697.157110,    1.168710
2698.522925,    1.169097
2699.895592,    1.169485
2701.263956,    1.169871
2702.637210,    1.170258
2704.026576,    1.170649
2705.413619,    1.171039
2706.796583,    1.171427
2708.185651,    1.171816
2709.584064,    1.172207
2710.979964,    1.172596
2712.378936,    1.172986
2713.776574,    1.173375
2715.168120,    1.173761
2716.570352,    1.174150
2717.983100,    1.174540
2719.397007,    1.174931
2720.812910,    1.175321
2722.227447,    1.175711
2723.648026,    1.176101
2725.066823,    1.176490
2726.477738,    1.176876
2727.913752,    1.177269
2729.332690,    1.177656
2730.773923,    1.178048
2732.215697,    1.178440
2733.651015,    1.178830
2735.092967,    1.179220
2736.533186,    1.179610
2737.981159,    1.180001
2739.430373,    1.180391
2740.895510,    1.180785
2742.356090,    1.181177
2743.826379,    1.181571
2745.296605,    1.181964
2746.760197,    1.182355
2748.226025,    1.182745
2749.704690,    1.183138
2751.183147,    1.183530
2752.664031,    1.183923
2754.137029,    1.184312
2755.619981,    1.184703
2757.106103,    1.185095
2758.601420,    1.185488
2760.090506,    1.185878
2761.594799,    1.186272
2763.091267,    1.186663
2764.596414,    1.187055
2766.092574,    1.187445
2767.598508,    1.187836
2769.111258,    1.188228
2770.623917,    1.188619
2772.148714,    1.189012
2773.671545,    1.189405
2775.196451,    1.189797
2776.727925,    1.190190
2778.237835,    1.190576
2779.780322,    1.190970
2781.319178,    1.191362
2782.865615,    1.191756
2784.410776,    1.192148
2785.950485,    1.192538
2787.503305,    1.192931
2789.066406,    1.193325
2790.625316,    1.193717
2792.179112,    1.194107
2793.742697,    1.194499
2795.303246,    1.194889
2796.860625,    1.195278
2798.426403,    1.195668
2800.003542,    1.196059
2801.579391,    1.196450
2803.155555,    1.196840
2804.748305,    1.197233
2806.334995,    1.197623
2807.929340,    1.198015
2809.534788,    1.198408
2811.140835,    1.198801
2812.729533,    1.199188
2814.323833,    1.199576
2815.941751,    1.199969
2817.549987,    1.200358
2819.161665,    1.200748
2820.784423,    1.201139
2822.392487,    1.201526
2824.011905,    1.201914
2825.637755,    1.202303
2827.270253,    1.202693
2828.902423,    1.203082
2830.534781,    1.203470
2832.169263,    1.203857
2833.812562,    1.204246
2835.452284,    1.204632
2837.090585,    1.205018
2838.751744,    1.205408
2840.410614,    1.205796
2842.064384,    1.206182
2843.725313,    1.206569
2845.401324,    1.206958
2847.076493,    1.207346
2848.753024,    1.207734
2850.427381,    1.208120
2852.107979,    1.208506
2853.783646,    1.208890
2855.462075,    1.209274
2857.162844,    1.209662
2858.856090,    1.210047
2860.555558,    1.210433
2862.241785,    1.210814
2863.943976,    1.211198
2865.652007,    1.211583
2867.348934,    1.211964
2869.075189,    1.212350
2870.791962,    1.212733
2872.509416,    1.213116
2874.234606,    1.213498
2875.952035,    1.213879
2877.666578,    1.214257
2879.393299,    1.214637
2881.111321,    1.215014
2882.845685,    1.215394
2884.583030,    1.215773
2886.323935,    1.216152
2888.065642,    1.216529
2889.799822,    1.216905
2891.552459,    1.217283
2893.304206,    1.217659
2895.060854,    1.218036
2896.815021,    1.218411
2898.580115,    1.218787
2900.348833,    1.219163
2902.116596,    1.219538
2903.883759,    1.219911
2905.660931,    1.220285
2907.435085,    1.220658
2909.216556,    1.221030
2910.989291,    1.221400
2912.780830,    1.221773
2914.583100,    1.222147
2916.383575,    1.222519
2918.172801,    1.222887
2919.984268,    1.223259
2921.779692,    1.223627
2923.578827,    1.223994
2925.382731,    1.224361
2927.199667,    1.224729
2929.014928,    1.225096
2930.831937,    1.225462
2932.656212,    1.225828
2934.471558,    1.226191
2936.300524,    1.226556
2938.125483,    1.226919
2939.966492,    1.227283
2941.792637,    1.227644
2943.636359,    1.228006
2945.474571,    1.228367
2947.329354,    1.228729
2949.168130,    1.229087
2951.009776,    1.229444
2952.863976,    1.229803
2954.708249,    1.230158
2956.556518,    1.230513
2958.415510,    1.230868
2960.263392,    1.231220
2962.141024,    1.231577
2963.988987,    1.231927
2965.835029,    1.232275
2967.703154,    1.232626
2969.568622,    1.232975
2971.446299,    1.233325
2973.326121,    1.233674
2975.209076,    1.234023
2977.087773,    1.234369
2978.973047,    1.234715
2980.875983,    1.235063
2982.779734,    1.235410
2984.686541,    1.235757
2986.585640,    1.236100
2988.492275,    1.236444
2990.390847,    1.236784
2992.303678,    1.237126
2994.196825,    1.237463
2996.116042,    1.237804
2998.025531,    1.238141
2999.960753,    1.238481
3001.884950,    1.238818
3003.794333,    1.239152
3005.730044,    1.239488
3007.646947,    1.239820
3009.577804,    1.240152
3011.526265,    1.240487
3013.456460,    1.240817
3015.404804,    1.241148
3017.339179,    1.241476
3019.274752,    1.241803
3021.235352,    1.242132
3023.179187,    1.242457
3025.119294,    1.242780
3027.048294,    1.243100
3029.005635,    1.243423
3030.965507,    1.243745
3032.940088,    1.244068
3034.891633,    1.244386
3036.862245,    1.244706
3038.818974,    1.245022
3040.797389,    1.245340
3042.772592,    1.245656
3044.742892,    1.245969
3046.701109,    1.246280
3048.680461,    1.246592
3050.664897,    1.246903
3052.660772,    1.247215
3054.629607,    1.247521
3056.613910,    1.247829
3058.598746,    1.248134
3060.588378,    1.248439
3062.587946,    1.248744
3064.586010,    1.249047
3066.594293,    1.249351
3068.606974,    1.249653
3070.612986,    1.249953
3072.624650,    1.250252
3074.637573,    1.250550
3076.636776,    1.250845
3078.651220,    1.251140
3080.660031,    1.251433
3082.653279,    1.251722
3084.661450,    1.252011
3086.676202,    1.252300
3088.695736,    1.252589
3090.719262,    1.252876
3092.757153,    1.253164
3094.785789,    1.253448
3096.802835,    1.253730
3098.828062,    1.254011
3100.853673,    1.254291
3102.869817,    1.254568
3104.876121,    1.254842
3106.942899,    1.255123
3108.972160,    1.255397
3111.029052,    1.255673
3113.063244,    1.255945
3115.105004,    1.256216
3117.143068,    1.256485
3119.195729,    1.256754
3121.248541,    1.257022
3123.307711,    1.257289
3125.363918,    1.257554
3127.407666,    1.257816
3129.466671,    1.258078
3131.520229,    1.258338
3133.590418,    1.258598
3134.272855,    1.258684
