 # RISULTATI  DIMENSIONALI  
 
 # Peso                  [Kg]    =    45045.000000
 # ro quota considerata  [Kg/m3] =        1.225000
 # Velocita              [m/s]   =       79.414452
 # pressione dinamica    [kg/mq] =      393.764099
 # semi apertura (b/2)   [m]     =       14.844854
 
 #    y[m]       c[m]       Cl         c*Cl     M[kg*m]   PA_perc   PA_dim[m]   dMt[kg*m]  Mtors[kg*m]
         14.845           1.050           0.000           0.000           0.000           0.000           0.000           0.000           0.000           0.000
         14.770           1.064           0.116           0.124           1.823           0.068          59.461           8.904          -5.345          -5.345
         14.620           1.092           0.171           0.187          10.982           1.028          48.393           8.723         -65.968         -71.314
         14.470           1.120           0.209           0.234          23.398           3.606          44.163           8.611         -88.736        -160.050
         14.320           1.148           0.234           0.269          38.237           8.227          42.085           8.523        -104.573        -264.623
         14.170           1.231           0.374           0.461          59.773          15.575          35.688           8.347        -148.912        -413.536
         14.020           1.304           0.429           0.560          89.906          26.797          34.316           8.232        -203.987        -617.523
         13.870           1.332           0.468           0.624         124.867          42.900          33.538           8.154        -233.309        -850.832
         13.720           1.361           0.501           0.681         163.414          64.513          32.985           8.079        -254.283       -1105.115
         13.570           1.389           0.530           0.736         205.276          92.155          32.541           8.005        -273.016       -1378.131
         13.420           1.417           0.558           0.791         250.373         126.317          32.163           7.931        -290.782       -1668.913
         13.270           1.445           0.586           0.846         298.712         167.485          31.828           7.858        -308.143       -1977.056
         13.120           1.473           0.613           0.903         350.353         216.147          31.524           7.785        -325.420       -2302.476
         12.971           1.501           0.641           0.962         405.397         272.809          31.243           7.713        -342.861       -2645.337
         12.821           1.529           0.669           1.023         463.977         337.990          30.980           7.640        -360.633       -3005.970
         12.671           1.557           0.698           1.087         526.259         412.232          30.730           7.567        -378.904       -3384.874
         12.521           1.585           0.728           1.155         592.437         496.105          30.491           7.495        -397.807       -3782.681
         12.371           1.613           0.760           1.227         662.734         590.210          30.261           7.422        -417.478       -4200.159
         12.221           1.641           0.794           1.303         737.410         695.185          30.038           7.350        -438.067       -4638.225
         12.071           1.669           0.830           1.385         816.754         811.706          29.822           7.278        -459.700       -5097.925
         11.921           1.697           0.867           1.472         901.096         940.501          29.611           7.205        -482.546       -5580.471
         11.771           1.725           0.908           1.566         990.801        1082.344          29.406           7.132        -506.721       -6087.192
         11.621           1.753           0.951           1.667        1086.263        1238.069          29.207           7.060        -532.314       -6619.506
         11.471           1.782           0.996           1.774        1187.853        1408.569          29.017           6.987        -559.116       -7178.622
         11.321           1.810           1.038           1.878        1295.655        1594.767          28.855           6.915        -585.511       -7764.133
         11.171           1.985           0.949           1.884        1406.699        1797.375          29.215           6.896        -598.039       -8362.171
         11.021           2.063           1.184           2.442        1534.415        2017.881          28.379           6.824        -681.984       -9044.155
         10.871           2.091           1.306           2.730        1687.121        2259.413          28.064           6.748        -804.152       -9848.308
         10.721           2.119           1.390           2.947        1854.709        2524.958          27.877           6.675        -870.008      -10718.315
         10.571           2.147           1.455           3.125        2033.956        2816.505          27.748           6.602        -917.480      -11635.795
         10.421           2.175           1.507           3.279        2223.022        3135.670          27.653           6.531        -954.143      -12589.938
         10.271           2.203           1.550           3.415        2420.646        3483.823          27.581           6.460        -983.230      -13573.167
         10.121           2.231           1.585           3.537        2625.903        3862.186          27.523           6.389       -1006.626      -14579.793
          9.972           2.259           1.615           3.649        2838.062        4271.839          27.477           6.318       -1025.466      -15605.260
          9.822           2.288           1.640           3.752        3056.542        4713.779          27.439           6.248       -1040.611      -16645.871
          9.672           2.316           1.661           3.847        3280.869        5188.924          27.408           6.177       -1052.664      -17698.535
          9.522           2.344           1.679           3.936        3510.637        5698.108          27.382           6.107       -1062.048      -18760.582
          9.372           2.372           1.695           4.020        3745.513        6242.134          27.360           6.037       -1069.169      -19829.752
          9.222           2.400           1.708           4.099        3985.198        6821.734          27.342           5.967       -1074.262      -20904.014
          9.072           2.428           1.719           4.174        4229.443        7437.615          27.326           5.897       -1077.591      -21981.605
          8.922           2.456           1.729           4.246        4478.028        8090.454          27.314           5.827       -1079.344      -23060.949
          8.772           2.484           1.737           4.315        4730.751        8780.869          27.303           5.757       -1079.636      -24140.586
          8.622           2.512           1.744           4.380        4987.442        9509.486          27.294           5.687       -1078.645      -25219.230
          8.472           2.540           1.749           4.443        5247.936       10276.870          27.287           5.617       -1076.427      -26295.658
          8.322           2.568           1.754           4.504        5512.092       11083.594          27.281           5.548       -1073.118      -27368.777
          8.172           2.596           1.758           4.563        5779.777       11930.191          27.276           5.478       -1068.770      -28437.547
          8.022           2.624           1.760           4.620        6050.866       12817.178          27.272           5.408       -1063.449      -29500.996
          7.872           2.652           1.762           4.674        6325.249       13745.071          27.270           5.338       -1057.237      -30558.232
          7.722           2.680           1.764           4.727        6602.812       14714.335          27.268           5.269       -1050.140      -31608.373
          7.572           2.709           1.764           4.779        6883.460       15725.462          27.267           5.199       -1042.251      -32650.625
          7.422           2.737           1.764           4.829        7167.088       16778.883          27.267           5.129       -1033.558      -33684.184
          7.272           2.765           1.764           4.877        7453.607       17875.057          27.268           5.060       -1024.136      -34708.320
          7.123           2.793           1.763           4.923        7742.923       19014.398          27.269           4.990       -1013.988      -35722.309
          6.973           2.821           1.761           4.968        8034.948       20197.330          27.271           4.920       -1003.154      -36725.461
          6.823           2.849           1.759           5.012        8329.592       21424.242          27.274           4.851        -991.645      -37717.105
          6.673           2.877           1.757           5.054        8626.768       22695.529          27.277           4.781        -979.492      -38696.598
          6.523           2.905           1.754           5.095        8926.387       24011.561          27.281           4.712        -966.706      -39663.305
          6.373           2.933           1.750           5.134        9228.360       25372.695          27.285           4.642        -953.305      -40616.609
          6.223           2.961           1.746           5.172        9532.599       26779.277          27.290           4.573        -939.306      -41555.914
          6.073           2.989           1.742           5.208        9839.023       28231.646          27.296           4.503        -924.760      -42480.676
          5.923           2.991           1.754           5.247       10147.668       29730.125          27.281           4.435        -910.156      -43390.832
          5.773           2.989           1.759           5.258       10457.778       31275.000          27.274           4.431        -903.307      -44294.141
          5.623           3.082           1.716           5.287       10769.085       32866.465          27.331           4.364        -895.848      -45189.988
          5.473           3.174           1.676           5.321       11082.261       34504.750          27.386           4.298        -880.307      -46070.297
          5.323           3.267           1.639           5.354       11397.408       36190.137          27.441           4.231        -864.819      -46935.117
          5.173           3.360           1.602           5.383       11714.377       37922.922          27.497           4.164        -848.701      -47783.816
          5.023           3.469           1.564           5.424       12033.418       39703.387          27.558           4.086        -831.198      -48615.016
          4.873           3.646           1.512           5.512       12356.274       41531.980          27.646           3.960        -808.236      -49423.250
          4.723           3.739           1.489           5.566       12683.307       43409.301          27.687           3.894        -787.204      -50210.453
          4.573           3.832           1.464           5.611       13013.271       45335.879          27.732           3.827        -772.287      -50982.738
          4.423           3.925           1.440           5.651       13345.739       47312.117          27.778           3.761        -756.070      -51738.809
          4.274           4.018           1.415           5.686       13680.413       49338.379          27.827           3.695        -738.912      -52477.719
          4.124           4.111           1.391           5.716       14017.021       51414.961          27.876           3.629        -720.936      -53198.656
          3.974           4.204           1.366           5.742       14355.306       53542.148          27.928           3.563        -702.220      -53900.875
          3.824           4.296           1.342           5.764       14694.999       55720.168          27.982           3.497        -682.805      -54583.680
          3.674           4.389           1.317           5.781       15035.823       57949.207          28.037           3.432        -662.728      -55246.406
          3.524           4.482           1.292           5.792       15377.485       60229.414          28.095           3.366        -642.022      -55888.430
          3.374           4.575           1.267           5.799       15719.674       62560.895          28.156           3.301        -620.715      -56509.145
          3.224           4.668           1.242           5.799       16062.050       64943.695          28.220           3.237        -598.833      -57107.977
          3.074           4.761           1.217           5.793       16404.250       67377.828          28.288           3.172        -576.409      -57684.387
          2.924           4.854           1.191           5.779       16745.873       69863.227          28.360           3.108        -553.465      -58237.852
          2.774           4.947           1.164           5.758       17086.477       72399.766          28.436           3.044        -530.027      -58767.879
          2.624           5.040           1.137           5.728       17425.564       74987.273          28.519           2.981        -506.122      -59274.000
          2.474           5.133           1.108           5.687       17762.568       77625.469          28.610           2.918        -481.764      -59755.766
          2.324           5.226           1.078           5.635       18096.828       80313.984          28.709           2.856        -456.961      -60212.727
          2.174           5.318           1.047           5.567       18427.545       83052.367          28.821           2.795        -431.705      -60644.434
          2.024           5.411           1.013           5.480       18753.697       85840.000          28.950           2.735        -405.934      -61050.367
          1.874           5.504           0.975           5.364       19073.848       88676.078          29.105           2.676        -379.465      -61429.832
          1.724           5.491           0.944           5.184       19385.264       91559.516          29.237           2.624        -351.902      -61781.734
          1.574           5.414           0.915           4.955       19684.602       94488.742          29.371           2.576        -323.352      -62105.086
          1.425           5.507           0.875           4.821       19973.223       97462.047          29.569           2.521        -296.873      -62401.961
          1.275           5.600           0.843           4.722       20254.971      100478.117          29.744           2.464        -273.971      -62675.934
          1.125           5.693           0.816           4.645       20531.506      103536.039          29.903           2.407        -253.154      -62929.086
          0.975           5.786           0.792           4.583       20803.928      106635.125          30.050           2.349        -233.746      -63162.832
          0.825           5.879           0.771           4.534       21073.066      109774.812          30.187           2.291        -215.376      -63378.207
          0.675           5.972           0.753           4.495       21339.594      112954.656          30.315           2.233        -197.802      -63576.008
          0.525           6.065           0.736           4.464       21604.082      116174.320          30.434           2.174        -180.844      -63756.852
          0.375           6.158           0.721           4.443       21867.035      119433.523          30.544           2.116        -164.362      -63921.215
          0.225           6.251           0.708           4.428       22128.916      122732.078          30.646           2.056        -148.239      -64069.453
          0.075           6.344           0.697           4.421       22390.158      126069.852          30.740           1.997        -132.373      -64201.824
          0.000           6.390           0.000           0.000       22455.416      127750.977         999.000         999.000      -32561.859      -96763.688
