Ground Distance, Angles
   0.000000,    0.000000
   0.000002,    0.000000
   0.000046,    0.000000
   0.000376,    0.000000
   0.002553,    0.000000
   0.012585,    0.000000
   0.032383,    0.000000
   0.061656,    0.000000
   0.100461,    0.000000
   0.149130,    0.000000
   0.207070,    0.000000
   0.274937,    0.000000
   0.352830,    0.000000
   0.440081,    0.000000
   0.537514,    0.000000
   0.645830,    0.000000
   0.765178,    0.000000
   0.896597,    0.000000
   1.038758,    0.000000
   1.190977,    0.000000
   1.356497,    0.000000
   1.534364,    0.000000
   1.721009,    0.000000
   1.921872,    0.000000
   2.134007,    0.000000
   2.358404,    0.000000
   2.596374,    0.000000
   2.846648,    0.000000
   3.113157,    0.000000
   3.396714,    0.000000
   3.690256,    0.000000
   4.000032,    0.000000
   4.326707,    0.000000
   4.667577,    0.000000
   5.026323,    0.000000
   5.401221,    0.000000
   5.794361,    0.000000
   6.203044,    0.000000
   6.626407,    0.000000
   7.075397,    0.000000
   7.535360,    0.000000
   8.016321,    0.000000
   8.516797,    0.000000
   9.035047,    0.000000
   9.578491,    0.000000
  10.143150,    0.000000
  10.734546,    0.000000
  11.333635,    0.000000
  11.962119,    0.000000
  12.615130,    0.000000
  13.290196,    0.000000
  13.977405,    0.000000
  14.683242,    0.000000
  15.424207,    0.000000
  16.188451,    0.000000
  16.973385,    0.000000
  17.785118,    0.000000
  18.624408,    0.000000
  19.500588,    0.000000
  20.390952,    0.000000
  21.301133,    0.000000
  22.248662,    0.000000
  23.214058,    0.000000
  24.220496,    0.000000
  25.251295,    0.000000
  26.306887,    0.000000
  27.394341,    0.000000
  28.508861,    0.000000
  29.643319,    0.000000
  30.802905,    0.000000
  32.014418,    0.000000
  33.243721,    0.000000
  34.516393,    0.000000
  35.816505,    0.000000
  37.147989,    0.000000
  38.511054,    0.000000
  39.916179,    0.000000
  41.351940,    0.000000
  42.802080,    0.000000
  44.313919,    0.000000
  45.842344,    0.000000
  47.391671,    0.000000
  49.006435,    0.000000
  50.661586,    0.000000
  52.364539,    0.000000
  54.084147,    0.000000
  55.853664,    0.000000
  57.638606,    0.000000
  59.486738,    0.000000
  61.364053,    0.000000
  63.269961,    0.000000
  65.213969,    0.000000
  67.211340,    0.000000
  69.243139,    0.000000
  71.314173,    0.000000
  73.447559,    0.000000
  75.603965,    0.000000
  77.804726,    0.000000
  80.049289,    0.000000
  82.353356,    0.000000
  82.445521,    0.000000
  82.521055,    0.000000
  82.581397,    0.000000
  82.623342,    0.000000
  82.660074,    0.000000
  82.693790,    0.000000
  82.723750,    0.000000
  82.729417,    0.000000
  82.736951,    0.000000
  82.745671,    0.000000
  82.747965,    0.000000
  82.748707,    0.000000
  82.749575,    0.000000
  82.749749,    0.000000
  82.749934,    0.000000
  82.751788,    0.000000
  82.769992,    0.000000
  82.878365,    0.000000
  83.308201,    0.000000
  84.449496,    0.000000
  86.564818,    0.000000
  88.706444,    0.000000
  90.878196,    0.000000
  93.092185,    0.000000
  95.343267,    0.000000
  97.631953,    0.000000
  99.955083,    0.000000
 102.321495,    0.000000
 104.729915,    0.000000
 107.166281,    0.000000
 109.644416,    0.000000
 112.167136,    0.000000
 114.706665,    0.000000
 117.301134,    0.000000
 119.949949,    0.000000
 122.635928,    0.000000
 125.359743,    0.000000
 128.112292,    0.000000
 130.895785,    0.000000
 133.735402,    0.000000
 136.618575,    0.000000
 139.557939,    0.000000
 142.539528,    0.000000
 145.581762,    0.000000
 148.639105,    0.000000
 151.727080,    0.000000
 154.872015,    0.000000
 158.059020,    0.000000
 161.302835,    0.000000
 164.588963,    0.000000
 167.886058,    0.000000
 171.244830,    0.000000
 174.677550,    0.000000
 178.127425,    0.000000
 181.640549,    0.000000
 185.192224,    0.000000
 188.784982,    0.000000
 192.428819,    0.000000
 196.113753,    0.000000
 199.846938,    0.000000
 203.633096,    0.000000
 207.452555,    0.000000
 211.329511,    0.000000
 215.262237,    0.000000
 219.257362,    0.000000
 223.288588,    0.000000
 227.378552,    0.000000
 231.491732,    0.000000
 235.651824,    0.000000
 239.872340,    0.000000
 244.152548,    0.000000
 248.488686,    0.000000
 252.896744,    0.000000
 257.333854,    0.000000
 261.804987,    0.000000
 266.323435,    0.000000
 270.931016,    0.000000
 275.576231,    0.000000
 280.256017,    0.000000
 284.986260,    0.000000
 289.782814,    0.000000
 294.660125,    0.000000
 299.556143,    0.000000
 304.510130,    0.000000
 309.487865,    0.000000
 314.571602,    0.000000
 319.712665,    0.000000
 324.908271,    0.000000
 330.134880,    0.000000
 335.443173,    0.000000
 340.819772,    0.000000
 341.899590,    0.000000
 342.660382,    0.000000
 342.768602,    0.000000
 342.877250,    0.000000
 342.974492,    0.000000
 342.993955,    0.000000
 342.995696,    0.000000
 342.996704,    0.000000
 342.997155,    0.000000
 342.997575,    0.000000
 343.001774,    0.000000
 343.043768,    0.000000
 343.295901,    0.000000
 344.531798,    0.000000
 349.554410,    0.000000
 354.426014,    0.000000
 359.355393,    0.000000
 364.336251,    0.000000
 369.327202,    0.000000
 374.399065,    0.000000
 379.529586,    0.000000
 384.672284,    0.000000
 389.865509,    0.000000
 395.122076,    0.000000
 400.425485,    0.000000
 405.764152,    0.000000
 411.173475,    0.000000
 416.603692,    0.000000
 422.094171,    0.000000
 427.630351,    0.000000
 433.207821,    0.000000
 438.840812,    0.000000
 444.537226,    0.000000
 450.282219,    0.000000
 456.049128,    0.000000
 461.873889,    0.000000
 467.741413,    0.000000
 473.646629,    0.000000
 479.637907,    0.000000
 485.670506,    0.000000
 491.749193,    0.000000
 497.869533,    0.000000
 504.078409,    0.000000
 510.333090,    0.000000
 516.617305,    0.000000
 522.961715,    0.000000
 529.342177,    0.000000
 535.760376,    0.000000
 542.243394,    0.000000
 548.788349,    0.000000
 555.403559,    0.000000
 562.069924,    0.000000
 568.776288,    0.000000
 575.567835,    0.000000
 582.392935,    0.000000
 589.255248,    0.000000
 596.166354,    0.000000
 603.144963,    0.000000
 610.162099,    0.000000
 617.245510,    0.000000
 624.373434,    0.000000
 631.578769,    0.000000
 638.809188,    0.000000
 646.114803,    0.000000
 653.463132,    0.000000
 660.878239,    0.000000
 668.331201,    0.000000
 675.862065,    0.000000
 683.451663,    0.000000
 691.071016,    0.000000
 698.767425,    0.000000
 706.524550,    0.000000
 714.311348,    0.000000
 722.146303,    0.000000
 730.070298,    0.000000
 738.059390,    0.000000
 746.074981,    0.000000
 754.184274,    0.000000
 762.319750,    0.000000
 770.490648,    0.000000
 778.751570,    0.000000
 787.078800,    0.000000
 795.464783,    0.000000
 803.905314,    0.000000
 805.596692,    0.000000
 807.004496,    0.000000
 807.956917,    0.000000
 808.759890,    0.000000
 808.908065,    0.000000
 808.942695,    0.000000
 809.004205,    0.000000
 809.021375,    0.000000
 809.049522,    0.000000
 809.060175,    0.000000
 809.065954,    0.000000
 809.073067,    0.000000
 809.076975,    0.000000
 809.077585,    0.000000
 809.078202,    0.000000
 809.084366,    0.000000
 809.146009,    0.000000
 809.559784,    0.000000
 811.411437,    0.000000
 817.282348,    0.000000
 824.714878,    0.000000
 832.231025,    0.000000
 839.784164,    0.000000
 847.411695,    0.000000
 855.082766,    0.000000
 862.776059,    0.000000
 870.539003,    0.000000
 878.343009,    0.000000
 886.195109,    0.000000
 894.097551,    0.000000
 902.024174,    0.000000
 909.978162,    0.000000
 918.013065,    0.000000
 926.116774,    0.000000
 934.248134,    0.000000
 942.416133,    0.000000
 950.633954,    0.000000
 958.884321,    0.000000
 967.200912,    0.000000
 975.572747,    0.000000
 983.974090,    0.000000
 992.414281,    0.000000
1000.930845,    0.000000
1009.467284,    0.000000
1018.051158,    0.000000
1026.680432,    0.000000
1035.371577,    0.000000
1044.110373,    0.000000
1052.904566,    0.000000
1061.733194,    0.000000
1070.604790,    0.000000
1079.548287,    0.000000
1088.515443,    0.000000
1097.550069,    0.000000
1106.642087,    0.000000
1115.761802,    0.000000
1124.947617,    0.000000
1134.192580,    0.000000
1143.486134,    0.000000
1152.841200,    0.000000
1162.250039,    0.000000
1171.694995,    0.000000
1181.189753,    0.000000
1190.730715,    0.000000
1200.325779,    0.000000
1209.972380,    0.000000
1219.648721,    0.000000
1229.405294,    0.000000
1239.209000,    0.000000
1249.056819,    0.000000
1258.963183,    0.000000
1268.909412,    0.000000
1278.928015,    0.000000
1288.987705,    0.000000
1299.098963,    0.000000
1309.273004,    0.000000
1319.465866,    0.000000
1329.724158,    0.000000
1340.038699,    0.000000
1350.396158,    0.000000
1360.823467,    0.000000
1371.295733,    0.000000
1381.859336,    0.000000
1392.462579,    0.000000
1403.084166,    0.000000
1413.792707,    0.000000
1424.549996,    0.000000
1435.306356,    0.000000
1446.117147,    0.000000
1456.998933,    0.000000
1467.939037,    0.000000
1478.944661,    0.000000
1489.996128,    0.000000
1501.102648,    0.000000
1512.271438,    0.000000
1523.489229,    0.000000
1525.740448,    0.000000
1527.419893,    0.000000
1533.333996,    0.000000
1533.777407,    0.000000
1533.812421,    0.000000
1533.839780,    0.000000
1533.858250,    0.000000
1533.867995,    0.000000
1533.881173,    0.000000
1534.007354,    0.000000
1534.849841,    0.000000
1538.952416,    0.000000
1549.576881,    0.000000
1560.926563,    0.000000
1572.299255,    0.000000
1583.724444,    0.000000
1595.188752,    0.000000
1606.758863,    0.000000
1618.332692,    0.000000
1630.010120,    0.000000
1641.715251,    0.000000
1653.497802,    0.000000
1665.300621,    0.000000
1677.143686,    0.000000
1689.066560,    0.000000
1701.040172,    0.000000
1713.072077,    0.000000
1725.153272,    0.000000
1737.304864,    0.000000
1749.541233,    0.000000
1761.800292,    0.000000
1774.095303,    0.000000
1786.461533,    0.000000
1798.871204,    0.000000
1811.338909,    0.000000
1823.880040,    0.000000
1836.453355,    0.000000
1849.102906,    0.000000
1861.774647,    0.000000
1874.512795,    0.000000
1887.319412,    0.000000
1900.195236,    0.000000
1913.115909,    0.000000
1926.088516,    0.000000
1939.151812,    0.000000
1952.233566,    0.000000
1965.383424,    0.000000
1978.596846,    0.000000
1991.841457,    0.000000
2005.130824,    0.000000
2018.507853,    0.000000
2031.942309,    0.000000
2045.436408,    0.000000
2058.989366,    0.000000
2072.597431,    0.000000
2086.277443,    0.000000
2099.999064,    0.000000
2113.806979,    0.000000
2127.630009,    0.000000
2141.521816,    0.000000
2155.469676,    0.000000
2169.469437,    0.000000
2183.516487,    0.000000
2197.626560,    0.000000
2206.669992,    0.000000
2211.802064,    0.000000
2226.050299,    0.085572
2240.343058,    0.321900
2254.687346,    0.556093
2269.122613,    0.788280
2283.631340,    1.019107
2298.227836,    1.248287
2312.849417,    1.476047
2327.530960,    1.701414
2342.281350,    1.924949
2357.130208,    2.146794
2372.012566,    2.367396
2386.951073,    2.585789
2401.917569,    2.802328
2416.938306,    3.016622
2432.018546,    3.229068
2447.135295,    3.439753
2462.318219,    3.648370
2477.537228,    3.855347
2492.849963,    4.060284
2508.168314,    4.263969
2523.523777,    4.465241
2538.933752,    4.664543
2554.388819,    4.862120
2569.882087,    5.057865
2585.404927,    5.251708
2600.967075,    5.443563
2601.589711,    5.633572
2602.363164,    5.641091
2602.587865,    5.650426
2602.690780,    5.653137
2602.701950,    5.654378
2602.712425,    5.654513
2602.724701,    5.654639
2602.726371,    5.654787
2602.727916,    5.654807
2602.740230,    5.654826
2602.805523,    5.654974
2603.041748,    5.655762
2603.714812,    5.658611
2604.771602,    5.666725
2605.834279,    5.679459
2606.897954,    5.692253
2607.960638,    5.705049
2609.025299,    5.717823
2610.088166,    5.730609
2611.153563,    5.743363
2612.219934,    5.756138
2613.287191,    5.768913
2614.355438,    5.781688
2615.423430,    5.794465
2616.492250,    5.807228
2617.563550,    5.819991
2618.634830,    5.832772
2619.707782,    5.845542
2620.779829,    5.858322
2621.852992,    5.871081
2622.928358,    5.883842
2624.003997,    5.896619
2625.078697,    5.909388
2626.154784,    5.922136
2627.233440,    5.934889
2628.312815,    5.947663
2629.389061,    5.960434
2630.469480,    5.973157
2631.548366,    5.985920
2632.630295,    5.998653
2633.713796,    6.011412
2634.796920,    6.024179
2635.882577,    6.036931
2636.968036,    6.049701
2638.051865,    6.062459
2639.139818,    6.075187
2640.229153,    6.087953
2641.319190,    6.100724
2642.410353,    6.113493
2643.500070,    6.126265
2644.590260,    6.139008
2645.678178,    6.151747
2646.771377,    6.164448
2647.866381,    6.177201
2648.958040,    6.189963
2650.055833,    6.202676
2651.151869,    6.215450
2652.251537,    6.228193
2653.352668,    6.240967
2654.454253,    6.253747
2655.555357,    6.266522
2656.655845,    6.279280
2657.757172,    6.292021
2658.863128,    6.304761
2659.965727,    6.317543
2661.073572,    6.330276
2662.183640,    6.343058
2663.291093,    6.355856
2664.402211,    6.368612
2665.515418,    6.381400
2666.624855,    6.394201
2667.738748,    6.406948
2668.856044,    6.419735
2669.970236,    6.432551
2671.087308,    6.445319
2672.207552,    6.458111
2673.329599,    6.470927
2674.451720,    6.483753
2675.575147,    6.496569
2676.700133,    6.509389
2677.823089,    6.522216
2678.950296,    6.535009
2680.079356,    6.547839
2681.209151,    6.560680
2682.337291,    6.573517
2683.469509,    6.586325
2684.601812,    6.599169
2685.737564,    6.612002
2686.872166,    6.624863
2688.010235,    6.637700
2689.144838,    6.650565
2690.283620,    6.663381
2691.424648,    6.676232
2692.568872,    6.689097
2693.708229,    6.701988
2694.856897,    6.714812
2696.005840,    6.727731
2697.152348,    6.740641
2698.301515,    6.753512
2699.450716,    6.766402
2700.605278,    6.779282
2701.757961,    6.792210
2702.916058,    6.805106
2704.067929,    6.818052
2705.221689,    6.830916
2706.377527,    6.843791
2707.542620,    6.856678
2708.698499,    6.869656
2709.865340,    6.869656
2711.032751,    6.869656
2712.199619,    6.869656
2713.368577,    6.869656
2714.534890,    6.869656
2715.710225,    6.869656
2716.885715,    6.869656
2718.061431,    6.869656
2719.238232,    6.869656
2720.415251,    6.869656
2721.596171,    6.869656
2722.775352,    6.869656
2723.959061,    6.869656
2725.138681,    6.869656
2726.324994,    6.869656
2727.507753,    6.869656
2728.695004,    6.869656
2729.883906,    6.869656
2731.072365,    6.869656
2732.267013,    6.869656
2733.455149,    6.869656
2734.643139,    6.869656
2735.837192,    6.869656
2737.032081,    6.869656
2738.234945,    6.869656
2739.430141,    6.869656
2740.629156,    6.869656
2741.833345,    6.869656
2743.034125,    6.869656
2744.238471,    6.869656
2745.446223,    6.869656
2746.653723,    6.869656
2747.864531,    6.869656
2749.075594,    6.869656
2750.291051,    6.869656
2751.499162,    6.869656
2752.709806,    6.869656
2753.930551,    6.869656
2755.151182,    6.869656
2756.372671,    6.869656
2757.598684,    6.869656
2758.827964,    6.869656
2760.048972,    6.869656
2761.278834,    6.869656
2762.510783,    6.869656
2763.744791,    6.869656
2764.974615,    6.869656
2766.205581,    6.869656
2767.440164,    6.869656
2768.679873,    6.869656
2769.921224,    6.869656
2771.161493,    6.869656
2772.411049,    6.869656
2773.658969,    6.869656
2774.904101,    6.869656
2776.157790,    6.869656
2777.412140,    6.869656
2778.670014,    6.869656
2779.929420,    6.869656
2781.187078,    6.869656
2782.450335,    6.869656
2783.711621,    6.869656
2784.977510,    6.869656
2786.242510,    6.869656
2787.510499,    6.869656
2788.780804,    6.869656
2790.051643,    6.869656
2791.324853,    6.869656
2792.601707,    6.869656
2793.879448,    6.869656
2795.160765,    6.869656
2796.448644,    6.869656
2797.730555,    6.869656
2799.010498,    6.869656
2800.296711,    6.869656
2801.591269,    6.869656
2802.885889,    6.869656
2804.181823,    6.869656
2805.480267,    6.869656
2806.777016,    6.869656
2807.082632,    6.869656
2808.077594,    6.869656
2809.388142,    6.869656
2810.689911,    6.869656
2812.001970,    6.869656
2813.314068,    6.869656
2814.631292,    6.869656
2815.946576,    6.869656
2817.261875,    6.869656
2818.579410,    6.869656
2819.895887,    6.869656
2821.225589,    6.869656
2822.550738,    6.869656
2823.874833,    6.869656
2825.209415,    6.869656
2826.547725,    6.869656
2827.887927,    6.869656
2829.224690,    6.869656
2830.572720,    6.869656
2831.913025,    6.869656
2833.257799,    6.869656
2834.605667,    6.869656
2835.958019,    6.869656
2837.312422,    6.869656
2838.669347,    6.869656
2840.029233,    6.869656
2841.388507,    6.869656
2842.745653,    6.869656
2844.114866,    6.869656
2845.483233,    6.869656
2846.855417,    6.869656
2848.226698,    6.869656
2849.604659,    6.869656
2850.978689,    6.869656
2852.360400,    6.869656
2853.742190,    6.869656
2855.137593,    6.869656
2856.525526,    6.869656
2857.918515,    6.869656
2859.310231,    6.869656
2860.711716,    6.869656
2862.119342,    6.869656
2863.523870,    6.869656
2864.932515,    6.869656
2866.335551,    6.869656
2867.742770,    6.869656
2869.164296,    6.869656
2870.581528,    6.869656
2871.997542,    6.869656
2873.413777,    6.869656
2874.835557,    6.869656
2876.260612,    6.869656
2877.684782,    6.869656
2879.117840,    6.869656
2880.546633,    6.869656
2881.985982,    6.869656
2883.427776,    6.869656
2884.875861,    6.869656
2886.323734,    6.869656
2887.777667,    6.869656
2889.230975,    6.869656
2890.686689,    6.869656
2892.137046,    6.869656
2893.595132,    6.869656
2895.058457,    6.869656
2896.532864,    6.869656
2898.005571,    6.869656
2899.481268,    6.869656
2900.958955,    6.869656
2902.441603,    6.869656
2903.921903,    6.869656
2905.408938,    6.869656
2906.889361,    6.869656
2908.372381,    6.869656
2909.865782,    6.869656
2911.360160,    6.869656
2912.860279,    6.869656
2914.362301,    6.869656
2915.867805,    6.869656
2917.373372,    6.869656
2918.889612,    6.869656
2920.396058,    6.869656
2921.899686,    6.869656
2923.413828,    6.869656
2924.936188,    6.869656
2926.464698,    6.869656
2927.994079,    6.869656
2929.524335,    6.869656
2931.059394,    6.869656
2932.597282,    6.869656
2934.129785,    6.869656
2935.671927,    6.869656
2937.213158,    6.869656
2938.759815,    6.869656
2940.305768,    6.869656
2941.857642,    6.869656
2943.414672,    6.869656
2944.975435,    6.869656
2946.544857,    6.869656
2948.113803,    6.869656
2949.679210,    6.869656
2951.250579,    6.869656
2952.827492,    6.869656
2954.405339,    6.869656
2955.996502,    6.869656
2957.587724,    6.869656
2959.180493,    6.869656
2960.777697,    6.869656
2962.381911,    6.869656
2963.977608,    6.869656
2965.585011,    6.869656
2967.187834,    6.869656
2968.804738,    6.869656
2970.416780,    6.869656
2972.033617,    6.869656
2973.662519,    6.869656
2975.281578,    6.869656
2976.913383,    6.869656
2978.547088,    6.869656
2980.182524,    6.869656
2981.829900,    6.869656
2983.468334,    6.869656
2985.119960,    6.869656
2986.764361,    6.869656
2988.409222,    6.869656
2990.059735,    6.869656
2991.715557,    6.869656
2993.372093,    6.869656
2995.026352,    6.869656
2996.702947,    6.869656
2998.374458,    6.869656
3000.058953,    6.869656
3001.732291,    6.869656
3003.412336,    6.869656
3005.096203,    6.869656
3006.776194,    6.869656
3008.473730,    6.869656
3010.164464,    6.869656
3011.871038,    6.869656
3013.572675,    6.869656
3015.284775,    6.869656
3016.982425,    6.869656
3018.679727,    6.869656
3020.386448,    6.869656
3022.107068,    6.869656
3023.828562,    6.869656
3025.558345,    6.869656
3027.285094,    6.869656
3029.022263,    6.869656
3030.761270,    6.869656
3032.498163,    6.869656
3034.227630,    6.869656
3035.973365,    6.869656
3037.717044,    6.869656
3039.477260,    6.869656
3041.225903,    6.869656
3042.983827,    6.869656
3044.762787,    6.869656
3046.523343,    6.869656
3048.302091,    6.869656
3050.059235,    6.869656
3051.826552,    6.869656
3053.610119,    6.869656
3055.392944,    6.869656
3057.165813,    6.869656
3058.960843,    6.869656
3060.757319,    6.869656
3062.541695,    6.869656
3064.335988,    6.869656
3066.126496,    6.869656
3067.939023,    6.869656
3069.746147,    6.869656
3071.556193,    6.869656
3073.373116,    6.869656
3075.196698,    6.869656
3077.032554,    6.869656
3078.849891,    6.869656
3080.672077,    6.869656
3082.498770,    6.869656
3084.313666,    6.869656
3086.136949,    6.869656
3087.997005,    6.869656
3089.867044,    6.869656
3091.722060,    6.869656
3093.563640,    6.869656
3095.420831,    6.869656
3097.287767,    6.869656
3099.166776,    6.869656
3101.039317,    6.869656
3102.898819,    6.869656
3104.769143,    6.869656
3106.634153,    6.869656
3108.517312,    6.869656
3110.396205,    6.869656
3112.273546,    6.869656
3114.157866,    6.869656
3116.040515,    6.869656
3117.936160,    6.869656
3119.828648,    6.869656
3121.724198,    6.869656
3123.612718,    6.869656
3125.502801,    6.869656
3127.402113,    6.869656
3129.304996,    6.869656
3131.215576,    6.869656
3133.125287,    6.869656
3135.034596,    6.869656
3136.957437,    6.869656
3138.906696,    6.869656
3140.833576,    6.869656
3142.775785,    6.869656
3144.711107,    6.869656
3146.640050,    6.869656
3148.583880,    6.869656
3150.536955,    6.869656
3152.494575,    6.869656
3154.441220,    6.869656
3156.389741,    6.869656
3158.369111,    6.869656
3160.317675,    6.869656
3162.294572,    6.869656
3164.275486,    6.869656
3166.252555,    6.869656
3168.206478,    6.869656
3170.163009,    6.869656
3172.134177,    6.869656
3174.129131,    6.869656
3176.100608,    6.869656
3178.093643,    6.869656
3180.081108,    6.869656
3182.072470,    6.869656
3184.077258,    6.869656
3186.098746,    6.869656
3188.083755,    6.869656
3190.068768,    6.869656
3192.062818,    6.869656
3194.069707,    6.869656
3196.098289,    6.869656
3198.110780,    6.869656
3200.127889,    6.869656
3202.150022,    6.869656
3204.199440,    6.869656
3206.230157,    6.869656
3208.272224,    6.869656
3210.302612,    6.869656
3212.329493,    6.869656
3214.368696,    6.869656
3216.415491,    6.869656
3218.453778,    6.869656
3220.491629,    6.869656
3222.530380,    6.869656
3224.592339,    6.869656
3226.649908,    6.869656
3228.696832,    6.869656
3230.741355,    6.869656
3232.792168,    6.869656
3234.874926,    6.869656
3236.950539,    6.869656
3239.015560,    6.869656
3241.095515,    6.869656
3243.170082,    6.869656
3245.260618,    6.869656
3247.328300,    6.869656
3249.418143,    6.869656
3251.491907,    6.869656
3253.572498,    6.869656
3255.679286,    6.869656
3257.760573,    6.869656
3259.845498,    6.869656
3261.949967,    6.869656
3264.045259,    6.869656
3266.136098,    6.869656
3268.246413,    6.869656
3270.352880,    6.869656
3272.443576,    6.869656
3274.546463,    6.869656
3276.647119,    6.869656
3278.755096,    6.869656
3280.857426,    6.869656
3282.983886,    6.869656
3285.104015,    6.869656
3287.238249,    6.869656
3289.352759,    6.869656
3291.459395,    6.869656
3293.576871,    6.869656
3295.716370,    6.869656
3297.842531,    6.869656
3299.992496,    6.869656
3302.125342,    6.869656
3304.291014,    6.869656
3306.444200,    6.869656
3308.597365,    6.869656
3310.742538,    6.869656
3312.886918,    6.869656
3315.036320,    6.869656
3317.181293,    6.869656
3319.336987,    6.869656
3321.488956,    6.869656
3323.637388,    6.869656
3325.790709,    6.869656
3327.945505,    6.869656
3330.113277,    6.869656
3332.276437,    6.869656
3334.435029,    6.869656
3336.602535,    6.869656
3338.754893,    6.869656
3339.876635,    6.869656
