Ground Distance, Angles
   0.000000,    0.000000
   0.000002,    0.000000
   0.000046,    0.000000
   0.000376,    0.000000
   0.002553,    0.000000
   0.012585,    0.000000
   0.032383,    0.000000
   0.061656,    0.000000
   0.100461,    0.000000
   0.149130,    0.000000
   0.207070,    0.000000
   0.274937,    0.000000
   0.352830,    0.000000
   0.440081,    0.000000
   0.537514,    0.000000
   0.645830,    0.000000
   0.765178,    0.000000
   0.896597,    0.000000
   1.038758,    0.000000
   1.190977,    0.000000
   1.356497,    0.000000
   1.534364,    0.000000
   1.721009,    0.000000
   1.921872,    0.000000
   2.134007,    0.000000
   2.358404,    0.000000
   2.596374,    0.000000
   2.846648,    0.000000
   3.113157,    0.000000
   3.396714,    0.000000
   3.690256,    0.000000
   4.000032,    0.000000
   4.326707,    0.000000
   4.667577,    0.000000
   5.026323,    0.000000
   5.401221,    0.000000
   5.794361,    0.000000
   6.203044,    0.000000
   6.626407,    0.000000
   7.075397,    0.000000
   7.535360,    0.000000
   8.016321,    0.000000
   8.516797,    0.000000
   9.035047,    0.000000
   9.578491,    0.000000
  10.143150,    0.000000
  10.734546,    0.000000
  11.333635,    0.000000
  11.962119,    0.000000
  12.615130,    0.000000
  13.290196,    0.000000
  13.977405,    0.000000
  14.683242,    0.000000
  15.424207,    0.000000
  16.188451,    0.000000
  16.973385,    0.000000
  17.785118,    0.000000
  18.624408,    0.000000
  19.500588,    0.000000
  20.390952,    0.000000
  21.301133,    0.000000
  22.248662,    0.000000
  23.214058,    0.000000
  24.220496,    0.000000
  25.251295,    0.000000
  26.306887,    0.000000
  27.394341,    0.000000
  28.508861,    0.000000
  29.643319,    0.000000
  30.802905,    0.000000
  32.014418,    0.000000
  33.243721,    0.000000
  34.516393,    0.000000
  35.816505,    0.000000
  37.147989,    0.000000
  38.511054,    0.000000
  39.916179,    0.000000
  41.351940,    0.000000
  42.802080,    0.000000
  44.313919,    0.000000
  45.842344,    0.000000
  47.391671,    0.000000
  49.006435,    0.000000
  50.661586,    0.000000
  52.364539,    0.000000
  54.084147,    0.000000
  55.853664,    0.000000
  57.638606,    0.000000
  59.486738,    0.000000
  61.364053,    0.000000
  63.269961,    0.000000
  65.213969,    0.000000
  67.211340,    0.000000
  69.243139,    0.000000
  71.314173,    0.000000
  73.447559,    0.000000
  75.603965,    0.000000
  77.804726,    0.000000
  80.049289,    0.000000
  82.353356,    0.000000
  82.445521,    0.000000
  82.521055,    0.000000
  82.581397,    0.000000
  82.623342,    0.000000
  82.660074,    0.000000
  82.693790,    0.000000
  82.723750,    0.000000
  82.729417,    0.000000
  82.736951,    0.000000
  82.745671,    0.000000
  82.747965,    0.000000
  82.748707,    0.000000
  82.749575,    0.000000
  82.749749,    0.000000
  82.749934,    0.000000
  82.751788,    0.000000
  82.769992,    0.000000
  82.878365,    0.000000
  83.308201,    0.000000
  84.449496,    0.000000
  86.564818,    0.000000
  88.706444,    0.000000
  90.878196,    0.000000
  93.092185,    0.000000
  95.343267,    0.000000
  97.631953,    0.000000
  99.955083,    0.000000
 102.321495,    0.000000
 104.729915,    0.000000
 107.166281,    0.000000
 109.644416,    0.000000
 112.167136,    0.000000
 114.706665,    0.000000
 117.301134,    0.000000
 119.949949,    0.000000
 122.635928,    0.000000
 125.359743,    0.000000
 128.112292,    0.000000
 130.895785,    0.000000
 133.735402,    0.000000
 136.618575,    0.000000
 139.557939,    0.000000
 142.539528,    0.000000
 145.581762,    0.000000
 148.639105,    0.000000
 151.727080,    0.000000
 154.872015,    0.000000
 158.059020,    0.000000
 161.302835,    0.000000
 164.588963,    0.000000
 167.886058,    0.000000
 171.244830,    0.000000
 174.677550,    0.000000
 178.127425,    0.000000
 181.640549,    0.000000
 185.192224,    0.000000
 188.784982,    0.000000
 192.428819,    0.000000
 196.113753,    0.000000
 199.846938,    0.000000
 203.633096,    0.000000
 207.452555,    0.000000
 211.329511,    0.000000
 215.262237,    0.000000
 219.257362,    0.000000
 223.288588,    0.000000
 227.378552,    0.000000
 231.491732,    0.000000
 235.651824,    0.000000
 239.872340,    0.000000
 244.152548,    0.000000
 248.488686,    0.000000
 252.896744,    0.000000
 257.333854,    0.000000
 261.804987,    0.000000
 266.323435,    0.000000
 270.931016,    0.000000
 275.576231,    0.000000
 280.256017,    0.000000
 284.986260,    0.000000
 289.782814,    0.000000
 294.660125,    0.000000
 299.556143,    0.000000
 304.510130,    0.000000
 309.487865,    0.000000
 314.571602,    0.000000
 319.712665,    0.000000
 324.908271,    0.000000
 330.134880,    0.000000
 335.443173,    0.000000
 340.819772,    0.000000
 341.899590,    0.000000
 342.660382,    0.000000
 342.768602,    0.000000
 342.877250,    0.000000
 342.974492,    0.000000
 342.993955,    0.000000
 342.995696,    0.000000
 342.996704,    0.000000
 342.997155,    0.000000
 342.997575,    0.000000
 343.001774,    0.000000
 343.043768,    0.000000
 343.295901,    0.000000
 344.531798,    0.000000
 349.554410,    0.000000
 354.426014,    0.000000
 359.355393,    0.000000
 364.336251,    0.000000
 369.327202,    0.000000
 374.399065,    0.000000
 379.529586,    0.000000
 384.672284,    0.000000
 389.865509,    0.000000
 395.122076,    0.000000
 400.425485,    0.000000
 405.764152,    0.000000
 411.173475,    0.000000
 416.603692,    0.000000
 422.094171,    0.000000
 427.630351,    0.000000
 433.207821,    0.000000
 438.840812,    0.000000
 444.537226,    0.000000
 450.282219,    0.000000
 456.049128,    0.000000
 461.873889,    0.000000
 467.741413,    0.000000
 473.646629,    0.000000
 479.637907,    0.000000
 485.670506,    0.000000
 491.749193,    0.000000
 497.869533,    0.000000
 504.078409,    0.000000
 510.333090,    0.000000
 516.617305,    0.000000
 522.961715,    0.000000
 529.342177,    0.000000
 535.760376,    0.000000
 542.243394,    0.000000
 548.788349,    0.000000
 555.403559,    0.000000
 562.069924,    0.000000
 568.776288,    0.000000
 575.567835,    0.000000
 582.392935,    0.000000
 589.255248,    0.000000
 596.166354,    0.000000
 603.144963,    0.000000
 610.162099,    0.000000
 617.245510,    0.000000
 624.373434,    0.000000
 631.578769,    0.000000
 638.809188,    0.000000
 646.114803,    0.000000
 653.463132,    0.000000
 660.878239,    0.000000
 668.331201,    0.000000
 675.862065,    0.000000
 683.451663,    0.000000
 691.071016,    0.000000
 698.767425,    0.000000
 706.524550,    0.000000
 714.311348,    0.000000
 722.146303,    0.000000
 730.070298,    0.000000
 738.059390,    0.000000
 746.074981,    0.000000
 754.184274,    0.000000
 762.319750,    0.000000
 770.490648,    0.000000
 778.751570,    0.000000
 787.078800,    0.000000
 795.464783,    0.000000
 803.905314,    0.000000
 805.596692,    0.000000
 807.004496,    0.000000
 807.956917,    0.000000
 808.759890,    0.000000
 808.908065,    0.000000
 808.942695,    0.000000
 809.004205,    0.000000
 809.021375,    0.000000
 809.049522,    0.000000
 809.060175,    0.000000
 809.065954,    0.000000
 809.073067,    0.000000
 809.076975,    0.000000
 809.077585,    0.000000
 809.078202,    0.000000
 809.084366,    0.000000
 809.146009,    0.000000
 809.559784,    0.000000
 811.411437,    0.000000
 817.282348,    0.000000
 824.714878,    0.000000
 832.231025,    0.000000
 839.784164,    0.000000
 847.411695,    0.000000
 855.082766,    0.000000
 862.776059,    0.000000
 870.539003,    0.000000
 878.343009,    0.000000
 886.195109,    0.000000
 894.097551,    0.000000
 902.024174,    0.000000
 909.978162,    0.000000
 918.013065,    0.000000
 926.116774,    0.000000
 934.248134,    0.000000
 942.416133,    0.000000
 950.633954,    0.000000
 958.884321,    0.000000
 967.200912,    0.000000
 975.572747,    0.000000
 983.974090,    0.000000
 992.414281,    0.000000
1000.930845,    0.000000
1009.467284,    0.000000
1018.051158,    0.000000
1026.680432,    0.000000
1035.371577,    0.000000
1044.110373,    0.000000
1052.904566,    0.000000
1061.733194,    0.000000
1070.604790,    0.000000
1079.548287,    0.000000
1088.515443,    0.000000
1097.550069,    0.000000
1106.642087,    0.000000
1115.761802,    0.000000
1124.947617,    0.000000
1134.192580,    0.000000
1143.486134,    0.000000
1152.841200,    0.000000
1162.250039,    0.000000
1171.694995,    0.000000
1181.189753,    0.000000
1190.730715,    0.000000
1200.325779,    0.000000
1209.972380,    0.000000
1219.648721,    0.000000
1229.405294,    0.000000
1239.209000,    0.000000
1249.056819,    0.000000
1258.963183,    0.000000
1268.909412,    0.000000
1278.928015,    0.000000
1288.987705,    0.000000
1299.098963,    0.000000
1309.273004,    0.000000
1319.465866,    0.000000
1329.724158,    0.000000
1340.038699,    0.000000
1350.396158,    0.000000
1360.823467,    0.000000
1371.295733,    0.000000
1381.859336,    0.000000
1392.462579,    0.000000
1403.084166,    0.000000
1413.792707,    0.000000
1424.549996,    0.000000
1435.306356,    0.000000
1446.117147,    0.000000
1456.998933,    0.000000
1467.939037,    0.000000
1478.944661,    0.000000
1489.996128,    0.000000
1501.102648,    0.000000
1512.271438,    0.000000
1523.489229,    0.000000
1525.740448,    0.000000
1527.419893,    0.000000
1533.333996,    0.000000
1533.777407,    0.000000
1533.812421,    0.000000
1533.839780,    0.000000
1533.858250,    0.000000
1533.867995,    0.000000
1533.881173,    0.000000
1534.007354,    0.000000
1534.849841,    0.000000
1538.952416,    0.000000
1549.576881,    0.000000
1560.926563,    0.000000
1572.299255,    0.000000
1583.724444,    0.000000
1595.188752,    0.000000
1606.758863,    0.000000
1618.332692,    0.000000
1630.010120,    0.000000
1641.715251,    0.000000
1653.497802,    0.000000
1665.300621,    0.000000
1677.143686,    0.000000
1689.066560,    0.000000
1701.040172,    0.000000
1713.072077,    0.000000
1725.153272,    0.000000
1737.304864,    0.000000
1749.541233,    0.000000
1761.800292,    0.000000
1774.095303,    0.000000
1786.461533,    0.000000
1798.871204,    0.000000
1811.338909,    0.000000
1823.880040,    0.000000
1836.453355,    0.000000
1849.102906,    0.000000
1861.774647,    0.000000
1874.512795,    0.000000
1887.319412,    0.000000
1900.195236,    0.000000
1913.115909,    0.000000
1926.088516,    0.000000
1939.151812,    0.000000
1952.233566,    0.000000
1965.383424,    0.000000
1978.596846,    0.000000
1991.841457,    0.000000
2005.130824,    0.000000
2018.507853,    0.000000
2031.942309,    0.000000
2045.436408,    0.000000
2058.989366,    0.000000
2072.597431,    0.000000
2086.277443,    0.000000
2099.999064,    0.000000
2113.806979,    0.000000
2127.630009,    0.000000
2141.521816,    0.000000
2155.469676,    0.000000
2169.469437,    0.000000
2183.516487,    0.000000
2197.626560,    0.000000
2206.669992,    0.000000
2211.802064,    0.000000
2226.050299,    0.000000
2240.343058,    0.000000
2254.687346,    0.000000
2269.122613,    0.000000
2283.631340,    0.000000
2298.227836,    0.000000
2312.849417,    0.000000
2327.530960,    0.000000
2342.281350,    0.000000
2357.130208,    0.000000
2372.012566,    0.000000
2386.951073,    0.000000
2401.917569,    0.000000
2416.938306,    0.000000
2432.018546,    0.000000
2447.135295,    0.000000
2462.318219,    0.000000
2477.537228,    0.000000
2492.849963,    0.000000
2508.168314,    0.000000
2523.523777,    0.000000
2538.933752,    0.000000
2554.388819,    0.000000
2569.882087,    0.000000
2585.404927,    0.000000
2600.967075,    0.000000
2601.589711,    0.000000
2602.363164,    0.000000
2602.587865,    0.000286
2602.690780,    0.000419
2602.701950,    0.000433
2602.712425,    0.000447
2602.724701,    0.000463
2602.726371,    0.000465
2602.727916,    0.000467
2602.740230,    0.000483
2602.805523,    0.000567
2603.041748,    0.000874
2603.714812,    0.001758
2604.771602,    0.003186
2605.834279,    0.004680
2606.897954,    0.006235
2607.960638,    0.007847
2609.025299,    0.009520
2610.088166,    0.011249
2611.153563,    0.013041
2612.219934,    0.014893
2613.287191,    0.016806
2614.355438,    0.018779
2615.423430,    0.020810
2616.492250,    0.022902
2617.563550,    0.025057
2618.634830,    0.027272
2619.707782,    0.029548
2620.779829,    0.031882
2621.852992,    0.034277
2622.928358,    0.036737
2624.003997,    0.039255
2625.078697,    0.041831
2626.154784,    0.044469
2627.233440,    0.047173
2628.312815,    0.049937
2629.389061,    0.052753
2630.469480,    0.055638
2631.548366,    0.058579
2632.630295,    0.061587
2633.713796,    0.064659
2634.796920,    0.067789
2635.882577,    0.070986
2636.968036,    0.074242
2638.051865,    0.077552
2639.139818,    0.080934
2640.229153,    0.084380
2641.319190,    0.087889
2642.410353,    0.091460
2643.500070,    0.095086
2644.590260,    0.098774
2645.678178,    0.102513
2646.771377,    0.106330
2647.866381,    0.110213
2648.958040,    0.114144
2650.055833,    0.118157
2651.151869,    0.122223
2652.251537,    0.126363
2653.352668,    0.130568
2654.454253,    0.134835
2655.555357,    0.139161
2656.655845,    0.143544
2657.757172,    0.147990
2658.863128,    0.152516
2659.965727,    0.157088
2661.073572,    0.161742
2662.183640,    0.166466
2663.291093,    0.171239
2664.402211,    0.176088
2665.515418,    0.181008
2666.624855,    0.185971
2667.738748,    0.191015
2668.856044,    0.196135
2669.970236,    0.201302
2671.087308,    0.206543
2672.207552,    0.211860
2673.329599,    0.217247
2674.451720,    0.222696
2675.575147,    0.228212
2676.700133,    0.233797
2677.823089,    0.239434
2678.950296,    0.245153
2680.079356,    0.250943
2681.209151,    0.256799
2682.337291,    0.262707
2683.469509,    0.268699
2684.601812,    0.274753
2685.737564,    0.280887
2686.872166,    0.287077
2688.010235,    0.293348
2689.144838,    0.299662
2690.283620,    0.306061
2691.424648,    0.312535
2692.568872,    0.319090
2693.708229,    0.325678
2694.856897,    0.332384
2696.005840,    0.339153
2697.152348,    0.345971
2698.301515,    0.352868
2699.450716,    0.359827
2700.605278,    0.366882
2701.757961,    0.373989
2702.916058,    0.381192
2704.067929,    0.388419
2705.221689,    0.395721
2706.377527,    0.403099
2707.542620,    0.410599
2708.698499,    0.418104
2709.865340,    0.425697
2711.032751,    0.433311
2712.199619,    0.440939
2713.368577,    0.448599
2714.534890,    0.456258
2715.710225,    0.463994
2716.885715,    0.471749
2718.061431,    0.479522
2719.238232,    0.487320
2720.415251,    0.495138
2721.596171,    0.502998
2722.775352,    0.510865
2723.959061,    0.518780
2725.138681,    0.526684
2726.324994,    0.534652
2727.507753,    0.542612
2728.695004,    0.550621
2729.883906,    0.558658
2731.072365,    0.566710
2732.267013,    0.574822
2733.455149,    0.582907
2734.643139,    0.591008
2735.837192,    0.599169
2737.032081,    0.607353
2738.234945,    0.615609
2739.430141,    0.623830
2740.629156,    0.632095
2741.833345,    0.640414
2743.034125,    0.648726
2744.238471,    0.657082
2745.446223,    0.665478
2746.653723,    0.673891
2747.864531,    0.682344
2749.075594,    0.690817
2750.291051,    0.699339
2751.499162,    0.707827
2752.709806,    0.716350
2753.930551,    0.724962
2755.151182,    0.733592
2756.372671,    0.742245
2757.598684,    0.750949
2758.827964,    0.759694
2760.048972,    0.768398
2761.278834,    0.777183
2762.510783,    0.786001
2763.744791,    0.794852
2764.974615,    0.803691
2766.205581,    0.812556
2767.440164,    0.821465
2768.679873,    0.830429
2769.921224,    0.839423
2771.161493,    0.848428
2772.411049,    0.857518
2773.658969,    0.866615
2774.904101,    0.875709
2776.157790,    0.884884
2777.412140,    0.894083
2778.670014,    0.903326
2779.929420,    0.912598
2781.187078,    0.921876
2782.450335,    0.931214
2783.711621,    0.940555
2784.977510,    0.949950
2786.242510,    0.959356
2787.510499,    0.968802
2788.780804,    0.978285
2790.051643,    0.987790
2791.324853,    0.997331
2792.601707,    1.006918
2793.879448,    1.016530
2795.160765,    1.026188
2796.448644,    1.035914
2797.730555,    1.045614
2799.010498,    1.055318
2800.296711,    1.065087
2801.591269,    1.074939
2802.885889,    1.084810
2804.181823,    1.094710
2805.480267,    1.104648
2806.777016,    1.114592
2807.082632,    1.116939
2808.077594,    1.124585
2809.388142,    1.134672
2810.689911,    1.144712
2812.001970,    1.154849
2813.314068,    1.165006
2814.631292,    1.175222
2815.946576,    1.185442
2817.261875,    1.195681
2818.579410,    1.205956
2819.895887,    1.216242
2821.225589,    1.226651
2822.550738,    1.237044
2823.874833,    1.247447
2825.209415,    1.257952
2826.547725,    1.268506
2827.887927,    1.279094
2829.224690,    1.289675
2830.572720,    1.300364
2831.913025,    1.311011
2833.257799,    1.321713
2834.605667,    1.332460
2835.958019,    1.343261
2837.312422,    1.354099
2838.669347,    1.364976
2840.029233,    1.375897
2841.388507,    1.386833
2842.745653,    1.397771
2844.114866,    1.408826
2845.483233,    1.419894
2846.855417,    1.431013
2848.226698,    1.442144
2849.604659,    1.453349
2850.978689,    1.464542
2852.360400,    1.475818
2853.742190,    1.487114
2855.137593,    1.498542
2856.525526,    1.509928
2857.918515,    1.521376
2859.310231,    1.532834
2860.711716,    1.544392
2862.119342,    1.556022
2863.523870,    1.567646
2864.932515,    1.579324
2866.335551,    1.590976
2867.742770,    1.602683
2869.164296,    1.614530
2870.581528,    1.626361
2871.997542,    1.638203
2873.413777,    1.650066
2874.835557,    1.661997
2876.260612,    1.673975
2877.684782,    1.685966
2879.117840,    1.698053
2880.546633,    1.710124
2881.985982,    1.722305
2883.427776,    1.734528
2884.875861,    1.746824
2886.323734,    1.759140
2887.777667,    1.771528
2889.230975,    1.783931
2890.686689,    1.796376
2892.137046,    1.808796
2893.595132,    1.821303
2895.058457,    1.833876
2896.532864,    1.846565
2898.005571,    1.859260
2899.481268,    1.872003
2900.958955,    1.884784
2902.441603,    1.897629
2903.921903,    1.910475
2905.408938,    1.923401
2906.889361,    1.936290
2908.372381,    1.949223
2909.865782,    1.962268
2911.360160,    1.975342
2912.860279,    1.988488
2914.362301,    2.001673
2915.867805,    2.014909
2917.373372,    2.028167
2918.889612,    2.041541
2920.396058,    2.054850
2921.899686,    2.068155
2923.413828,    2.081575
2924.936188,    2.095089
2926.464698,    2.108679
2927.994079,    2.122299
2929.524335,    2.135948
2931.059394,    2.149662
2932.597282,    2.163423
2934.129785,    2.177158
2935.671927,    2.191001
2937.213158,    2.204857
2938.759815,    2.218784
2940.305768,    2.232726
2941.857642,    2.246743
2943.414672,    2.260829
2944.975435,    2.274971
2946.544857,    2.289214
2948.113803,    2.303474
2949.679210,    2.317724
2951.250579,    2.332050
2952.827492,    2.346449
2954.405339,    2.360879
2955.996502,    2.375453
2957.587724,    2.390050
2959.180493,    2.404683
2960.777697,    2.419380
2962.381911,    2.434164
2963.977608,    2.448891
2965.585011,    2.463749
2967.187834,    2.478588
2968.804738,    2.493579
2970.416780,    2.508548
2972.033617,    2.523583
2973.662519,    2.538754
2975.281578,    2.553856
2976.913383,    2.569099
2978.547088,    2.584383
2980.182524,    2.599706
2981.829900,    2.615164
2983.468334,    2.630561
2985.119960,    2.646104
2986.764361,    2.661603
2988.409222,    2.677128
2990.059735,    2.692730
2991.715557,    2.708405
2993.372093,    2.724109
2995.026352,    2.739815
2996.702947,    2.755756
2998.374458,    2.771672
3000.058953,    2.787734
3001.732291,    2.803713
3003.412336,    2.819780
3005.096203,    2.835906
3006.776194,    2.852018
3008.473730,    2.868322
3010.164464,    2.884583
3011.871038,    2.901020
3013.572675,    2.917433
3015.284775,    2.933971
3016.982425,    2.950392
3018.679727,    2.966832
3020.386448,    2.983387
3022.107068,    3.000101
3023.828562,    3.016846
3025.558345,    3.033695
3027.285094,    3.050538
3029.022263,    3.067507
3030.761270,    3.084517
3032.498163,    3.101530
3034.227630,    3.118493
3035.973365,    3.135639
3037.717044,    3.152789
3039.477260,    3.170125
3041.225903,    3.187371
3042.983827,    3.204731
3044.762787,    3.222324
3046.523343,    3.239758
3048.302091,    3.257396
3050.059235,    3.274843
3051.826552,    3.292415
3053.610119,    3.310172
3055.392944,    3.327945
3057.165813,    3.345643
3058.960843,    3.363586
3060.757319,    3.381567
3062.541695,    3.399450
3064.335988,    3.417457
3066.126496,    3.435449
3067.939023,    3.453686
3069.746147,    3.471892
3071.556193,    3.490152
3073.373116,    3.508505
3075.196698,    3.526949
3077.032554,    3.545541
3078.849891,    3.563970
3080.672077,    3.582471
3082.498770,    3.601042
3084.313666,    3.619516
3086.136949,    3.638099
3087.997005,    3.657081
3089.867044,    3.676189
3091.722060,    3.695168
3093.563640,    3.714034
3095.420831,    3.733082
3097.287767,    3.752255
3099.166776,    3.771576
3101.039317,    3.790855
3102.898819,    3.810023
3104.769143,    3.829327
3106.634153,    3.848599
3108.517312,    3.868083
3110.396205,    3.887546
3112.273546,    3.907017
3114.157866,    3.926584
3116.040515,    3.946157
3117.936160,    3.965889
3119.828648,    3.985612
3121.724198,    4.005391
3123.612718,    4.025120
3125.502801,    4.044888
3127.402113,    4.064776
3129.304996,    4.084725
3131.215576,    4.104779
3133.125287,    4.124847
3135.034596,    4.144934
3136.957437,    4.165187
3138.906696,    4.185742
3140.833576,    4.206085
3142.775785,    4.226613
3144.711107,    4.247092
3146.640050,    4.267527
3148.583880,    4.288144
3150.536955,    4.308882
3152.494575,    4.329692
3154.441220,    4.350408
3156.389741,    4.371168
3158.369111,    4.392281
3160.317675,    4.413088
3162.294572,    4.434221
3164.275486,    4.455421
3166.252555,    4.476603
3168.206478,    4.497560
3170.163009,    4.518568
3172.134177,    4.539757
3174.129131,    4.561224
3176.100608,    4.582462
3178.093643,    4.603955
3180.081108,    4.625411
3182.072470,    4.646932
3184.077258,    4.668622
3186.098746,    4.690515
3188.083755,    4.712037
3190.068768,    4.733581
3192.062818,    4.755245
3194.069707,    4.777072
3196.098289,    4.799158
3198.110780,    4.821092
3200.127889,    4.843098
3202.150022,    4.865182
3204.199440,    4.887587
3206.230157,    4.909811
3208.272224,    4.932182
3210.302612,    4.954447
3212.329493,    4.976696
3214.368696,    4.999103
3216.415491,    5.021616
3218.453778,    5.044057
3220.491629,    5.066516
3222.530380,    5.089007
3224.592339,    5.111776
3226.649908,    5.134519
3228.696832,    5.157167
3230.741355,    5.179810
3232.792168,    5.202544
3234.874926,    5.225654
3236.950539,    5.248708
3239.015560,    5.271665
3241.095515,    5.294811
3243.170082,    5.317918
3245.260618,    5.341225
3247.328300,    5.364299
3249.418143,    5.387642
3251.491907,    5.410826
3253.572498,    5.434109
3255.679286,    5.457706
3257.760573,    5.481039
3259.845498,    5.504433
3261.949967,    5.528069
3264.045259,    5.551622
3266.136098,    5.575146
3268.246413,    5.598911
3270.352880,    5.622653
3272.443576,    5.646238
3274.546463,    5.669981
3276.647119,    5.693719
3278.755096,    5.717561
3280.857426,    5.741360
3282.983886,    5.765452
3285.104015,    5.789493
3287.238249,    5.813714
3289.352759,    5.837732
3291.459395,    5.861680
3293.576871,    5.885771
3295.716370,    5.910134
3297.842531,    5.934364
3299.992496,    5.958886
3302.125342,    5.983232
3304.291014,    6.007973
3306.444200,    6.032592
3308.597365,    6.057230
3310.742538,    6.081796
3312.886918,    6.106373
3315.036320,    6.131026
3317.181293,    6.155648
3319.336987,    6.180413
3321.488956,    6.205154
3323.637388,    6.229873
3325.790709,    6.254667
3327.945505,    6.279497
3330.113277,    6.304495
3332.276437,    6.329459
3334.435029,    6.354389
3336.602535,    6.379440
3338.754893,    6.404334
3339.876635,    6.417316
