Ground Distance, Angles
   0.000000,    0.000000
   0.000002,    0.000000
   0.000020,    0.000000
   0.000267,    0.000000
   0.002293,    0.000000
   0.011378,    0.000000
   0.030457,    0.000000
   0.058924,    0.000000
   0.097099,    0.000000
   0.144760,    0.000000
   0.201944,    0.000000
   0.269024,    0.000000
   0.345964,    0.000000
   0.433052,    0.000000
   0.530664,    0.000000
   0.638166,    0.000000
   0.757591,    0.000000
   0.887552,    0.000000
   1.027472,    0.000000
   1.178098,    0.000000
   1.340360,    0.000000
   1.514952,    0.000000
   1.705723,    0.000000
   1.907138,    0.000000
   2.121675,    0.000000
   2.348901,    0.000000
   2.587560,    0.000000
   2.835495,    0.000000
   3.101120,    0.000000
   3.378479,    0.000000
   3.672517,    0.000000
   3.978115,    0.000000
   4.304465,    0.000000
   4.642290,    0.000000
   5.003336,    0.000000
   5.377695,    0.000000
   5.767754,    0.000000
   6.184331,    0.000000
   6.613627,    0.000000
   7.060837,    0.000000
   7.527825,    0.000000
   8.011365,    0.000000
   8.510458,    0.000000
   9.036428,    0.000000
   9.569152,    0.000000
  10.129735,    0.000000
  10.704994,    0.000000
  11.310352,    0.000000
  11.931912,    0.000000
  12.585931,    0.000000
  13.256776,    0.000000
  13.946754,    0.000000
  14.654576,    0.000000
  15.397560,    0.000000
  16.156249,    0.000000
  16.941870,    0.000000
  17.758612,    0.000000
  18.615743,    0.000000
  19.482003,    0.000000
  20.382617,    0.000000
  21.300067,    0.000000
  22.250368,    0.000000
  23.227163,    0.000000
  24.223255,    0.000000
  25.253386,    0.000000
  26.301741,    0.000000
  27.385702,    0.000000
  28.495083,    0.000000
  29.638243,    0.000000
  30.819994,    0.000000
  32.029021,    0.000000
  33.274288,    0.000000
  34.529539,    0.000000
  35.838536,    0.000000
  37.169749,    0.000000
  38.548738,    0.000000
  39.940000,    0.000000
  41.381748,    0.000000
  42.852704,    0.000000
  44.351258,    0.000000
  45.902284,    0.000000
  47.466314,    0.000000
  49.077288,    0.000000
  50.711205,    0.000000
  52.407392,    0.000000
  54.118581,    0.000000
  55.869768,    0.000000
  57.660099,    0.000000
  59.497335,    0.000000
  61.359540,    0.000000
  63.276706,    0.000000
  65.240895,    0.000000
  67.239266,    0.000000
  69.276450,    0.000000
  71.348065,    0.000000
  73.459036,    0.000000
  75.619959,    0.000000
  77.810609,    0.000000
  80.060362,    0.000000
  82.373047,    0.000000
  82.464978,    0.000000
  82.528172,    0.000000
  82.584706,    0.000000
  82.630209,    0.000000
  82.682746,    0.000000
  82.722415,    0.000000
  82.730814,    0.000000
  82.742058,    0.000000
  82.744500,    0.000000
  82.748434,    0.000000
  82.749713,    0.000000
  82.749971,    0.000000
  82.750516,    0.000000
  82.755967,    0.000000
  82.799115,    0.000000
  82.993301,    0.000000
  83.657283,    0.000000
  85.304944,    0.000000
  87.408976,    0.000000
  89.575477,    0.000000
  91.781402,    0.000000
  94.009013,    0.000000
  96.279594,    0.000000
  98.601223,    0.000000
 100.949193,    0.000000
 103.326500,    0.000000
 105.759384,    0.000000
 108.223956,    0.000000
 110.725641,    0.000000
 113.260361,    0.000000
 115.843209,    0.000000
 118.473432,    0.000000
 121.124297,    0.000000
 123.811402,    0.000000
 126.526812,    0.000000
 129.303158,    0.000000
 132.127902,    0.000000
 134.985553,    0.000000
 137.887877,    0.000000
 140.836617,    0.000000
 143.824210,    0.000000
 146.871203,    0.000000
 149.933986,    0.000000
 153.032435,    0.000000
 156.197309,    0.000000
 159.387715,    0.000000
 162.645077,    0.000000
 165.936776,    0.000000
 169.274088,    0.000000
 172.652274,    0.000000
 176.048617,    0.000000
 179.536685,    0.000000
 183.050009,    0.000000
 186.635766,    0.000000
 190.244560,    0.000000
 193.887820,    0.000000
 197.605477,    0.000000
 201.356210,    0.000000
 205.161112,    0.000000
 209.008052,    0.000000
 212.886997,    0.000000
 216.859717,    0.000000
 220.853048,    0.000000
 224.910633,    0.000000
 229.011239,    0.000000
 233.156374,    0.000000
 237.326991,    0.000000
 241.578689,    0.000000
 245.858358,    0.000000
 250.193909,    0.000000
 254.607921,    0.000000
 259.068981,    0.000000
 263.586257,    0.000000
 268.147215,    0.000000
 272.777268,    0.000000
 277.433393,    0.000000
 282.136695,    0.000000
 286.892291,    0.000000
 291.696536,    0.000000
 296.590589,    0.000000
 301.512570,    0.000000
 306.508003,    0.000000
 311.562020,    0.000000
 316.657613,    0.000000
 321.785488,    0.000000
 326.982519,    0.000000
 332.239752,    0.000000
 337.571509,    0.000000
 342.935138,    0.000000
 342.978132,    0.000000
 342.987981,    0.000000
 342.992084,    0.000000
 343.000292,    0.000000
 343.001236,    0.000000
 343.001766,    0.000000
 343.002567,    0.000000
 343.010583,    0.000000
 343.090743,    0.000000
 343.560610,    0.000000
 345.151038,    0.000000
 349.011579,    0.000000
 353.908584,    0.000000
 358.814324,    0.000000
 363.789207,    0.000000
 368.789908,    0.000000
 373.830634,    0.000000
 378.929699,    0.000000
 384.094426,    0.000000
 389.287234,    0.000000
 394.504828,    0.000000
 399.807591,    0.000000
 405.134762,    0.000000
 410.512376,    0.000000
 415.946867,    0.000000
 421.432434,    0.000000
 426.956984,    0.000000
 432.532354,    0.000000
 438.176786,    0.000000
 443.857398,    0.000000
 449.585867,    0.000000
 455.358419,    0.000000
 461.172015,    0.000000
 467.066222,    0.000000
 472.981914,    0.000000
 478.935330,    0.000000
 484.958595,    0.000000
 491.051809,    0.000000
 497.202637,    0.000000
 503.377728,    0.000000
 509.610522,    0.000000
 515.870879,    0.000000
 522.216587,    0.000000
 528.582687,    0.000000
 535.025603,    0.000000
 541.490675,    0.000000
 548.018957,    0.000000
 554.602449,    0.000000
 561.227139,    0.000000
 567.939498,    0.000000
 574.681296,    0.000000
 581.469725,    0.000000
 588.324698,    0.000000
 595.224520,    0.000000
 602.157490,    0.000000
 609.180771,    0.000000
 616.249192,    0.000000
 623.390532,    0.000000
 630.573166,    0.000000
 637.811779,    0.000000
 645.078906,    0.000000
 652.417315,    0.000000
 659.814552,    0.000000
 667.256924,    0.000000
 674.769548,    0.000000
 682.339680,    0.000000
 689.980654,    0.000000
 697.660256,    0.000000
 705.361521,    0.000000
 713.133536,    0.000000
 720.986746,    0.000000
 728.893026,    0.000000
 736.883496,    0.000000
 744.886497,    0.000000
 752.942673,    0.000000
 761.067847,    0.000000
 769.246189,    0.000000
 777.498605,    0.000000
 785.789928,    0.000000
 794.179486,    0.000000
 802.619640,    0.000000
 804.320664,    0.000000
 805.429008,    0.000000
 806.266570,    0.000000
 806.941260,    0.000000
 807.601106,    0.000000
 808.269603,    0.000000
 808.759598,    0.000000
 808.846736,    0.000000
 808.956558,    0.000000
 809.084753,    0.000000
 809.091959,    0.000000
 809.096288,    0.000000
 809.099469,    0.000000
 809.102044,    0.000000
 809.102875,    0.000000
 809.103722,    0.000000
 809.112196,    0.000000
 809.184956,    0.000000
 809.647446,    0.000000
 811.401521,    0.000000
 817.387276,    0.000000
 824.816391,    0.000000
 832.347011,    0.000000
 839.908181,    0.000000
 847.535059,    0.000000
 855.170041,    0.000000
 862.875915,    0.000000
 870.626386,    0.000000
 878.412912,    0.000000
 886.258746,    0.000000
 894.146430,    0.000000
 902.061807,    0.000000
 910.043946,    0.000000
 918.067955,    0.000000
 926.156490,    0.000000
 934.282546,    0.000000
 942.442606,    0.000000
 950.650168,    0.000000
 958.920306,    0.000000
 967.212494,    0.000000
 975.560987,    0.000000
 983.974526,    0.000000
 992.438695,    0.000000
1000.926362,    0.000000
1009.483690,    0.000000
1018.077134,    0.000000
1026.723995,    0.000000
1035.422907,    0.000000
1044.149464,    0.000000
1052.928168,    0.000000
1061.779019,    0.000000
1070.679270,    0.000000
1079.617338,    0.000000
1088.591955,    0.000000
1097.622897,    0.000000
1106.722050,    0.000000
1115.848548,    0.000000
1125.042052,    0.000000
1134.301340,    0.000000
1143.608690,    0.000000
1152.939662,    0.000000
1162.331753,    0.000000
1171.768866,    0.000000
1181.263359,    0.000000
1190.828328,    0.000000
1200.409868,    0.000000
1210.030584,    0.000000
1219.707409,    0.000000
1229.427794,    0.000000
1239.214626,    0.000000
1249.033520,    0.000000
1258.921983,    0.000000
1268.894872,    0.000000
1278.873330,    0.000000
1288.934180,    0.000000
1299.033398,    0.000000
1309.196241,    0.000000
1319.415106,    0.000000
1329.672346,    0.000000
1339.959134,    0.000000
1350.318971,    0.000000
1360.777557,    0.000000
1371.221162,    0.000000
1381.761668,    0.000000
1392.317373,    0.000000
1402.942407,    0.000000
1413.637891,    0.000000
1424.362125,    0.000000
1435.133253,    0.000000
1445.958134,    0.000000
1456.853563,    0.000000
1467.803646,    0.000000
1478.782453,    0.000000
1489.858376,    0.000000
1500.941793,    0.000000
1512.100027,    0.000000
1523.309402,    0.000000
1525.559367,    0.000000
1533.392139,    0.000000
1533.842014,    0.000000
1533.919492,    0.000000
1533.952375,    0.000000
1533.960935,    0.000000
1533.966040,    0.000000
1533.971849,    0.000000
1534.029938,    0.000000
1534.444443,    0.000000
1537.186137,    0.000000
1549.193526,    0.000000
1560.503328,    0.000000
1571.885401,    0.000000
1583.317186,    0.000000
1594.811082,    0.000000
1606.354091,    0.000000
1617.943831,    0.000000
1629.570442,    0.000000
1641.294711,    0.000000
1653.042382,    0.000000
1664.862659,    0.000000
1676.720316,    0.000000
1688.623875,    0.000000
1700.595015,    0.000000
1712.642404,    0.000000
1724.716791,    0.000000
1736.846865,    0.000000
1749.021272,    0.000000
1761.254331,    0.000000
1773.569173,    0.000000
1785.928302,    0.000000
1798.336077,    0.000000
1810.821016,    0.000000
1823.357185,    0.000000
1835.940411,    0.000000
1848.573565,    0.000000
1861.232156,    0.000000
1873.965689,    0.000000
1886.766229,    0.000000
1899.612434,    0.000000
1912.496121,    0.000000
1925.444999,    0.000000
1938.466103,    0.000000
1951.529312,    0.000000
1964.667040,    0.000000
1977.880512,    0.000000
1991.130543,    0.000000
2004.434860,    0.000000
2017.789072,    0.000000
2031.209485,    0.000000
2044.694190,    0.000000
2058.238826,    0.000000
2071.848240,    0.000000
2085.489083,    0.000000
2099.204236,    0.000000
2112.959314,    0.000000
2126.761888,    0.000000
2140.639399,    0.000000
2154.568884,    0.000000
2168.571640,    0.000000
2182.626969,    0.000000
2196.755104,    0.000000
2210.933534,    0.000000
2218.373211,    0.000000
2225.154051,    0.000000
2239.438262,    0.112801
2253.762921,    0.348886
2268.189039,    0.582770
2282.672402,    0.815458
2297.236083,    1.046230
2311.826469,    1.275461
2326.460293,    1.502316
2341.209636,    1.727080
2356.034020,    1.950865
2370.888305,    2.173043
2385.821785,    2.392949
2400.807800,    2.611329
2415.828193,    2.827799
2430.927557,    3.042115
2446.076244,    3.254927
2461.257484,    3.465824
2476.494942,    3.674592
2491.806067,    3.881575
2507.138174,    4.087020
2522.496437,    4.290233
2537.910366,    4.491310
2553.356358,    4.690661
2568.860215,    4.887994
2584.369853,    5.083660
2599.911451,    5.277019
2600.535232,    5.468429
2601.374982,    5.476027
2602.201618,    5.486251
2602.419057,    5.496309
2602.695021,    5.498953
2602.760606,    5.502308
2602.858575,    5.503105
2602.865435,    5.504296
2602.868246,    5.504379
2602.871134,    5.504413
2602.900011,    5.504449
2603.188793,    5.504799
2604.879053,    5.508309
2611.588294,    5.528844
2627.732684,    5.610216
2644.047985,    5.804858
2645.133467,    6.002322
2646.216858,    6.018370
2647.304536,    6.034456
2648.391976,    6.050641
2649.481103,    6.066877
2650.570288,    6.083182
2651.658418,    6.099533
2652.750290,    6.115933
2653.842806,    6.132428
2654.935937,    6.148982
2656.025476,    6.165579
2657.115562,    6.182185
2658.211363,    6.198867
2659.306377,    6.215662
2660.403513,    6.232505
2661.499433,    6.249417
2662.593482,    6.266356
2663.693696,    6.283347
2664.795797,    6.300466
2665.897645,    6.317655
2666.990052,    6.334853
2668.086374,    6.352005
2669.189175,    6.369279
2670.296022,    6.386694
2671.392749,    6.404162
2672.494587,    6.421584
2673.598660,    6.439123
2674.701894,    6.456734
2675.811330,    6.474412
2676.917397,    6.492196
2678.028884,    6.510015
2679.142548,    6.527957
2680.256599,    6.545975
2681.373641,    6.564061
2682.493174,    6.582244
2683.612665,    6.600505
2684.729316,    6.618802
2685.849740,    6.637134
2686.972848,    6.655574
2688.096871,    6.674099
2689.218362,    6.692672
2690.345562,    6.711295
2691.466643,    6.730002
2692.590072,    6.748701
2693.716589,    6.767494
2694.849095,    6.786405
2695.979407,    6.805422
2697.111507,    6.824475
2698.241098,    6.843584
2699.375008,    6.862740
2700.500637,    6.881947
2701.631004,    6.901139
2702.767137,    6.920467
2703.906715,    6.939932
2705.045051,    6.959478
2706.186901,    6.979083
2707.323995,    6.998749
2708.470958,    7.018472
2709.616795,    7.038351
2710.767199,    7.058296
2711.917666,    7.078344
2713.069652,    7.098454
2714.222568,    7.118639
2715.373714,    7.125954
2716.533133,    7.133338
2717.682294,    7.140674
2718.837521,    7.148067
2719.995522,    7.155494
2721.152196,    7.162929
2722.316742,    7.170433
2723.479888,    7.177945
2724.633229,    7.185410
2725.800553,    7.192983
2726.969435,    7.200584
2728.133324,    7.208169
2729.303350,    7.215812
2730.473502,    7.223473
2731.644003,    7.231153
2732.809281,    7.238817
2733.985438,    7.246569
2735.159148,    7.254322
2736.337168,    7.262121
2737.509389,    7.269899
2738.691802,    7.277763
2739.875800,    7.285654
2741.057762,    7.293549
2742.240800,    7.301468
2743.427119,    7.309427
2744.610040,    7.317381
2745.794008,    7.325359
2746.983132,    7.333389
2748.175008,    7.341455
2749.362552,    7.349509
2750.554171,    7.357608
2751.751778,    7.365766
2752.948654,    7.373936
2754.150082,    7.382155
2755.345721,    7.390352
2756.548222,    7.398613
2757.750708,    7.406892
2758.955033,    7.415201
2760.161010,    7.423539
2761.365290,    7.431884
2762.570656,    7.440253
2763.781505,    7.448678
2764.995390,    7.457141
2766.213124,    7.465650
2767.427064,    7.474149
2768.643993,    7.482688
2769.864735,    7.491270
2771.088000,    7.499889
2772.315822,    7.508557
2773.541398,    7.517228
2774.769249,    7.525932
2775.997988,    7.534661
2777.228218,    7.543418
2778.458159,    7.552192
2779.688651,    7.560986
2780.924151,    7.569835
2782.161771,    7.578717
2783.399457,    7.587617
2784.635388,    7.596523
2785.880555,    7.605513
2787.126883,    7.614530
2788.374290,    7.623573
2789.614419,    7.632580
2790.852424,    7.641591
2792.105271,    7.650727
2793.359059,    7.659889
2794.610779,    7.669053
2795.866078,    7.678262
2797.128497,    7.687541
2798.392411,    7.696850
2799.654819,    7.706166
2800.916853,    7.715497
2802.181573,    7.724867
2803.452273,    7.734299
2804.722034,    7.743743
2805.995339,    7.753231
2807.271226,    7.762758
2808.545258,    7.772288
2809.828545,    7.781907
2811.108052,    7.791515
2812.389305,    7.801156
2812.709102,    7.803565
2813.672454,    7.810829
2814.961732,    7.820566
2816.251968,    7.830330
2817.537853,    7.840079
2818.829161,    7.849889
2820.118672,    7.859702
2821.414426,    7.869582
2822.712585,    7.879500
2824.016584,    7.889480
2825.319255,    7.899469
2826.634537,    7.909574
2827.939752,    7.919620
2829.251580,    7.929736
2830.564593,    7.939881
2831.880122,    7.950063
2833.193951,    7.960251
2834.516752,    7.970528
2835.825811,    7.980717
2837.152642,    7.991063
2838.471713,    8.001368
2839.799407,    8.011759
2841.124510,    8.022148
2842.461954,    8.032654
2843.800547,    8.043188
2845.138788,    8.053738
2846.480184,    8.064333
2847.822794,    8.074956
2849.174442,    8.085671
2850.529061,    8.096428
2851.878955,    8.107168
2853.229303,    8.117930
2854.590229,    8.128796
2855.939739,    8.139591
2857.299650,    8.150488
2858.659694,    8.161405
2860.027095,    8.172401
2861.393401,    8.183408
2862.766990,    8.194494
2864.135777,    8.205560
2865.508617,    8.216678
2866.890830,    8.227892
2868.271541,    8.239114
2869.651902,    8.250353
2871.039349,    8.261669
2872.422376,    8.272969
2873.808358,    8.284313
2875.195260,    8.295684
2876.592342,    8.307159
2877.994486,    8.318695
2879.391430,    8.330209
2880.793380,    8.341783
2882.200833,    8.353423
2883.615916,    8.365147
2885.023898,    8.376832
2886.438845,    8.388594
2887.853857,    8.400378
2889.273639,    8.412221
2890.691727,    8.424071
2892.121672,    8.436040
2893.547145,    8.447991
2894.974196,    8.459977
2896.414104,    8.472090
2897.843751,    8.484138
2899.285241,    8.496306
2900.729025,    8.508515
2902.176975,    8.520778
2903.625094,    8.533064
2905.073000,    8.545369
2906.521396,    8.557699
2907.973397,    8.570079
2909.429248,    8.582513
2910.897515,    8.595074
2912.360046,    8.607607
2913.836789,    8.620283
2915.304736,    8.632904
2916.779854,    8.645607
2918.253381,    8.658318
2919.736613,    8.671133
2921.222686,    8.683994
2922.700328,    8.696803
2924.179292,    8.709645
2925.665932,    8.722574
2927.146774,    8.735473
2928.650984,    8.748597
2930.146557,    8.761667
2931.649323,    8.774821
2933.153213,    8.788006
2934.670410,    8.801329
2936.193422,    8.814725
2937.713170,    8.828113
2939.219187,    8.841402
2940.744020,    8.854878
2942.267274,    8.868362
2943.798928,    8.881942
2945.321520,    8.895463
2946.849019,    8.909049
2948.393362,    8.922806
2949.921826,    8.936444
2951.470263,    8.950281
2953.012850,    8.964088
2954.562087,    8.977976
2956.121056,    8.991973
2957.676880,    9.005964
2959.242035,    9.020060
2960.811821,    9.034221
2962.378215,    9.048373
2963.950706,    9.062602
2965.529644,    9.076911
2967.111908,    9.091273
2968.694610,    9.105661
2970.280229,    9.120098
2971.868945,    9.134585
2973.451321,    9.149037
2975.039515,    9.163564
2976.624192,    9.178080
2978.230015,    9.192813
2979.830750,    9.207521
2981.429947,    9.222238
2983.040958,    9.237085
2984.640111,    9.251846
2986.249581,    9.266723
2987.864947,    9.281678
2989.484065,    9.296690
2991.110924,    9.311796
2992.729178,    9.326845
2994.352544,    9.341964
2995.977437,    9.357119
2997.616003,    9.372424
2999.256307,    9.387768
3000.897473,    9.403143
3002.555793,    9.418702
3004.212587,    9.434269
3005.867357,    9.449840
3007.524359,    9.465455
3009.178473,    9.481065
3010.842415,    9.496791
3012.510383,    9.512577
3014.185522,    9.528455
3015.860510,    9.544354
3017.537399,    9.560294
3019.220580,    9.576317
3020.904659,    9.592372
3022.594283,    9.608503
3024.304719,    9.624855
3025.997829,    9.641066
3027.699988,    9.657386
3029.398346,    9.673693
3031.103684,    9.690090
3032.806286,    9.706483
3034.527392,    9.723079
3036.239723,    9.739613
3037.967200,    9.756316
3039.691033,    9.773008
3041.411603,    9.789691
3043.153459,    9.806605
3044.889893,    9.823489
3046.637698,    9.840508
3048.367298,    9.857372
3050.097016,    9.874261
3051.834583,    9.891249
3053.569514,    9.908235
3055.332569,    9.925520
3057.094435,    9.942817
3058.849339,    9.960069
3060.598169,    9.977284
3062.365412,    9.994704
3064.148661,   10.012306
3065.927332,   10.029886
3067.705893,   10.047489
3069.483033,   10.065102
3071.268809,   10.082823
3073.060672,   10.100629
3074.836580,   10.118300
3076.625798,   10.136126
3078.417969,   10.154006
3080.227576,   10.172083
3082.026050,   10.190073
3083.829221,   10.208133
3085.650402,   10.226397
3087.457109,   10.244540
3089.275053,   10.262820
3091.089684,   10.281090
3092.917114,   10.299512
3094.747580,   10.317989
3096.576410,   10.336473
3098.416632,   10.355096
3100.248963,   10.373663
3102.087180,   10.392313
3103.926678,   10.411000
3105.762996,   10.429679
3107.612243,   10.448512
3109.453165,   10.467284
3111.313052,   10.486273
3113.187474,   10.505435
3115.051886,   10.524518
3116.917665,   10.543639
3118.792641,   10.562878
3120.663236,   10.582096
3122.535866,   10.601358
3124.414990,   10.620711
3126.293481,   10.640081
3128.177349,   10.659530
3130.041126,   10.678795
3131.922701,   10.698267
3133.821317,   10.717940
3135.702187,   10.737452
3137.609327,   10.757260
3139.524123,   10.777171
3141.427000,   10.796982
3143.337536,   10.816897
3145.246644,   10.836820
3147.159111,   10.856802
3149.084460,   10.876942
3151.004529,   10.897050
3152.939130,   10.917334
3154.849381,   10.937386
3156.777335,   10.957648
3158.719886,   10.978086
3160.649761,   10.998414
3162.585535,   11.018828
3164.531825,   11.039376
3166.475367,   11.059919
3168.423344,   11.080532
3170.376497,   11.101223
3172.336386,   11.122009
3174.284154,   11.142689
3176.239651,   11.163475
3178.192207,   11.184252
3180.149781,   11.205106
3182.119731,   11.226115
3184.086205,   11.247109
3186.065714,   11.268267
3188.038965,   11.289380
3190.015299,   11.310549
3191.993507,   11.331762
3193.987213,   11.353163
3195.979033,   11.374568
3197.981130,   11.396106
3199.987326,   11.417711
3201.989844,   11.439300
3204.007597,   11.461076
3206.036559,   11.482997
3208.068744,   11.504975
3210.078750,   11.526737
3212.086368,   11.548496
3214.133420,   11.570705
3216.159275,   11.592707
3218.177416,   11.614648
3220.203121,   11.636694
3222.219584,   11.658661
3224.240829,   11.680703
3226.292147,   11.703096
3228.325648,   11.725317
3230.369625,   11.747674
3232.396053,   11.769862
3234.456145,   11.792441
3236.517566,   11.815057
3238.566836,   11.837562
3240.605351,   11.859971
3242.645402,   11.882419
3244.710883,   11.905168
3246.760891,   11.927769
3248.834542,   11.950653
3250.898407,   11.973450
3252.974912,   11.996410
3255.051832,   12.019396
3257.110475,   12.042201
3259.166312,   12.064996
3261.251843,   12.088142
3263.331487,   12.111245
3265.429402,   12.134572
3267.502503,   12.157645
3269.608165,   12.181102
3271.687190,   12.204283
3273.788281,   12.227732
3275.882274,   12.251123
3277.960613,   12.274360
3280.059805,   12.297851
3282.150243,   12.321265
3284.259399,   12.344909
3286.349265,   12.368359
3288.447821,   12.391926
3290.548505,   12.415537
3292.666477,   12.439364
3294.777147,   12.463129
3296.899346,   12.487045
3299.010081,   12.510852
3301.149320,   12.535001
3303.255036,   12.558792
3305.358894,   12.582582
3307.477134,   12.606554
3309.618326,   12.630806
3311.761602,   12.655103
3313.873730,   12.679066
3316.008744,   12.703308
3318.165430,   12.727817
3320.305377,   12.752155
3322.456202,   12.776637
3324.597174,   12.801026
3326.728635,   12.825326
3328.888626,   12.849971
3331.038191,   12.874517
3333.196729,   12.899184
3335.360225,   12.923927
3337.531031,   12.948774
3339.709502,   12.973727
3341.873626,   12.998536
3344.060801,   13.023627
3346.217593,   13.048390
3348.383576,   13.073276
3350.550234,   13.098189
3352.715744,   13.123107
3354.898737,   13.148244
3357.073482,   13.173306
3359.247221,   13.198374
3359.773236,   13.204443
