Ground Distance, Angles
   0.000000,    0.000000
   0.000002,    0.000000
   0.000046,    0.000000
   0.000376,    0.000000
   0.002553,    0.000000
   0.012585,    0.000000
   0.032383,    0.000000
   0.061656,    0.000000
   0.100461,    0.000000
   0.149130,    0.000000
   0.207070,    0.000000
   0.274937,    0.000000
   0.352830,    0.000000
   0.440081,    0.000000
   0.537514,    0.000000
   0.645830,    0.000000
   0.765178,    0.000000
   0.896597,    0.000000
   1.038758,    0.000000
   1.190977,    0.000000
   1.356497,    0.000000
   1.534364,    0.000000
   1.721009,    0.000000
   1.921872,    0.000000
   2.134007,    0.000000
   2.358404,    0.000000
   2.596374,    0.000000
   2.846648,    0.000000
   3.113157,    0.000000
   3.396714,    0.000000
   3.690256,    0.000000
   4.000032,    0.000000
   4.326707,    0.000000
   4.667577,    0.000000
   5.026323,    0.000000
   5.401221,    0.000000
   5.794361,    0.000000
   6.203044,    0.000000
   6.626407,    0.000000
   7.075397,    0.000000
   7.535360,    0.000000
   8.016321,    0.000000
   8.516797,    0.000000
   9.035047,    0.000000
   9.578491,    0.000000
  10.143150,    0.000000
  10.734546,    0.000000
  11.333635,    0.000000
  11.962119,    0.000000
  12.615130,    0.000000
  13.290196,    0.000000
  13.977405,    0.000000
  14.683242,    0.000000
  15.424207,    0.000000
  16.188451,    0.000000
  16.973385,    0.000000
  17.785118,    0.000000
  18.624408,    0.000000
  19.500588,    0.000000
  20.390952,    0.000000
  21.301133,    0.000000
  22.248662,    0.000000
  23.214058,    0.000000
  24.220496,    0.000000
  25.251295,    0.000000
  26.306887,    0.000000
  27.394341,    0.000000
  28.508861,    0.000000
  29.643319,    0.000000
  30.802905,    0.000000
  32.014418,    0.000000
  33.243721,    0.000000
  34.516393,    0.000000
  35.816505,    0.000000
  37.147989,    0.000000
  38.511054,    0.000000
  39.916179,    0.000000
  41.351940,    0.000000
  42.802080,    0.000000
  44.313919,    0.000000
  45.842344,    0.000000
  47.391671,    0.000000
  49.006435,    0.000000
  50.661586,    0.000000
  52.364539,    0.000000
  54.084147,    0.000000
  55.853664,    0.000000
  57.638606,    0.000000
  59.486738,    0.000000
  61.364053,    0.000000
  63.269961,    0.000000
  65.213969,    0.000000
  67.211340,    0.000000
  69.243139,    0.000000
  71.314173,    0.000000
  73.447559,    0.000000
  75.603965,    0.000000
  77.804726,    0.000000
  80.049289,    0.000000
  82.353356,    0.000000
  82.445521,    0.000000
  82.521055,    0.000000
  82.581397,    0.000000
  82.623342,    0.000000
  82.660074,    0.000000
  82.693790,    0.000000
  82.723750,    0.000000
  82.729417,    0.000000
  82.736951,    0.000000
  82.745671,    0.000000
  82.747965,    0.000000
  82.748707,    0.000000
  82.749575,    0.000000
  82.749749,    0.000000
  82.749934,    0.000000
  82.751788,    0.000000
  82.769992,    0.000000
  82.878365,    0.000000
  83.308201,    0.000000
  84.449496,    0.000000
  86.564818,    0.000000
  88.706444,    0.000000
  90.878196,    0.000000
  93.092185,    0.000000
  95.343267,    0.000000
  97.631953,    0.000000
  99.955083,    0.000000
 102.321495,    0.000000
 104.729915,    0.000000
 107.166281,    0.000000
 109.644416,    0.000000
 112.167136,    0.000000
 114.706665,    0.000000
 117.301134,    0.000000
 119.949949,    0.000000
 122.635928,    0.000000
 125.359743,    0.000000
 128.112292,    0.000000
 130.895785,    0.000000
 133.735402,    0.000000
 136.618575,    0.000000
 139.557939,    0.000000
 142.539528,    0.000000
 145.581762,    0.000000
 148.639105,    0.000000
 151.727080,    0.000000
 154.872015,    0.000000
 158.059020,    0.000000
 161.302835,    0.000000
 164.588963,    0.000000
 167.886058,    0.000000
 171.244830,    0.000000
 174.677550,    0.000000
 178.127425,    0.000000
 181.640549,    0.000000
 185.192224,    0.000000
 188.784982,    0.000000
 192.428819,    0.000000
 196.113753,    0.000000
 199.846938,    0.000000
 203.633096,    0.000000
 207.452555,    0.000000
 211.329511,    0.000000
 215.262237,    0.000000
 219.257362,    0.000000
 223.288588,    0.000000
 227.378552,    0.000000
 231.491732,    0.000000
 235.651824,    0.000000
 239.872340,    0.000000
 244.152548,    0.000000
 248.488686,    0.000000
 252.896744,    0.000000
 257.333854,    0.000000
 261.804987,    0.000000
 266.323435,    0.000000
 270.931016,    0.000000
 275.576231,    0.000000
 280.256017,    0.000000
 284.986260,    0.000000
 289.782814,    0.000000
 294.660125,    0.000000
 299.556143,    0.000000
 304.510130,    0.000000
 309.487865,    0.000000
 314.571602,    0.000000
 319.712665,    0.000000
 324.908271,    0.000000
 330.134880,    0.000000
 335.443173,    0.000000
 340.819772,    0.000000
 341.899590,    0.000000
 342.660382,    0.000000
 342.768602,    0.000000
 342.877250,    0.000000
 342.974492,    0.000000
 342.993955,    0.000000
 342.995696,    0.000000
 342.996704,    0.000000
 342.997155,    0.000000
 342.997575,    0.000000
 343.001774,    0.000000
 343.043768,    0.000000
 343.295901,    0.000000
 344.531798,    0.000000
 349.554410,    0.000000
 354.426014,    0.000000
 359.355393,    0.000000
 364.336251,    0.000000
 369.327202,    0.000000
 374.399065,    0.000000
 379.529586,    0.000000
 384.672284,    0.000000
 389.865509,    0.000000
 395.122076,    0.000000
 400.425485,    0.000000
 405.764152,    0.000000
 411.173475,    0.000000
 416.603692,    0.000000
 422.094171,    0.000000
 427.630351,    0.000000
 433.207821,    0.000000
 438.840812,    0.000000
 444.537226,    0.000000
 450.282219,    0.000000
 456.049128,    0.000000
 461.873889,    0.000000
 467.741413,    0.000000
 473.646629,    0.000000
 479.637907,    0.000000
 485.670506,    0.000000
 491.749193,    0.000000
 497.869533,    0.000000
 504.078409,    0.000000
 510.333090,    0.000000
 516.617305,    0.000000
 522.961715,    0.000000
 529.342177,    0.000000
 535.760376,    0.000000
 542.243394,    0.000000
 548.788349,    0.000000
 555.403559,    0.000000
 562.069924,    0.000000
 568.776288,    0.000000
 575.567835,    0.000000
 582.392935,    0.000000
 589.255248,    0.000000
 596.166354,    0.000000
 603.144963,    0.000000
 610.162099,    0.000000
 617.245510,    0.000000
 624.373434,    0.000000
 631.578769,    0.000000
 638.809188,    0.000000
 646.114803,    0.000000
 653.463132,    0.000000
 660.878239,    0.000000
 668.331201,    0.000000
 675.862065,    0.000000
 683.451663,    0.000000
 691.071016,    0.000000
 698.767425,    0.000000
 706.524550,    0.000000
 714.311348,    0.000000
 722.146303,    0.000000
 730.070298,    0.000000
 738.059390,    0.000000
 746.074981,    0.000000
 754.184274,    0.000000
 762.319750,    0.000000
 770.490648,    0.000000
 778.751570,    0.000000
 787.078800,    0.000000
 795.464783,    0.000000
 803.905314,    0.000000
 805.596692,    0.000000
 807.004496,    0.000000
 807.956917,    0.000000
 808.759890,    0.000000
 808.908065,    0.000000
 808.942695,    0.000000
 809.004205,    0.000000
 809.021375,    0.000000
 809.049522,    0.000000
 809.060175,    0.000000
 809.065954,    0.000000
 809.073067,    0.000000
 809.076975,    0.000000
 809.077585,    0.000000
 809.078202,    0.000000
 809.084366,    0.000000
 809.146009,    0.000000
 809.559784,    0.000000
 811.411437,    0.000000
 817.282348,    0.000000
 824.714878,    0.000000
 832.231025,    0.000000
 839.784164,    0.000000
 847.411695,    0.000000
 855.082766,    0.000000
 862.776059,    0.000000
 870.539003,    0.000000
 878.343009,    0.000000
 886.195109,    0.000000
 894.097551,    0.000000
 902.024174,    0.000000
 909.978162,    0.000000
 918.013065,    0.000000
 926.116774,    0.000000
 934.248134,    0.000000
 942.416133,    0.000000
 950.633954,    0.000000
 958.884321,    0.000000
 967.200912,    0.000000
 975.572747,    0.000000
 983.974090,    0.000000
 992.414281,    0.000000
1000.930845,    0.000000
1009.467284,    0.000000
1018.051158,    0.000000
1026.680432,    0.000000
1035.371577,    0.000000
1044.110373,    0.000000
1052.904566,    0.000000
1061.733194,    0.000000
1070.604790,    0.000000
1079.548287,    0.000000
1088.515443,    0.000000
1097.550069,    0.000000
1106.642087,    0.000000
1115.761802,    0.000000
1124.947617,    0.000000
1134.192580,    0.000000
1143.486134,    0.000000
1152.841200,    0.000000
1162.250039,    0.000000
1171.694995,    0.000000
1181.189753,    0.000000
1190.730715,    0.000000
1200.325779,    0.000000
1209.972380,    0.000000
1219.648721,    0.000000
1229.405294,    0.000000
1239.209000,    0.000000
1249.056819,    0.000000
1258.963183,    0.000000
1268.909412,    0.000000
1278.928015,    0.000000
1288.987705,    0.000000
1299.098963,    0.000000
1309.273004,    0.000000
1319.465866,    0.000000
1329.724158,    0.000000
1340.038699,    0.000000
1350.396158,    0.000000
1360.823467,    0.000000
1371.295733,    0.000000
1381.859336,    0.000000
1392.462579,    0.000000
1403.084166,    0.000000
1413.792707,    0.000000
1424.549996,    0.000000
1435.306356,    0.000000
1446.117147,    0.000000
1456.998933,    0.000000
1467.939037,    0.000000
1478.944661,    0.000000
1489.996128,    0.000000
1501.102648,    0.000000
1512.271438,    0.000000
1523.489229,    0.000000
1525.740448,    0.000000
1527.419893,    0.000000
1533.333996,    0.000000
1533.777407,    0.000000
1533.812421,    0.000000
1533.839780,    0.000000
1533.858250,    0.000000
1533.867995,    0.000000
1533.881173,    0.000000
1534.007354,    0.000000
1534.849841,    0.000000
1538.952416,    0.000000
1549.576881,    0.000000
1560.926563,    0.000000
1572.299255,    0.000000
1583.724444,    0.000000
1595.188752,    0.000000
1606.758863,    0.000000
1618.332692,    0.000000
1630.010120,    0.000000
1641.715251,    0.000000
1653.497802,    0.000000
1665.300621,    0.000000
1677.143686,    0.000000
1689.066560,    0.000000
1701.040172,    0.000000
1713.072077,    0.000000
1725.153272,    0.000000
1737.304864,    0.000000
1749.541233,    0.000000
1761.800292,    0.000000
1774.095303,    0.000000
1786.461533,    0.000000
1798.871204,    0.000000
1811.338909,    0.000000
1823.880040,    0.000000
1836.453355,    0.000000
1849.102906,    0.000000
1861.774647,    0.000000
1874.512795,    0.000000
1887.319412,    0.000000
1900.195236,    0.000000
1913.115909,    0.000000
1926.088516,    0.000000
1939.151812,    0.000000
1952.233566,    0.000000
1965.383424,    0.000000
1978.596846,    0.000000
1991.841457,    0.000000
2005.130824,    0.000000
2018.507853,    0.000000
2031.942309,    0.000000
2045.436408,    0.000000
2058.989366,    0.000000
2072.597431,    0.000000
2086.277443,    0.000000
2099.999064,    0.000000
2113.806979,    0.000000
2127.630009,    0.000000
2141.521816,    0.000000
2155.469676,    0.000000
2169.469437,    0.000000
2183.516487,    0.000000
2197.626560,    0.000000
2206.669992,    0.000000
2211.802064,    0.000000
2226.050299,    0.085572
2240.343058,    0.321900
2254.687346,    0.556093
2269.122613,    0.788280
2283.631340,    1.019107
2298.227836,    1.248287
2312.849417,    1.476047
2327.530960,    1.701414
2342.281350,    1.924949
2357.130208,    2.146794
2372.012566,    2.367396
2386.951073,    2.585789
2401.917569,    2.802328
2416.938306,    3.016622
2432.018546,    3.229068
2447.135295,    3.439753
2462.318219,    3.648370
2477.537228,    3.855347
2492.849963,    4.060284
2508.168314,    4.263969
2523.523777,    4.465241
2538.933752,    4.664543
2554.388819,    4.862120
2569.882087,    5.057865
2585.404927,    5.251708
2600.967075,    5.443563
2601.589711,    5.633572
2602.363164,    5.641091
2602.587865,    5.650713
2602.690780,    5.653556
2602.701950,    5.654811
2602.712425,    5.654960
2602.724701,    5.655102
2602.726371,    5.655252
2602.727916,    5.655274
2602.740230,    5.655309
2602.805523,    5.655542
2603.041748,    5.656636
2603.714812,    5.660368
2604.771602,    5.669911
2605.834279,    5.684140
2606.897954,    5.698488
2607.960638,    5.712896
2609.025299,    5.727343
2610.088166,    5.741858
2611.153563,    5.756405
2612.219934,    5.771031
2613.287191,    5.785719
2614.355438,    5.800467
2615.423430,    5.815275
2616.492250,    5.830130
2617.563550,    5.845048
2618.634830,    5.860044
2619.707782,    5.875091
2620.779829,    5.890205
2621.852992,    5.905358
2622.928358,    5.920579
2624.003997,    5.935874
2625.078697,    5.951219
2626.154784,    5.966605
2627.233440,    5.982062
2628.312815,    5.997600
2629.389061,    6.013187
2630.469480,    6.028796
2631.548366,    6.044499
2632.630295,    6.060240
2633.713796,    6.076071
2634.796920,    6.091968
2635.882577,    6.107916
2636.968036,    6.123943
2638.051865,    6.140011
2639.139818,    6.156121
2640.229153,    6.172333
2641.319190,    6.188613
2642.410353,    6.204953
2643.500070,    6.221351
2644.590260,    6.237782
2645.678178,    6.254260
2646.771377,    6.270778
2647.866381,    6.287414
2648.958040,    6.304107
2650.055833,    6.320833
2651.151869,    6.337673
2652.251537,    6.354555
2653.352668,    6.371535
2654.454253,    6.388582
2655.555357,    6.405683
2656.655845,    6.422824
2657.757172,    6.440012
2658.863128,    6.457277
2659.965727,    6.474631
2661.073572,    6.492018
2662.183640,    6.509524
2663.291093,    6.527095
2664.402211,    6.544701
2665.515418,    6.562408
2666.624855,    6.580172
2667.738748,    6.597963
2668.856044,    6.615871
2669.970236,    6.633853
2671.087308,    6.651863
2672.207552,    6.669971
2673.329599,    6.688174
2674.451720,    6.706449
2675.575147,    6.724781
2676.700133,    6.743187
2677.823089,    6.761650
2678.950296,    6.780162
2680.079356,    6.798782
2681.209151,    6.817478
2682.337291,    6.836225
2683.469509,    6.855024
2684.601812,    6.873921
2685.737564,    6.892889
2686.872166,    6.911940
2688.010235,    6.931048
2689.144838,    6.950228
2690.283620,    6.969442
2691.424648,    6.988767
2692.568872,    7.008187
2693.708229,    7.027666
2694.856897,    7.047196
2696.005840,    7.066884
2697.152348,    7.086612
2698.301515,    7.106380
2699.450716,    7.126230
2700.605278,    7.146164
2701.757961,    7.166199
2702.916058,    7.186298
2704.067929,    7.206471
2705.221689,    7.226637
2706.377527,    7.246890
2707.542620,    7.267277
2708.698499,    7.287760
2709.865340,    7.295353
2711.032751,    7.302967
2712.199619,    7.310595
2713.368577,    7.318255
2714.534890,    7.325914
2715.710225,    7.333650
2716.885715,    7.341405
2718.061431,    7.349178
2719.238232,    7.356976
2720.415251,    7.364794
2721.596171,    7.372654
2722.775352,    7.380521
2723.959061,    7.388436
2725.138681,    7.396340
2726.324994,    7.404307
2727.507753,    7.412268
2728.695004,    7.420277
2729.883906,    7.428314
2731.072365,    7.436366
2732.267013,    7.444478
2733.455149,    7.452563
2734.643139,    7.460664
2735.837192,    7.468825
2737.032081,    7.477009
2738.234945,    7.485265
2739.430141,    7.493486
2740.629156,    7.501751
2741.833345,    7.510070
2743.034125,    7.518382
2744.238471,    7.526738
2745.446223,    7.535134
2746.653723,    7.543547
2747.864531,    7.552000
2749.075594,    7.560473
2750.291051,    7.568995
2751.499162,    7.577482
2752.709806,    7.586006
2753.930551,    7.594618
2755.151182,    7.603248
2756.372671,    7.611901
2757.598684,    7.620605
2758.827964,    7.629350
2760.048972,    7.638054
2761.278834,    7.646839
2762.510783,    7.655657
2763.744791,    7.664508
2764.974615,    7.673346
2766.205581,    7.682211
2767.440164,    7.691121
2768.679873,    7.700085
2769.921224,    7.709079
2771.161493,    7.718084
2772.411049,    7.727174
2773.658969,    7.736271
2774.904101,    7.745365
2776.157790,    7.754540
2777.412140,    7.763739
2778.670014,    7.772982
2779.929420,    7.782254
2781.187078,    7.791532
2782.450335,    7.800870
2783.711621,    7.810211
2784.977510,    7.819605
2786.242510,    7.829011
2787.510499,    7.838458
2788.780804,    7.847941
2790.051643,    7.857446
2791.324853,    7.866987
2792.601707,    7.876574
2793.879448,    7.886186
2795.160765,    7.895844
2796.448644,    7.905570
2797.730555,    7.915270
2799.010498,    7.924974
2800.296711,    7.934743
2801.591269,    7.944595
2802.885889,    7.954466
2804.181823,    7.964366
2805.480267,    7.974304
2806.777016,    7.984248
2807.082632,    7.986595
2808.077594,    7.994240
2809.388142,    8.004328
2810.689911,    8.014368
2812.001970,    8.024505
2813.314068,    8.034662
2814.631292,    8.044878
2815.946576,    8.055098
2817.261875,    8.065337
2818.579410,    8.075612
2819.895887,    8.085898
2821.225589,    8.096307
2822.550738,    8.106700
2823.874833,    8.117103
2825.209415,    8.127608
2826.547725,    8.138162
2827.887927,    8.148750
2829.224690,    8.159331
2830.572720,    8.170020
2831.913025,    8.180667
2833.257799,    8.191369
2834.605667,    8.202116
2835.958019,    8.212917
2837.312422,    8.223755
2838.669347,    8.234632
2840.029233,    8.245553
2841.388507,    8.256489
2842.745653,    8.267427
2844.114866,    8.278482
2845.483233,    8.289550
2846.855417,    8.300669
2848.226698,    8.311800
2849.604659,    8.323005
2850.978689,    8.334198
2852.360400,    8.345474
2853.742190,    8.356770
2855.137593,    8.368198
2856.525526,    8.379584
2857.918515,    8.391032
2859.310231,    8.402490
2860.711716,    8.414048
2862.119342,    8.425678
2863.523870,    8.437302
2864.932515,    8.448980
2866.335551,    8.460632
2867.742770,    8.472339
2869.164296,    8.484186
2870.581528,    8.496017
2871.997542,    8.507858
2873.413777,    8.519722
2874.835557,    8.531652
2876.260612,    8.543631
2877.684782,    8.555622
2879.117840,    8.567709
2880.546633,    8.579780
2881.985982,    8.591961
2883.427776,    8.604183
2884.875861,    8.616480
2886.323734,    8.628796
2887.777667,    8.641184
2889.230975,    8.653587
2890.686689,    8.666032
2892.137046,    8.678452
2893.595132,    8.690959
2895.058457,    8.703532
2896.532864,    8.716221
2898.005571,    8.728916
2899.481268,    8.741659
2900.958955,    8.754440
2902.441603,    8.767285
2903.921903,    8.780131
2905.408938,    8.793057
2906.889361,    8.805946
2908.372381,    8.818879
2909.865782,    8.831924
2911.360160,    8.844998
2912.860279,    8.858144
2914.362301,    8.871329
2915.867805,    8.884565
2917.373372,    8.897823
2918.889612,    8.911197
2920.396058,    8.924506
2921.899686,    8.937811
2923.413828,    8.951231
2924.936188,    8.964745
2926.464698,    8.978335
2927.994079,    8.991955
2929.524335,    9.005604
2931.059394,    9.019318
2932.597282,    9.033079
2934.129785,    9.046814
2935.671927,    9.060657
2937.213158,    9.074513
2938.759815,    9.088440
2940.305768,    9.102382
2941.857642,    9.116399
2943.414672,    9.130485
2944.975435,    9.144627
2946.544857,    9.158869
2948.113803,    9.173130
2949.679210,    9.187380
2951.250579,    9.201706
2952.827492,    9.216105
2954.405339,    9.230535
2955.996502,    9.245109
2957.587724,    9.259706
2959.180493,    9.274339
2960.777697,    9.289036
2962.381911,    9.303820
2963.977608,    9.318547
2965.585011,    9.333405
2967.187834,    9.348244
2968.804738,    9.363235
2970.416780,    9.378204
2972.033617,    9.393239
2973.662519,    9.408410
2975.281578,    9.423512
2976.913383,    9.438755
2978.547088,    9.454039
2980.182524,    9.469362
2981.829900,    9.484820
2983.468334,    9.500217
2985.119960,    9.515760
2986.764361,    9.531259
2988.409222,    9.546784
2990.059735,    9.562386
2991.715557,    9.578061
2993.372093,    9.593765
2995.026352,    9.609471
2996.702947,    9.625412
2998.374458,    9.641328
3000.058953,    9.657390
3001.732291,    9.673369
3003.412336,    9.689436
3005.096203,    9.705562
3006.776194,    9.721674
3008.473730,    9.737978
3010.164464,    9.754239
3011.871038,    9.770676
3013.572675,    9.787089
3015.284775,    9.803627
3016.982425,    9.820048
3018.679727,    9.836488
3020.386448,    9.853043
3022.107068,    9.869757
3023.828562,    9.886502
3025.558345,    9.903351
3027.285094,    9.920194
3029.022263,    9.937163
3030.761270,    9.954173
3032.498163,    9.971185
3034.227630,    9.988149
3035.973365,   10.005295
3037.717044,   10.022445
3039.477260,   10.039781
3041.225903,   10.057027
3042.983827,   10.074387
3044.762787,   10.091980
3046.523343,   10.109414
3048.302091,   10.127052
3050.059235,   10.144499
3051.826552,   10.162071
3053.610119,   10.179828
3055.392944,   10.197601
3057.165813,   10.215299
3058.960843,   10.233242
3060.757319,   10.251223
3062.541695,   10.269106
3064.335988,   10.287113
3066.126496,   10.305104
3067.939023,   10.323342
3069.746147,   10.341548
3071.556193,   10.359808
3073.373116,   10.378161
3075.196698,   10.396605
3077.032554,   10.415197
3078.849891,   10.433626
3080.672077,   10.452127
3082.498770,   10.470698
3084.313666,   10.489172
3086.136949,   10.507755
3087.997005,   10.526737
3089.867044,   10.545845
3091.722060,   10.564824
3093.563640,   10.583690
3095.420831,   10.602738
3097.287767,   10.621911
3099.166776,   10.641232
3101.039317,   10.660511
3102.898819,   10.679679
3104.769143,   10.698983
3106.634153,   10.718255
3108.517312,   10.737739
3110.396205,   10.757202
3112.273546,   10.776673
3114.157866,   10.796240
3116.040515,   10.815813
3117.936160,   10.835545
3119.828648,   10.855268
3121.724198,   10.875047
3123.612718,   10.894775
3125.502801,   10.914544
3127.402113,   10.934432
3129.304996,   10.954381
3131.215576,   10.974435
3133.125287,   10.994503
3135.034596,   11.014590
3136.957437,   11.034843
3138.906696,   11.055398
3140.833576,   11.075741
3142.775785,   11.096269
3144.711107,   11.116748
3146.640050,   11.137183
3148.583880,   11.157800
3150.536955,   11.178538
3152.494575,   11.199347
3154.441220,   11.220064
3156.389741,   11.240824
3158.369111,   11.261937
3160.317675,   11.282744
3162.294572,   11.303877
3164.275486,   11.325077
3166.252555,   11.346259
3168.206478,   11.367216
3170.163009,   11.388224
3172.134177,   11.409413
3174.129131,   11.430880
3176.100608,   11.452118
3178.093643,   11.473611
3180.081108,   11.495067
3182.072470,   11.516588
3184.077258,   11.538278
3186.098746,   11.560171
3188.083755,   11.581693
3190.068768,   11.603237
3192.062818,   11.624901
3194.069707,   11.646728
3196.098289,   11.668814
3198.110780,   11.690747
3200.127889,   11.712754
3202.150022,   11.734838
3204.199440,   11.757243
3206.230157,   11.779467
3208.272224,   11.801838
3210.302612,   11.824103
3212.329493,   11.846352
3214.368696,   11.868759
3216.415491,   11.891272
3218.453778,   11.913713
3220.491629,   11.936172
3222.530380,   11.958663
3224.592339,   11.981432
3226.649908,   12.004175
3228.696832,   12.026823
3230.741355,   12.049466
3232.792168,   12.072200
3234.874926,   12.095310
3236.950539,   12.118364
3239.015560,   12.141321
3241.095515,   12.164467
3243.170082,   12.187574
3245.260618,   12.210881
3247.328300,   12.233955
3249.418143,   12.257298
3251.491907,   12.280482
3253.572498,   12.303765
3255.679286,   12.327362
3257.760573,   12.350695
3259.845498,   12.374089
3261.949967,   12.397724
3264.045259,   12.421278
3266.136098,   12.444802
3268.246413,   12.468566
3270.352880,   12.492309
3272.443576,   12.515894
3274.546463,   12.539637
3276.647119,   12.563375
3278.755096,   12.587217
3280.857426,   12.611016
3282.983886,   12.635108
3285.104015,   12.659149
3287.238249,   12.683370
3289.352759,   12.707388
3291.459395,   12.731336
3293.576871,   12.755427
3295.716370,   12.779790
3297.842531,   12.804020
3299.992496,   12.828542
3302.125342,   12.852888
3304.291014,   12.877629
3306.444200,   12.902248
3308.597365,   12.926886
3310.742538,   12.951452
3312.886918,   12.976029
3315.036320,   13.000682
3317.181293,   13.025304
3319.336987,   13.050069
3321.488956,   13.074809
3323.637388,   13.099528
3325.790709,   13.124323
3327.945505,   13.149153
3330.113277,   13.174151
3332.276437,   13.199115
3334.435029,   13.224045
3336.602535,   13.249096
3338.754893,   13.273990
3339.876635,   13.286971
