Speed, Forces
 151.167437, 5240.342723
 152.498686, 4880.463305
 153.829935, 4665.196847
 155.161185, 4515.801658
 156.492434, 4381.349828
 157.823684, 4301.402120
 159.154933, 4220.777194
 160.486182, 4139.475049
 161.817432, 4072.455456
 163.148681, 4013.219507
 164.479931, 3953.498228
 165.811180, 3893.291620
 167.142429, 3836.270656
 168.473679, 3786.306702
 169.804928, 3735.946376
 171.136177, 3685.189678
 172.467427, 3634.036608
 173.798676, 3588.118163
 175.129926, 3547.420735
 176.461175, 3506.412766
 177.792424, 3465.094255
 179.123674, 3423.465202
 180.454923, 3382.173408
 181.786173, 3349.790516
 183.117422, 3317.169607
 184.448671, 3284.310681
 185.779921, 3251.213739
 187.111170, 3217.878780
 188.442420, 3184.305805
 189.773669, 3158.199262
 191.104918, 3133.016813
 192.436168, 3107.658329
 193.767417, 3082.123809
 195.098667, 3056.413253
 196.429916, 3030.526662
 197.761165, 3004.464035
 199.092415, 2984.948872
 200.423664, 2967.699925
 201.754914, 2950.336026
 203.086163, 2932.857174
 204.417412, 2915.263370
 205.748662, 2897.554613
 207.079911, 2879.730904
 208.411161, 2861.792243
 209.742410, 2847.170952
 211.073659, 2837.866089
 212.404909, 2828.502355
 213.736158, 2819.079748
 215.067408, 2809.598270
 216.398657, 2800.057920
 217.729906, 2790.458698
 219.061156, 2780.800605
 220.392405, 2771.083640
 221.723654, 2761.307803
 223.054904, 2754.728408
 224.386153, 2752.228003
 225.717403, 2749.712720
 227.048652, 2747.182558
 228.379901, 2744.637517
 229.711151, 2742.077598
 231.042400, 2739.502800
 232.373650, 2736.913123
 233.704899, 2734.308568
 235.036148, 2731.689133
 236.367398, 2729.054821
 237.698647, 2726.405629
 239.029897, 2725.822152
 240.361146, 2729.832261
 241.692395, 2733.864642
 243.023645, 2737.919294
 244.354894, 2741.996219
 245.686144, 2746.095415
 247.017393, 2750.216883
 248.348642, 2754.360623
 249.679892, 2758.526634
 251.011141, 2762.714918
 252.342391, 2766.925473
 253.673640, 2771.158300
 255.004889, 2775.413399
 256.336139, 2779.690770
 257.667388, 2783.990412
 258.998638, 2788.756078
 260.329887, 2800.091516
 261.661136, 2811.485068
 262.992386, 2822.936735
 264.323635, 2834.446517
 265.654885, 2846.014413
 266.986134, 2857.640424
 268.317383, 2869.324549
 269.648633, 2881.066789
 270.979882, 2892.867144
 272.311132, 2904.725613
 273.642381, 2916.642197
 274.973630, 2928.616896
 276.304880, 2940.649709
 277.636129, 2952.740637
 278.967378, 2964.889680
 280.298628, 2977.096837
 281.629877, 2989.362109
 282.961127, 3001.685495
