Speed, Forces
 110.968249, 9255.323289
 112.920895, 9177.380881
 114.873540, 9098.955114
 116.826185, 9019.869382
 118.778830, 8940.783649
 120.731476, 8861.697917
 122.684121, 8782.612185
 124.636766, 8703.526453
 126.589411, 8624.440721
 128.542057, 8545.354989
 130.494702, 8466.269257
 132.447347, 8387.183525
 134.399992, 8308.097792
 136.352638, 8229.012060
 138.305283, 8156.985831
 140.257928, 8087.422230
 142.210573, 8017.858629
 144.163219, 7948.295028
 146.115864, 7878.731426
 148.068509, 7809.167825
 150.021154, 7739.604224
 151.973800, 7670.040623
 153.926445, 7600.477022
 155.879090, 7530.913421
 157.831735, 7461.349820
 159.784381, 7392.269580
 161.737026, 7330.762632
 163.689671, 7269.255685
 165.642316, 7207.748738
 167.594962, 7146.241791
 169.547607, 7084.734844
 171.500252, 7023.227896
 173.452897, 6961.720949
 175.405543, 6900.214002
 177.358188, 6838.707055
 179.310833, 6777.200107
 181.263478, 6715.693160
 183.216124, 6656.884133
 185.168769, 6602.503097
 187.121414, 6548.122061
 189.074059, 6493.741024
 191.026705, 6439.359988
 192.979350, 6384.978952
 194.931995, 6330.597916
 196.884640, 6276.216879
 198.837286, 6221.835843
 200.789931, 6167.454807
 202.742576, 6113.073771
 204.695221, 6058.692734
 206.647867, 6008.704068
 208.600512, 5960.622832
 210.553157, 5912.541595
 212.505802, 5864.460358
 214.458448, 5816.379121
 216.411093, 5768.297884
 218.363738, 5720.216647
 220.316383, 5672.135411
 222.269029, 5624.054174
 224.221674, 5575.972937
 226.174319, 5527.891700
 228.126964, 5479.907736
 230.079610, 5437.971100
 232.032255, 5396.034464
 233.984900, 5354.097829
 235.937545, 5312.161193
 237.890191, 5270.224558
 239.842836, 5228.287922
 241.795481, 5186.351287
 243.748126, 5144.414651
 245.700772, 5102.478016
 247.653417, 5060.541380
 249.606062, 5018.604745
 251.558707, 4977.978034
 253.511353, 4939.958085
 255.463998, 4901.938135
 257.416643, 4863.918185
 259.369288, 4825.898235
 261.321934, 4787.878285
 263.274579, 4749.858336
 265.227224, 4711.838386
 267.179869, 4673.818436
 269.132515, 4635.798486
 271.085160, 4597.778536
 273.037805, 4559.758587
 274.990450, 4523.291525
 276.943096, 4487.649461
 278.895741, 4452.007397
 280.848386, 4416.365333
 282.801031, 4380.723269
 284.753677, 4345.081205
 286.706322, 4309.439141
 288.658967, 4273.797077
 290.611612, 4238.155014
 292.564258, 4202.512950
 294.516903, 4166.870886
 296.469548, 4131.228822
 298.422193, 4095.373638
 300.374839, 4059.512240
 302.327484, 4023.650843
 304.280129, 3987.789445
