Speed, Forces
 128.802448, 7182.970693
 130.469181, 7132.060475
 132.135914, 7081.150257
 133.802647, 7035.258575
 135.469380, 6989.403528
 137.136114, 6943.548481
 138.802847, 6897.693434
 140.469580, 6851.838387
 142.136313, 6805.983340
 143.803046, 6760.128293
 145.469779, 6714.273246
 147.136512, 6668.418199
 148.803246, 6622.563152
 150.469979, 6576.708105
 152.136712, 6530.853058
 153.803445, 6484.998011
 155.470178, 6445.000556
 157.136911, 6406.669855
 158.803644, 6368.339153
 160.470378, 6330.008451
 162.137111, 6291.677749
 163.803844, 6253.347047
 165.470577, 6215.016346
 167.137310, 6176.685644
 168.804043, 6138.354942
 170.470776, 6100.024240
 172.137510, 6061.693538
 173.804243, 6023.362837
 175.470976, 5985.032135
 177.137709, 5949.542028
 178.804442, 5916.245948
 180.471175, 5882.949869
 182.137908, 5849.653789
 183.804641, 5816.357710
 185.471375, 5783.061630
 187.138108, 5749.765550
 188.804841, 5716.469471
 190.471574, 5683.173391
 192.138307, 5649.877312
 193.805040, 5616.581232
 195.471773, 5583.285152
 197.138507, 5549.989073
 198.805240, 5517.872159
 200.471973, 5487.945658
 202.138706, 5458.019157
 203.805439, 5428.092656
 205.472172, 5398.166155
 207.138905, 5368.239654
 208.805639, 5338.313153
 210.472372, 5308.386653
 212.139105, 5278.460152
 213.805838, 5248.533651
 215.472571, 5218.607150
 217.139304, 5188.680649
 218.806037, 5158.754148
 220.472771, 5129.443633
 222.139504, 5104.057606
 223.806237, 5078.671578
 225.472970, 5053.285551
 227.139703, 5027.899524
 228.806436, 5002.513496
 230.473169, 4977.127469
 232.139903, 4951.741441
 233.806636, 4926.355414
 235.473369, 4900.969387
 237.140102, 4875.583359
 238.806835, 4850.197332
 240.473568, 4824.811304
 242.140301, 4799.425277
 243.807034, 4777.342411
 245.473768, 4755.541329
 247.140501, 4733.740247
 248.807234, 4711.939164
 250.473967, 4690.138082
 252.140700, 4668.337000
 253.807433, 4646.535917
 255.474166, 4624.734835
 257.140900, 4602.933753
 258.807633, 4581.132670
 260.474366, 4559.331588
 262.141099, 4537.530506
 263.807832, 4515.729423
 265.474565, 4495.836238
 267.141298, 4476.733281
 268.808032, 4457.630324
 270.474765, 4438.527368
 272.141498, 4419.424411
 273.808231, 4400.321454
 275.474964, 4381.218498
 277.141697, 4362.115541
 278.808430, 4343.012585
 280.475164, 4323.909628
 282.141897, 4304.806671
 283.808630, 4285.703715
 285.475363, 4266.600758
 287.142096, 4248.277536
 288.808829, 4230.756667
 290.475562, 4213.235797
 292.142296, 4195.714928
 293.809029, 4178.194059
