Ground distance, Altitude
-27943.179841, 1500.000000
-27924.556276, 1499.025349
-27905.932665, 1498.050707
-27887.309054, 1497.076065
-27868.684879, 1496.101876
-27850.060655, 1495.127726
-27831.436431, 1494.153576
-27812.812207, 1493.179426
-27794.187983, 1492.205276
-27775.563759, 1491.231127
-27756.939535, 1490.256977
-27738.315311, 1489.282827
-27719.691087, 1488.308677
-27701.066863, 1487.334527
-27682.441843, 1486.361050
-27663.816754, 1485.387631
-27645.191666, 1484.414212
-27626.566578, 1483.440792
-27607.941489, 1482.467373
-27589.316401, 1481.493954
-27570.691313, 1480.520535
-27552.066225, 1479.547115
-27533.441136, 1478.573696
-27514.816048, 1477.600277
-27496.190187, 1476.627159
-27477.564260, 1475.654068
-27458.938333, 1474.680976
-27440.312406, 1473.707884
-27421.686479, 1472.734793
-27403.060552, 1471.761701
-27384.434625, 1470.788610
-27365.808698, 1469.815518
-27347.182772, 1468.842426
-27328.556845, 1467.869335
-27309.930166, 1466.896448
-27291.303422, 1465.923579
-27272.676679, 1464.950710
-27254.049936, 1463.977840
-27235.423193, 1463.004971
-27216.796450, 1462.032102
-27198.169707, 1461.059233
-27179.542964, 1460.086364
-27160.916221, 1459.113494
-27142.289478, 1458.140625
-27123.661859, 1457.167317
-27105.034166, 1456.193971
-27086.406474, 1455.220625
-27067.778781, 1454.247279
-27049.151088, 1453.273932
-27030.523395, 1452.300586
-27011.895702, 1451.327240
-26993.268009, 1450.353894
-26974.640317, 1449.380548
-26956.012624, 1448.407202
-26937.384067, 1447.433994
-26918.755436, 1446.460798
-26900.126805, 1445.487602
-26881.498174, 1444.514406
-26862.869544, 1443.541209
-26844.240913, 1442.568013
-26825.612282, 1441.594817
-26806.983651, 1440.621621
-26788.355021, 1439.648425
-26769.726390, 1438.675229
-26751.096974, 1437.702406
-26732.467491, 1436.729616
-26713.838009, 1435.756826
-26695.208526, 1434.784036
-26676.579043, 1433.811245
-26657.949561, 1432.838455
-26639.320078, 1431.865665
-26620.690595, 1430.892874
-26602.061113, 1429.920084
-26583.431630, 1428.947294
-26564.801396, 1427.974780
-26546.171097, 1427.002290
-26527.540798, 1426.029800
-26508.910500, 1425.057310
-26490.280201, 1424.084820
-26471.649902, 1423.112330
-26453.019604, 1422.139840
-26434.389305, 1421.167350
-26415.759006, 1420.194860
-26397.128708, 1419.222370
-26378.497545, 1418.249507
-26359.866309, 1417.276613
-26341.235073, 1416.303718
-26322.603838, 1415.330823
-26303.972602, 1414.357928
-26285.341366, 1413.385033
-26266.710130, 1412.412139
-26248.078894, 1411.439244
-26229.447658, 1410.466349
-26210.816422, 1409.493454
-26192.184343, 1408.520757
-26173.552193, 1407.548076
-26154.920042, 1406.575396
-26136.287892, 1405.602715
-26117.655741, 1404.630034
-26099.023590, 1403.657354
-26080.391440, 1402.684673
-26061.759289, 1401.711992
-26043.127139, 1400.739312
-26024.494988, 1399.766631
-26005.862082, 1398.794373
-25987.229111, 1397.822150
-25968.596141, 1396.849928
-25949.963170, 1395.877706
-25931.330200, 1394.905483
-25912.697229, 1393.933261
-25894.064258, 1392.961039
-25875.431288, 1391.988817
-25856.798317, 1391.016594
-25838.165347, 1390.044372
-25819.531659, 1389.072462
-25800.897911, 1388.100580
-25782.264163, 1387.128697
-25763.630414, 1386.156814
-25744.996666, 1385.184932
-25726.362918, 1384.213049
-25707.729169, 1383.241166
-25689.095421, 1382.269284
-25670.461673, 1381.297401
-25651.827924, 1380.325518
-25633.193350, 1379.353279
-25614.558704, 1378.381010
-25595.924059, 1377.408741
-25577.289414, 1376.436471
-25558.654769, 1375.464202
-25540.020123, 1374.491933
-25521.385478, 1373.519663
-25502.750833, 1372.547394
-25484.116188, 1371.575125
-25465.481542, 1370.602856
-25446.846092, 1369.630788
-25428.210572, 1368.658737
-25409.575053, 1367.686686
-25390.939534, 1366.714635
-25372.304014, 1365.742584
-25353.668495, 1364.770533
-25335.032975, 1363.798482
-25316.397456, 1362.826431
-25297.761937, 1361.854380
-25279.126417, 1360.882329
-25260.490177, 1359.910690
-25241.853876, 1358.939085
-25223.217574, 1357.967481
-25204.581273, 1356.995877
-25185.944971, 1356.024272
-25167.308670, 1355.052668
-25148.672368, 1354.081064
-25130.036067, 1353.109459
-25111.399765, 1352.137855
-25092.763464, 1351.166251
-25074.126475, 1350.194933
-25055.489428, 1349.223640
-25036.852381, 1348.252346
-25018.215334, 1347.281053
-24999.578286, 1346.309760
-24980.941239, 1345.338467
-24962.304192, 1344.367173
-24943.667145, 1343.395880
-24925.030098, 1342.424587
-24906.393051, 1341.453294
-24887.755200, 1340.481609
-24869.117281, 1339.509890
-24850.479363, 1338.538172
-24831.841444, 1337.566454
-24813.203525, 1336.594735
-24794.565606, 1335.623017
-24775.927687, 1334.651299
-24757.289768, 1333.679580
-24738.651850, 1332.707862
-24720.013931, 1331.736144
-24701.375221, 1330.764581
-24682.736444, 1329.793032
-24664.097668, 1328.821483
-24645.458891, 1327.849933
-24626.820114, 1326.878384
-24608.181337, 1325.906835
-24589.542560, 1324.935285
-24570.903783, 1323.963736
-24552.265006, 1322.992187
-24533.626230, 1322.020638
-24514.986738, 1321.049449
-24496.347185, 1320.078291
-24477.707632, 1319.107133
-24459.068079, 1318.135975
-24440.428527, 1317.164817
-24421.788974, 1316.193659
-24403.149421, 1315.222501
-24384.509868, 1314.251343
-24365.870315, 1313.280185
-24347.230763, 1312.309027
-24328.590519, 1311.338101
-24309.950217, 1310.367196
-24291.309914, 1309.396290
-24272.669612, 1308.425385
-24254.029309, 1307.454480
-24235.389007, 1306.483574
-24216.748704, 1305.512669
-24198.108402, 1304.541763
-24179.468100, 1303.570858
-24160.827797, 1302.599952
-24142.186678, 1301.628601
-24123.545490, 1300.657212
-24104.904302, 1299.685822
-24086.263113, 1298.714433
-24067.621925, 1297.743043
-24048.980736, 1296.771654
-24030.339548, 1295.800265
-24011.698360, 1294.828875
-23993.057171, 1293.857486
-23974.415983, 1292.886096
-23955.773982, 1291.914813
-23937.131912, 1290.943539
-23918.489842, 1289.972265
-23899.847773, 1289.000991
-23881.205703, 1288.029716
-23862.563633, 1287.058442
-23843.921563, 1286.087168
-23825.279493, 1285.115894
-23806.637423, 1284.144619
-23787.995353, 1283.173345
-23769.352540, 1282.202389
-23750.709663, 1281.231459
-23732.066786, 1280.260530
-23713.423909, 1279.289600
-23694.781032, 1278.318671
-23676.138155, 1277.347741
-23657.495278, 1276.376812
-23638.852401, 1275.405882
-23620.209524, 1274.434953
-23601.566647, 1273.464023
-23582.923045, 1272.493292
-23564.279381, 1271.522578
-23545.635717, 1270.551864
-23526.992054, 1269.581150
-23508.348390, 1268.610436
-23489.704726, 1267.639722
-23471.061062, 1266.669008
-23452.417398, 1265.698294
-23433.773734, 1264.727580
-23415.130070, 1263.756866
-23396.485552, 1262.785681
-23377.840960, 1261.814456
-23359.196369, 1260.843231
-23340.551778, 1259.872006
-23321.907186, 1258.900781
-23303.262595, 1257.929556
-23284.618004, 1256.958331
-23265.973412, 1255.987106
-23247.328821, 1255.015881
-23228.684230, 1254.044656
-23210.038786, 1253.073525
-23191.393270, 1252.102401
-23172.747754, 1251.131278
-23154.102238, 1250.160155
-23135.456722, 1249.189031
-23116.811206, 1248.217908
-23098.165689, 1247.246784
-23079.520173, 1246.275661
-23060.874657, 1245.304537
-23042.229141, 1244.333414
-23023.582842, 1243.362607
-23004.936475, 1242.391828
-22986.290109, 1241.421048
-22967.643743, 1240.450269
-22948.997377, 1239.479490
-22930.351011, 1238.508710
-22911.704645, 1237.537931
-22893.058278, 1236.567151
-22874.411912, 1235.596372
-22855.765546, 1234.625592
-22837.118417, 1233.655022
-22818.471224, 1232.684469
-22799.824030, 1231.713917
-22781.176837, 1230.743364
-22762.529643, 1229.772811
-22743.882450, 1228.802258
-22725.235256, 1227.831706
-22706.588063, 1226.861153
-22687.940869, 1225.890600
-22669.293675, 1224.920048
-22650.645594, 1223.949044
-22631.997436, 1222.978001
-22613.349279, 1222.006959
-22594.701121, 1221.035916
-22576.052964, 1220.064874
-22557.404807, 1219.093832
-22538.756649, 1218.122789
-22520.108492, 1217.151747
-22501.460334, 1216.180704
-22482.812177, 1215.209662
-22464.163139, 1214.238742
-22445.514026, 1213.267832
-22426.864914, 1212.296923
-22408.215801, 1211.326013
-22389.566688, 1210.355103
-22370.917575, 1209.384194
-22352.268462, 1208.413284
-22333.619350, 1207.442374
-22314.970237, 1206.471465
-22296.321124, 1205.500555
-22277.671206, 1204.529998
-22259.021220, 1203.559471
-22240.371233, 1202.588944
-22221.721247, 1201.618417
-22203.071261, 1200.647891
-22184.421274, 1199.677364
-22165.771288, 1198.706837
-22147.121301, 1197.736310
-22128.471315, 1196.765783
-22109.821329, 1195.795256
-22091.170565, 1194.824978
-22072.519735, 1193.854720
-22053.868906, 1192.884463
-22035.218076, 1191.914206
-22016.567246, 1190.943949
-21997.916416, 1189.973691
-21979.265587, 1189.003434
-21960.614757, 1188.033177
-21941.963927, 1187.062920
-21923.313097, 1186.092662
-21904.661372, 1185.121994
-21886.009570, 1184.151291
-21867.357768, 1183.180587
-21848.705966, 1182.209884
-21830.054164, 1181.239181
-21811.402362, 1180.268477
-21792.750560, 1179.297774
-21774.098758, 1178.327070
-21755.446956, 1177.356367
-21736.795154, 1176.385664
-21718.142471, 1175.415123
-21699.489713, 1174.444596
-21680.836955, 1173.474069
-21662.184197, 1172.503542
-21643.531439, 1171.533015
-21624.878680, 1170.562488
-21606.225922, 1169.591961
-21587.573164, 1168.621434
-21568.920406, 1167.650907
-21550.267648, 1166.680380
-21531.614090, 1165.710243
-21512.960464, 1164.740139
-21494.306839, 1163.770035
-21475.653213, 1162.799932
-21456.999587, 1161.829828
-21438.345962, 1160.859724
-21419.692336, 1159.889620
-21401.038710, 1158.919517
-21382.385084, 1157.949413
-21363.731459, 1156.979309
-21345.077067, 1156.009486
-21326.422610, 1155.039686
-21307.768152, 1154.069887
-21289.113695, 1153.100088
-21270.459238, 1152.130288
-21251.804781, 1151.160489
-21233.150324, 1150.190689
-21214.495866, 1149.220890
-21195.841409, 1148.251091
-21177.186952, 1147.281291
-21158.531614, 1146.311105
-21139.876200, 1145.340885
-21121.220787, 1144.370666
-21102.565373, 1143.400447
-21083.909960, 1142.430227
-21065.254547, 1141.460008
-21046.599133, 1140.489789
-21027.943720, 1139.519569
-21009.288306, 1138.549350
-20990.632893, 1137.579130
-20971.976616, 1136.609091
-20953.320265, 1135.639066
-20934.663914, 1134.669041
-20916.007564, 1133.699017
-20897.351213, 1132.728992
-20878.694862, 1131.758968
-20860.038511, 1130.788943
-20841.382160, 1129.818919
-20822.725810, 1128.848894
-20804.069459, 1127.878869
-20785.412327, 1126.909243
-20766.755129, 1125.939652
-20748.097931, 1124.970060
-20729.440733, 1124.000468
-20710.783534, 1123.030876
-20692.126336, 1122.061284
-20673.469138, 1121.091692
-20654.811940, 1120.122100
-20636.154742, 1119.152508
-20617.497543, 1118.182916
-20598.839597, 1117.213604
-20580.181587, 1116.244316
-20561.523577, 1115.275028
-20542.865567, 1114.305741
-20524.207557, 1113.336453
-20505.549547, 1112.367165
-20486.891537, 1111.397877
-20468.233527, 1110.428589
-20449.575517, 1109.459301
-20430.917507, 1108.490013
-20412.258632, 1107.520329
-20393.599683, 1106.550610
-20374.940734, 1105.580892
-20356.281785, 1104.611174
-20337.622836, 1103.641456
-20318.963887, 1102.671737
-20300.304939, 1101.702019
-20281.645990, 1100.732301
-20262.987041, 1099.762582
-20244.328092, 1098.792864
-20225.668293, 1097.823309
-20207.008420, 1096.853768
-20188.348548, 1095.884227
-20169.688676, 1094.914685
-20151.028804, 1093.945144
-20132.368932, 1092.975603
-20113.709059, 1092.006062
-20095.049187, 1091.036521
-20076.389315, 1090.066980
-20057.729443, 1089.097438
-20039.068799, 1088.128274
-20020.408089, 1087.159141
-20001.747379, 1086.190009
-19983.086669, 1085.220876
-19964.425959, 1084.251744
-19945.765249, 1083.282611
-19927.104539, 1082.313479
-19908.443829, 1081.344346
-19889.783119, 1080.375214
-19871.122409, 1079.406081
-19852.460955, 1078.437202
-19833.799437, 1077.468344
-19815.137920, 1076.499487
-19796.476403, 1075.530629
-19777.814885, 1074.561772
-19759.153368, 1073.592914
-19740.491850, 1072.624056
-19721.830333, 1071.655199
-19703.168815, 1070.686341
-19684.507298, 1069.717484
-19665.844914, 1068.748199
-19647.182456, 1067.778877
-19628.519998, 1066.809556
-19609.857540, 1065.840234
-19591.195082, 1064.870913
-19572.532625, 1063.901592
-19553.870167, 1062.932270
-19535.207709, 1061.962949
-19516.545251, 1060.993628
-19497.882793, 1060.024306
-19479.219478, 1059.055117
-19460.556089, 1058.085940
-19441.892700, 1057.116762
-19423.229312, 1056.147585
-19404.565923, 1055.178407
-19385.902534, 1054.209229
-19367.239146, 1053.240052
-19348.575757, 1052.270874
-19329.912369, 1051.301696
-19311.248980, 1050.332519
-19292.584807, 1049.363688
-19273.920568, 1048.394887
-19255.256329, 1047.426086
-19236.592089, 1046.457285
-19217.927850, 1045.488484
-19199.263611, 1044.519683
-19180.599371, 1043.550882
-19161.935132, 1042.582081
-19143.270893, 1041.613280
-19124.606653, 1040.644479
-19105.941653, 1039.675904
-19087.276589, 1038.707349
-19068.611524, 1037.738793
-19049.946459, 1036.770238
-19031.281395, 1035.801682
-19012.616330, 1034.833127
-18993.951265, 1033.864571
-18975.286200, 1032.896016
-18956.621136, 1031.927460
-18937.956071, 1030.958905
-18919.290119, 1029.989898
-18900.624092, 1029.020853
-18881.958064, 1028.051808
-18863.292037, 1027.082763
-18844.626010, 1026.113717
-18825.959982, 1025.144672
-18807.293955, 1024.175627
-18788.627928, 1023.206582
-18769.961900, 1022.237536
-18751.295873, 1021.268491
-18732.628964, 1020.299561
-18713.961981, 1019.330640
-18695.294997, 1018.361719
-18676.628014, 1017.392798
-18657.961030, 1016.423877
-18639.294047, 1015.454957
-18620.627063, 1014.486036
-18601.960080, 1013.517115
-18583.293096, 1012.548194
-18564.626113, 1011.579273
-18545.958320, 1010.610688
-18527.290459, 1009.642132
-18508.622597, 1008.673575
-18489.954736, 1007.705019
-18471.286875, 1006.736462
-18452.619013, 1005.767906
-18433.951152, 1004.799350
-18415.283290, 1003.830793
-18396.615429, 1002.862237
-18377.947567, 1001.893680
-18359.278920, 1000.925345
-18340.610205,  999.957029
-18321.941491,  998.988712
-18303.272776,  998.020396
-18284.604061,  997.052080
-18265.935347,  996.083764
-18247.266632,  995.115447
-18228.597917,  994.147131
-18209.929203,  993.178815
-18191.260488,  992.210498
-18172.590861,  991.241731
-18153.921156,  990.272926
-18135.251451,  989.304121
-18116.581747,  988.335315
-18097.912042,  987.366510
-18079.242337,  986.397705
-18060.572632,  985.428899
-18041.902928,  984.460094
-18023.233223,  983.491288
-18004.563518,  982.522483
-17985.892908,  981.553800
-17967.222222,  980.585127
-17948.551535,  979.616455
-17929.880848,  978.647782
-17911.210162,  977.679110
-17892.539475,  976.710437
-17873.868788,  975.741765
-17855.198102,  974.773092
-17836.527415,  973.804419
-17817.856728,  972.835747
-17799.185212,  971.867424
-17780.513624,  970.899130
-17761.842036,  969.930837
-17743.170449,  968.962543
-17724.498861,  967.994249
-17705.827274,  967.025956
-17687.155686,  966.057662
-17668.484099,  965.089369
-17649.812511,  964.121075
-17631.140924,  963.152782
-17612.468532,  962.184727
-17593.796072,  961.216693
-17575.123612,  960.248659
-17556.451152,  959.280625
-17537.778692,  958.312591
-17519.106232,  957.344558
-17500.433772,  956.376524
-17481.761311,  955.408490
-17463.088851,  954.440456
-17444.416391,  953.472422
-17425.743004,  952.503957
-17407.069539,  951.535456
-17388.396073,  950.566955
-17369.722607,  949.598454
-17351.049141,  948.629952
-17332.375676,  947.661451
-17313.702210,  946.692950
-17295.028744,  945.724449
-17276.355278,  944.755948
-17257.681813,  943.787446
-17239.007432,  942.819090
-17220.332973,  941.850747
-17201.658514,  940.882403
-17182.984055,  939.914060
-17164.309597,  938.945716
-17145.635138,  937.977373
-17126.960679,  937.009029
-17108.286220,  936.040686
-17089.611761,  935.072342
-17070.937303,  934.103999
-17052.262010,  933.136028
-17033.586645,  932.168089
-17014.911281,  931.200150
-16996.235917,  930.232211
-16977.560553,  929.264272
-16958.885189,  928.296333
-16940.209824,  927.328395
-16921.534460,  926.360456
-16902.859096,  925.392517
-16884.183732,  924.424578
-16865.507567,  923.456900
-16846.831333,  922.489244
-16828.155100,  921.521588
-16809.478866,  920.553932
-16790.802633,  919.586277
-16772.126399,  918.618621
-16753.450166,  917.650965
-16734.773932,  916.683309
-16716.097699,  915.715653
-16697.421465,  914.747997
-16678.744318,  913.779927
-16660.067092,  912.811821
-16641.389867,  911.843715
-16622.712642,  910.875609
-16604.035416,  909.907503
-16585.358191,  908.939397
-16566.680965,  907.971291
-16548.003740,  907.003185
-16529.326514,  906.035079
-16510.649289,  905.066974
-16491.971165,  904.099022
-16473.292964,  903.131084
-16454.614763,  902.163146
-16435.936562,  901.195208
-16417.258362,  900.227269
-16398.580161,  899.259331
-16379.901960,  898.291393
-16361.223759,  897.323455
-16342.545558,  896.355517
-16323.867357,  895.387578
-16305.188340,  894.420014
-16286.509253,  893.452483
-16267.830167,  892.484951
-16249.151080,  891.517419
-16230.471993,  890.549887
-16211.792906,  889.582355
-16193.113819,  888.614823
-16174.434732,  887.647291
-16155.755646,  886.679759
-16137.076559,  885.712227
-16118.396688,  884.744949
-16099.716751,  883.777692
-16081.036814,  882.810436
-16062.356877,  881.843179
-16043.676940,  880.875922
-16024.997002,  879.908666
-16006.317065,  878.941409
-15987.637128,  877.974152
-15968.957191,  877.006896
-15950.277254,  876.039639
-15931.596417,  875.071952
-15912.915503,  874.104228
-15894.234589,  873.136503
-15875.553676,  872.168779
-15856.872762,  871.201055
-15838.191848,  870.233331
-15819.510935,  869.265607
-15800.830021,  868.297883
-15782.149107,  867.330158
-15763.468194,  866.362434
-15744.786392,  865.394843
-15726.104514,  864.427263
-15707.422636,  863.459683
-15688.740758,  862.492103
-15670.058880,  861.524522
-15651.377002,  860.556942
-15632.695124,  859.589362
-15614.013246,  858.621782
-15595.331368,  857.654202
-15576.649490,  856.686622
-15557.966801,  855.719390
-15539.284043,  854.752187
-15520.601285,  853.784985
-15501.918527,  852.817782
-15483.235769,  851.850579
-15464.553011,  850.883377
-15445.870253,  849.916174
-15427.187495,  848.948972
-15408.504737,  847.981769
-15389.821979,  847.014566
-15371.138438,  846.047588
-15352.454829,  845.080628
-15333.771221,  844.113668
-15315.087613,  843.146708
-15296.404005,  842.179748
-15277.720397,  841.212789
-15259.036788,  840.245829
-15240.353180,  839.278869
-15221.669572,  838.311909
-15202.985964,  837.344949
-15184.301450,  836.377526
-15165.616860,  835.410064
-15146.932269,  834.442601
-15128.247678,  833.475139
-15109.563088,  832.507677
-15090.878497,  831.540214
-15072.193906,  830.572752
-15053.509316,  829.605289
-15034.824725,  828.637827
-15016.140134,  827.670364
-14997.454644,  826.703004
-14978.769077,  825.735652
-14960.083511,  824.768300
-14941.397944,  823.800948
-14922.712377,  822.833596
-14904.026810,  821.866244
-14885.341244,  820.898892
-14866.655677,  819.931540
-14847.970110,  818.964188
-14829.284543,  817.996836
-14810.598150,  817.029804
-14791.911686,  816.062798
-14773.225223,  815.095793
-14754.538759,  814.128788
-14735.852295,  813.161783
-14717.165831,  812.194778
-14698.479368,  811.227773
-14679.792904,  810.260768
-14661.106440,  809.293762
-14642.419976,  808.326757
-14623.732831,  807.360818
-14605.045627,  806.394969
-14586.358423,  805.429120
-14567.671219,  804.463271
-14548.984015,  803.497422
-14530.296812,  802.531574
-14511.609608,  801.565725
-14492.922404,  800.599876
-14474.235200,  799.634027
-14455.547996,  798.668178
-14436.860169,  797.702340
-14418.172289,  796.736503
-14399.484409,  795.770665
-14380.796529,  794.804828
-14362.108649,  793.838990
-14343.420769,  792.873153
-14324.732889,  791.907316
-14306.045009,  790.941478
-14287.357129,  789.975641
-14268.669249,  789.009803
-14249.980641,  788.043871
-14231.291970,  787.077931
-14212.603300,  786.111990
-14193.914629,  785.146050
-14175.225959,  784.180109
-14156.537288,  783.214169
-14137.848618,  782.248229
-14119.159947,  781.282288
-14100.471277,  780.316348
-14081.782606,  779.350407
-14063.093296,  778.384817
-14044.403932,  777.419257
-14025.714568,  776.453697
-14007.025204,  775.488137
-13988.335840,  774.522577
-13969.646476,  773.557017
-13950.957111,  772.591456
-13932.267747,  771.625896
-13913.578383,  770.660336
-13894.889019,  769.694776
-13876.198902,  768.728818
-13857.508722,  767.762827
-13838.818541,  766.796835
-13820.128360,  765.830843
-13801.438179,  764.864852
-13782.747999,  763.898860
-13764.057818,  762.932868
-13745.367637,  761.966877
-13726.677456,  761.000885
-13707.987276,  760.034893
-13689.296348,  759.069015
-13670.605357,  758.103146
-13651.914366,  757.137277
-13633.223375,  756.171408
-13614.532384,  755.205539
-13595.841393,  754.239670
-13577.150402,  753.273801
-13558.459410,  752.307932
-13539.768419,  751.342064
-13521.077428,  750.376195
-13502.385721,  749.410074
-13483.693952,  748.443932
-13465.002183,  747.477790
-13446.310415,  746.511648
-13427.618646,  745.545506
-13408.926878,  744.579364
-13390.235109,  743.613222
-13371.543341,  742.647080
-13352.851572,  741.680938
-13334.159803,  740.714795
-13315.466899,  739.747350
-13296.773898,  738.779793
-13278.080897,  737.812237
-13259.387896,  736.844680
-13240.694895,  735.877124
-13222.001894,  734.909567
-13203.308893,  733.942011
-13184.615892,  732.974454
-13165.922891,  732.006898
-13147.229890,  731.039341
-13128.535846,  730.071491
-13109.841713,  729.103615
-13091.147580,  728.135740
-13072.453447,  727.167864
-13053.759314,  726.199989
-13035.065181,  725.232113
-13016.371048,  724.264238
-12997.676915,  723.296363
-12978.982782,  722.328487
-12960.288650,  721.360612
-12941.593114,  720.391450
-12922.897459,  719.422178
-12904.201803,  718.452906
-12885.506148,  717.483634
-12866.810493,  716.514362
-12848.114838,  715.545090
-12829.419183,  714.575818
-12810.723527,  713.606546
-12792.027872,  712.637274
-12773.332217,  711.668003
-12754.635222,  710.698765
-12735.938113,  709.729531
-12717.241004,  708.760297
-12698.543894,  707.791063
-12679.846785,  706.821829
-12661.149676,  705.852595
-12642.452567,  704.883361
-12623.755458,  703.914126
-12605.058348,  702.944892
-12586.361239,  701.975658
-12567.662883,  701.006822
-12548.964420,  700.038019
-12530.265957,  699.069216
-12511.567494,  698.100414
-12492.869031,  697.131611
-12474.170568,  696.162809
-12455.472105,  695.194006
-12436.773642,  694.225203
-12418.075179,  693.256401
-12399.376716,  692.287598
-12380.676977,  691.318396
-12361.977129,  690.349159
-12343.277280,  689.379923
-12324.577432,  688.410686
-12305.877584,  687.441450
-12287.177736,  686.472214
-12268.477888,  685.502977
-12249.778039,  684.533741
-12231.078191,  683.564504
-12212.378343,  682.595268
-12193.676813,  681.624767
-12174.975140,  680.654159
-12156.273467,  679.683551
-12137.571794,  678.712942
-12118.870121,  677.742334
-12100.168448,  676.771725
-12081.466775,  675.801117
-12062.765102,  674.830509
-12044.063429,  673.859900
-12025.361756,  672.889292
-12006.658531,  671.918781
-11987.955174,  670.948279
-11969.251817,  669.977776
-11950.548460,  669.007274
-11931.845103,  668.036772
-11913.141746,  667.066269
-11894.438389,  666.095767
-11875.735032,  665.125265
-11857.031675,  664.154762
-11838.328318,  663.184260
-11819.623319,  662.213417
-11800.918180,  661.242544
-11782.213041,  660.271672
-11763.507902,  659.300799
-11744.802763,  658.329927
-11726.097623,  657.359054
-11707.392484,  656.388182
-11688.687345,  655.417309
-11669.982206,  654.446437
-11651.277067,  653.475565
-11632.570268,  652.504342
-11613.863329,  651.533090
-11595.156389,  650.561837
-11576.449449,  649.590585
-11557.742509,  648.619333
-11539.035569,  647.648080
-11520.328630,  646.676828
-11501.621690,  645.705575
-11482.914750,  644.734323
-11464.207810,  643.763071
-11445.498884,  642.790676
-11426.789789,  641.818184
-11408.080694,  640.845692
-11389.371599,  639.873200
-11370.662504,  638.900708
-11351.953409,  637.928216
-11333.244314,  636.955724
-11314.535219,  635.983232
-11295.826124,  635.010740
-11277.117029,  634.038248
-11258.405982,  633.065313
-11239.694769,  632.092340
-11220.983556,  631.119368
-11202.272342,  630.146395
-11183.561129,  629.173423
-11164.849915,  628.200450
-11146.138702,  627.227477
-11127.427489,  626.254505
-11108.716275,  625.281532
-11090.005062,  624.308559
-11071.291575,  623.334451
-11052.577894,  622.360245
-11033.864213,  621.386040
-11015.150532,  620.411834
-10996.436852,  619.437628
-10977.723171,  618.463423
-10959.009490,  617.489217
-10940.295809,  616.515012
-10921.582129,  615.540806
-10902.868448,  614.566600
-10884.152662,  613.593099
-10865.436697,  612.619657
-10846.720732,  611.646216
-10828.004767,  610.672774
-10809.288802,  609.699333
-10790.572837,  608.725891
-10771.856872,  607.752449
-10753.140907,  606.779008
-10734.424942,  605.805566
-10715.708977,  604.832125
-10696.990973,  603.858644
-10678.272795,  602.885160
-10659.554617,  601.911677
-10640.836439,  600.938193
-10622.118261,  599.964709
-10603.400083,  598.991225
-10584.681905,  598.017742
-10565.963727,  597.044258
-10547.245549,  596.070774
-10528.527371,  595.097290
-10509.807189,  594.124518
-10491.086837,  593.151806
-10472.366485,  592.179094
-10453.646132,  591.206383
-10434.925780,  590.233671
-10416.205428,  589.260959
-10397.485076,  588.288247
-10378.764723,  587.315536
-10360.044371,  586.342824
-10341.324019,  585.370112
-10322.601722,  584.397332
-10303.879260,  583.424546
-10285.156797,  582.451760
-10266.434335,  581.478973
-10247.711872,  580.506187
-10228.989410,  579.533401
-10210.266947,  578.560615
-10191.544485,  577.587829
-10172.822022,  576.615042
-10154.099560,  575.642256
-10135.375177,  574.670119
-10116.650630,  573.698038
-10097.926083,  572.725957
-10079.201536,  571.753875
-10060.476989,  570.781794
-10041.752442,  569.809712
-10023.027895,  568.837631
-10004.303348,  567.865549
-9985.578801,  566.893468
-9966.854254,  565.921387
-9948.127860,  564.949304
-9929.401310,  563.977222
-9910.674759,  563.005140
-9891.948208,  562.033057
-9873.221657,  561.060975
-9854.495107,  560.088893
-9835.768556,  559.116810
-9817.042005,  558.144728
-9798.315454,  557.172646
-9779.588904,  556.200563
-9760.860388,  555.227955
-9742.131705,  554.255303
-9723.403022,  553.282650
-9704.674340,  552.309997
-9685.945657,  551.337344
-9667.216974,  550.364691
-9648.488291,  549.392038
-9629.759608,  548.419386
-9611.030925,  547.446733
-9592.302242,  546.474080
-9573.571258,  545.500204
-9554.840077,  544.526225
-9536.108897,  543.552245
-9517.377716,  542.578265
-9498.646536,  541.604285
-9479.915355,  540.630305
-9461.184174,  539.656326
-9442.452994,  538.682346
-9423.721813,  537.708366
-9404.990633,  536.734386
-9386.257307,  535.761035
-9367.523798,  534.787738
-9348.790289,  533.814440
-9330.056781,  532.841143
-9311.323272,  531.867845
-9292.589763,  530.894548
-9273.856254,  529.921251
-9255.122745,  528.947953
-9236.389237,  527.974656
-9217.655728,  527.001358
-9198.920128,  526.027952
-9180.184349,  525.054536
-9161.448571,  524.081121
-9142.712793,  523.107705
-9123.977014,  522.134289
-9105.241236,  521.160874
-9086.505457,  520.187458
-9067.769679,  519.214042
-9049.033901,  518.240626
-9030.298122,  517.267211
-9011.560279,  516.294452
-8992.822260,  515.321748
-8974.084240,  514.349045
-8955.346221,  513.376342
-8936.608202,  512.403638
-8917.870183,  511.430935
-8899.132163,  510.458232
-8880.394144,  509.485528
-8861.656125,  508.512825
-8842.918106,  507.540122
-8824.178074,  506.567307
-8805.437870,  505.594482
-8786.697667,  504.621657
-8767.957464,  503.648832
-8749.217260,  502.676007
-8730.477057,  501.703183
-8711.736853,  500.730358
-8692.996650,  499.757533
-8674.256447,  498.784708
-8655.516243,  497.811883
-8636.774047,  496.839684
-8618.031681,  495.867539
-8599.289315,  494.895393
-8580.546950,  493.923247
-8561.804584,  492.951102
-8543.062218,  491.978956
-8524.319852,  491.006810
-8505.577486,  490.034665
-8486.835120,  489.062519
-8468.092754,  488.090373
-8449.348470,  487.118218
-8430.604022,  486.146062
-8411.859573,  485.173906
-8393.115125,  484.201750
-8374.370677,  483.229594
-8355.626229,  482.257438
-8336.881781,  481.285281
-8318.137333,  480.313125
-8299.392884,  479.340969
-8280.648436,  478.368813
-8261.901953,  477.396138
-8243.155296,  476.423418
-8224.408639,  475.450699
-8205.661982,  474.477979
-8186.915325,  473.505259
-8168.168668,  472.532540
-8149.422011,  471.559820
-8130.675354,  470.587101
-8111.928697,  469.614381
-8093.182040,  468.641661
-8074.433015,  467.667738
-8055.683788,  466.693713
-8036.934560,  465.719687
-8018.185333,  464.745662
-7999.436106,  463.771636
-7980.686879,  462.797611
-7961.937652,  461.823585
-7943.188424,  460.849560
-7924.439197,  459.875534
-7905.689970,  458.901509
-7886.938538,  457.928153
-7868.186919,  456.954854
-7849.435300,  455.981556
-7830.683680,  455.008257
-7811.932061,  454.034958
-7793.180441,  453.061660
-7774.428822,  452.088361
-7755.677202,  451.115063
-7736.925583,  450.141764
-7718.173964,  449.168465
-7699.420203,  448.195107
-7680.666260,  447.221743
-7661.912316,  446.248379
-7643.158373,  445.275015
-7624.404430,  444.301651
-7605.650487,  443.328287
-7586.896543,  442.354924
-7568.142600,  441.381560
-7549.388657,  440.408196
-7530.634714,  439.434832
-7511.878666,  438.462185
-7493.122439,  437.489598
-7474.366212,  436.517011
-7455.609985,  435.544425
-7436.853758,  434.571838
-7418.097531,  433.599252
-7399.341303,  432.626665
-7380.585076,  431.654079
-7361.828849,  430.681492
-7343.072622,  429.708906
-7324.314354,  428.736268
-7305.555911,  427.763625
-7286.797469,  426.790983
-7268.039026,  425.818341
-7249.280584,  424.845699
-7230.522141,  423.873056
-7211.763699,  422.900414
-7193.005256,  421.927772
-7174.246814,  420.955130
-7155.488371,  419.982487
-7136.727918,  419.010535
-7117.967294,  418.038642
-7099.206669,  417.066748
-7080.446045,  416.094854
-7061.685420,  415.122961
-7042.924796,  414.151067
-7024.164171,  413.179174
-7005.403546,  412.207280
-6986.642922,  411.235387
-6967.882297,  410.263493
-6949.119714,  409.291488
-6930.356963,  408.319474
-6911.594212,  407.347460
-6892.831461,  406.375446
-6874.068711,  405.403431
-6855.305960,  404.431417
-6836.543209,  403.459403
-6817.780458,  402.487389
-6799.017708,  401.515374
-6780.254957,  400.543360
-6761.490147,  399.570892
-6742.725161,  398.598385
-6723.960176,  397.625878
-6705.195190,  396.653370
-6686.430205,  395.680863
-6667.665219,  394.708356
-6648.900234,  393.735849
-6630.135248,  392.763342
-6611.370263,  391.790835
-6592.605277,  390.818328
-6573.837909,  389.844678
-6555.070339,  388.870931
-6536.302768,  387.897184
-6517.535197,  386.923436
-6498.767626,  385.949689
-6480.000056,  384.975942
-6461.232485,  384.002195
-6442.464914,  383.028448
-6423.697343,  382.054700
-6404.929773,  381.080953
-6386.159994,  380.107939
-6367.390028,  379.134987
-6348.620062,  378.162035
-6329.850096,  377.189083
-6311.080130,  376.216132
-6292.310163,  375.243180
-6273.540197,  374.270228
-6254.770231,  373.297276
-6236.000265,  372.324324
-6217.230298,  371.351372
-6198.458197,  370.378412
-6179.685913,  369.405451
-6160.913629,  368.432489
-6142.141345,  367.459528
-6123.369061,  366.486567
-6104.596778,  365.513606
-6085.824494,  364.540645
-6067.052210,  363.567683
-6048.279926,  362.594722
-6029.507642,  361.621761
-6010.733267,  360.649559
-5991.958712,  359.677422
-5973.184158,  358.705286
-5954.409604,  357.733149
-5935.635050,  356.761012
-5916.860496,  355.788875
-5898.085941,  354.816738
-5879.311387,  353.844601
-5860.536833,  352.872465
-5841.762279,  351.900328
-5822.985700,  350.928167
-5804.208949,  349.956004
-5785.432197,  348.983841
-5766.655446,  348.011678
-5747.878694,  347.039514
-5729.101943,  346.067351
-5710.325191,  345.095188
-5691.548440,  344.123025
-5672.771689,  343.150862
-5653.994937,  342.178699
-5635.216194,  341.207242
-5616.437280,  340.235845
-5597.658367,  339.264448
-5578.879454,  338.293051
-5560.100540,  337.321655
-5541.321627,  336.350258
-5522.542714,  335.378861
-5503.763800,  334.407464
-5484.984887,  333.436067
-5466.205974,  332.464670
-5447.425119,  331.493161
-5428.644099,  330.521642
-5409.863079,  329.550122
-5391.082059,  328.578603
-5372.301039,  327.607084
-5353.520019,  326.635565
-5334.738999,  325.664046
-5315.957979,  324.692527
-5297.176959,  323.721008
-5278.395938,  322.749489
-5259.612874,  321.777499
-5240.829635,  320.805469
-5222.046395,  319.833439
-5203.263156,  318.861409
-5184.479917,  317.889379
-5165.696678,  316.917349
-5146.913439,  315.945320
-5128.130200,  314.973290
-5109.346961,  314.001260
-5090.563722,  313.029230
-5071.778109,  312.056026
-5052.992294,  311.082721
-5034.206478,  310.109417
-5015.420663,  309.136113
-4996.634848,  308.162808
-4977.849032,  307.189504
-4959.063217,  306.216200
-4940.277402,  305.242895
-4921.491586,  304.269591
-4902.705771,  303.296287
-4883.917751,  302.323681
-4865.129542,  301.351135
-4846.341334,  300.378590
-4827.553125,  299.406044
-4808.764917,  298.433498
-4789.976709,  297.460952
-4771.188500,  296.488406
-4752.400292,  295.515860
-4733.612083,  294.543314
-4714.823875,  293.570768
-4696.033525,  292.598169
-4677.242993,  291.625565
-4658.452461,  290.652961
-4639.661929,  289.680357
-4620.871397,  288.707753
-4602.080865,  287.735149
-4583.290333,  286.762545
-4564.499801,  285.789941
-4545.709269,  284.817338
-4526.918737,  283.844734
-4508.126098,  282.872843
-4489.333280,  281.901013
-4470.540463,  280.929184
-4451.747645,  279.957354
-4432.954827,  278.985524
-4414.162009,  278.013695
-4395.369191,  277.041865
-4376.576374,  276.070035
-4357.783556,  275.098206
-4338.990738,  274.126376
-4320.195873,  273.154471
-4301.400833,  272.182560
-4282.605793,  271.210648
-4263.810753,  270.238737
-4245.015713,  269.266825
-4226.220674,  268.294914
-4207.425634,  267.323002
-4188.630594,  266.351091
-4169.835554,  265.379179
-4151.040514,  264.407268
-4132.243451,  263.436016
-4113.446216,  262.464820
-4094.648980,  261.493624
-4075.851745,  260.522429
-4057.054509,  259.551233
-4038.257274,  258.580037
-4019.460039,  257.608841
-4000.662803,  256.637645
-3981.865568,  255.666450
-3963.068332,  254.695254
-3944.269120,  253.723899
-3925.469738,  252.752531
-3906.670357,  251.781163
-3887.870976,  250.809795
-3869.071595,  249.838428
-3850.272214,  248.867060
-3831.472833,  247.895692
-3812.673452,  246.924324
-3793.874071,  245.952956
-3775.074689,  244.981588
-3756.273226,  244.009707
-3737.471585,  243.037783
-3718.669943,  242.065859
-3699.868302,  241.093935
-3681.066661,  240.122011
-3662.265020,  239.150087
-3643.463379,  238.178163
-3624.661737,  237.206239
-3605.860096,  236.234315
-3587.058455,  235.262390
-3568.254404,  234.289251
-3549.450148,  233.316009
-3530.645891,  232.342766
-3511.841635,  231.369524
-3493.037378,  230.396281
-3474.233122,  229.423039
-3455.428866,  228.449796
-3436.624609,  227.476554
-3417.820353,  226.503311
-3399.016096,  225.530068
-3380.209594,  224.557497
-3361.402900,  223.584983
-3342.596206,  222.612469
-3323.789512,  221.639955
-3304.982818,  220.667441
-3286.176124,  219.694926
-3267.369430,  218.722412
-3248.562736,  217.749898
-3229.756042,  216.777384
-3210.949348,  215.804870
-3192.140477,  214.832278
-3173.331420,  213.859680
-3154.522364,  212.887081
-3135.713307,  211.914483
-3116.904250,  210.941884
-3098.095194,  209.969285
-3079.286137,  208.996687
-3060.477081,  208.024088
-3041.668024,  207.051490
-3022.858967,  206.078891
-3004.047769,  205.106989
-2985.236388,  204.135146
-2966.425007,  203.163303
-2947.613626,  202.191460
-2928.802245,  201.219617
-2909.990864,  200.247774
-2891.179483,  199.275931
-2872.368102,  198.304088
-2853.556721,  197.332245
-2834.745340,  196.360402
-2815.931882,  195.388468
-2797.118248,  194.416526
-2778.304613,  193.444584
-2759.490979,  192.472642
-2740.677344,  191.500700
-2721.863709,  190.528757
-2703.050075,  189.556815
-2684.236440,  188.584873
-2665.422806,  187.612931
-2646.609171,  186.640989
-2627.793485,  185.669695
-2608.977625,  184.698457
-2590.161764,  183.727218
-2571.345903,  182.755979
-2552.530043,  181.784740
-2533.714182,  180.813502
-2514.898322,  179.842263
-2496.082461,  178.871024
-2477.266600,  177.899785
-2458.450740,  176.928547
-2439.632878,  175.957137
-2420.814846,  174.985712
-2401.996814,  174.014288
-2383.178782,  173.042864
-2364.360750,  172.071439
-2345.542718,  171.100015
-2326.724686,  170.128590
-2307.906654,  169.157166
-2289.088622,  168.185741
-2270.270590,  167.214317
-2251.450452,  166.242366
-2232.630134,  165.270371
-2213.809817,  164.298375
-2194.989499,  163.326379
-2176.169181,  162.354384
-2157.348863,  161.382388
-2138.528545,  160.410392
-2119.708228,  159.438397
-2100.887910,  158.466401
-2082.067592,  157.494406
-2063.244838,  156.521179
-2044.421876,  155.547847
-2025.598914,  154.574516
-2006.775952,  153.601184
-1987.952990,  152.627853
-1969.130028,  151.654521
-1950.307066,  150.681189
-1931.484104,  149.707858
-1912.661142,  148.734526
-1893.838180,  147.761195
-1875.012944,  146.788527
-1856.187515,  145.815916
-1837.362085,  144.843306
-1818.536656,  143.870695
-1799.711226,  142.898084
-1780.885797,  141.925473
-1762.060367,  140.952862
-1743.234938,  139.980252
-1724.409508,  139.007641
-1705.584079,  138.035030
-1686.756444,  137.062333
-1667.928620,  136.089629
-1649.100797,  135.116925
-1630.272974,  134.144220
-1611.445151,  133.171516
-1592.617327,  132.198812
-1573.789504,  131.226107
-1554.961681,  130.253403
-1536.133857,  129.280699
-1517.306034,  128.307995
-1498.476040,  127.335983
-1479.645860,  126.364031
-1460.815680,  125.392079
-1441.985501,  124.420127
-1423.155321,  123.448175
-1404.325141,  122.476223
-1385.494962,  121.504271
-1366.664782,  120.532319
-1347.834603,  119.560367
-1329.004423,  118.588415
-1310.172137,  117.616368
-1291.339671,  116.644312
-1272.507206,  115.672257
-1253.674740,  114.700201
-1234.842275,  113.728146
-1216.009809,  112.756091
-1197.177344,  111.784035
-1178.344878,  110.811980
-1159.512413,  109.839925
-1140.679947,  108.867869
-1121.845401,  107.896464
-1103.010677,  106.925113
-1084.175954,  105.953763
-1065.341230,  104.982413
-1046.506506,  104.011063
-1027.671782,  103.039713
-1008.837059,  102.068363
-990.002335,  101.097013
-971.167611,  100.125662
-952.332887,   99.154312
-933.496134,   98.182792
-914.659207,   97.211257
-895.822280,   96.239722
-876.985353,   95.268187
-858.148427,   94.296651
-839.311500,   93.325116
-820.474573,   92.353581
-801.637646,   91.382046
-782.800720,   90.410511
-763.963793,   89.438976
-745.124731,   88.466916
-726.285487,   87.494812
-707.446243,   86.522707
-688.607000,   85.550603
-669.767756,   84.578498
-650.928512,   83.606393
-632.089268,   82.634289
-613.250024,   81.662184
-594.410780,   80.690080
-575.571537,   79.717975
-556.729827,   78.744640
-537.887908,   77.771200
-519.045989,   76.797759
-500.204069,   75.824319
-481.362150,   74.850879
-462.520231,   73.877439
-443.678312,   72.903998
-424.836392,   71.930558
-405.994473,   70.957118
-387.152554,   69.983678
-368.308334,   69.010912
-349.463918,   68.038203
-330.619502,   67.065494
-311.775086,   66.092785
-292.930670,   65.120076
-274.086254,   64.147368
-255.241838,   63.174659
-236.397422,   62.201950
-217.553006,   61.229241
-198.708590,   60.256532
-179.861943,   59.283745
-161.015105,   58.310951
-142.168268,   57.338157
-123.321431,   56.365363
-104.474594,   55.392568
 -85.627757,   54.419774
 -66.780919,   53.446980
 -47.934082,   52.474186
 -29.087245,   51.501392
 -10.240408,   50.528598
  -0.000000,   50.000000
  18.849271,   49.028014
  37.698543,   48.056028
  56.547814,   47.084042
  75.397085,   46.112057
  94.246356,   45.140071
 113.095628,   44.168085
 131.944899,   43.196099
 150.794170,   42.224113
 169.643441,   41.252127
 188.427277,   40.283541
 207.135756,   39.318870
 225.844236,   38.354199
 244.552715,   37.389528
 263.261195,   36.424857
 281.969674,   35.460186
 300.678154,   34.495515
 319.386633,   33.530844
 338.095113,   32.566173
 356.803593,   31.601502
 375.379205,   30.643656
 393.801807,   29.693672
 412.224409,   28.743687
 430.647012,   27.793702
 449.069614,   26.843717
 467.492217,   25.893733
 485.914819,   24.943748
 504.337422,   23.993763
 522.760024,   23.043778
 541.182627,   22.093794
 559.526912,   21.147880
 577.781006,   20.206654
 581.788840,   20.000000
 599.897593,   19.065318
 618.006345,   18.130637
 636.115098,   17.195955
 654.223851,   16.261273
 672.332604,   15.326592
 690.441357,   14.391910
 708.550109,   13.457228
 726.658862,   12.522546
 744.487431,   11.727336
 762.186754,   10.996463
 779.886078,   10.265589
 797.585402,    9.534715
 815.284726,    8.803841
 832.984050,    8.072967
 850.683374,    7.342093
 868.382698,    6.611219
 886.082021,    5.880345
 903.781345,    5.149471
 921.023680,    4.686046
 938.055213,    4.345991
 955.086746,    4.005935
 972.118279,    3.665879
 989.149812,    3.325824
1006.181345,    2.985768
1023.212878,    2.645713
1040.244411,    2.305657
1047.271417,    2.165354
1063.833958,    2.044313
1080.349208,    1.935003
1096.423804,    1.935003
1112.498399,    1.935003
1128.572995,    1.935003
1144.647591,    1.935003
1160.722187,    1.935003
1176.796783,    1.935003
1192.871379,    1.935003
1208.945975,    1.935003
1225.020570,    1.935003
1241.021084,    1.935003
1256.331296,    1.935003
1271.641507,    1.935003
1286.951719,    1.935003
1302.261931,    1.935003
1317.572143,    1.935003
1332.882355,    1.935003
1348.192566,    1.935003
1363.502778,    1.935003
1378.812990,    1.935003
1394.016679,    1.935003
1408.227788,    1.935003
1422.438897,    1.935003
1436.650006,    1.935003
1450.861115,    1.935003
1465.072223,    1.935003
1479.283332,    1.935003
1493.494441,    1.935003
1507.705550,    1.935003
1521.916659,    1.935003
1535.586528,    1.935003
1548.444008,    1.935003
1561.301489,    1.935003
1574.158969,    1.935003
1587.016449,    1.935003
1599.873929,    1.935003
1612.731409,    1.935003
1625.588889,    1.935003
1638.446370,    1.935003
1651.303850,    1.935003
1663.612922,    1.935003
1675.098845,    1.935003
1686.584768,    1.935003
1698.070691,    1.935003
1709.556614,    1.935003
1721.042537,    1.935003
1732.528460,    1.935003
1744.014383,    1.935003
1755.500306,    1.935003
1766.986229,    1.935003
1777.927828,    1.935003
1788.052408,    1.935003
1798.176988,    1.935003
1808.301568,    1.935003
1818.426147,    1.935003
1828.550727,    1.935003
1838.675307,    1.935003
1848.799887,    1.935003
1858.924467,    1.935003
1869.049047,    1.935003
1878.636238,    1.935003
1887.416822,    1.935003
1896.197406,    1.935003
1904.977990,    1.935003
1913.758574,    1.935003
1922.539158,    1.935003
1931.319742,    1.935003
1940.100326,    1.935003
1948.880910,    1.935003
1957.661494,    1.935003
1965.910060,    1.935003
1973.360078,    1.935003
1980.810097,    1.935003
1988.260115,    1.935003
1995.710133,    1.935003
2003.160152,    1.935003
2010.610170,    1.935003
2018.060189,    1.935003
2025.510207,    1.935003
2032.960226,    1.935003
2039.877898,    1.935003
2045.996530,    1.935003
2052.115162,    1.935003
2058.233794,    1.935003
2064.352426,    1.935003
2070.471059,    1.935003
2076.589691,    1.935003
2082.708323,    1.935003
2088.826955,    1.935003
2094.945587,    1.935003
2100.533366,    1.935003
2105.324345,    1.935003
2110.115324,    1.935003
2114.906303,    1.935003
2119.697282,    1.935003
2124.488261,    1.935003
2129.279240,    1.935003
2134.070219,    1.935003
2138.861197,    1.935003
2143.652176,    1.935003
2147.916545,    1.935003
2151.390483,    1.935003
2154.864421,    1.935003
2158.338359,    1.935003
2161.812296,    1.935003
2165.286234,    1.935003
2168.760172,    1.935003
2172.234110,    1.935003
2175.708048,    1.935003
2179.181986,    1.935003
2182.136220,    1.935003
2184.310389,    1.935003
2186.484558,    1.935003
2188.658727,    1.935003
2190.832896,    1.935003
2193.007066,    1.935003
2195.181235,    1.935003
2197.355404,    1.935003
2199.529573,    1.935003
2201.703742,    1.935003
2203.367636,    1.935003
2204.265619,    1.935003
2205.163601,    1.935003
2206.061583,    1.935003
2206.959566,    1.935003
2207.857548,    1.935003
2208.755530,    1.935003
2209.653513,    1.935003
2210.551495,    1.935003
2211.449477,    1.935003
2212.043292,    1.935003
2212.180557,    1.935003
2212.279349,    1.935003
