Ground distance, Load Factor
   0.000000,    0.000000
   0.050435,    0.000012
   0.553755,    0.000127
   1.112916,    0.000256
   1.672076,    0.000384
   2.231237,    0.000513
   2.790397,    0.000641
   3.349558,    0.000769
   3.908718,    0.000898
   4.467879,    0.001026
   5.027040,    0.001155
   5.586200,    0.001283
   6.952679,    0.001594
   8.419959,    0.001928
   9.887239,    0.002262
  11.354518,    0.002596
  12.821798,    0.002930
  14.289078,    0.003263
  15.756358,    0.003597
  17.223638,    0.003931
  18.690918,    0.004265
  20.158198,    0.004599
  22.424280,    0.005109
  24.790100,    0.005642
  27.155921,    0.006175
  29.521741,    0.006707
  31.887561,    0.007240
  34.253382,    0.007772
  36.619202,    0.008305
  38.985022,    0.008837
  41.350842,    0.009370
  43.716663,    0.009903
  46.872517,    0.010606
  50.127015,    0.011330
  53.381512,    0.012055
  56.636010,    0.012780
  59.890507,    0.013504
  63.145005,    0.014229
  66.399502,    0.014953
  69.654000,    0.015678
  72.908497,    0.016402
  76.162995,    0.017127
  80.198519,    0.018016
  84.331562,    0.018925
  88.464605,    0.019835
  92.597648,    0.020744
  96.730691,    0.021654
 100.863734,    0.022563
 104.996777,    0.023473
 109.129820,    0.024382
 113.262862,    0.025292
 117.395905,    0.026201
 122.300743,    0.027269
 127.301948,    0.028356
 132.303152,    0.029444
 137.304356,    0.030531
 142.305560,    0.031618
 147.306764,    0.032706
 152.307968,    0.033793
 157.309172,    0.034880
 162.310376,    0.035968
 167.311580,    0.037055
 173.074813,    0.038292
 178.933193,    0.039548
 184.791573,    0.040804
 190.649954,    0.042060
 196.508334,    0.043316
 202.366714,    0.044572
 208.225094,    0.045828
 214.083474,    0.047084
 219.941854,    0.048340
 225.800234,    0.049596
 232.408500,    0.050990
 239.110397,    0.052402
 245.812293,    0.053814
 252.514190,    0.055226
 259.216086,    0.056638
 265.917982,    0.058050
 272.619879,    0.059462
 279.321775,    0.060874
 286.023672,    0.062286
 292.725568,    0.063698
 300.164186,    0.065241
 307.694790,    0.066799
 315.225394,    0.068358
 322.755998,    0.069916
 330.286603,    0.071474
 337.817207,    0.073033
 345.347811,    0.074591
 352.878415,    0.076150
 360.409020,    0.077708
 367.939624,    0.079267
 376.193726,    0.080947
 384.538164,    0.082643
 392.882602,    0.084339
 401.227039,    0.086034
 409.571477,    0.087730
 417.915915,    0.089425
 426.260353,    0.091121
 434.604791,    0.092817
 442.949228,    0.094512
 451.293666,    0.096208
 460.348337,    0.098017
 469.491687,    0.099841
 478.635037,    0.101665
 487.778387,    0.103488
 496.921738,    0.105312
 506.065088,    0.107136
 515.208438,    0.108959
 524.351788,    0.110783
 533.495138,    0.112606
 542.638488,    0.114430
 552.478781,    0.116359
 562.406093,    0.118302
 572.333406,    0.120245
 582.260718,    0.122187
 592.188030,    0.124130
 602.115343,    0.126073
 612.042655,    0.128015
 621.969968,    0.129958
 631.897280,    0.131900
 641.824593,    0.133843
 652.435547,    0.135884
 663.131860,    0.137937
 673.828173,    0.139989
 684.524487,    0.142042
 695.220800,    0.144095
 705.917114,    0.146148
 716.613427,    0.148201
 727.309740,    0.150254
 738.006054,    0.152306
 748.702367,    0.154359
 760.068552,    0.156498
 771.518377,    0.158647
 782.968201,    0.160796
 794.418026,    0.162945
 805.867851,    0.165095
 817.317676,    0.167244
 828.767500,    0.169393
 840.217325,    0.171542
 851.667150,    0.173691
 863.116975,    0.175841
 875.220360,    0.178060
 887.405349,    0.180288
 899.590338,    0.182516
 911.775326,    0.184744
 923.960315,    0.186972
 936.145304,    0.189200
 948.330293,    0.191428
 960.515281,    0.193656
 972.700270,    0.195885
 984.885259,    0.198113
 997.706746,    0.200402
1010.607705,    0.202699
1023.508665,    0.204996
1036.409624,    0.207293
1049.310584,    0.209590
1062.211543,    0.211887
1075.112503,    0.214185
1088.013462,    0.216482
1100.914422,    0.218779
1113.815381,    0.221076
1127.336007,    0.223426
1140.934004,    0.225783
1154.532001,    0.228140
1168.129998,    0.230497
1181.727995,    0.232853
1195.325992,    0.235210
1208.923989,    0.237567
1222.521986,    0.239924
1236.119983,    0.242281
1249.717980,    0.244638
1263.919053,    0.247040
1278.195426,    0.249448
1292.471800,    0.251855
1306.748173,    0.254263
1321.024546,    0.256671
1335.300919,    0.259079
1349.577292,    0.261487
1363.853666,    0.263895
1378.130039,    0.266303
1392.406412,    0.268710
1407.269524,    0.271156
1422.205896,    0.273607
1437.142267,    0.276057
1452.078639,    0.278508
1467.015011,    0.280959
1481.951382,    0.283409
1496.887754,    0.285860
1511.824126,    0.288310
1526.760497,    0.290761
1541.696869,    0.293212
1557.203902,    0.295693
1572.782188,    0.298179
1588.360473,    0.300665
1603.938758,    0.303150
1619.517044,    0.305636
1635.095329,    0.308121
1650.673615,    0.310607
1666.251900,    0.313092
1681.830186,    0.315578
1697.408471,    0.318064
1713.541609,    0.320574
1729.744026,    0.323087
1745.946442,    0.325600
1762.148859,    0.328113
1778.351276,    0.330627
1794.553692,    0.333140
1810.756109,    0.335653
1826.958525,    0.338166
1843.160942,    0.340680
1859.363359,    0.343193
1876.105101,    0.345725
1892.914184,    0.348259
1909.723266,    0.350793
1926.532349,    0.353327
1943.341432,    0.355861
1960.150514,    0.358396
1976.959597,    0.360930
1993.768680,    0.363464
2010.577762,    0.365998
2027.386845,    0.368533
2044.720113,    0.371080
2062.118830,    0.373630
2079.517547,    0.376179
2096.916264,    0.378729
2114.314981,    0.381278
2131.713698,    0.383828
2149.112415,    0.386377
2166.511132,    0.388927
2183.909849,    0.391476
2201.308566,    0.394026
2219.216681,    0.396584
2237.188400,    0.399143
2255.160118,    0.401701
2273.131837,    0.404260
2291.103555,    0.406819
2309.075273,    0.409378
2327.046992,    0.411937
2345.018710,    0.414496
2362.990429,    0.417055
2380.962147,    0.419614
2399.289770,    0.422176
2417.661831,    0.424738
2436.033892,    0.427301
2454.405953,    0.429863
2462.037455,    0.430927
2480.684016,    0.449865
2499.330577,    0.468803
2517.977138,    0.487741
2536.623699,    0.506679
2555.270260,    0.525617
2574.044318,    0.543384
2593.109742,    0.558474
2612.175166,    0.573564
2631.240590,    0.588654
2650.306014,    0.603744
2669.371438,    0.618835
2688.436862,    0.633925
2707.502286,    0.649015
2726.567710,    0.664105
2745.633134,    0.679195
2764.853962,    0.696901
2784.429937,    0.720583
2804.005911,    0.744266
2823.581886,    0.767948
2843.157861,    0.791631
2862.733835,    0.815313
2882.309810,    0.838995
2901.885784,    0.862678
2921.461759,    0.886360
2941.037733,    0.910043
2960.759486,    0.933183
2980.814385,    0.955085
3000.869285,    0.976987
3020.924184,    0.998889
3040.979084,    1.020791
3061.033983,    1.042693
3081.088882,    1.064596
3101.143782,    1.086498
3121.198681,    1.108400
3141.253581,    1.130302
3155.204043,    1.145537
3175.638905,    1.163623
3196.073767,    1.181710
3216.508629,    1.199796
3236.943491,    1.217882
3257.378353,    1.235969
3277.813215,    1.254055
3298.248078,    1.272141
3318.682940,    1.290228
3339.117802,    1.308314
3359.552664,    1.326400
3380.121575,    1.327958
3400.690486,    1.329516
3421.259398,    1.331073
3441.828309,    1.332631
3462.397220,    1.334189
3482.999390,    1.334957
3503.601559,    1.335725
3524.203729,    1.336493
3544.805898,    1.337261
3565.408068,    1.338030
3585.995996,    1.337786
3606.583923,    1.337543
3627.171851,    1.337300
3647.759778,    1.337057
3668.347706,    1.336814
3688.935633,    1.336571
3709.523561,    1.336328
3730.111489,    1.336084
