Ground Distance, Angular Velocity
   0.000000,    0.000000
  18.623565,    0.000762
  37.247175,    0.001162
  55.870786,    0.001562
  74.494962,    0.001654
  93.119186,    0.001720
 111.743410,    0.001786
 130.367634,    0.001852
 148.991858,    0.001918
 167.616082,    0.001984
 186.240306,    0.002050
 204.864530,    0.002116
 223.488754,    0.002182
 242.112977,    0.002248
 260.737998,    0.002138
 279.363086,    0.002013
 297.988174,    0.001888
 316.613263,    0.001762
 335.238351,    0.001637
 353.863439,    0.001512
 372.488528,    0.001387
 391.113616,    0.001262
 409.738704,    0.001137
 428.363793,    0.001011
 446.989654,    0.001177
 465.615581,    0.001367
 484.241508,    0.001557
 502.867434,    0.001748
 521.493361,    0.001938
 540.119288,    0.002128
 558.745215,    0.002319
 577.371142,    0.002509
 595.997069,    0.002699
 614.622996,    0.002889
 633.249675,    0.002278
 651.876418,    0.001598
 670.503161,    0.000918
 689.129904,    0.000239
 707.756647,   -0.000441
 726.383391,   -0.001121
 745.010134,   -0.001801
 763.636877,   -0.002481
 782.263620,   -0.003160
 800.890363,   -0.003840
 819.517981,   -0.003477
 838.145674,   -0.003024
 856.773367,   -0.002572
 875.401060,   -0.002120
 894.028753,   -0.001667
 912.656445,   -0.001215
 931.284138,   -0.000763
 949.911831,   -0.000310
 968.539524,    0.000142
 987.167217,    0.000594
1005.795774,    0.000687
1024.424405,    0.000748
1043.053035,    0.000810
1061.681666,    0.000871
1080.310297,    0.000933
1098.938928,    0.000994
1117.567558,    0.001056
1136.196189,    0.001117
1154.824820,    0.001179
1173.453451,    0.001240
1192.082866,    0.001421
1210.712349,    0.001611
1229.341832,    0.001801
1247.971314,    0.001991
1266.600797,    0.002182
1285.230280,    0.002372
1303.859762,    0.002562
1322.489245,    0.002752
1341.118728,    0.002943
1359.748210,    0.003133
1378.378445,    0.002519
1397.008744,    0.001837
1415.639042,    0.001154
1434.269341,    0.000472
1452.899640,   -0.000210
1471.529938,   -0.000893
1490.160237,   -0.001575
1508.790536,   -0.002257
1527.420834,   -0.002940
1546.051133,   -0.003622
1564.682295,   -0.003261
1583.313531,   -0.002811
1601.944767,   -0.002361
1620.576003,   -0.001911
1639.207239,   -0.001461
1657.838475,   -0.001011
1676.469711,   -0.000561
1695.100947,   -0.000111
1713.732183,    0.000339
1732.363419,    0.000789
1750.995497,    0.000878
1769.627648,    0.000935
1788.259798,    0.000993
1806.891949,    0.001051
1825.524100,    0.001109
1844.156250,    0.001166
1862.788401,    0.001224
1881.420551,    0.001282
1900.052702,    0.001339
1918.684852,    0.001397
1937.317759,    0.001573
1955.950729,    0.001759
1974.583700,    0.001945
1993.216670,    0.002131
2011.849641,    0.002316
2030.482612,    0.002502
2049.115582,    0.002688
2067.748553,    0.002874
2086.381523,    0.003060
2105.014494,    0.003246
2123.648181,    0.002616
2142.281929,    0.001916
2160.915678,    0.001216
2179.549426,    0.000516
2198.183174,   -0.000183
2216.816923,   -0.000883
2235.450671,   -0.001583
2254.084419,   -0.002282
2272.718168,   -0.002982
2291.351916,   -0.003682
2309.986491,   -0.003316
2328.621136,   -0.002859
2347.255781,   -0.002402
2365.890427,   -0.001946
2384.525072,   -0.001489
2403.159717,   -0.001032
2421.794362,   -0.000575
2440.429008,   -0.000119
2459.063653,    0.000338
2477.698298,    0.000795
2496.333749,    0.000879
2514.969268,    0.000932
2533.604788,    0.000985
2552.240307,    0.001038
2570.875826,    0.001090
2589.511346,    0.001143
2608.146865,    0.001196
2626.782384,    0.001249
2645.417904,    0.001302
2664.053423,    0.001354
2682.689663,    0.001526
2701.325965,    0.001707
2719.962266,    0.001889
2738.598568,    0.002071
2757.234869,    0.002252
2775.871171,    0.002434
2794.507472,    0.002616
2813.143774,    0.002797
2831.780075,    0.002979
2850.416377,    0.003160
2869.053365,    0.002536
2887.690413,    0.001843
2906.327460,    0.001150
2924.964507,    0.000457
2943.601554,   -0.000236
2962.238601,   -0.000930
2980.875648,   -0.001623
2999.512696,   -0.002316
3018.149743,   -0.003009
3036.786790,   -0.003702
3055.424640,   -0.003348
3074.062559,   -0.002905
3092.700478,   -0.002462
3111.338397,   -0.002018
3129.976316,   -0.001575
3148.614234,   -0.001132
3167.252153,   -0.000689
3185.890072,   -0.000246
3204.527991,    0.000197
3223.165910,    0.000640
3241.804619,    0.000722
3260.443396,    0.000773
3279.082173,    0.000824
3297.720950,    0.000875
3316.359727,    0.000926
3334.998504,    0.000977
3353.637280,    0.001028
3372.276057,    0.001080
3390.914834,    0.001131
3409.553611,    0.001182
3428.193103,    0.001352
3446.832656,    0.001534
3465.472208,    0.001715
3484.111761,    0.001896
3502.751314,    0.002077
3521.390867,    0.002258
3540.030420,    0.002439
3558.669972,    0.002620
3577.309525,    0.002802
3595.949078,    0.002983
3614.589321,    0.002358
3633.229624,    0.001664
3651.869926,    0.000970
3670.510229,    0.000277
3689.150531,   -0.000417
3707.790834,   -0.001110
3726.431136,   -0.001804
3745.071439,   -0.002498
3763.711741,   -0.003191
3782.352043,   -0.003885
3800.993162,   -0.003529
3819.634351,   -0.003084
3838.275539,   -0.002639
3856.916727,   -0.002194
3875.557916,   -0.001749
3894.199104,   -0.001303
3912.840293,   -0.000858
3931.481481,   -0.000413
3950.122669,    0.000032
3968.763858,    0.000477
3987.405858,    0.000561
4006.047928,    0.000615
4024.689998,    0.000668
4043.332068,    0.000722
4061.974138,    0.000775
4080.616208,    0.000829
4099.258278,    0.000882
4117.900347,    0.000935
4136.542417,    0.000989
4155.184487,    0.001042
4173.827301,    0.001216
4192.470178,    0.001401
4211.113055,    0.001585
4229.755932,    0.001770
4248.398809,    0.001954
4267.041685,    0.002138
4285.684562,    0.002323
4304.327439,    0.002507
4322.970316,    0.002692
4341.613193,    0.002876
4360.256795,    0.002254
4378.900459,    0.001563
4397.544123,    0.000872
4416.187787,    0.000181
4434.831451,   -0.000510
4453.475115,   -0.001201
4472.118779,   -0.001892
4490.762443,   -0.002583
4509.406106,   -0.003274
4528.049770,   -0.003965
4546.694289,   -0.003605
4565.338880,   -0.003155
4583.983471,   -0.002706
4602.628063,   -0.002256
4621.272654,   -0.001806
4639.917245,   -0.001357
4658.561837,   -0.000907
4677.206428,   -0.000458
4695.851019,   -0.000008
4714.495611,    0.000442
4733.141054,    0.000530
4751.786570,    0.000587
4770.432086,    0.000645
4789.077603,    0.000702
4807.723119,    0.000759
4826.368635,    0.000817
4845.014151,    0.000874
4863.659667,    0.000932
4882.305183,    0.000989
4900.950700,    0.001046
4919.596999,    0.001224
4938.243365,    0.001413
4956.889731,    0.001601
4975.536097,    0.001790
4994.182464,    0.001978
5012.828830,    0.002166
5031.475196,    0.002355
5050.121562,    0.002543
5068.767928,    0.002732
5087.414294,    0.002920
5106.061423,    0.002300
5124.708617,    0.001612
5143.355810,    0.000923
5162.003004,    0.000235
5180.650197,   -0.000454
5199.297391,   -0.001143
5217.944584,   -0.001831
5236.591778,   -0.002520
5255.238972,   -0.003208
5273.886165,   -0.003897
5292.534247,   -0.003534
5311.182404,   -0.003081
5329.830562,   -0.002628
5348.478719,   -0.002175
5367.126877,   -0.001722
5385.775034,   -0.001269
5404.423191,   -0.000816
5423.071349,   -0.000363
5441.719506,    0.000090
5460.367664,    0.000543
5479.016701,    0.000633
5497.665814,    0.000693
5516.314927,    0.000752
5534.964040,    0.000812
5553.613153,    0.000872
5572.262265,    0.000931
5590.911378,    0.000991
5609.560491,    0.001050
5628.209604,    0.001110
5646.858717,    0.001169
5665.508634,    0.001349
5684.158621,    0.001539
5702.808607,    0.001729
5721.458594,    0.001918
5740.108580,    0.002108
5758.758566,    0.002298
5777.408553,    0.002488
5796.058539,    0.002678
5814.708526,    0.002868
5833.358512,    0.003058
5852.009276,    0.002438
5870.660105,    0.001749
5889.310935,    0.001060
5907.961765,    0.000370
5926.612594,   -0.000319
5945.263424,   -0.001008
5963.914254,   -0.001697
5982.565084,   -0.002386
6001.215913,   -0.003075
6019.866743,   -0.003764
6038.518469,   -0.003401
6057.170271,   -0.002948
6075.822073,   -0.002494
6094.473875,   -0.002041
6113.125677,   -0.001588
6131.777478,   -0.001135
6150.429280,   -0.000682
6169.081082,   -0.000229
6187.732884,    0.000224
6206.384686,    0.000678
6225.037369,    0.000767
6243.690127,    0.000825
6262.342886,    0.000884
6280.995644,    0.000942
6299.648402,    0.001001
6318.301160,    0.001059
6336.953918,    0.001118
6355.606677,    0.001176
6374.259435,    0.001235
6392.912193,    0.001293
6411.565751,    0.001471
6430.219376,    0.001659
6448.873002,    0.001848
6467.526628,    0.002036
6486.180253,    0.002224
6504.833879,    0.002413
6523.487505,    0.002601
6542.141130,    0.002789
6560.794756,    0.002977
6579.448382,    0.003166
6598.102774,    0.002543
6616.757231,    0.001850
6635.411688,    0.001158
6654.066145,    0.000465
6672.720603,   -0.000227
6691.375060,   -0.000919
6710.029517,   -0.001612
6728.683974,   -0.002304
6747.338431,   -0.002997
6765.992889,   -0.003689
6784.648227,   -0.003328
6803.303640,   -0.002877
6821.959054,   -0.002426
6840.614467,   -0.001975
6859.269880,   -0.001524
6877.925294,   -0.001073
6896.580707,   -0.000622
6915.236121,   -0.000171
6933.891534,    0.000280
6952.546947,    0.000731
6971.203225,    0.000818
6989.859575,    0.000874
7008.515926,    0.000929
7027.172277,    0.000985
7045.828628,    0.001040
7064.484979,    0.001096
7083.141329,    0.001152
7101.797680,    0.001207
7120.454031,    0.001263
7139.110382,    0.001318
7157.767513,    0.001494
7176.424712,    0.001679
7195.081910,    0.001865
7213.739108,    0.002051
7232.396306,    0.002236
7251.053504,    0.002422
7269.710703,    0.002607
7288.367901,    0.002793
7307.025099,    0.002979
7325.682297,    0.003164
7344.340244,    0.002537
7362.998254,    0.001841
7381.656264,    0.001145
7400.314274,    0.000449
7418.972284,   -0.000247
7437.630294,   -0.000943
7456.288304,   -0.001639
7474.946314,   -0.002335
7493.604324,   -0.003031
7512.262334,   -0.003727
7530.921209,   -0.003368
7549.580158,   -0.002919
7568.239107,   -0.002470
7586.898055,   -0.002021
7605.557004,   -0.001571
7624.215953,   -0.001122
7642.874902,   -0.000673
7661.533851,   -0.000224
7680.192800,    0.000225
7698.851748,    0.000674
7717.511548,    0.000759
7736.171420,    0.000813
7754.831292,    0.000866
7773.491165,    0.000920
7792.151037,    0.000974
7810.810909,    0.001027
7829.470781,    0.001081
7848.130653,    0.001135
7866.790526,    0.001188
7885.450398,    0.001242
7904.111042,    0.001416
7922.771752,    0.001601
7941.432462,    0.001785
7960.093172,    0.001970
7978.753882,    0.002154
7997.414592,    0.002338
8016.075302,    0.002523
8034.736012,    0.002707
8053.396722,    0.002892
8072.057432,    0.003076
8090.718886,    0.002447
8109.380403,    0.001750
8128.041921,    0.001052
8146.703438,    0.000354
8165.364956,   -0.000344
8184.026473,   -0.001042
8202.687990,   -0.001740
8221.349508,   -0.002438
8240.011025,   -0.003135
8258.672543,   -0.003833
8277.334927,   -0.003474
8295.997385,   -0.003024
8314.659843,   -0.002575
8333.322300,   -0.002125
8351.984758,   -0.001676
8370.647216,   -0.001226
8389.309674,   -0.000777
8407.972132,   -0.000327
8426.634590,    0.000123
8445.297047,    0.000572
8463.960363,    0.000657
8482.623752,    0.000711
8501.287140,    0.000766
8519.950529,    0.000820
8538.613917,    0.000874
8557.277306,    0.000928
8575.940695,    0.000982
8594.604083,    0.001036
8613.267472,    0.001091
8631.930861,    0.001145
8650.595033,    0.001320
8669.259273,    0.001506
8687.923512,    0.001691
8706.587751,    0.001877
8725.251991,    0.002063
8743.916230,    0.002248
8762.580469,    0.002434
8781.244709,    0.002619
8799.908948,    0.002805
8818.573187,    0.002991
8837.238187,    0.002363
8855.903252,    0.001665
8874.568317,    0.000968
8893.233381,    0.000271
8911.898446,   -0.000427
8930.563511,   -0.001124
8949.228575,   -0.001821
8967.893640,   -0.002519
8986.558705,   -0.003216
9005.223770,   -0.003913
9023.889721,   -0.003552
9042.555749,   -0.003100
9061.221776,   -0.002648
9079.887804,   -0.002196
9098.553831,   -0.001744
9117.219858,   -0.001292
9135.885886,   -0.000840
9154.551913,   -0.000388
9173.217940,    0.000064
9191.883968,    0.000516
9210.550876,    0.000604
9229.217860,    0.000660
9247.884843,    0.000716
9266.551827,    0.000773
9285.218810,    0.000829
9303.885794,    0.000885
9322.552777,    0.000942
9341.219761,    0.000998
9359.886744,    0.001054
9378.553728,    0.001110
9397.221520,    0.001288
9415.889382,    0.001476
9434.557243,    0.001664
9453.225105,    0.001853
9471.892966,    0.002041
9490.560827,    0.002229
9509.228689,    0.002417
9527.896550,    0.002605
9546.564412,    0.002793
9565.232273,    0.002981
9583.900921,    0.002355
9602.569635,    0.001658
9621.238350,    0.000962
9639.907065,    0.000266
9658.575779,   -0.000430
9677.244494,   -0.001126
9695.913209,   -0.001822
9714.581923,   -0.002518
9733.250638,   -0.003214
9751.919353,   -0.003910
9770.588980,   -0.003546
9789.258684,   -0.003091
9807.928389,   -0.002637
9826.598094,   -0.002182
9845.267799,   -0.001727
9863.937503,   -0.001273
9882.607208,   -0.000818
9901.276913,   -0.000363
9919.946618,    0.000091
9938.616323,    0.000546
9957.286932,    0.000635
9975.957619,    0.000693
9994.628305,    0.000752
10013.298992,    0.000810
10031.969679,    0.000868
10050.640366,    0.000926
10069.311052,    0.000984
10087.981739,    0.001043
10106.652426,    0.001101
10125.323112,    0.001159
10143.994629,    0.001338
10162.666217,    0.001528
10181.337804,    0.001718
10200.009392,    0.001908
10218.680979,    0.002098
10237.352567,    0.002287
10256.024154,    0.002477
10274.695742,    0.002667
10293.367329,    0.002857
10312.038917,    0.003047
10330.711308,    0.002420
10349.383768,    0.001724
10368.056228,    0.001028
10386.728689,    0.000332
10405.401149,   -0.000364
10424.073609,   -0.001060
10442.746069,   -0.001756
10461.418529,   -0.002452
10480.090989,   -0.003148
10498.763449,   -0.003844
10517.436836,   -0.003478
10536.110302,   -0.003022
10554.783768,   -0.002567
10573.457233,   -0.002111
10592.130699,   -0.001655
10610.804165,   -0.001199
10629.477631,   -0.000743
10648.151096,   -0.000287
10666.824562,    0.000168
10685.498028,    0.000624
10704.172409,    0.000714
10722.846868,    0.000772
10741.521326,    0.000831
10760.195785,    0.000889
10778.870244,    0.000947
10797.544703,    0.001006
10816.219162,    0.001064
10834.893620,    0.001122
10853.568079,    0.001181
10872.242538,    0.001239
10890.917831,    0.001418
10909.593195,    0.001607
10928.268559,    0.001797
10946.943924,    0.001986
10965.619288,    0.002175
10984.294652,    0.002365
11002.970016,    0.002554
11021.645380,    0.002743
11040.320745,    0.002933
11058.996109,    0.003122
11077.672274,    0.002493
11096.348508,    0.001794
11115.024741,    0.001096
11133.700974,    0.000397
11152.377208,   -0.000302
11171.053441,   -0.001000
11189.729675,   -0.001699
11208.405908,   -0.002398
11227.082142,   -0.003096
11245.758375,   -0.003795
11264.435523,   -0.003432
11283.112748,   -0.002978
11301.789974,   -0.002524
11320.467199,   -0.002070
11339.144424,   -0.001617
11357.821650,   -0.001163
11376.498875,   -0.000709
11395.176101,   -0.000255
11413.853326,    0.000199
11432.530552,    0.000652
11451.208676,    0.000739
11469.886877,    0.000795
11488.565077,    0.000851
11507.243278,    0.000907
11525.921479,    0.000962
11544.599680,    0.001018
11563.277881,    0.001074
11581.956081,    0.001130
11600.634282,    0.001185
11619.312483,    0.001241
11637.991500,    0.001418
11656.670587,    0.001604
11675.349674,    0.001791
11694.028761,    0.001978
11712.707848,    0.002164
11731.386934,    0.002351
11750.066021,    0.002538
11768.745108,    0.002724
11787.424195,    0.002911
11806.103282,    0.003098
11824.783152,    0.002465
11843.463089,    0.001763
11862.143027,    0.001061
11880.822964,    0.000359
11899.502901,   -0.000343
11918.182838,   -0.001046
11936.862775,   -0.001748
11955.542713,   -0.002450
11974.222650,   -0.003152
11992.902587,   -0.003854
12011.583424,   -0.003493
12030.264338,   -0.003041
12048.945251,   -0.002588
12067.626165,   -0.002136
12086.307079,   -0.001684
12104.987992,   -0.001232
12123.668906,   -0.000779
12142.349819,   -0.000327
12161.030733,    0.000125
12179.711647,    0.000577
12198.393449,    0.000663
12217.075327,    0.000717
12235.757205,    0.000771
12254.439083,    0.000826
12273.120961,    0.000880
12291.802839,    0.000934
12310.484717,    0.000988
12329.166595,    0.001042
12347.848473,    0.001097
12366.530350,    0.001151
12385.213039,    0.001327
12403.895797,    0.001512
12422.578555,    0.001698
12441.261313,    0.001884
12459.944071,    0.002070
12478.626829,    0.002256
12497.309587,    0.002442
12515.992345,    0.002628
12534.675103,    0.002814
12553.357861,    0.003000
12572.041403,    0.002366
12590.725011,    0.001663
12609.408619,    0.000959
12628.092228,    0.000256
12646.775836,   -0.000448
12665.459444,   -0.001151
12684.143052,   -0.001855
12702.826660,   -0.002558
12721.510269,   -0.003262
12740.193877,   -0.003965
12758.878390,   -0.003603
12777.562981,   -0.003150
12796.247572,   -0.002697
12814.932162,   -0.002243
12833.616753,   -0.001790
12852.301344,   -0.001337
12870.985934,   -0.000884
12889.670525,   -0.000431
12908.355116,    0.000022
12927.039706,    0.000475
12945.725196,    0.000562
12964.410763,    0.000617
12983.096330,    0.000672
13001.781897,    0.000727
13020.467463,    0.000783
13039.153030,    0.000838
13057.838597,    0.000893
13076.524164,    0.000948
13095.209730,    0.001003
13113.895297,    0.001058
13132.581690,    0.001236
13151.268154,    0.001423
13169.954618,    0.001611
13188.641082,    0.001798
13207.327545,    0.001986
13226.014009,    0.002173
13244.700473,    0.002361
13263.386937,    0.002549
13282.073400,    0.002736
13300.759864,    0.002924
13319.447010,    0.004926
13338.134214,    0.007084
13356.821418,    0.009241
13375.508621,    0.011398
13394.195825,    0.013556
13412.883029,    0.015713
13431.570233,    0.017870
13450.257437,    0.020028
13468.944641,    0.022185
13487.631844,    0.024342
13506.319671,    0.022237
13525.007551,    0.019768
13543.695431,    0.017299
13562.383311,    0.014829
13581.071191,    0.012360
13599.759071,    0.009891
13618.446951,    0.007422
13637.134832,    0.004953
13655.822712,    0.002484
13674.510592,    0.000015
13693.199200,    0.000152
13711.887870,    0.000511
13730.576541,    0.000870
13749.265211,    0.001229
13767.953882,    0.001589
13786.642552,    0.001948
13805.331223,    0.002307
13824.019893,    0.002666
13842.708564,    0.003025
13861.397234,    0.003384
13880.086544,    0.002734
13898.775908,    0.001999
13917.465272,    0.001263
13936.154637,    0.000528
13954.844001,   -0.000208
13973.533365,   -0.000943
13992.222729,   -0.001679
14010.912093,   -0.002414
14029.601457,   -0.003150
14048.290822,   -0.003885
14066.980938,   -0.003532
14085.671119,   -0.003085
14104.361300,   -0.002639
14123.051480,   -0.002192
14141.741661,   -0.001746
14160.431842,   -0.001299
14179.122023,   -0.000853
14197.812203,   -0.000407
14216.502384,    0.000040
14235.192565,    0.000486
14253.883492,    0.000851
14272.574483,    0.001210
14291.265475,    0.001568
14309.956466,    0.001926
14328.647457,    0.002285
14347.338448,    0.002643
14366.029439,    0.003002
14384.720430,    0.003360
14403.411421,    0.003718
14422.102412,    0.004077
14440.794120,   -0.000209
14459.485889,   -0.004891
14478.177657,   -0.009573
14496.869426,   -0.014255
14515.561194,   -0.018937
14534.252963,   -0.023619
14552.944731,   -0.028301
14571.636500,   -0.032982
14590.328269,   -0.037664
14609.020037,   -0.042346
14627.712941,   -0.038602
14646.405942,   -0.034140
14665.098944,   -0.029678
14683.791945,   -0.025216
