Time, Speed
   0.000000,    0.000713
   0.001667,    0.712070
   0.003333,    1.420003
   0.005000,    2.127427
   0.006667,    2.834850
   0.008333,    3.542273
   0.010000,    4.249696
   0.011667,    4.957120
   0.013333,    5.664543
   0.015000,    6.371966
   0.016667,    7.079390
   0.018333,    7.786813
   0.020000,    8.486638
   0.021667,    9.185515
   0.023333,    9.884391
   0.025000,   10.583267
   0.026667,   11.282144
   0.028333,   11.981020
   0.030000,   12.679896
   0.031667,   13.378773
   0.033333,   14.077649
   0.035000,   14.776526
   0.036667,   15.467572
   0.038333,   16.157642
   0.040000,   16.847711
   0.041667,   17.537780
   0.043333,   18.227849
   0.045000,   18.917919
   0.046667,   19.607988
   0.048333,   20.298057
   0.050000,   20.988126
   0.051667,   21.678196
   0.053333,   22.360219
   0.055000,   23.041238
   0.056667,   23.722257
   0.058333,   24.403276
   0.060000,   25.084295
   0.061667,   25.765313
   0.063333,   26.446332
   0.065000,   27.127351
   0.066667,   27.808370
   0.068333,   28.489389
   0.070000,   29.162161
   0.071667,   29.833903
   0.073333,   30.505646
   0.075000,   31.177388
   0.076667,   31.849131
   0.078333,   32.520873
   0.080000,   33.192615
   0.081667,   33.864358
   0.083333,   34.536100
   0.085000,   35.207843
   0.086667,   35.870155
   0.088333,   36.531289
   0.090000,   37.192424
   0.091667,   37.853559
   0.093333,   38.514694
   0.095000,   39.175828
   0.096667,   39.836963
   0.098333,   40.498098
   0.100000,   41.159233
   0.101667,   41.820367
   0.103333,   42.469873
   0.105000,   43.117927
   0.106667,   43.765981
   0.108333,   44.414035
   0.110000,   45.062089
   0.111667,   45.710143
   0.113333,   46.358197
   0.115000,   47.006251
   0.116667,   47.654305
   0.118333,   48.302359
   0.120000,   48.938689
   0.121667,   49.573554
   0.123333,   50.208419
   0.125000,   50.843284
   0.126667,   51.478150
   0.128333,   52.113015
   0.130000,   52.747880
   0.131667,   53.382745
   0.133333,   54.017611
   0.135000,   54.652476
   0.136667,   55.275590
   0.138333,   55.897238
   0.140000,   56.518885
   0.141667,   57.140532
   0.143333,   57.762180
   0.145000,   58.383827
   0.146667,   59.005474
   0.148333,   59.627121
   0.150000,   60.248769
   0.151667,   60.870416
   0.153333,   61.480304
   0.155000,   62.088723
   0.156667,   62.697142
   0.158333,   63.305562
   0.160000,   63.913981
   0.161667,   64.522401
   0.163333,   65.130820
   0.165000,   65.739239
   0.166667,   66.347659
   0.168333,   66.956078
   0.170000,   67.552745
   0.171667,   68.147945
   0.173333,   68.743145
   0.175000,   69.338345
   0.176667,   69.933544
   0.178333,   70.528744
   0.180000,   71.123944
   0.181667,   71.719144
   0.183333,   72.314344
   0.185000,   72.909544
   0.186667,   73.491317
   0.188333,   74.071414
   0.190000,   74.651511
   0.191667,   75.231607
   0.193333,   75.811704
   0.195000,   76.391801
   0.196667,   76.971898
   0.198333,   77.551995
   0.200000,   78.132092
   0.201667,   78.712189
   0.203333,   79.277068
   0.205000,   79.840048
   0.206667,   80.403028
   0.208333,   80.966007
   0.210000,   81.528987
   0.211667,   82.091967
   0.213333,   82.654946
   0.215000,   83.217926
   0.216667,   83.780906
   0.218333,   84.343885
   0.220000,   84.891879
   0.221667,   85.438002
   0.223333,   85.984124
   0.225000,   86.530247
   0.226667,   87.076369
   0.228333,   87.622492
   0.230000,   88.168615
   0.231667,   88.714737
   0.233333,   89.260860
   0.235000,   89.806982
   0.236667,   90.338374
   0.238333,   90.867926
   0.240000,   91.397478
   0.241667,   91.927030
   0.243333,   92.456582
   0.245000,   92.986134
   0.246667,   93.515686
   0.248333,   94.045238
   0.250000,   94.574790
   0.251667,   95.104342
   0.253333,   95.619428
   0.255000,   96.132707
   0.256667,   96.645986
   0.258333,   97.159265
   0.260000,   97.672544
   0.261667,   98.185824
   0.263333,   98.699103
   0.265000,   99.212382
   0.266667,   99.725661
   0.268333,  100.238940
   0.270000,  100.738026
   0.271667,  101.235340
   0.273333,  101.732654
   0.275000,  102.229968
   0.276667,  102.727282
   0.278333,  103.224595
   0.280000,  103.721909
   0.281667,  104.219223
   0.283333,  104.716537
   0.285000,  105.213851
   0.286667,  105.697253
   0.288333,  106.178918
   0.290000,  106.660584
   0.291667,  107.142249
   0.293333,  107.623915
   0.295000,  108.105580
   0.296667,  108.587246
   0.298333,  109.068911
   0.300000,  109.550577
   0.301667,  110.032242
   0.303333,  110.502831
   0.305000,  110.972038
   0.306667,  111.441244
   0.308333,  111.910451
   0.310000,  112.379657
   0.311667,  112.848864
   0.312369,  113.046669
   0.314036,  113.508399
   0.315703,  113.970128
   0.317369,  114.431858
   0.319036,  114.888590
   0.320703,  115.334228
   0.322369,  115.779867
   0.324036,  116.225506
   0.325703,  116.671144
   0.327369,  117.116783
   0.329036,  117.562422
   0.330703,  118.008061
   0.332369,  118.453699
   0.334036,  118.899338
   0.335703,  119.336650
   0.337369,  119.755476
   0.339036,  120.174303
   0.340703,  120.593130
   0.342369,  121.011956
   0.344036,  121.430783
   0.345703,  121.849610
   0.347369,  122.268437
   0.349036,  122.687263
   0.350703,  123.106090
   0.352369,  123.515555
   0.354036,  123.904236
   0.355703,  124.292918
   0.357369,  124.681600
   0.359036,  125.070281
   0.360703,  125.458963
   0.362369,  125.847645
   0.364036,  126.236326
   0.365703,  126.625008
   0.367369,  127.013690
   0.368518,  127.281657
   0.370185,  127.522060
   0.371852,  127.762462
   0.373518,  128.002865
   0.375185,  128.243267
   0.376852,  128.483670
   0.378518,  128.724072
   0.380185,  128.964475
   0.381852,  129.204877
   0.383518,  129.445280
   0.385185,  129.685682
   0.386852,  129.807424
   0.388518,  129.929166
   0.390185,  130.050908
   0.391852,  130.172650
   0.393518,  130.294392
   0.395185,  130.352130
   0.396852,  130.409869
   0.398518,  130.467607
   0.400185,  130.525346
   0.401852,  130.583084
   0.403518,  130.573909
   0.405185,  130.564735
   0.406852,  130.555560
   0.408518,  130.546385
   0.410185,  130.537211
   0.410185,  170.000000
   1.604481,  170.000000
   2.823272,  170.000000
   4.081386,  170.000000
   5.429985,  170.000000
   6.915721,  170.000000
   8.560390,  170.000000
  10.397371,  170.000000
  12.485334,  170.000000
  14.968358,  170.000000
  14.968358,  190.905214
  15.830802,  190.905214
  16.693245,  190.905214
  17.555688,  190.905214
  18.418132,  190.905214
  19.280575,  190.905214
  20.143018,  190.905214
  21.005461,  190.905214
  21.867905,  190.905214
  22.730348,  190.905214
  23.592791,  190.905214
  24.455235,  190.905214
  25.317678,  190.905214
  26.180121,  190.905214
  27.042565,  190.905214
  27.905008,  190.905214
  28.767451,  190.905214
  29.629895,  190.905214
  30.492338,  190.905214
  31.354781,  190.905214
  32.217225,  190.905214
  33.079668,  190.905214
  33.942111,  190.905214
  34.804555,  190.905214
  35.666998,  190.905214
  36.529441,  190.905214
  37.391885,  190.905214
  38.254328,  190.905214
  39.116771,  190.905214
  39.979215,  190.905214
  39.979215,  220.000000
  41.139143,  220.000000
  42.301874,  220.000000
  43.463193,  220.000000
  44.619342,  220.000000
  45.768081,  220.000000
  46.905098,  220.000000
  48.026307,  220.000000
  49.143709,  220.000000
  50.253604,  220.000000
  50.253604,  170.000000
  50.833005,  170.000000
  51.418049,  170.000000
  52.008556,  170.000000
  52.607292,  170.000000
  53.225054,  170.000000
  53.871173,  170.000000
  54.548638,  170.000000
  55.259779,  170.000000
  56.006440,  170.000000
  56.006440,  142.243057
  57.858634,  142.180962
  59.711637,  142.118864
  61.565449,  142.056763
  63.420072,  141.994659
  65.275506,  141.932551
  67.131752,  141.870441
  68.988810,  141.808328
  70.846682,  141.746211
  72.705368,  141.684092
  72.705368,  220.000000
  73.351774,  220.000000
  73.988012,  220.000000
  74.626788,  220.000000
  75.268241,  220.000000
  75.912514,  220.000000
  76.559398,  220.000000
  77.208755,  220.000000
  77.860123,  220.000000
  78.512585,  220.000000
  78.512585,  142.243057
  83.512585,  142.180962
  88.512585,  142.118864
  93.512585,  142.056763
  98.512585,  141.994659
 103.512585,  141.932551
 108.512585,  141.870441
 113.512585,  141.808328
 118.512585,  141.746211
 123.512585,  141.684092
 123.512585,   94.931641
 123.514252,  116.293572
 123.515918,  116.295878
 123.517585,  116.298184
 123.519252,  116.300407
 123.520918,  116.302613
 123.522585,  116.304819
 123.524252,  116.307025
 123.525918,  116.309231
 123.527585,  116.311437
 123.529252,  116.313643
 123.530918,  116.315850
 123.532585,  116.318056
 123.534252,  116.320262
 123.535918,  116.322434
 123.537585,  116.324600
 123.539252,  116.326766
 123.540918,  116.328932
 123.542585,  116.331098
 123.544252,  116.333263
 123.545918,  116.335429
 123.547585,  116.337595
 123.549252,  116.339761
 123.550918,  116.341927
 123.552585,  116.344089
 123.554252,  116.346250
 123.555918,  116.348412
 123.557585,  116.350574
 123.559252,  116.352735
 123.560918,  116.354897
 123.562585,  116.357058
 123.564252,  116.359220
 123.565918,  116.361381
 123.567585,  116.363543
 123.569252,  116.365539
 123.570918,  116.367504
 123.572585,  116.369469
 123.574252,  116.371434
 123.575918,  116.373399
 123.577585,  116.375364
 123.579252,  116.377329
 123.580918,  116.379294
 123.582585,  116.381259
 123.584252,  116.383224
 123.585918,  116.385331
 123.587585,  116.387466
 123.589252,  116.389601
 123.590918,  116.391735
 123.592585,  116.393870
 123.594252,  116.396004
 123.595918,  116.398139
 123.597585,  116.400274
 123.599252,  116.402408
 123.600918,  116.404543
 123.602585,  116.406621
 123.604252,  116.408688
 123.605918,  116.410755
 123.607585,  116.412822
 123.609252,  116.414889
 123.610918,  116.416956
 123.612585,  116.419023
 123.614252,  116.421090
 123.615918,  116.423157
 123.617585,  116.425225
 123.619252,  116.427300
 123.620918,  116.429376
 123.622585,  116.431453
 123.624252,  116.433529
 123.625918,  116.435606
 123.627585,  116.437683
 123.629252,  116.439759
 123.630918,  116.441836
 123.632585,  116.443912
 123.634252,  116.445989
 123.635918,  116.448141
 123.637585,  116.450309
 123.639252,  116.452476
 123.640918,  116.454643
 123.642585,  116.456810
 123.644252,  116.458978
 123.645918,  116.461145
 123.647585,  116.463312
 123.649252,  116.465479
 123.650918,  116.467646
 123.652585,  116.469742
 123.654252,  116.471825
 123.655918,  116.473907
 123.657585,  116.475989
 123.659252,  116.478072
 123.660918,  116.480154
 123.662585,  116.482236
 123.664252,  116.484319
 123.665918,  116.486401
 123.667585,  116.488483
 123.669252,  116.490563
 123.670918,  116.492642
 123.672585,  116.494721
 123.674252,  116.496800
 123.675918,  116.498880
 123.677585,  116.500959
 123.679252,  116.503038
 123.680918,  116.505117
 123.682585,  116.507196
 123.684252,  116.509275
 123.685918,  116.511195
 123.687585,  116.513084
 123.689252,  116.514972
 123.690918,  116.516861
 123.692585,  116.518750
 123.694252,  116.520638
 123.695918,  116.522527
 123.697585,  116.524416
 123.699252,  116.526304
 123.700918,  116.528193
 123.702585,  116.530052
 123.704252,  116.531906
 123.705918,  116.533760
 123.707585,  116.535614
 123.709252,  116.537467
 123.710918,  116.539321
 123.712585,  116.541175
 123.714252,  116.543028
 123.715918,  116.544882
 123.717585,  116.546736
 123.719252,  116.548582
 123.720918,  116.550426
 123.722585,  116.552271
 123.724252,  116.554115
 123.725918,  116.555960
 123.727585,  116.557804
 123.729252,  116.559649
 123.730918,  116.561493
 123.732585,  116.563338
 123.734252,  116.565183
 123.735918,  116.567101
 123.737585,  116.569033
 123.739252,  116.570965
 123.740918,  116.572898
 123.742585,  116.574830
 123.744252,  116.576763
 123.745918,  116.578695
 123.747585,  116.580627
 123.749252,  116.582560
 123.750918,  116.584492
 123.752585,  116.586352
 123.754252,  116.588198
 123.755918,  116.590044
 123.757585,  116.591890
 123.759252,  116.593736
 123.760918,  116.595581
 123.762585,  116.597427
 123.764252,  116.599273
 123.765918,  116.601119
 123.767585,  116.602965
 123.769252,  116.604816
 123.770918,  116.606668
 123.772585,  116.608520
 123.774252,  116.610372
 123.775918,  116.612224
 123.777585,  116.614076
 123.779252,  116.615928
 123.780918,  116.617779
 123.782585,  116.619631
 123.784252,  116.621483
 123.785918,  116.623421
 123.787585,  116.625375
 123.789252,  116.627329
 123.790918,  116.629283
 123.792585,  116.631237
 123.794252,  116.633191
 123.795918,  116.635145
 123.797585,  116.637099
 123.799252,  116.639053
 123.800918,  116.641007
 123.802585,  116.642899
 123.804252,  116.644778
 123.805918,  116.646658
 123.807585,  116.648538
 123.809252,  116.650418
 123.810918,  116.652298
 123.812585,  116.654178
 123.814252,  116.656057
 123.815918,  116.657937
 123.817585,  116.659817
 123.819252,  116.661711
 123.820918,  116.663606
 123.822585,  116.665502
 123.824252,  116.667398
 123.825918,  116.669294
 123.827585,  116.671190
 123.829252,  116.673086
 123.830918,  116.674982
 123.832585,  116.676878
 123.834252,  116.678774
 123.835918,  116.680761
 123.837585,  116.682766
 123.839252,  116.684771
 123.840918,  116.686776
 123.842585,  116.688781
 123.844252,  116.690786
 123.845918,  116.692791
 123.847585,  116.694796
 123.849252,  116.696801
 123.850918,  116.698806
 123.852585,  116.700751
 123.854252,  116.702686
 123.855918,  116.704620
 123.857585,  116.706554
 123.859252,  116.708488
 123.860918,  116.710423
 123.862585,  116.712357
 123.864252,  116.714291
 123.865918,  116.716226
 123.867585,  116.718160
 123.869252,  116.720108
 123.870918,  116.722059
 123.872585,  116.724009
 123.874252,  116.725960
 123.875918,  116.727911
 123.877585,  116.729862
 123.879252,  116.731812
 123.880918,  116.733763
 123.882585,  116.735714
 123.884252,  116.737665
 123.885918,  116.739704
 123.887585,  116.741761
 123.889252,  116.743818
 123.890918,  116.745875
 123.892585,  116.747932
 123.894252,  116.749989
 123.895918,  116.752046
 123.897585,  116.754103
 123.899252,  116.756160
 123.900918,  116.758217
 123.902585,  116.760209
 123.904252,  116.762190
 123.905918,  116.764170
 123.907585,  116.766150
 123.909252,  116.768131
 123.910918,  116.770111
 123.912585,  116.772092
 123.914252,  116.774072
 123.915918,  116.776052
 123.917585,  116.778033
 123.919252,  116.780020
 123.920918,  116.782008
 123.922585,  116.783997
 123.924252,  116.785985
 123.925918,  116.787973
 123.927585,  116.789962
 123.929252,  116.791950
 123.930918,  116.793939
 123.932585,  116.795927
 123.934252,  116.797915
 123.935918,  116.799985
 123.937585,  116.802070
 123.939252,  116.804155
 123.940918,  116.806239
 123.942585,  116.808324
 123.944252,  116.810409
 123.945918,  116.812494
 123.947585,  116.814579
 123.949252,  116.816664
 123.950918,  116.818749
 123.952585,  116.820760
 123.954252,  116.822757
 123.955918,  116.824754
 123.957585,  116.826752
 123.959252,  116.828749
 123.960918,  116.830746
 123.962585,  116.832743
 123.964252,  116.834740
 123.965918,  116.836737
 123.967585,  116.838734
 123.969252,  116.840729
 123.970918,  116.842722
 123.972585,  116.844716
 123.974252,  116.846710
 123.975918,  116.848703
 123.977585,  116.850697
 123.979252,  116.852691
 123.980918,  116.854684
 123.982585,  116.856678
 123.984252,  116.858672
 123.985918,  116.860737
 123.987585,  116.862816
 123.989252,  116.864895
 123.990918,  116.866974
 123.992585,  116.869054
 123.994252,  116.871133
 123.995918,  116.873212
 123.997585,  116.875291
 123.999252,  116.877370
 124.000918,  116.879449
 124.002585,  116.881446
 124.004252,  116.883428
 124.005918,  116.885409
 124.007585,  116.887390
 124.009252,  116.889371
 124.010918,  116.891352
 124.012585,  116.893333
 124.014252,  116.895315
 124.015918,  116.897296
 124.017585,  116.899277
 124.019252,  116.901470
 124.020918,  116.903704
 124.022585,  116.905938
 124.024252,  116.908172
 124.025918,  116.910406
 124.027585,  116.912640
 124.029252,  116.914874
 124.030918,  116.917108
 124.032585,  116.919342
 124.034252,  116.921576
 124.035918,  116.923837
 124.037585,  116.926103
 124.039252,  116.928369
 124.040918,  116.930636
 124.042585,  116.932902
 124.044252,  116.935168
 124.045918,  116.937435
 124.047585,  116.939701
 124.049252,  116.941967
 124.050918,  116.944234
 124.052585,  116.946392
 124.054252,  116.948531
 124.055918,  116.950669
 124.057585,  116.952807
 124.059252,  116.954945
 124.060918,  116.957083
 124.062585,  116.959222
 124.064252,  116.961360
 124.065918,  116.963498
 124.067585,  116.965636
 124.069252,  116.967736
 124.070918,  116.969829
 124.072585,  116.971921
 124.074252,  116.974014
 124.075918,  116.976107
 124.077585,  116.978199
 124.079252,  116.980292
 124.080918,  116.982385
 124.082585,  116.984478
 124.084252,  116.986570
 124.085918,  116.988657
 124.087585,  116.990743
 124.089252,  116.992829
 124.090918,  116.994915
 124.092585,  116.997001
 124.094252,  116.999087
 124.095918,  117.001173
 124.097585,  117.003260
 124.099252,  117.005346
 124.100918,  117.007432
 124.102585,  117.009583
 124.104252,  117.011746
 124.105918,  117.013910
 124.107585,  117.016073
 124.109252,  117.018237
 124.110918,  117.020400
 124.112585,  117.022564
 124.114252,  117.024727
 124.115918,  117.026891
 124.117585,  117.029054
 124.119252,  117.031136
 124.120918,  117.033202
 124.122585,  117.035268
 124.124252,  117.037334
 124.125918,  117.039400
 124.127585,  117.041466
 124.129252,  117.043532
 124.130918,  117.045598
 124.132585,  117.047664
 124.134252,  117.049730
 124.135918,  117.051787
 124.137585,  117.053841
 124.139252,  117.055896
 124.140918,  117.057951
 124.142585,  117.060005
 124.144252,  117.062060
 124.145918,  117.064115
 124.147585,  117.066169
 124.149252,  117.068224
 124.150918,  117.070279
 124.152585,  117.072168
 124.154252,  117.074025
 124.155918,  117.075883
 124.157585,  117.077740
 124.159252,  117.079597
 124.160918,  117.081455
 124.162585,  117.083312
 124.164252,  117.085169
 124.165918,  117.087027
 124.167585,  117.088884
 124.169252,  117.090711
 124.170918,  117.092532
 124.172585,  117.094354
 124.174252,  117.096175
 124.175918,  117.097996
 124.177585,  117.099817
 124.179252,  117.101639
 124.180918,  117.103460
 124.182585,  117.105281
 124.184252,  117.107102
 124.185918,  117.108918
 124.187585,  117.110734
 124.189252,  117.112549
 124.190918,  117.114364
 124.192585,  117.116179
 124.194252,  117.117994
 124.195918,  117.119809
 124.197585,  117.121624
 124.199252,  117.123439
 124.200918,  117.125254
 124.202585,  117.127150
 124.204252,  117.129060
 124.205918,  117.130970
 124.207585,  117.132881
 124.209252,  117.134791
 124.210918,  117.136702
 124.212585,  117.138612
 124.214252,  117.140523
 124.215918,  117.142433
 124.217585,  117.144344
 124.219252,  117.146188
 124.220918,  117.148021
 124.222585,  117.149853
 124.224252,  117.151685
 124.225918,  117.153517
 124.227585,  117.155349
 124.229252,  117.157181
 124.230918,  117.159013
 124.232585,  117.160845
 124.234252,  117.162677
 124.235918,  117.164524
 124.237585,  117.166374
 124.239252,  117.168224
 124.240918,  117.170073
 124.242585,  117.171923
 124.244252,  117.173773
 124.245918,  117.175622
 124.247585,  117.177472
 124.249252,  117.179322
 124.250918,  117.181171
 124.252585,  117.183118
 124.254252,  117.185084
 124.255918,  117.187049
 124.257585,  117.189015
 124.259252,  117.190980
 124.260918,  117.192946
 124.262585,  117.194911
 124.264252,  117.196877
 124.265918,  117.198842
 124.267585,  117.200808
 124.269252,  117.202721
 124.270918,  117.204625
 124.272585,  117.206528
 124.274252,  117.208432
 124.275918,  117.210335
 124.277585,  117.212239
 124.279252,  117.214142
 124.280918,  117.216045
 124.282585,  117.217949
 124.284252,  117.219852
 124.285918,  117.221590
 124.287585,  117.223295
 124.289252,  117.225001
 124.290918,  117.226706
 124.292585,  117.228412
 124.294252,  117.230117
 124.295918,  117.231823
 124.297585,  117.233528
 124.299252,  117.235234
 124.300918,  117.236939
 124.302585,  117.238622
 124.304252,  117.240302
 124.305918,  117.241981
 124.307585,  117.243660
 124.309252,  117.245339
 124.310918,  117.247018
 124.312585,  117.248697
 124.314252,  117.250377
 124.315918,  117.252056
 124.317585,  117.253735
 124.319252,  117.255424
 124.320918,  117.257116
 124.322585,  117.258808
 124.324252,  117.260499
 124.325918,  117.262191
 124.327585,  117.263883
 124.329252,  117.265574
 124.330918,  117.267266
 124.332585,  117.268957
 124.334252,  117.270649
 124.335918,  117.272443
 124.337585,  117.274256
 124.339252,  117.276069
 124.340918,  117.277882
 124.342585,  117.279695
 124.344252,  117.281509
 124.345918,  117.283322
 124.347585,  117.285135
 124.349252,  117.286948
 124.350918,  117.288762
 124.352585,  117.290535
 124.354252,  117.292301
 124.355918,  117.294067
 124.357585,  117.295832
 124.359252,  117.297598
 124.360918,  117.299364
 124.362585,  117.301130
 124.364252,  117.302896
 124.365918,  117.304661
 124.367585,  117.306427
 124.369252,  117.308308
 124.370918,  117.310211
 124.372585,  117.312114
 124.374252,  117.314017
 124.375918,  117.315921
 124.377585,  117.317824
 124.379252,  117.319727
 124.380918,  117.321630
 124.382585,  117.323533
 124.384252,  117.325436
 124.385918,  117.327281
 124.387585,  117.329116
 124.389252,  117.330950
 124.390918,  117.332784
 124.392585,  117.334619
 124.394252,  117.336453
 124.395918,  117.338287
 124.397585,  117.340122
 124.399252,  117.341956
 124.400918,  117.343790
 124.402585,  117.345626
 124.404252,  117.347461
 124.405918,  117.349297
 124.407585,  117.351132
 124.409252,  117.352968
 124.410918,  117.354804
 124.412585,  117.356639
 124.414252,  117.358475
 124.415918,  117.360310
 124.417585,  117.362146
 124.419252,  117.364067
 124.420918,  117.366005
 124.422585,  117.367943
 124.424252,  117.369882
 124.425918,  117.371820
 124.427585,  117.373758
 124.429252,  117.375696
 124.430918,  117.377634
 124.432585,  117.379572
 124.434252,  117.381510
 124.435918,  117.383386
 124.437585,  117.385251
 124.439252,  117.387115
 124.440918,  117.388980
 124.442585,  117.390844
 124.444252,  117.392709
 124.445918,  117.394573
 124.447585,  117.396438
 124.449252,  117.398302
 124.450918,  117.400166
 124.452585,  117.402049
 124.454252,  117.403935
 124.455918,  117.405821
 124.457585,  117.407707
 124.459252,  117.409593
 124.460918,  117.411479
 124.462585,  117.413365
 124.464252,  117.415251
 124.465918,  117.417136
 124.467585,  117.419022
 124.469252,  117.421008
 124.470918,  117.423012
 124.472585,  117.425017
 124.474252,  117.427021
 124.475918,  117.429025
 124.477585,  117.431030
 124.479252,  117.433034
 124.480918,  117.435039
 124.482585,  117.437043
 124.484252,  117.439048
 124.485918,  117.441000
 124.487585,  117.442942
 124.489252,  117.444885
 124.490918,  117.446827
 124.492585,  117.448769
 124.494252,  117.450712
 124.495918,  117.452654
 124.497585,  117.454596
 124.499252,  117.456539
 124.500918,  117.458481
 124.502585,  117.460255
 124.504252,  117.461997
 124.505918,  117.463739
 124.507585,  117.465481
 124.509252,  117.467222
 124.510918,  117.468964
 124.512585,  117.470706
 124.514252,  117.472448
 124.515918,  117.474189
 124.517585,  117.475931
 124.519252,  117.477648
 124.520918,  117.479361
 124.522585,  117.481073
 124.524252,  117.482785
 124.525918,  117.484498
 124.527585,  117.486210
 124.529252,  117.487922
 124.530918,  117.489635
 124.532585,  117.491347
 124.534252,  117.493060
 124.535918,  117.494779
 124.537585,  117.496500
 124.539252,  117.498220
 124.540918,  117.499941
 124.542585,  117.501662
 124.544252,  117.503382
 124.545918,  117.505103
 124.547585,  117.506824
 124.549252,  117.508544
 124.550918,  117.510265
 124.552585,  117.512084
 124.554252,  117.513921
 124.555918,  117.515759
 124.557585,  117.517597
 124.559252,  117.519435
 124.560918,  117.521272
 124.562585,  117.523110
 124.564252,  117.524948
 124.565918,  117.526785
 124.567585,  117.528623
 124.569252,  117.530416
 124.570918,  117.532200
 124.572585,  117.533985
 124.574252,  117.535769
 124.575918,  117.537553
 124.577585,  117.539337
 124.579252,  117.541121
 124.580918,  117.542906
 124.582585,  117.544690
 124.584252,  117.546474
 124.585918,  117.548369
 124.587585,  117.550285
 124.589252,  117.552201
 124.590918,  117.554117
 124.592585,  117.556033
 124.594252,  117.557949
 124.595918,  117.559865
 124.597585,  117.561781
 124.599252,  117.563697
 124.600918,  117.565613
 124.602585,  117.567467
 124.604252,  117.569308
 124.605918,  117.571149
 124.607585,  117.572990
 124.609252,  117.574832
 124.610918,  117.576673
 124.612585,  117.578514
 124.614252,  117.580355
 124.615918,  117.582197
 124.617585,  117.584038
 124.619252,  117.585874
 124.620918,  117.587709
 124.622585,  117.589543
 124.624252,  117.591378
 124.625918,  117.593213
 124.627585,  117.595048
 124.629252,  117.596883
 124.630918,  117.598718
 124.632585,  117.600552
 124.634252,  117.602387
 124.635918,  117.604302
 124.637585,  117.606231
 124.639252,  117.608161
 124.640918,  117.610091
 124.642585,  117.612021
 124.644252,  117.613951
 124.645918,  117.615880
 124.647585,  117.617810
 124.649252,  117.619740
 124.650918,  117.621670
 124.652585,  117.623535
 124.654252,  117.625388
 124.655918,  117.627242
 124.657585,  117.629095
 124.659252,  117.630948
 124.660918,  117.632801
 124.662585,  117.634654
 124.664252,  117.636507
 124.665918,  117.638360
 124.667585,  117.640213
 124.669252,  117.642080
 124.670918,  117.643949
 124.672585,  117.645819
 124.674252,  117.647688
 124.675918,  117.649558
 124.677585,  117.651427
 124.679252,  117.653296
 124.680918,  117.655166
 124.682585,  117.657035
 124.684252,  117.658904
 124.685918,  117.660871
 124.687585,  117.662856
 124.689252,  117.664842
 124.690918,  117.666827
 124.692585,  117.668812
 124.694252,  117.670798
 124.695918,  117.672783
 124.697585,  117.674768
 124.699252,  117.676754
 124.700918,  117.678739
 124.702585,  117.680674
 124.704252,  117.682600
 124.705918,  117.684526
 124.707585,  117.686451
 124.709252,  117.688377
 124.710918,  117.690303
 124.712585,  117.692228
 124.714252,  117.694154
 124.715918,  117.696080
 124.717585,  117.698005
 124.719252,  117.699765
 124.720918,  117.701494
 124.722585,  117.703222
 124.724252,  117.704950
 124.725918,  117.706678
 124.727585,  117.708406
 124.729252,  117.710134
 124.730918,  117.711862
 124.732585,  117.713590
 124.734252,  117.715318
 124.735918,  117.717023
 124.737585,  117.718724
 124.739252,  117.720424
 124.740918,  117.722125
 124.742585,  117.723825
 124.744252,  117.725526
 124.745918,  117.727226
 124.747585,  117.728927
 124.749252,  117.730627
 124.750918,  117.732328
 124.752585,  117.734038
 124.754252,  117.735749
 124.755918,  117.737461
 124.757585,  117.739173
 124.759252,  117.740885
 124.760918,  117.742596
 124.762585,  117.744308
 124.764252,  117.746020
 124.765918,  117.747731
 124.767585,  117.749443
 124.769252,  117.751257
 124.770918,  117.753090
 124.772585,  117.754924
 124.774252,  117.756757
 124.775918,  117.758591
 124.777585,  117.760425
 124.779252,  117.762258
 124.780918,  117.764092
 124.782585,  117.765925
 124.784252,  117.767759
 124.785918,  117.769555
 124.787585,  117.771343
 124.789252,  117.773132
 124.790918,  117.774920
 124.792585,  117.776709
 124.794252,  117.778497
 124.795918,  117.780286
 124.797585,  117.782074
 124.799252,  117.783863
 124.800918,  117.785651
 124.802585,  117.787553
 124.804252,  117.789477
 124.805918,  117.791401
 124.807585,  117.793325
 124.809252,  117.795249
 124.810918,  117.797173
 124.812585,  117.799097
 124.814252,  117.801021
 124.815918,  117.802945
 124.817585,  117.804869
 124.819252,  117.806739
 124.820918,  117.808598
 124.822585,  117.810458
 124.824252,  117.812317
 124.825918,  117.814177
 124.827585,  117.816036
 124.829252,  117.817896
 124.830918,  117.819755
 124.832585,  117.821615
 124.834252,  117.823474
 124.835918,  117.825334
 124.837585,  117.827193
 124.839252,  117.829052
 124.840918,  117.830912
 124.842585,  117.832771
 124.844252,  117.834630
 124.845918,  117.836489
 124.847585,  117.838349
 124.849252,  117.840208
 124.850918,  117.842067
 124.852585,  117.844012
 124.854252,  117.845974
 124.855918,  117.847935
 124.857585,  117.849897
 124.859252,  117.851858
 124.860918,  117.853820
 124.862585,  117.855782
 124.864252,  117.857743
 124.865918,  117.859705
 124.867585,  117.861666
 124.869252,  117.863568
 124.870918,  117.865458
 124.872585,  117.867347
 124.874252,  117.869237
 124.875918,  117.871127
 124.877585,  117.873017
 124.879252,  117.874907
 124.880918,  117.876797
 124.882585,  117.878686
 124.884252,  117.880576
 124.885918,  117.882483
 124.887585,  117.884393
 124.889252,  117.886302
 124.890918,  117.888212
 124.892585,  117.890122
 124.894252,  117.892032
 124.895918,  117.893941
 124.897585,  117.895851
 124.899252,  117.897761
 124.900918,  117.899671
 124.902585,  117.901680
 124.904252,  117.903708
 124.905918,  117.905736
 124.907585,  117.907764
 124.909252,  117.909792
 124.910918,  117.911820
 124.912585,  117.913848
 124.914252,  117.915876
 124.915918,  117.917904
 124.917585,  117.919932
 124.919252,  117.921910
 124.920918,  117.923877
 124.922585,  117.925845
 124.924252,  117.927813
 124.925918,  117.929781
 124.927585,  117.931748
 124.929252,  117.933716
 124.930918,  117.935684
 124.932585,  117.937651
 124.934252,  117.939619
 124.935918,  117.941419
 124.937585,  117.943186
 124.939252,  117.944952
 124.940918,  117.946719
 124.942585,  117.948486
 124.944252,  117.950253
 124.945918,  117.952020
 124.947585,  117.953787
 124.949252,  117.955554
 124.950918,  117.957321
 124.952585,  117.959061
 124.954252,  117.960797
 124.955918,  117.962532
 124.957585,  117.964267
 124.959252,  117.966003
 124.960918,  117.967738
 124.962585,  117.969473
 124.964252,  117.971208
 124.965918,  117.972944
 124.967585,  117.974679
 124.969252,  117.976420
 124.970918,  117.978161
 124.972585,  117.979903
 124.974252,  117.981644
 124.975918,  117.983385
 124.977585,  117.985127
 124.979252,  117.986868
 124.980918,  117.988610
 124.982585,  117.990351
 124.984252,  117.992093
 124.985918,  117.993932
 124.987585,  117.995790
 124.989252,  117.997648
 124.990918,  117.999506
 124.992585,  118.001363
 124.994252,  118.003221
 124.995918,  118.005079
 124.997585,  118.006937
 124.999252,  118.008795
 125.000918,  118.010653
 125.002585,  118.012467
 125.004252,  118.014273
 125.005918,  118.016079
 125.007585,  118.017885
 125.009252,  118.019691
 125.010918,  118.021497
 125.012585,  118.023303
 125.014252,  118.025109
 125.015918,  118.026915
 125.017585,  118.028721
 125.019252,  118.030636
 125.020918,  118.032571
 125.022585,  118.034507
 125.024252,  118.036442
 125.025918,  118.038377
 125.027585,  118.040313
 125.029252,  118.042248
 125.030918,  118.044184
 125.032585,  118.046119
 125.034252,  118.048055
 125.035918,  118.049930
 125.037585,  118.051794
 125.039252,  118.053659
 125.040918,  118.055523
 125.042585,  118.057387
 125.044252,  118.059251
 125.045918,  118.061115
 125.047585,  118.062980
 125.049252,  118.064844
 125.050918,  118.066708
 125.052585,  118.068567
 125.054252,  118.070425
 125.055918,  118.072284
 125.057585,  118.074142
 125.059252,  118.076000
 125.060918,  118.077858
 125.062585,  118.079717
 125.064252,  118.081575
 125.065918,  118.083433
 125.067585,  118.085291
 125.069252,  118.087232
 125.070918,  118.089188
 125.072585,  118.091145
 125.074252,  118.093101
 125.075918,  118.095058
 125.077585,  118.097014
 125.079252,  118.098970
 125.080918,  118.100927
 125.082585,  118.102883
 125.084252,  118.104840
 125.085918,  118.106733
 125.087585,  118.108614
 125.089252,  118.110494
 125.090918,  118.112375
 125.092585,  118.114256
 125.094252,  118.116137
 125.095918,  118.118018
 125.097585,  118.119899
 125.099252,  118.121779
 125.100918,  118.123660
 125.102585,  118.125556
 125.104252,  118.127455
 125.105918,  118.129354
 125.107585,  118.131253
 125.109252,  118.133152
 125.110918,  118.135051
 125.112585,  118.136950
 125.114252,  118.138848
 125.115918,  118.140747
 125.117585,  118.142646
 125.119252,  118.144644
 125.120918,  118.146662
 125.122585,  118.148679
 125.124252,  118.150696
 125.125918,  118.152714
 125.127585,  118.154731
 125.129252,  118.156749
 125.130918,  118.158766
 125.132585,  118.160783
 125.134252,  118.162801
 125.135918,  118.164768
 125.137585,  118.166725
 125.139252,  118.168683
 125.140918,  118.170641
 125.142585,  118.172598
 125.144252,  118.174556
 125.145918,  118.176514
 125.147585,  118.178471
 125.149252,  118.180429
 125.150918,  118.182387
 125.152585,  118.184177
 125.154252,  118.185935
 125.155918,  118.187693
 125.157585,  118.189451
 125.159252,  118.191208
 125.160918,  118.192966
 125.162585,  118.194724
 125.164252,  118.196482
 125.165918,  118.198240
 125.167585,  118.199998
 125.169252,  118.201732
 125.170918,  118.203462
 125.172585,  118.205191
 125.174252,  118.206921
 125.175918,  118.208651
 125.177585,  118.210380
 125.179252,  118.212110
 125.180918,  118.213839
 125.182585,  118.215569
 125.184252,  118.217299
 125.185918,  118.219037
 125.187585,  118.220777
 125.189252,  118.222517
 125.190918,  118.224257
 125.192585,  118.225997
 125.194252,  118.227737
 125.195918,  118.229477
 125.197585,  118.231217
 125.199252,  118.232957
 125.200918,  118.234697
 125.202585,  118.236539
 125.204252,  118.238401
 125.205918,  118.240263
 125.207585,  118.242125
 125.209252,  118.243987
 125.210918,  118.245849
 125.212585,  118.247711
 125.214252,  118.249573
 125.215918,  118.251435
 125.217585,  118.253297
 125.219252,  118.255120
 125.220918,  118.256934
 125.222585,  118.258749
 125.224252,  118.260564
 125.225918,  118.262379
 125.227585,  118.264194
 125.229252,  118.266009
 125.230918,  118.267824
 125.232585,  118.269638
 125.234252,  118.271453
 125.235918,  118.273382
 125.237585,  118.275332
 125.239252,  118.277282
 125.240918,  118.279232
 125.242585,  118.281182
 125.244252,  118.283132
 125.245918,  118.285082
 125.247585,  118.287032
 125.249252,  118.288982
 125.250918,  118.290932
 125.252585,  118.292826
 125.254252,  118.294709
 125.255918,  118.296592
 125.257585,  118.298475
 125.259252,  118.300358
 125.260918,  118.302241
 125.262585,  118.304124
 125.264252,  118.306007
 125.265918,  118.307890
 125.267585,  118.309774
 125.269252,  118.311655
 125.270918,  118.313536
 125.272585,  118.315417
 125.274252,  118.317298
 125.275918,  118.319179
 125.277585,  118.321060
 125.279252,  118.322941
 125.280918,  118.324822
 125.282585,  118.326703
 125.284252,  118.328585
 125.285918,  118.330551
 125.287585,  118.332534
 125.289252,  118.334517
 125.290918,  118.336500
 125.292585,  118.338483
 125.294252,  118.340465
 125.295918,  118.342448
 125.297585,  118.344431
 125.299252,  118.346414
 125.300918,  118.348397
 125.302585,  118.350318
 125.304252,  118.352227
 125.305918,  118.354136
 125.307585,  118.356045
 125.309252,  118.357954
 125.310918,  118.359863
 125.312585,  118.361772
 125.314252,  118.363681
 125.315918,  118.365590
 125.317585,  118.367499
 125.319252,  118.369424
 125.320918,  118.371352
 125.322585,  118.373281
 125.324252,  118.375209
 125.325918,  118.377137
 125.327585,  118.379065
 125.329252,  118.380993
 125.330918,  118.382921
 125.332585,  118.384849
 125.334252,  118.386778
 125.335918,  118.388806
 125.337585,  118.390853
 125.339252,  118.392900
 125.340918,  118.394947
 125.342585,  118.396994
 125.344252,  118.399041
 125.345918,  118.401088
 125.347585,  118.403136
 125.349252,  118.405183
 125.350918,  118.407230
 125.352585,  118.409226
 125.354252,  118.411212
 125.355918,  118.413198
 125.357585,  118.415184
 125.359252,  118.417169
 125.360918,  118.419155
 125.362585,  118.421141
 125.364252,  118.423127
 125.365918,  118.425113
 125.367585,  118.427099
 125.369252,  118.428915
 125.370918,  118.430698
 125.372585,  118.432481
 125.374252,  118.434264
 125.375918,  118.436047
 125.377585,  118.437829
 125.379252,  118.439612
 125.380918,  118.441395
 125.382585,  118.443178
 125.384252,  118.444961
 125.385918,  118.446718
 125.387585,  118.448469
 125.389252,  118.450221
 125.390918,  118.451972
 125.392585,  118.453724
 125.394252,  118.455475
 125.395918,  118.457227
 125.397585,  118.458978
 125.399252,  118.460730
 125.400918,  118.462481
 125.402585,  118.464239
 125.404252,  118.465997
 125.405918,  118.467756
 125.407585,  118.469514
 125.409252,  118.471273
 125.410918,  118.473032
 125.412585,  118.474790
 125.414252,  118.476549
 125.415918,  118.478307
 125.417585,  118.480066
 125.419252,  118.481924
 125.420918,  118.483801
 125.422585,  118.485679
 125.424252,  118.487556
 125.425918,  118.489434
 125.427585,  118.491311
 125.429252,  118.493188
 125.430918,  118.495066
 125.432585,  118.496943
 125.434252,  118.498820
 125.435918,  118.500655
 125.437585,  118.502481
 125.439252,  118.504307
 125.440918,  118.506133
 125.442585,  118.507960
 125.444252,  118.509786
 125.445918,  118.511612
 125.447585,  118.513438
 125.449252,  118.515264
 125.450918,  118.517090
 125.452585,  118.519027
 125.454252,  118.520986
 125.455918,  118.522944
 125.457585,  118.524903
 125.459252,  118.526861
 125.460918,  118.528819
 125.462585,  118.530778
 125.464252,  118.532736
 125.465918,  118.534695
 125.467585,  118.536653
 125.469252,  118.538552
 125.470918,  118.540440
 125.472585,  118.542328
 125.474252,  118.544215
 125.475918,  118.546103
 125.477585,  118.547991
 125.479252,  118.549879
 125.480918,  118.551766
 125.482585,  118.553654
 125.484252,  118.555542
 125.485918,  118.557426
 125.487585,  118.559309
 125.489252,  118.561192
 125.490918,  118.563075
 125.492585,  118.564958
 125.494252,  118.566841
 125.495918,  118.568724
 125.497585,  118.570607
 125.499252,  118.572490
 125.500918,  118.574373
 125.502585,  118.576340
 125.504252,  118.578323
 125.505918,  118.580307
 125.507585,  118.582290
 125.509252,  118.584274
 125.510918,  118.586257
 125.512585,  118.588241
 125.514252,  118.590224
 125.515918,  118.592207
 125.517585,  118.594191
 125.519252,  118.596111
 125.520918,  118.598019
 125.522585,  118.599927
 125.524252,  118.601835
 125.525918,  118.603743
 125.527585,  118.605651
 125.529252,  118.607559
 125.530918,  118.609467
 125.532585,  118.611375
 125.534252,  118.613282
 125.535918,  118.615206
 125.537585,  118.617133
 125.539252,  118.619060
 125.540918,  118.620987
 125.542585,  118.622914
 125.544252,  118.624841
 125.545918,  118.626767
 125.547585,  118.628694
 125.549252,  118.630621
 125.550918,  118.632548
 125.552585,  118.634576
 125.554252,  118.636623
 125.555918,  118.638670
 125.557585,  118.640717
 125.559252,  118.642764
 125.560918,  118.644811
 125.562585,  118.646858
 125.564252,  118.648905
 125.565918,  118.650952
 125.567585,  118.652999
 125.569252,  118.654996
 125.570918,  118.656982
 125.572585,  118.658969
 125.574252,  118.660956
 125.575918,  118.662943
 125.577585,  118.664929
 125.579252,  118.666916
 125.580918,  118.668903
 125.582585,  118.670890
 125.584252,  118.672876
 125.585918,  118.674694
 125.587585,  118.676478
 125.589252,  118.678263
 125.590918,  118.680047
 125.592585,  118.681832
 125.594252,  118.683616
 125.595918,  118.685401
 125.597585,  118.687185
 125.599252,  118.688970
 125.600918,  118.690755
 125.602585,  118.692515
 125.604252,  118.694270
 125.605918,  118.696025
 125.607585,  118.697781
 125.609252,  118.699536
 125.610918,  118.701292
 125.612585,  118.703047
 125.614252,  118.704802
 125.615918,  118.706558
 125.617585,  118.708313
 125.619252,  118.710077
 125.620918,  118.711842
 125.622585,  118.713607
 125.624252,  118.715372
 125.625918,  118.717138
 125.627585,  118.718903
 125.629252,  118.720668
 125.630918,  118.722433
 125.632585,  118.724199
 125.634252,  118.725964
 125.635918,  118.727832
 125.637585,  118.729719
 125.639252,  118.731607
 125.640918,  118.733495
 125.642585,  118.735382
 125.644252,  118.737270
 125.645918,  118.739158
 125.647585,  118.741045
 125.649252,  118.742933
 125.650918,  118.744821
 125.652585,  118.746668
 125.654252,  118.748507
 125.655918,  118.750346
 125.657585,  118.752185
 125.659252,  118.754024
 125.660918,  118.755863
 125.662585,  118.757702
 125.664252,  118.759541
 125.665918,  118.761380
 125.667585,  118.763219
 125.669252,  118.765171
 125.670918,  118.767146
 125.672585,  118.769121
 125.674252,  118.771096
 125.675918,  118.773070
 125.677585,  118.775045
 125.679252,  118.777020
 125.680918,  118.778995
 125.682585,  118.780969
 125.684252,  118.782944
 125.685918,  118.784861
 125.687585,  118.786767
 125.689252,  118.788673
 125.690918,  118.790579
 125.692585,  118.792485
 125.694252,  118.794391
 125.695918,  118.796296
 125.697585,  118.798202
 125.699252,  118.800108
 125.700918,  118.802014
 125.702585,  118.803918
 125.704252,  118.805821
 125.705918,  118.807724
 125.707585,  118.809627
 125.709252,  118.811530
 125.710918,  118.813433
 125.712585,  118.815336
 125.714252,  118.817239
 125.715918,  118.819141
 125.717585,  118.821044
 125.719252,  118.823033
 125.720918,  118.825038
 125.722585,  118.827044
 125.724252,  118.829049
 125.725918,  118.831054
 125.727585,  118.833059
 125.729252,  118.835064
 125.730918,  118.837070
 125.732585,  118.839075
 125.734252,  118.841080
 125.735918,  118.843022
 125.737585,  118.844952
 125.739252,  118.846882
 125.740918,  118.848812
 125.742585,  118.850742
 125.744252,  118.852672
 125.745918,  118.854601
 125.747585,  118.856531
 125.749252,  118.858461
 125.750918,  118.860391
 125.752585,  118.862337
 125.754252,  118.864286
 125.755918,  118.866235
 125.757585,  118.868184
 125.759252,  118.870132
 125.760918,  118.872081
 125.762585,  118.874030
 125.764252,  118.875979
 125.765918,  118.877928
 125.767585,  118.879877
 125.769252,  118.881926
 125.770918,  118.883996
 125.772585,  118.886065
 125.774252,  118.888134
 125.775918,  118.890203
 125.777585,  118.892272
 125.779252,  118.894341
 125.780918,  118.896410
 125.782585,  118.898479
 125.784252,  118.900549
 125.785918,  118.902566
 125.787585,  118.904573
 125.789252,  118.906580
 125.790918,  118.908588
 125.792585,  118.910595
 125.794252,  118.912602
 125.795918,  118.914609
 125.797585,  118.916617
 125.799252,  118.918624
 125.800918,  118.920631
 125.802585,  118.922467
 125.804252,  118.924269
 125.805918,  118.926071
 125.807585,  118.927873
 125.809252,  118.929676
 125.810918,  118.931478
 125.812585,  118.933280
 125.814252,  118.935082
 125.815918,  118.936885
 125.817585,  118.938687
 125.819252,  118.940463
 125.820918,  118.942234
 125.822585,  118.944005
 125.824252,  118.945776
 125.825918,  118.947547
 125.827585,  118.949318
 125.829252,  118.951089
 125.830918,  118.952860
 125.832585,  118.954631
 125.834252,  118.956402
 125.835918,  118.958179
 125.837585,  118.959958
 125.839252,  118.961737
 125.840918,  118.963515
 125.842585,  118.965294
 125.844252,  118.967073
 125.845918,  118.968852
 125.847585,  118.970630
 125.849252,  118.972409
 125.850918,  118.974188
 125.852585,  118.976068
 125.854252,  118.977967
 125.855918,  118.979867
 125.857585,  118.981767
 125.859252,  118.983666
 125.860918,  118.985566
 125.862585,  118.987466
 125.864252,  118.989365
 125.865918,  118.991265
 125.867585,  118.993165
 125.869252,  118.995021
 125.870918,  118.996870
 125.872585,  118.998718
 125.874252,  119.000567
 125.875918,  119.002416
 125.877585,  119.004264
 125.879252,  119.006113
 125.880918,  119.007961
 125.882585,  119.009810
 125.884252,  119.011658
 125.885918,  119.013620
 125.887585,  119.015603
 125.889252,  119.017586
 125.890918,  119.019569
 125.892585,  119.021552
 125.894252,  119.023535
 125.895918,  119.025519
 125.897585,  119.027502
 125.899252,  119.029485
 125.900918,  119.031468
 125.902585,  119.033392
 125.904252,  119.035304
 125.905918,  119.037216
 125.907585,  119.039129
 125.909252,  119.041041
 125.910918,  119.042953
 125.912585,  119.044866
 125.914252,  119.046778
 125.915918,  119.048690
 125.917585,  119.050603
 125.919252,  119.052512
 125.920918,  119.054420
 125.922585,  119.056328
 125.924252,  119.058236
 125.925918,  119.060145
 125.927585,  119.062053
 125.929252,  119.063961
 125.930918,  119.065869
 125.932585,  119.067778
 125.934252,  119.069686
 125.935918,  119.071680
 125.937585,  119.073690
 125.939252,  119.075700
 125.940918,  119.077711
 125.942585,  119.079721
 125.944252,  119.081731
 125.945918,  119.083742
 125.947585,  119.085752
 125.949252,  119.087762
 125.950918,  119.089773
 125.952585,  119.091720
 125.954252,  119.093654
 125.955918,  119.095588
 125.957585,  119.097523
 125.959252,  119.099457
 125.960918,  119.101391
 125.962585,  119.103326
 125.964252,  119.105260
 125.965918,  119.107194
 125.967585,  119.109129
 125.969252,  119.111079
 125.970918,  119.113033
 125.972585,  119.114987
 125.974252,  119.116941
 125.975918,  119.118894
 125.977585,  119.120848
 125.979252,  119.122802
 125.980918,  119.124756
 125.982585,  119.126709
 125.984252,  119.128663
 125.985918,  119.130719
 125.987585,  119.132794
 125.989252,  119.134870
 125.990918,  119.136945
 125.992585,  119.139020
 125.994252,  119.141096
 125.995918,  119.143171
 125.997585,  119.145247
 125.999252,  119.147322
 126.000918,  119.149397
 126.002585,  119.151422
 126.004252,  119.153436
 126.005918,  119.155450
 126.007585,  119.157464
 126.009252,  119.159479
 126.010918,  119.161493
 126.012585,  119.163507
 126.014252,  119.165522
 126.015918,  119.167536
 126.017585,  119.169550
 126.019252,  119.171393
 126.020918,  119.173202
 126.022585,  119.175012
 126.024252,  119.176821
 126.025918,  119.178631
 126.027585,  119.180440
 126.029252,  119.182250
 126.030918,  119.184059
 126.032585,  119.185869
 126.034252,  119.187678
 126.035918,  119.189463
 126.037585,  119.191242
 126.039252,  119.193022
 126.040918,  119.194802
 126.042585,  119.196581
 126.044252,  119.198361
 126.045918,  119.200141
 126.047585,  119.201920
 126.049252,  119.203700
 126.050918,  119.205479
 126.052585,  119.207267
 126.054252,  119.209056
 126.055918,  119.210845
 126.057585,  119.212634
 126.059252,  119.214423
 126.060918,  119.216212
 126.062585,  119.218002
 126.064252,  119.219791
 126.065918,  119.221580
 126.067585,  119.223369
 126.069252,  119.225261
 126.070918,  119.227174
 126.072585,  119.229086
 126.074252,  119.230998
 126.075918,  119.232911
 126.077585,  119.234823
 126.079252,  119.236735
 126.080918,  119.238648
 126.082585,  119.240560
 126.084252,  119.242472
 126.085918,  119.244375
 126.087585,  119.246275
 126.088545,  119.247370
 126.090212,  119.249220
 126.091879,  119.251071
 126.093545,  119.252921
 126.095212,  119.254772
 126.096879,  119.256622
 126.098545,  119.258473
 126.100212,  119.260323
 126.101879,  119.181431
 126.103545,  118.988412
 126.105212,  118.795392
 126.106879,  118.602373
 126.108545,  118.409354
 126.110212,  118.216335
 126.111879,  118.023316
 126.113545,  117.830297
 126.115212,  117.637277
 126.116879,  117.444258
 126.118545,  117.250000
 126.120212,  117.053991
 126.121879,  116.857982
 126.123545,  116.661973
 126.125212,  116.465964
 126.126879,  116.269955
 126.128545,  116.073946
 126.130212,  115.877937
 126.131879,  115.681928
 126.133545,  115.485919
 126.135212,  115.288971
 126.136879,  115.090696
 126.138545,  114.892421
 126.140212,  114.694146
 126.141879,  114.495871
 126.143110,  114.349340
