Time, Speed
   0.000000,    0.000644
   0.001667,    0.643386
   0.003333,    1.283034
   0.005000,    1.922221
   0.006667,    2.561409
   0.008333,    3.200596
   0.010000,    3.839784
   0.011667,    4.478971
   0.013333,    5.118158
   0.015000,    5.757346
   0.016667,    6.396533
   0.018333,    7.035721
   0.020000,    7.668043
   0.021667,    8.299507
   0.023333,    8.930972
   0.025000,    9.562437
   0.026667,   10.193902
   0.028333,   10.825367
   0.030000,   11.456832
   0.031667,   12.088297
   0.033333,   12.719762
   0.035000,   13.351226
   0.036667,   13.975617
   0.038333,   14.599124
   0.040000,   15.222632
   0.041667,   15.846139
   0.043333,   16.469646
   0.045000,   17.093153
   0.046667,   17.716660
   0.048333,   18.340168
   0.050000,   18.963675
   0.051667,   19.587182
   0.053333,   20.203420
   0.055000,   20.818750
   0.056667,   21.434079
   0.058333,   22.049409
   0.060000,   22.664739
   0.061667,   23.280069
   0.063333,   23.895399
   0.065000,   24.510729
   0.066667,   25.126058
   0.068333,   25.741388
   0.070000,   26.349267
   0.071667,   26.956215
   0.073333,   27.563163
   0.075000,   28.170111
   0.076667,   28.777059
   0.078333,   29.384008
   0.080000,   29.990956
   0.081667,   30.597904
   0.083333,   31.204852
   0.085000,   31.811800
   0.086667,   32.410228
   0.088333,   33.007591
   0.090000,   33.604955
   0.091667,   34.202319
   0.093333,   34.799682
   0.095000,   35.397046
   0.096667,   35.994410
   0.098333,   36.591773
   0.100000,   37.189137
   0.101667,   37.786501
   0.103333,   38.373357
   0.105000,   38.958902
   0.106667,   39.544447
   0.108333,   40.129991
   0.110000,   40.715536
   0.111667,   41.301081
   0.113333,   41.886625
   0.115000,   42.472170
   0.116667,   43.057715
   0.118333,   43.643259
   0.120000,   44.218210
   0.121667,   44.791838
   0.123333,   45.365466
   0.125000,   45.939094
   0.126667,   46.512722
   0.128333,   47.086351
   0.130000,   47.659979
   0.131667,   48.233607
   0.133333,   48.807235
   0.135000,   49.380863
   0.136667,   49.943874
   0.138333,   50.505559
   0.140000,   51.067244
   0.141667,   51.628929
   0.143333,   52.190614
   0.145000,   52.752299
   0.146667,   53.313984
   0.148333,   53.875669
   0.150000,   54.437354
   0.151667,   54.999039
   0.153333,   55.550099
   0.155000,   56.099832
   0.156667,   56.649565
   0.158333,   57.199298
   0.160000,   57.749031
   0.161667,   58.298764
   0.163333,   58.848497
   0.165000,   59.398230
   0.166667,   59.947963
   0.168333,   60.497696
   0.170000,   61.036811
   0.171667,   61.574600
   0.173333,   62.112388
   0.175000,   62.650177
   0.176667,   63.187966
   0.178333,   63.725754
   0.180000,   64.263543
   0.181667,   64.801331
   0.183333,   65.339120
   0.185000,   65.876909
   0.186667,   66.402566
   0.188333,   66.926708
   0.190000,   67.450851
   0.191667,   67.974993
   0.193333,   68.499136
   0.195000,   69.023278
   0.196667,   69.547421
   0.198333,   70.071563
   0.200000,   70.595706
   0.201667,   71.119848
   0.203333,   71.630241
   0.205000,   72.138918
   0.206667,   72.647594
   0.208333,   73.156270
   0.210000,   73.664947
   0.211667,   74.173623
   0.213333,   74.682299
   0.215000,   75.190976
   0.216667,   75.699652
   0.218333,   76.208328
   0.220000,   76.703464
   0.221667,   77.196910
   0.223333,   77.690355
   0.225000,   78.183800
   0.226667,   78.677245
   0.228333,   79.170691
   0.230000,   79.664136
   0.231667,   80.157581
   0.233333,   80.651026
   0.235000,   81.144471
   0.236667,   81.624606
   0.238333,   82.103080
   0.240000,   82.581553
   0.241667,   83.060026
   0.243333,   83.538499
   0.245000,   84.016972
   0.246667,   84.495445
   0.248333,   84.973918
   0.250000,   85.452391
   0.251667,   85.930864
   0.253333,   86.396266
   0.255000,   86.860036
   0.256667,   87.323805
   0.258333,   87.787575
   0.260000,   88.251345
   0.261667,   88.715115
   0.263333,   89.178885
   0.265000,   89.642655
   0.266667,   90.106424
   0.268333,   90.570194
   0.270000,   91.021140
   0.271667,   91.470484
   0.273333,   91.919829
   0.275000,   92.369173
   0.276667,   92.818518
   0.278333,   93.267862
   0.280000,   93.717206
   0.281667,   94.166551
   0.283333,   94.615895
   0.285000,   95.065240
   0.286667,   95.502015
   0.288333,   95.937220
   0.290000,   96.372425
   0.291667,   96.807631
   0.293333,   97.242836
   0.295000,   97.678042
   0.296667,   98.113247
   0.298333,   98.548453
   0.300000,   98.983658
   0.301667,   99.418864
   0.303333,   99.844061
   0.305000,  100.268010
   0.306667,  100.691958
   0.308333,  101.115906
   0.310000,  101.539854
   0.311667,  101.963803
   0.312369,  102.142528
   0.314036,  102.559721
   0.315703,  102.976913
   0.317369,  103.394105
   0.319036,  103.806783
   0.320703,  104.209436
   0.322369,  104.612090
   0.324036,  105.014744
   0.325703,  105.417397
   0.327369,  105.820051
   0.329036,  106.222705
   0.330703,  106.625359
   0.332369,  107.028012
   0.334036,  107.430666
   0.335703,  107.825796
   0.337369,  108.204224
   0.339036,  108.582652
   0.340703,  108.961080
   0.342369,  109.339508
   0.344036,  109.717936
   0.345703,  110.096364
   0.347369,  110.474792
   0.349036,  110.853220
   0.350703,  111.231648
   0.352369,  111.601616
   0.354036,  111.952807
   0.355703,  112.303998
   0.357369,  112.655188
   0.359036,  113.006379
   0.360703,  113.357570
   0.362369,  113.708760
   0.364036,  114.059951
   0.365703,  114.411142
   0.367369,  114.762332
   0.368518,  115.004452
   0.370185,  115.222528
   0.371852,  115.440604
   0.373518,  115.658680
   0.375185,  115.876755
   0.376852,  116.094831
   0.378518,  116.312907
   0.380185,  116.530983
   0.381852,  116.749058
   0.383518,  116.967134
   0.385185,  117.185210
   0.386852,  117.297478
   0.388518,  117.409747
   0.390185,  117.522015
   0.391852,  117.634283
   0.393518,  117.746552
   0.395185,  117.801983
   0.396852,  117.857414
   0.398518,  117.912845
   0.400185,  117.968277
   0.401852,  118.023708
   0.403518,  118.019730
   0.405185,  118.015752
   0.406852,  118.011774
   0.408518,  118.007797
   0.410185,  118.003819
   0.410185,  170.093708
   1.604481,  174.882273
   2.823272,  179.870735
   4.081386,  185.070238
   5.429985,  190.492713
   6.915721,  196.150937
   8.560390,  202.058610
  10.397371,  208.230435
  12.485334,  214.682206
  14.968358,  221.430906
  14.968358,  248.660674
  15.830802,  248.660674
  16.693245,  248.660674
  17.555688,  248.660674
  18.418132,  248.660674
  19.280575,  248.660674
  20.143018,  248.660674
  21.005461,  248.660674
  21.867905,  248.660674
  22.730348,  248.660674
  23.592791,  248.660674
  24.455235,  248.660674
  25.317678,  248.660674
  26.180121,  248.660674
  27.042565,  248.660674
  27.905008,  248.660674
  28.767451,  248.660674
  29.629895,  248.660674
  30.492338,  248.660674
  31.354781,  248.660674
  32.217225,  248.660674
  33.079668,  248.660674
  33.942111,  248.660674
  34.804555,  248.660674
  35.666998,  248.660674
  36.529441,  248.660674
  37.391885,  248.660674
  38.254328,  248.660674
  39.116771,  248.660674
  39.979215,  248.660674
  39.979215,  286.557643
  41.139143,  278.562731
  42.301874,  270.890209
  43.463193,  263.523159
  44.619342,  256.445748
  45.768081,  249.643151
  46.905098,  243.101474
  48.026307,  236.807685
  49.143709,  230.749548
  50.253604,  224.915572
  50.253604,  173.798396
  50.833005,  176.249628
  51.418049,  178.751789
  52.008556,  181.306282
  52.607292,  183.914560
  53.225054,  186.578125
  53.871173,  189.298533
  54.548638,  192.077394
  55.259779,  194.916374
  56.006440,  197.817201
  56.006440,  165.518373
  57.858634,  165.446118
  59.711637,  165.373859
  61.565449,  165.301596
  63.420072,  165.229329
  65.275506,  165.157059
  67.131752,  165.084786
  68.988810,  165.012509
  70.846682,  164.940228
  72.705368,  164.867944
  72.705368,  255.998731
  73.351774,  252.244720
  73.988012,  248.570745
  74.626788,  244.974572
  75.268241,  241.454044
  75.912514,  238.007077
  76.559398,  234.631659
  77.208755,  231.325845
  77.860123,  228.087755
  78.512585,  224.915572
  78.512585,  165.518373
  83.512585,  165.446118
  88.512585,  165.373859
  93.512585,  165.301596
  98.512585,  165.229329
 103.512585,  165.157059
 108.512585,  165.084786
 113.512585,  165.012509
 118.512585,  164.940228
 123.512585,  164.867944
 123.512585,  107.417700
 123.514252,  107.418328
 123.515918,  107.418951
 123.517585,  107.419575
 123.519252,  107.420122
 123.520918,  107.420654
 123.522585,  107.421186
 123.524252,  107.421717
 123.525918,  107.422249
 123.527585,  107.422781
 123.529252,  107.423313
 123.530918,  107.423845
 123.532585,  107.424377
 123.534252,  107.424909
 123.535918,  107.425410
 123.537585,  107.425906
 123.539252,  107.426401
 123.540918,  107.426897
 123.542585,  107.427392
 123.544252,  107.427888
 123.545918,  107.428383
 123.547585,  107.428879
 123.549252,  107.429374
 123.550918,  107.429870
 123.552585,  107.430362
 123.554252,  107.430854
 123.555918,  107.431346
 123.557585,  107.431838
 123.559252,  107.432329
 123.560918,  107.432821
 123.562585,  107.433313
 123.564252,  107.433805
 123.565918,  107.434297
 123.567585,  107.434788
 123.569252,  107.435129
 123.570918,  107.435441
 123.572585,  107.435753
 123.574252,  107.436065
 123.575918,  107.436377
 123.577585,  107.436688
 123.579252,  107.437000
 123.580918,  107.437312
 123.582585,  107.437624
 123.584252,  107.437936
 123.585918,  107.438379
 123.587585,  107.438847
 123.589252,  107.439315
 123.590918,  107.439783
 123.592585,  107.440251
 123.594252,  107.440719
 123.595918,  107.441188
 123.597585,  107.441656
 123.599252,  107.442124
 123.600918,  107.442592
 123.602585,  107.443008
 123.604252,  107.443413
 123.605918,  107.443819
 123.607585,  107.444224
 123.609252,  107.444629
 123.610918,  107.445035
 123.612585,  107.445440
 123.614252,  107.445846
 123.615918,  107.446251
 123.617585,  107.446657
 123.619252,  107.447070
 123.620918,  107.447484
 123.622585,  107.447899
 123.624252,  107.448313
 123.625918,  107.448728
 123.627585,  107.449142
 123.629252,  107.449557
 123.630918,  107.449972
 123.632585,  107.450386
 123.634252,  107.450801
 123.635918,  107.451285
 123.637585,  107.451782
 123.639252,  107.452279
 123.640918,  107.452776
 123.642585,  107.453274
 123.644252,  107.453771
 123.645918,  107.454268
 123.647585,  107.454766
 123.649252,  107.455263
 123.650918,  107.455760
 123.652585,  107.456192
 123.654252,  107.456611
 123.655918,  107.457030
 123.657585,  107.457449
 123.659252,  107.457868
 123.660918,  107.458287
 123.662585,  107.458705
 123.664252,  107.459124
 123.665918,  107.459543
 123.667585,  107.459962
 123.669252,  107.460379
 123.670918,  107.460795
 123.672585,  107.461212
 123.674252,  107.461628
 123.675918,  107.462044
 123.677585,  107.462461
 123.679252,  107.462877
 123.680918,  107.463293
 123.682585,  107.463710
 123.684252,  107.464126
 123.685918,  107.464396
 123.687585,  107.464638
 123.689252,  107.464881
 123.690918,  107.465123
 123.692585,  107.465365
 123.694252,  107.465607
 123.695918,  107.465849
 123.697585,  107.466091
 123.699252,  107.466333
 123.700918,  107.466576
 123.702585,  107.466791
 123.704252,  107.467002
 123.705918,  107.467213
 123.707585,  107.467424
 123.709252,  107.467635
 123.710918,  107.467845
 123.712585,  107.468056
 123.714252,  107.468267
 123.715918,  107.468478
 123.717585,  107.468689
 123.719252,  107.468893
 123.720918,  107.469096
 123.722585,  107.469300
 123.724252,  107.469503
 123.725918,  107.469706
 123.727585,  107.469909
 123.729252,  107.470112
 123.730918,  107.470316
 123.732585,  107.470519
 123.734252,  107.470722
 123.735918,  107.470993
 123.737585,  107.471276
 123.739252,  107.471560
 123.740918,  107.471843
 123.742585,  107.472127
 123.744252,  107.472410
 123.745918,  107.472694
 123.747585,  107.472977
 123.749252,  107.473261
 123.750918,  107.473544
 123.752585,  107.473761
 123.754252,  107.473965
 123.755918,  107.474169
 123.757585,  107.474373
 123.759252,  107.474577
 123.760918,  107.474780
 123.762585,  107.474984
 123.764252,  107.475188
 123.765918,  107.475392
 123.767585,  107.475596
 123.769252,  107.475805
 123.770918,  107.476015
 123.772585,  107.476225
 123.774252,  107.476435
 123.775918,  107.476645
 123.777585,  107.476855
 123.779252,  107.477065
 123.780918,  107.477275
 123.782585,  107.477485
 123.784252,  107.477695
 123.785918,  107.477983
 123.787585,  107.478286
 123.789252,  107.478589
 123.790918,  107.478893
 123.792585,  107.479196
 123.794252,  107.479499
 123.795918,  107.479802
 123.797585,  107.480106
 123.799252,  107.480409
 123.800918,  107.480712
 123.802585,  107.480958
 123.804252,  107.481193
 123.805918,  107.481427
 123.807585,  107.481662
 123.809252,  107.481897
 123.810918,  107.482131
 123.812585,  107.482366
 123.814252,  107.482601
 123.815918,  107.482836
 123.817585,  107.483070
 123.819252,  107.483318
 123.820918,  107.483568
 123.822585,  107.483818
 123.824252,  107.484068
 123.825918,  107.484318
 123.827585,  107.484568
 123.829252,  107.484818
 123.830918,  107.485068
 123.832585,  107.485318
 123.834252,  107.485568
 123.835918,  107.485901
 123.837585,  107.486251
 123.839252,  107.486600
 123.840918,  107.486949
 123.842585,  107.487299
 123.844252,  107.487648
 123.845918,  107.487998
 123.847585,  107.488347
 123.849252,  107.488696
 123.850918,  107.489046
 123.852585,  107.489340
 123.854252,  107.489624
 123.855918,  107.489909
 123.857585,  107.490193
 123.859252,  107.490477
 123.860918,  107.490761
 123.862585,  107.491045
 123.864252,  107.491329
 123.865918,  107.491613
 123.867585,  107.491897
 123.869252,  107.492194
 123.870918,  107.492494
 123.872585,  107.492793
 123.874252,  107.493093
 123.875918,  107.493393
 123.877585,  107.493692
 123.879252,  107.493992
 123.880918,  107.494292
 123.882585,  107.494591
 123.884252,  107.494891
 123.885918,  107.495272
 123.887585,  107.495668
 123.889252,  107.496064
 123.890918,  107.496461
 123.892585,  107.496857
 123.894252,  107.497254
 123.895918,  107.497650
 123.897585,  107.498046
 123.899252,  107.498443
 123.900918,  107.498839
 123.902585,  107.499176
 123.904252,  107.499502
 123.905918,  107.499828
 123.907585,  107.500153
 123.909252,  107.500479
 123.910918,  107.500805
 123.912585,  107.501130
 123.914252,  107.501456
 123.915918,  107.501782
 123.917585,  107.502108
 123.919252,  107.502440
 123.920918,  107.502773
 123.922585,  107.503107
 123.924252,  107.503441
 123.925918,  107.503774
 123.927585,  107.504108
 123.929252,  107.504441
 123.930918,  107.504775
 123.932585,  107.505108
 123.934252,  107.505442
 123.935918,  107.505849
 123.937585,  107.506271
 123.939252,  107.506692
 123.940918,  107.507114
 123.942585,  107.507535
 123.944252,  107.507957
 123.945918,  107.508378
 123.947585,  107.508800
 123.949252,  107.509221
 123.950918,  107.509643
 123.952585,  107.509996
 123.954252,  107.510337
 123.955918,  107.510678
 123.957585,  107.511018
 123.959252,  107.511359
 123.960918,  107.511700
 123.962585,  107.512040
 123.964252,  107.512381
 123.965918,  107.512722
 123.967585,  107.513062
 123.969252,  107.513401
 123.970918,  107.513739
 123.972585,  107.514077
 123.974252,  107.514415
 123.975918,  107.514753
 123.977585,  107.515091
 123.979252,  107.515429
 123.980918,  107.515767
 123.982585,  107.516105
 123.984252,  107.516443
 123.985918,  107.516847
 123.987585,  107.517263
 123.989252,  107.517679
 123.990918,  107.518095
 123.992585,  107.518511
 123.994252,  107.518927
 123.995918,  107.519343
 123.997585,  107.519759
 123.999252,  107.520175
 124.000918,  107.520591
 124.002585,  107.520931
 124.004252,  107.521257
 124.005918,  107.521583
 124.007585,  107.521909
 124.009252,  107.522235
 124.010918,  107.522561
 124.012585,  107.522887
 124.014252,  107.523213
 124.015918,  107.523539
 124.017585,  107.523864
 124.019252,  107.524385
 124.020918,  107.524943
 124.022585,  107.525500
 124.024252,  107.526058
 124.025918,  107.526616
 124.027585,  107.527174
 124.029252,  107.527731
 124.030918,  107.528289
 124.032585,  107.528847
 124.034252,  107.529405
 124.035918,  107.529985
 124.037585,  107.530570
 124.039252,  107.531155
 124.040918,  107.531740
 124.042585,  107.532325
 124.044252,  107.532911
 124.045918,  107.533496
 124.047585,  107.534081
 124.049252,  107.534666
 124.050918,  107.535251
 124.052585,  107.535737
 124.054252,  107.536205
 124.055918,  107.536673
 124.057585,  107.537140
 124.059252,  107.537608
 124.060918,  107.538076
 124.062585,  107.538544
 124.064252,  107.539011
 124.065918,  107.539479
 124.067585,  107.539947
 124.069252,  107.540380
 124.070918,  107.540807
 124.072585,  107.541233
 124.074252,  107.541660
 124.075918,  107.542087
 124.077585,  107.542514
 124.079252,  107.542940
 124.080918,  107.543367
 124.082585,  107.543794
 124.084252,  107.544221
 124.085918,  107.544643
 124.087585,  107.545064
 124.089252,  107.545485
 124.090918,  107.545906
 124.092585,  107.546328
 124.094252,  107.546749
 124.095918,  107.547170
 124.097585,  107.547591
 124.099252,  107.548012
 124.100918,  107.548434
 124.102585,  107.548914
 124.104252,  107.549406
 124.105918,  107.549897
 124.107585,  107.550389
 124.109252,  107.550881
 124.110918,  107.551373
 124.112585,  107.551864
 124.114252,  107.552356
 124.115918,  107.552848
 124.117585,  107.553340
 124.119252,  107.553756
 124.120918,  107.554159
 124.122585,  107.554561
 124.124252,  107.554963
 124.125918,  107.555366
 124.127585,  107.555768
 124.129252,  107.556170
 124.130918,  107.556573
 124.132585,  107.556975
 124.134252,  107.557377
 124.135918,  107.557771
 124.137585,  107.558163
 124.139252,  107.558556
 124.140918,  107.558948
 124.142585,  107.559340
 124.144252,  107.559733
 124.145918,  107.560125
 124.147585,  107.560517
 124.149252,  107.560910
 124.150918,  107.561302
 124.152585,  107.561544
 124.154252,  107.561756
 124.155918,  107.561969
 124.157585,  107.562182
 124.159252,  107.562394
 124.160918,  107.562607
 124.162585,  107.562820
 124.164252,  107.563032
 124.165918,  107.563245
 124.167585,  107.563457
 124.169252,  107.563643
 124.170918,  107.563824
 124.172585,  107.564004
 124.174252,  107.564185
 124.175918,  107.564365
 124.177585,  107.564546
 124.179252,  107.564726
 124.180918,  107.564907
 124.182585,  107.565087
 124.184252,  107.565268
 124.185918,  107.565444
 124.187585,  107.565620
 124.189252,  107.565796
 124.190918,  107.565971
 124.192585,  107.566147
 124.194252,  107.566323
 124.195918,  107.566499
 124.197585,  107.566674
 124.199252,  107.566850
 124.200918,  107.567026
 124.202585,  107.567274
 124.204252,  107.567537
 124.205918,  107.567799
 124.207585,  107.568062
 124.209252,  107.568324
 124.210918,  107.568587
 124.212585,  107.568850
 124.214252,  107.569112
 124.215918,  107.569375
 124.217585,  107.569637
 124.219252,  107.569839
 124.220918,  107.570030
 124.222585,  107.570221
 124.224252,  107.570411
 124.225918,  107.570602
 124.227585,  107.570792
 124.229252,  107.570983
 124.230918,  107.571173
 124.232585,  107.571364
 124.234252,  107.571554
 124.235918,  107.571759
 124.237585,  107.571966
 124.239252,  107.572173
 124.240918,  107.572380
 124.242585,  107.572588
 124.244252,  107.572795
 124.245918,  107.573002
 124.247585,  107.573209
 124.249252,  107.573416
 124.250918,  107.573623
 124.252585,  107.573919
 124.254252,  107.574231
 124.255918,  107.574544
 124.257585,  107.574856
 124.259252,  107.575169
 124.260918,  107.575481
 124.262585,  107.575794
 124.264252,  107.576106
 124.265918,  107.576419
 124.267585,  107.576731
 124.269252,  107.576996
 124.270918,  107.577251
 124.272585,  107.577506
 124.274252,  107.577761
 124.275918,  107.578017
 124.277585,  107.578272
 124.279252,  107.578527
 124.280918,  107.578782
 124.282585,  107.579037
 124.284252,  107.579293
 124.285918,  107.579397
 124.287585,  107.579472
 124.289252,  107.579547
 124.290918,  107.579623
 124.292585,  107.579698
 124.294252,  107.579773
 124.295918,  107.579848
 124.297585,  107.579924
 124.299252,  107.579999
 124.300918,  107.580074
 124.302585,  107.580130
 124.304252,  107.580182
 124.305918,  107.580234
 124.307585,  107.580286
 124.309252,  107.580338
 124.310918,  107.580390
 124.312585,  107.580443
 124.314252,  107.580495
 124.315918,  107.580547
 124.317585,  107.580599
 124.319252,  107.580661
 124.320918,  107.580725
 124.322585,  107.580790
 124.324252,  107.580854
 124.325918,  107.580918
 124.327585,  107.580982
 124.329252,  107.581047
 124.330918,  107.581111
 124.332585,  107.581175
 124.334252,  107.581239
 124.335918,  107.581396
 124.337585,  107.581571
 124.339252,  107.581746
 124.340918,  107.581921
 124.342585,  107.582096
 124.344252,  107.582271
 124.345918,  107.582445
 124.347585,  107.582620
 124.349252,  107.582795
 124.350918,  107.582970
 124.352585,  107.583108
 124.354252,  107.583239
 124.355918,  107.583370
 124.357585,  107.583501
 124.359252,  107.583632
 124.360918,  107.583763
 124.362585,  107.583894
 124.364252,  107.584025
 124.365918,  107.584156
 124.367585,  107.584287
 124.369252,  107.584523
 124.370918,  107.584779
 124.372585,  107.585036
 124.374252,  107.585293
 124.375918,  107.585549
 124.377585,  107.585806
 124.379252,  107.586062
 124.380918,  107.586319
 124.382585,  107.586576
 124.384252,  107.586832
 124.385918,  107.587035
 124.387585,  107.587227
 124.389252,  107.587420
 124.390918,  107.587612
 124.392585,  107.587805
 124.394252,  107.587997
 124.395918,  107.588189
 124.397585,  107.588382
 124.399252,  107.588574
 124.400918,  107.588767
 124.402585,  107.588961
 124.404252,  107.589155
 124.405918,  107.589349
 124.407585,  107.589543
 124.409252,  107.589738
 124.410918,  107.589932
 124.412585,  107.590126
 124.414252,  107.590321
 124.415918,  107.590515
 124.417585,  107.590709
 124.419252,  107.590981
 124.420918,  107.591269
 124.422585,  107.591556
 124.424252,  107.591844
 124.425918,  107.592131
 124.427585,  107.592418
 124.429252,  107.592706
 124.430918,  107.592993
 124.432585,  107.593281
 124.434252,  107.593568
 124.435918,  107.593799
 124.437585,  107.594018
 124.439252,  107.594238
 124.440918,  107.594458
 124.442585,  107.594678
 124.444252,  107.594898
 124.445918,  107.595118
 124.447585,  107.595337
 124.449252,  107.595557
 124.450918,  107.595777
 124.452585,  107.596014
 124.454252,  107.596254
 124.455918,  107.596493
 124.457585,  107.596733
 124.459252,  107.596973
 124.460918,  107.597213
 124.462585,  107.597453
 124.464252,  107.597693
 124.465918,  107.597933
 124.467585,  107.598173
 124.469252,  107.598503
 124.470918,  107.598850
 124.472585,  107.599197
 124.474252,  107.599545
 124.475918,  107.599892
 124.477585,  107.600240
 124.479252,  107.600587
 124.480918,  107.600935
 124.482585,  107.601282
 124.484252,  107.601629
 124.485918,  107.601929
 124.487585,  107.602219
 124.489252,  107.602509
 124.490918,  107.602799
 124.492585,  107.603089
 124.494252,  107.603379
 124.495918,  107.603669
 124.497585,  107.603960
 124.499252,  107.604250
 124.500918,  107.604540
 124.502585,  107.604677
 124.504252,  107.604786
 124.505918,  107.604894
 124.507585,  107.605002
 124.509252,  107.605110
 124.510918,  107.605218
 124.512585,  107.605326
 124.514252,  107.605435
 124.515918,  107.605543
 124.517585,  107.605651
 124.519252,  107.605737
 124.520918,  107.605820
 124.522585,  107.605902
 124.524252,  107.605984
 124.525918,  107.606066
 124.527585,  107.606149
 124.529252,  107.606231
 124.530918,  107.606313
 124.532585,  107.606395
 124.534252,  107.606478
 124.535918,  107.606567
 124.537585,  107.606658
 124.539252,  107.606748
 124.540918,  107.606839
 124.542585,  107.606929
 124.544252,  107.607020
 124.545918,  107.607111
 124.547585,  107.607201
 124.549252,  107.607292
 124.550918,  107.607382
 124.552585,  107.607562
 124.554252,  107.607759
 124.555918,  107.607956
 124.557585,  107.608153
 124.559252,  107.608350
 124.560918,  107.608547
 124.562585,  107.608743
 124.564252,  107.608940
 124.565918,  107.609137
 124.567585,  107.609334
 124.569252,  107.609490
 124.570918,  107.609637
 124.572585,  107.609785
 124.574252,  107.609932
 124.575918,  107.610080
 124.577585,  107.610227
 124.579252,  107.610375
 124.580918,  107.610523
 124.582585,  107.610670
 124.584252,  107.610818
 124.585918,  107.611066
 124.587585,  107.611334
 124.589252,  107.611602
 124.590918,  107.611870
 124.592585,  107.612139
 124.594252,  107.612407
 124.595918,  107.612675
 124.597585,  107.612943
 124.599252,  107.613211
 124.600918,  107.613479
 124.602585,  107.613689
 124.604252,  107.613887
 124.605918,  107.614086
 124.607585,  107.614284
 124.609252,  107.614483
 124.610918,  107.614681
 124.612585,  107.614880
 124.614252,  107.615078
 124.615918,  107.615277
 124.617585,  107.615475
 124.619252,  107.615670
 124.620918,  107.615863
 124.622585,  107.616057
 124.624252,  107.616250
 124.625918,  107.616444
 124.627585,  107.616637
 124.629252,  107.616830
 124.630918,  107.617024
 124.632585,  107.617217
 124.634252,  107.617411
 124.635918,  107.617676
 124.637585,  107.617956
 124.639252,  107.618236
 124.640918,  107.618515
 124.642585,  107.618795
 124.644252,  107.619074
 124.645918,  107.619354
 124.647585,  107.619634
 124.649252,  107.619913
 124.650918,  107.620193
 124.652585,  107.620414
 124.654252,  107.620623
 124.655918,  107.620832
 124.657585,  107.621042
 124.659252,  107.621251
 124.660918,  107.621460
 124.662585,  107.621670
 124.664252,  107.621879
 124.665918,  107.622089
 124.667585,  107.622298
 124.669252,  107.622520
 124.670918,  107.622745
 124.672585,  107.622969
 124.674252,  107.623194
 124.675918,  107.623419
 124.677585,  107.623643
 124.679252,  107.623868
 124.680918,  107.624093
 124.682585,  107.624317
 124.684252,  107.624542
 124.685918,  107.624855
 124.687585,  107.625184
 124.689252,  107.625514
 124.690918,  107.625844
 124.692585,  107.626173
 124.694252,  107.626503
 124.695918,  107.626833
 124.697585,  107.627162
 124.699252,  107.627492
 124.700918,  107.627822
 124.702585,  107.628105
 124.704252,  107.628380
 124.705918,  107.628655
 124.707585,  107.628930
 124.709252,  107.629204
 124.710918,  107.629479
 124.712585,  107.629754
 124.714252,  107.630028
 124.715918,  107.630303
 124.717585,  107.630578
 124.719252,  107.630703
 124.720918,  107.630798
 124.722585,  107.630894
 124.724252,  107.630990
 124.725918,  107.631086
 124.727585,  107.631182
 124.729252,  107.631277
 124.730918,  107.631373
 124.732585,  107.631469
 124.734252,  107.631565
 124.735918,  107.631640
 124.737585,  107.631712
 124.739252,  107.631783
 124.740918,  107.631855
 124.742585,  107.631926
 124.744252,  107.631998
 124.745918,  107.632069
 124.747585,  107.632141
 124.749252,  107.632212
 124.750918,  107.632284
 124.752585,  107.632365
 124.754252,  107.632447
 124.755918,  107.632529
 124.757585,  107.632612
 124.759252,  107.632694
 124.760918,  107.632777
 124.762585,  107.632859
 124.764252,  107.632942
 124.765918,  107.633024
 124.767585,  107.633106
 124.769252,  107.633281
 124.770918,  107.633474
 124.772585,  107.633667
 124.774252,  107.633860
 124.775918,  107.634052
 124.777585,  107.634245
 124.779252,  107.634438
 124.780918,  107.634631
 124.782585,  107.634824
 124.784252,  107.635016
 124.785918,  107.635174
 124.787585,  107.635325
 124.789252,  107.635477
 124.790918,  107.635628
 124.792585,  107.635779
 124.794252,  107.635930
 124.795918,  107.636081
 124.797585,  107.636233
 124.799252,  107.636384
 124.800918,  107.636535
 124.802585,  107.636790
 124.804252,  107.637064
 124.805918,  107.637339
 124.807585,  107.637614
 124.809252,  107.637888
 124.810918,  107.638163
 124.812585,  107.638438
 124.814252,  107.638712
 124.815918,  107.638987
 124.817585,  107.639262
 124.819252,  107.639486
 124.820918,  107.639700
 124.822585,  107.639915
 124.824252,  107.640130
 124.825918,  107.640344
 124.827585,  107.640559
 124.829252,  107.640773
 124.830918,  107.640988
 124.832585,  107.641202
 124.834252,  107.641417
 124.835918,  107.641632
 124.837585,  107.641847
 124.839252,  107.642062
 124.840918,  107.642277
 124.842585,  107.642492
 124.844252,  107.642707
 124.845918,  107.642922
 124.847585,  107.643137
 124.849252,  107.643352
 124.850918,  107.643567
 124.852585,  107.643860
 124.854252,  107.644168
 124.855918,  107.644475
 124.857585,  107.644783
 124.859252,  107.645090
 124.860918,  107.645398
 124.862585,  107.645706
 124.864252,  107.646013
 124.865918,  107.646321
 124.867585,  107.646629
 124.869252,  107.646881
 124.870918,  107.647123
 124.872585,  107.647365
 124.874252,  107.647607
 124.875918,  107.647849
 124.877585,  107.648091
 124.879252,  107.648333
 124.880918,  107.648575
 124.882585,  107.648816
 124.884252,  107.649058
 124.885918,  107.649316
 124.887585,  107.649576
 124.889252,  107.649837
 124.890918,  107.650097
 124.892585,  107.650358
 124.894252,  107.650618
 124.895918,  107.650879
 124.897585,  107.651139
 124.899252,  107.651400
 124.900918,  107.651660
 124.902585,  107.652010
 124.904252,  107.652378
 124.905918,  107.652745
 124.907585,  107.653112
 124.909252,  107.653480
 124.910918,  107.653847
 124.912585,  107.654214
 124.914252,  107.654582
 124.915918,  107.654949
 124.917585,  107.655317
 124.919252,  107.655637
 124.920918,  107.655949
 124.922585,  107.656261
 124.924252,  107.656573
 124.925918,  107.656885
 124.927585,  107.657197
 124.929252,  107.657509
 124.930918,  107.657821
 124.932585,  107.658133
 124.934252,  107.658445
 124.935918,  107.658604
 124.937585,  107.658735
 124.939252,  107.658865
 124.940918,  107.658995
 124.942585,  107.659125
 124.944252,  107.659256
 124.945918,  107.659386
 124.947585,  107.659516
 124.949252,  107.659647
 124.950918,  107.659777
 124.952585,  107.659884
 124.954252,  107.659986
 124.955918,  107.660089
 124.957585,  107.660191
 124.959252,  107.660294
 124.960918,  107.660396
 124.962585,  107.660499
 124.964252,  107.660601
 124.965918,  107.660704
 124.967585,  107.660806
 124.969252,  107.660914
 124.970918,  107.661023
 124.972585,  107.661132
 124.974252,  107.661241
 124.975918,  107.661349
 124.977585,  107.661458
 124.979252,  107.661567
 124.980918,  107.661676
 124.982585,  107.661785
 124.984252,  107.661894
 124.985918,  107.662091
 124.987585,  107.662305
 124.989252,  107.662519
 124.990918,  107.662733
 124.992585,  107.662947
 124.994252,  107.663161
 124.995918,  107.663375
 124.997585,  107.663589
 124.999252,  107.663803
 125.000918,  107.664017
 125.002585,  107.664192
 125.004252,  107.664358
 125.005918,  107.664524
 125.007585,  107.664691
 125.009252,  107.664857
 125.010918,  107.665023
 125.012585,  107.665190
 125.014252,  107.665356
 125.015918,  107.665522
 125.017585,  107.665689
 125.019252,  107.665954
 125.020918,  107.666238
 125.022585,  107.666522
 125.024252,  107.666807
 125.025918,  107.667091
 125.027585,  107.667375
 125.029252,  107.667659
 125.030918,  107.667944
 125.032585,  107.668228
 125.034252,  107.668512
 125.035918,  107.668741
 125.037585,  107.668959
 125.039252,  107.669177
 125.040918,  107.669395
 125.042585,  107.669613
 125.044252,  107.669832
 125.045918,  107.670050
 125.047585,  107.670268
 125.049252,  107.670486
 125.050918,  107.670704
 125.052585,  107.670918
 125.054252,  107.671132
 125.055918,  107.671345
 125.057585,  107.671559
 125.059252,  107.671772
 125.060918,  107.671986
 125.062585,  107.672199
 125.064252,  107.672413
 125.065918,  107.672626
 125.067585,  107.672840
 125.069252,  107.673128
 125.070918,  107.673430
 125.072585,  107.673732
 125.074252,  107.674034
 125.075918,  107.674337
 125.077585,  107.674639
 125.079252,  107.674941
 125.080918,  107.675243
 125.082585,  107.675545
 125.084252,  107.675848
 125.085918,  107.676092
 125.087585,  107.676325
 125.089252,  107.676558
 125.090918,  107.676792
 125.092585,  107.677025
 125.094252,  107.677258
 125.095918,  107.677491
 125.097585,  107.677724
 125.099252,  107.677957
 125.100918,  107.678191
 125.102585,  107.678438
 125.104252,  107.678688
 125.105918,  107.678938
 125.107585,  107.679188
 125.109252,  107.679438
 125.110918,  107.679688
 125.112585,  107.679938
 125.114252,  107.680188
 125.115918,  107.680438
 125.117585,  107.680688
 125.119252,  107.681028
 125.120918,  107.681385
 125.122585,  107.681742
 125.124252,  107.682099
 125.125918,  107.682456
 125.127585,  107.682813
 125.129252,  107.683169
 125.130918,  107.683526
 125.132585,  107.683883
 125.134252,  107.684240
 125.135918,  107.684551
 125.137585,  107.684853
 125.139252,  107.685155
 125.140918,  107.685457
 125.142585,  107.685760
 125.144252,  107.686062
 125.145918,  107.686364
 125.147585,  107.686666
 125.149252,  107.686968
 125.150918,  107.687270
 125.152585,  107.687421
 125.154252,  107.687543
 125.155918,  107.687665
 125.157585,  107.687787
 125.159252,  107.687908
 125.160918,  107.688030
 125.162585,  107.688152
 125.164252,  107.688274
 125.165918,  107.688396
 125.167585,  107.688518
 125.169252,  107.688619
 125.170918,  107.688716
 125.172585,  107.688813
 125.174252,  107.688910
 125.175918,  107.689007
 125.177585,  107.689104
 125.179252,  107.689201
 125.180918,  107.689298
 125.182585,  107.689395
 125.184252,  107.689492
 125.185918,  107.689597
 125.187585,  107.689704
 125.189252,  107.689812
 125.190918,  107.689919
 125.192585,  107.690026
 125.194252,  107.690133
 125.195918,  107.690240
 125.197585,  107.690347
 125.199252,  107.690455
 125.200918,  107.690562
 125.202585,  107.690761
 125.204252,  107.690979
 125.205918,  107.691196
 125.207585,  107.691413
 125.209252,  107.691630
 125.210918,  107.691848
 125.212585,  107.692065
 125.214252,  107.692282
 125.215918,  107.692499
 125.217585,  107.692716
 125.219252,  107.692897
 125.220918,  107.693071
 125.222585,  107.693245
 125.224252,  107.693419
 125.225918,  107.693593
 125.227585,  107.693767
 125.229252,  107.693941
 125.230918,  107.694115
 125.232585,  107.694288
 125.234252,  107.694462
 125.235918,  107.694739
 125.237585,  107.695036
 125.239252,  107.695333
 125.240918,  107.695629
 125.242585,  107.695926
 125.244252,  107.696223
 125.245918,  107.696520
 125.247585,  107.696816
 125.249252,  107.697113
 125.250918,  107.697410
 125.252585,  107.697654
 125.254252,  107.697889
 125.255918,  107.698123
 125.257585,  107.698358
 125.259252,  107.698593
 125.260918,  107.698827
 125.262585,  107.699062
 125.264252,  107.699296
 125.265918,  107.699531
 125.267585,  107.699765
 125.269252,  107.699999
 125.270918,  107.700232
 125.272585,  107.700466
 125.274252,  107.700699
 125.275918,  107.700933
 125.277585,  107.701166
 125.279252,  107.701399
 125.280918,  107.701633
 125.282585,  107.701866
 125.284252,  107.702100
 125.285918,  107.702410
 125.287585,  107.702735
 125.289252,  107.703061
 125.290918,  107.703386
 125.292585,  107.703711
 125.294252,  107.704036
 125.295918,  107.704362
 125.297585,  107.704687
 125.299252,  107.705012
 125.300918,  107.705338
 125.302585,  107.705606
 125.304252,  107.705864
 125.305918,  107.706122
 125.307585,  107.706380
 125.309252,  107.706638
 125.310918,  107.706896
 125.312585,  107.707153
 125.314252,  107.707411
 125.315918,  107.707669
 125.317585,  107.707927
 125.319252,  107.708200
 125.320918,  107.708475
 125.322585,  107.708751
 125.324252,  107.709027
 125.325918,  107.709302
 125.327585,  107.709578
 125.329252,  107.709854
 125.330918,  107.710129
 125.332585,  107.710405
 125.334252,  107.710681
 125.335918,  107.711046
 125.337585,  107.711429
 125.339252,  107.711812
 125.340918,  107.712195
 125.342585,  107.712577
 125.344252,  107.712960
 125.345918,  107.713343
 125.347585,  107.713726
 125.349252,  107.714109
 125.350918,  107.714491
 125.352585,  107.714827
 125.354252,  107.715154
 125.355918,  107.715480
 125.357585,  107.715807
 125.359252,  107.716134
 125.360918,  107.716461
 125.362585,  107.716787
 125.364252,  107.717114
 125.365918,  107.717441
 125.367585,  107.717767
 125.369252,  107.717941
 125.370918,  107.718084
 125.372585,  107.718228
 125.374252,  107.718372
 125.375918,  107.718516
 125.377585,  107.718660
 125.379252,  107.718803
 125.380918,  107.718947
 125.382585,  107.719091
 125.384252,  107.719235
 125.385918,  107.719356
 125.387585,  107.719472
 125.389252,  107.719588
 125.390918,  107.719704
 125.392585,  107.719821
 125.394252,  107.719937
 125.395918,  107.720053
 125.397585,  107.720169
 125.399252,  107.720286
 125.400918,  107.720402
 125.402585,  107.720524
 125.404252,  107.720647
 125.405918,  107.720771
 125.407585,  107.720894
 125.409252,  107.721017
 125.410918,  107.721141
 125.412585,  107.721264
 125.414252,  107.721387
 125.415918,  107.721511
 125.417585,  107.721634
 125.419252,  107.721847
 125.420918,  107.722078
 125.422585,  107.722308
 125.424252,  107.722539
 125.425918,  107.722769
 125.427585,  107.722999
 125.429252,  107.723230
 125.430918,  107.723460
 125.432585,  107.723691
 125.434252,  107.723921
 125.435918,  107.724112
 125.437585,  107.724296
 125.439252,  107.724479
 125.440918,  107.724662
 125.442585,  107.724846
 125.444252,  107.725029
 125.445918,  107.725213
 125.447585,  107.725396
 125.449252,  107.725580
 125.450918,  107.725763
 125.452585,  107.726047
 125.454252,  107.726351
 125.455918,  107.726654
 125.457585,  107.726957
 125.459252,  107.727261
 125.460918,  107.727564
 125.462585,  107.727868
 125.464252,  107.728171
 125.465918,  107.728475
 125.467585,  107.728778
 125.469252,  107.729027
 125.470918,  107.729265
 125.472585,  107.729503
 125.474252,  107.729741
 125.475918,  107.729979
 125.477585,  107.730217
 125.479252,  107.730455
 125.480918,  107.730693
 125.482585,  107.730931
 125.484252,  107.731169
 125.485918,  107.731404
 125.487585,  107.731639
 125.489252,  107.731873
 125.490918,  107.732108
 125.492585,  107.732342
 125.494252,  107.732577
 125.495918,  107.732811
 125.497585,  107.733046
 125.499252,  107.733280
 125.500918,  107.733515
 125.502585,  107.733825
 125.504252,  107.734150
 125.505918,  107.734475
 125.507585,  107.734800
 125.509252,  107.735125
 125.510918,  107.735450
 125.512585,  107.735775
 125.514252,  107.736100
 125.515918,  107.736425
 125.517585,  107.736750
 125.519252,  107.737017
 125.520918,  107.737273
 125.522585,  107.737529
 125.524252,  107.737786
 125.525918,  107.738042
 125.527585,  107.738298
 125.529252,  107.738554
 125.530918,  107.738810
 125.532585,  107.739067
 125.534252,  107.739323
 125.535918,  107.739594
 125.537585,  107.739868
 125.539252,  107.740141
 125.540918,  107.740415
 125.542585,  107.740689
 125.544252,  107.740963
 125.545918,  107.741237
 125.547585,  107.741510
 125.549252,  107.741784
 125.550918,  107.742058
 125.552585,  107.742422
 125.554252,  107.742804
 125.555918,  107.743186
 125.557585,  107.743568
 125.559252,  107.743950
 125.560918,  107.744331
 125.562585,  107.744713
 125.564252,  107.745095
 125.565918,  107.745477
 125.567585,  107.745859
 125.569252,  107.746194
 125.570918,  107.746521
 125.572585,  107.746848
 125.574252,  107.747174
 125.575918,  107.747501
 125.577585,  107.747828
 125.579252,  107.748154
 125.580918,  107.748481
 125.582585,  107.748808
 125.584252,  107.749134
 125.585918,  107.749308
 125.587585,  107.749453
 125.589252,  107.749598
 125.590918,  107.749743
 125.592585,  107.749887
 125.594252,  107.750032
 125.595918,  107.750177
 125.597585,  107.750322
 125.599252,  107.750467
 125.600918,  107.750611
 125.602585,  107.750735
 125.604252,  107.750854
 125.605918,  107.750973
 125.607585,  107.751093
 125.609252,  107.751212
 125.610918,  107.751331
 125.612585,  107.751451
 125.614252,  107.751570
 125.615918,  107.751689
 125.617585,  107.751809
 125.619252,  107.751936
 125.620918,  107.752065
 125.622585,  107.752194
 125.624252,  107.752323
 125.625918,  107.752452
 125.627585,  107.752581
 125.629252,  107.752710
 125.630918,  107.752838
 125.632585,  107.752967
 125.634252,  107.753096
 125.635918,  107.753317
 125.637585,  107.753557
 125.639252,  107.753796
 125.640918,  107.754035
 125.642585,  107.754274
 125.644252,  107.754513
 125.645918,  107.754752
 125.647585,  107.754991
 125.649252,  107.755230
 125.650918,  107.755469
 125.652585,  107.755670
 125.654252,  107.755865
 125.655918,  107.756059
 125.657585,  107.756254
 125.659252,  107.756448
 125.660918,  107.756642
 125.662585,  107.756837
 125.664252,  107.757031
 125.665918,  107.757226
 125.667585,  107.757420
 125.669252,  107.757718
 125.670918,  107.758035
 125.672585,  107.758352
 125.674252,  107.758669
 125.675918,  107.758987
 125.677585,  107.759304
 125.679252,  107.759621
 125.680918,  107.759939
 125.682585,  107.760256
 125.684252,  107.760573
 125.685918,  107.760837
 125.687585,  107.761091
 125.689252,  107.761344
 125.690918,  107.761598
 125.692585,  107.761852
 125.694252,  107.762105
 125.695918,  107.762359
 125.697585,  107.762613
 125.699252,  107.762866
 125.700918,  107.763120
 125.702585,  107.763372
 125.704252,  107.763624
 125.705918,  107.763876
 125.707585,  107.764127
 125.709252,  107.764379
 125.710918,  107.764631
 125.712585,  107.764883
 125.714252,  107.765134
 125.715918,  107.765386
 125.717585,  107.765638
 125.719252,  107.765967
 125.720918,  107.766310
 125.722585,  107.766654
 125.724252,  107.766997
 125.725918,  107.767341
 125.727585,  107.767685
 125.729252,  107.768028
 125.730918,  107.768372
 125.732585,  107.768716
 125.734252,  107.769059
 125.735918,  107.769345
 125.737585,  107.769621
 125.739252,  107.769896
 125.740918,  107.770171
 125.742585,  107.770446
 125.744252,  107.770721
 125.745918,  107.770996
 125.747585,  107.771271
 125.749252,  107.771546
 125.750918,  107.771822
 125.752585,  107.772111
 125.754252,  107.772404
 125.755918,  107.772697
 125.757585,  107.772990
 125.759252,  107.773282
 125.760918,  107.773575
 125.762585,  107.773868
 125.764252,  107.774161
 125.765918,  107.774453
 125.767585,  107.774746
 125.769252,  107.775129
 125.770918,  107.775530
 125.772585,  107.775931
 125.774252,  107.776331
 125.775918,  107.776732
 125.777585,  107.777132
 125.779252,  107.777533
 125.780918,  107.777934
 125.782585,  107.778334
 125.784252,  107.778735
 125.785918,  107.779088
 125.787585,  107.779432
 125.789252,  107.779777
 125.790918,  107.780121
 125.792585,  107.780465
 125.794252,  107.780809
 125.795918,  107.781153
 125.797585,  107.781497
 125.799252,  107.781841
 125.800918,  107.782186
 125.802585,  107.782375
 125.804252,  107.782535
 125.805918,  107.782696
 125.807585,  107.782856
 125.809252,  107.783016
 125.810918,  107.783176
 125.812585,  107.783336
 125.814252,  107.783496
 125.815918,  107.783656
 125.817585,  107.783816
 125.819252,  107.783953
 125.820918,  107.784086
 125.822585,  107.784219
 125.824252,  107.784352
 125.825918,  107.784484
 125.827585,  107.784617
 125.829252,  107.784750
 125.830918,  107.784883
 125.832585,  107.785016
 125.834252,  107.785148
 125.835918,  107.785288
 125.837585,  107.785428
 125.839252,  107.785568
 125.840918,  107.785709
 125.842585,  107.785849
 125.844252,  107.785990
 125.845918,  107.786130
 125.847585,  107.786271
 125.849252,  107.786411
 125.850918,  107.786552
 125.852585,  107.786783
 125.854252,  107.787032
 125.855918,  107.787281
 125.857585,  107.787530
 125.859252,  107.787779
 125.860918,  107.788028
 125.862585,  107.788277
 125.864252,  107.788526
 125.865918,  107.788775
 125.867585,  107.789024
 125.869252,  107.789234
 125.870918,  107.789437
 125.872585,  107.789639
 125.874252,  107.789841
 125.875918,  107.790044
 125.877585,  107.790246
 125.879252,  107.790448
 125.880918,  107.790651
 125.882585,  107.790853
 125.884252,  107.791055
 125.885918,  107.791360
 125.887585,  107.791684
 125.889252,  107.792008
 125.890918,  107.792331
 125.892585,  107.792655
 125.894252,  107.792979
 125.895918,  107.793303
 125.897585,  107.793627
 125.899252,  107.793951
 125.900918,  107.794275
 125.902585,  107.794545
 125.904252,  107.794803
 125.905918,  107.795062
 125.907585,  107.795321
 125.909252,  107.795579
 125.910918,  107.795838
 125.912585,  107.796097
 125.914252,  107.796356
 125.915918,  107.796614
 125.917585,  107.796873
 125.919252,  107.797129
 125.920918,  107.797385
 125.922585,  107.797641
 125.924252,  107.797896
 125.925918,  107.798152
 125.927585,  107.798408
 125.929252,  107.798664
 125.930918,  107.798919
 125.932585,  107.799175
 125.934252,  107.799431
 125.935918,  107.799763
 125.937585,  107.800111
 125.939252,  107.800458
 125.940918,  107.800805
 125.942585,  107.801153
 125.944252,  107.801500
 125.945918,  107.801847
 125.947585,  107.802195
 125.949252,  107.802542
 125.950918,  107.802889
 125.952585,  107.803179
 125.954252,  107.803457
 125.955918,  107.803736
 125.957585,  107.804014
 125.959252,  107.804293
 125.960918,  107.804571
 125.962585,  107.804849
 125.964252,  107.805128
 125.965918,  107.805406
 125.967585,  107.805685
 125.969252,  107.805978
 125.970918,  107.806274
 125.972585,  107.806571
 125.974252,  107.806867
 125.975918,  107.807163
 125.977585,  107.807460
 125.979252,  107.807756
 125.980918,  107.808052
 125.982585,  107.808349
 125.984252,  107.808645
 125.985918,  107.809033
 125.987585,  107.809438
 125.989252,  107.809843
 125.990918,  107.810248
 125.992585,  107.810654
 125.994252,  107.811059
 125.995918,  107.811464
 125.997585,  107.811870
 125.999252,  107.812275
 126.000918,  107.812680
 126.002585,  107.813039
 126.004252,  107.813388
 126.005918,  107.813738
 126.007585,  107.814087
 126.009252,  107.814437
 126.010918,  107.814787
 126.012585,  107.815136
 126.014252,  107.815486
 126.015918,  107.815835
 126.017585,  107.816185
 126.019252,  107.816380
 126.020918,  107.816546
 126.022585,  107.816712
 126.024252,  107.816879
 126.025918,  107.817045
 126.027585,  107.817211
 126.029252,  107.817377
 126.030918,  107.817543
 126.032585,  107.817709
 126.034252,  107.817875
 126.035918,  107.818019
 126.037585,  107.818159
 126.039252,  107.818299
 126.040918,  107.818439
 126.042585,  107.818579
 126.044252,  107.818719
 126.045918,  107.818859
 126.047585,  107.818999
 126.049252,  107.819139
 126.050918,  107.819279
 126.052585,  107.819427
 126.054252,  107.819576
 126.055918,  107.819725
 126.057585,  107.819874
 126.059252,  107.820024
 126.060918,  107.820173
 126.062585,  107.820322
 126.064252,  107.820471
 126.065918,  107.820621
 126.067585,  107.820770
 126.069252,  107.821012
 126.070918,  107.821271
 126.072585,  107.821531
 126.074252,  107.821791
 126.075918,  107.822050
 126.077585,  107.822310
 126.079252,  107.822570
 126.080918,  107.822829
 126.082585,  107.823089
 126.084252,  107.823349
 126.085918,  107.823599
 126.087585,  107.823847
 126.088545,  107.823990
 126.090212,  107.824193
 126.091879,  107.824397
 126.093545,  107.824600
 126.095212,  107.824803
 126.096879,  107.825007
 126.098545,  107.825210
 126.100212,  107.825413
 126.101879,  107.752631
 126.103545,  107.576686
 126.105212,  107.400740
 126.106879,  107.224795
 126.108545,  107.048850
 126.110212,  106.872904
 126.111879,  106.696959
 126.113545,  106.521014
 126.115212,  106.345069
 126.116879,  106.169123
 126.118545,  105.992088
 126.120212,  105.813511
 126.121879,  105.634935
 126.123545,  105.456358
 126.125212,  105.277782
 126.126879,  105.099205
 126.128545,  104.920629
 126.130212,  104.742052
 126.131879,  104.563476
 126.133545,  104.384899
 126.135212,  104.205498
 126.136879,  104.024929
 126.138545,  103.844361
 126.140212,  103.663793
 126.141879,  103.483224
 126.143110,  103.349779
