Ground Distance, Angular Velocity
   0.000000,    0.000000
   0.000002,    0.000000
   0.000044,    0.000000
   0.000511,    0.000000
   0.002564,    0.000000
   0.008820,    0.000000
   0.024257,    0.000000
   0.047446,    0.000000
   0.078337,    0.000000
   0.117028,    0.000000
   0.163513,    0.000000
   0.217974,    0.000000
   0.280304,    0.000000
   0.350338,    0.000000
   0.428427,    0.000000
   0.514999,    0.000000
   0.610619,    0.000000
   0.714109,    0.000000
   0.826235,    0.000000
   0.948334,    0.000000
   1.077203,    0.000000
   1.218595,    0.000000
   1.367585,    0.000000
   1.526118,    0.000000
   1.695332,    0.000000
   1.872477,    0.000000
   2.060661,    0.000000
   2.258038,    0.000000
   2.468563,    0.000000
   2.690184,    0.000000
   2.924539,    0.000000
   3.165388,    0.000000
   3.418501,    0.000000
   3.686976,    0.000000
   3.963501,    0.000000
   4.257880,    0.000000
   4.562639,    0.000000
   4.878714,    0.000000
   5.207155,    0.000000
   5.552586,    0.000000
   5.906441,    0.000000
   6.275954,    0.000000
   6.659839,    0.000000
   7.061480,    0.000000
   7.472530,    0.000000
   7.898835,    0.000000
   8.342580,    0.000000
   8.805684,    0.000000
   9.277850,    0.000000
   9.766738,    0.000000
  10.275192,    0.000000
  10.798010,    0.000000
  11.334453,    0.000000
  11.888120,    0.000000
  12.462053,    0.000000
  13.047038,    0.000000
  13.659095,    0.000000
  14.293507,    0.000000
  14.941658,    0.000000
  15.610882,    0.000000
  16.297049,    0.000000
  17.004910,    0.000000
  17.728054,    0.000000
  18.474511,    0.000000
  19.230680,    0.000000
  20.015877,    0.000000
  20.829825,    0.000000
  21.655329,    0.000000
  22.496453,    0.000000
  23.354912,    0.000000
  24.247787,    0.000000
  25.162056,    0.000000
  26.103163,    0.000000
  27.066409,    0.000000
  28.050798,    0.000000
  29.056622,    0.000000
  30.084805,    0.000000
  31.152242,    0.000000
  32.227198,    0.000000
  33.316255,    0.000000
  34.449277,    0.000000
  35.604656,    0.000000
  36.786403,    0.000000
  37.986906,    0.000000
  39.220483,    0.000000
  40.472815,    0.000000
  41.761548,    0.000000
  43.075114,    0.000000
  44.410689,    0.000000
  45.777456,    0.000000
  47.162949,    0.000000
  48.594311,    0.000000
  50.039602,    0.000000
  51.516321,    0.000000
  53.022048,    0.000000
  54.571155,    0.000000
  56.128514,    0.000000
  57.729139,    0.000000
  59.367418,    0.000000
  61.018195,    0.000000
  62.696408,    0.000000
  64.421682,    0.000000
  66.170138,    0.000000
  67.963192,    0.000000
  69.777303,    0.000000
  71.627266,    0.000000
  73.501847,    0.000000
  75.405490,    0.000000
  77.338441,    0.000000
  79.317637,    0.000000
  81.322469,    0.000000
  83.368657,    0.000000
  85.444021,    0.000000
  85.859314,    0.000000
  86.925349,    0.000000
  87.365508,    0.000000
  87.412004,    0.000000
  87.453963,    0.000000
  87.461513,    0.000000
  87.471151,    0.000000
  87.474147,    0.000000
  87.475338,    0.000000
  87.477552,    0.000000
  87.479576,    0.000000
  87.495581,    0.000000
  87.602101,    0.000000
  87.999910,    0.000000
  89.218185,    0.000000
  91.165673,    0.000000
  93.166650,    0.000000
  95.196486,    0.000000
  97.269298,    0.000000
  99.354878,    0.000000
 101.475746,    0.000000
 103.645503,    0.000000
 105.828081,    0.000000
 108.053992,    0.000000
 110.293889,    0.000000
 112.571652,    0.000000
 114.880480,    0.000000
 117.232427,    0.000000
 119.612188,    0.000000
 122.026676,    0.000000
 124.448993,    0.000000
 126.914524,    0.000000
 129.416094,    0.000000
 131.946832,    0.000000
 134.515653,    0.000000
 137.121898,    0.000000
 139.759147,    0.000000
 142.428014,    0.000000
 145.129501,    0.000000
 147.858302,    0.000000
 150.638333,    0.000000
 153.442205,    0.000000
 156.287791,    0.000000
 159.163785,    0.000000
 162.064504,    0.000000
 165.019815,    0.000000
 167.982597,    0.000000
 170.977177,    0.000000
 174.044874,    0.000000
 177.119179,    0.000000
 180.217953,    0.000000
 183.348607,    0.000000
 186.551477,    0.000000
 189.788710,    0.000000
 193.049969,    0.000000
 196.340251,    0.000000
 199.671548,    0.000000
 203.044654,    0.000000
 206.447501,    0.000000
 209.909608,    0.000000
 213.400425,    0.000000
 216.922266,    0.000000
 220.487855,    0.000000
 224.081236,    0.000000
 227.726418,    0.000000
 231.410410,    0.000000
 235.112528,    0.000000
 238.865097,    0.000000
 242.659254,    0.000000
 246.497527,    0.000000
 250.368314,    0.000000
 254.286296,    0.000000
 258.234621,    0.000000
 262.237042,    0.000000
 266.270590,    0.000000
 270.347273,    0.000000
 274.474507,    0.000000
 278.624369,    0.000000
 282.824663,    0.000000
 287.053172,    0.000000
 291.334510,    0.000000
 295.645630,    0.000000
 299.990661,    0.000000
 304.386994,    0.000000
 308.847602,    0.000000
 313.341248,    0.000000
 317.868134,    0.000000
 322.424505,    0.000000
 327.028518,    0.000000
 331.693211,    0.000000
 336.388364,    0.000000
 341.135257,    0.000000
 345.915181,    0.000000
 350.736283,    0.000000
 355.612292,    0.000000
 360.549683,    0.000000
 361.543377,    0.000000
 362.744575,    0.000000
 363.628817,    0.000000
 363.767901,    0.000000
 363.914587,    0.000000
 364.039672,    0.000000
 364.067063,    0.000000
 364.100354,    0.000000
 364.140072,    0.000000
 364.149449,    0.000000
 364.150064,    0.000000
 364.150635,    0.000000
 364.156341,    0.000000
 364.206007,    0.000000
 364.494632,    0.000000
 365.968457,    0.000000
 370.278430,    0.000000
 374.889944,    0.000000
 379.526049,    0.000000
 384.183137,    0.000000
 388.892439,    0.000000
 393.639134,    0.000000
 398.445966,    0.000000
 403.273740,    0.000000
 408.125418,    0.000000
 413.026382,    0.000000
 417.947169,    0.000000
 422.912515,    0.000000
 427.921555,    0.000000
 432.969733,    0.000000
 438.062298,    0.000000
 443.189426,    0.000000
 448.366629,    0.000000
 453.564468,    0.000000
 458.801944,    0.000000
 464.094414,    0.000000
 469.432915,    0.000000
 474.797059,    0.000000
 480.204572,    0.000000
 485.640328,    0.000000
 491.113917,    0.000000
 496.639561,    0.000000
 502.187564,    0.000000
 507.794200,    0.000000
 513.435586,    0.000000
 519.130253,    0.000000
 524.846802,    0.000000
 530.615948,    0.000000
 536.440667,    0.000000
 542.278772,    0.000000
 548.180553,    0.000000
 554.100183,    0.000000
 560.072453,    0.000000
 566.062846,    0.000000
 572.112739,    0.000000
 578.202571,    0.000000
 584.325152,    0.000000
 590.507740,    0.000000
 596.733431,    0.000000
 602.971835,    0.000000
 609.275639,    0.000000
 615.625456,    0.000000
 622.023011,    0.000000
 628.442078,    0.000000
 634.912593,    0.000000
 641.416749,    0.000000
 647.996623,    0.000000
 654.609327,    0.000000
 661.247125,    0.000000
 667.919382,    0.000000
 674.640630,    0.000000
 681.390592,    0.000000
 688.202858,    0.000000
 695.063170,    0.000000
 701.962254,    0.000000
 708.917562,    0.000000
 715.930994,    0.000000
 722.930149,    0.000000
 729.987684,    0.000000
 737.104980,    0.000000
 744.224597,    0.000000
 751.424082,    0.000000
 758.672438,    0.000000
 765.958935,    0.000000
 773.291780,    0.000000
 780.663301,    0.000000
 788.108787,    0.000000
 795.565666,    0.000000
 803.090163,    0.000000
 810.630086,    0.000000
 818.218349,    0.000000
 825.883158,    0.000000
 833.535562,    0.000000
 841.264439,    0.000000
 849.039465,    0.000000
 856.869004,    0.000000
 864.747004,    0.000000
 865.063510,    0.000000
 865.364061,    0.000000
 865.687515,    0.000000
 865.746758,    0.000000
 865.814180,    0.000000
 865.835652,    0.000000
 865.867659,    0.000000
 865.883838,    0.000000
 865.890376,    0.000000
 865.892693,    0.000000
 865.893790,    0.000000
 865.895655,    0.000000
 865.897352,    0.000000
 865.914326,    0.000000
 866.067075,    0.000000
 866.886142,    0.000000
 870.201397,    0.000000
 877.336528,    0.000000
 884.459333,    0.000000
 891.639075,    0.000000
 898.877643,    0.000000
 906.142691,    0.000000
 913.423469,    0.000000
 920.739666,    0.000000
 928.117043,    0.000000
 935.512869,    0.000000
 942.937093,    0.000000
 950.411094,    0.000000
 957.912885,    0.000000
 965.474156,    0.000000
 973.075492,    0.000000
 980.701189,    0.000000
 988.362314,    0.000000
 996.063577,    0.000000
1003.816658,    0.000000
1011.622002,    0.000000
1019.444344,    0.000000
1027.286909,    0.000000
1035.178007,    0.000000
1043.091361,    0.000000
1051.065483,    0.000000
1059.075167,    0.000000
1067.105670,    0.000000
1075.175506,    0.000000
1083.300142,    0.000000
1091.466297,    0.000000
1099.651272,    0.000000
1107.897790,    0.000000
1116.183877,    0.000000
1124.506964,    0.000000
1132.865994,    0.000000
1141.264346,    0.000000
1149.694940,    0.000000
1158.174724,    0.000000
1166.677905,    0.000000
1175.238238,    0.000000
1183.817578,    0.000000
1192.434768,    0.000000
1201.118747,    0.000000
1209.849082,    0.000000
1218.599956,    0.000000
1227.372730,    0.000000
1236.191935,    0.000000
1245.044695,    0.000000
1253.941271,    0.000000
1262.896974,    0.000000
1271.890940,    0.000000
1280.909661,    0.000000
1289.977868,    0.000000
1299.081826,    0.000000
1308.226785,    0.000000
1317.416727,    0.000000
1326.641445,    0.000000
1335.926930,    0.000000
1345.216164,    0.000000
1354.551238,    0.000000
1363.931107,    0.000000
1373.367734,    0.000000
1382.853448,    0.000000
1392.389477,    0.000000
1401.958290,    0.000000
1411.540830,    0.000000
1421.185482,    0.000000
1430.857719,    0.000000
1440.572337,    0.000000
1450.317632,    0.000000
1460.108997,    0.000000
1469.951646,    0.000000
1479.826530,    0.000000
1489.733767,    0.000000
1499.703567,    0.000000
1509.697128,    0.000000
1519.732555,    0.000000
1529.805869,    0.000000
1539.930991,    0.000000
1550.088244,    0.000000
1560.298583,    0.000000
1570.551394,    0.000000
1580.840653,    0.000000
1591.165298,    0.000000
1601.532661,    0.000000
1611.948659,    0.000000
1622.420997,    0.000000
1632.918822,    0.000000
1643.451219,    0.000000
1654.005140,    0.000000
1656.132120,    0.000000
1663.686782,    0.000000
1663.771907,    0.000000
1663.907758,    0.000000
1663.929776,    0.000000
1663.943368,    0.000000
1663.948758,    0.000000
1663.954133,    0.000000
1664.007889,    0.000000
1664.500991,    0.000000
1666.952872,    0.000000
1676.324776,    0.000000
1686.968430,    0.000000
1697.677377,    0.000000
1708.390672,    0.000000
1719.185933,    0.000000
1729.997045,    0.000000
1740.865466,    0.000000
1751.769283,    0.000000
1762.723613,    0.000000
1773.710757,    0.000000
1784.748878,    0.000000
1795.815148,    0.000000
1806.950144,    0.000000
1818.123530,    0.000000
1829.325139,    0.000000
1840.578293,    0.000000
1851.873122,    0.000000
1863.191392,    0.000000
1874.557136,    0.000000
1885.961398,    0.000000
1897.418331,    0.000000
1908.917724,    0.000000
1920.468507,    0.000000
1932.028217,    0.000000
1943.644834,    0.000000
1955.298282,    0.000000
1967.004316,    0.000000
1978.734549,    0.000000
1990.517004,    0.000000
2002.345588,    0.000000
2014.217452,    0.000000
2026.133580,    0.000000
2038.078412,    0.000000
2050.076943,    0.000000
2062.123308,    0.000000
2074.215746,    0.000000
2086.344919,    0.000000
2098.529006,    0.000000
2110.739746,    0.000000
2122.998203,    0.000000
2135.299729,    0.000000
2147.624905,    0.000000
2160.032149,    0.000000
2172.458191,    0.000000
2184.918324,    0.000000
2197.422289,    0.000000
2209.968642,    0.000000
2222.554575,    0.000000
2235.208393,    0.000000
2247.901631,    0.000000
2260.627407,    0.000000
2273.396143,    0.000000
2286.195572,    0.000000
2299.069325,    0.000000
2311.950341,    0.000000
2324.895126,    0.000000
2337.876597,    0.000000
2350.917891,    0.000000
2363.973999,    0.000000
2377.091368,    0.000000
2390.252383,    0.000000
2403.468128,    0.000000
2416.740941,    0.000000
2430.033586,    0.000000
2443.366917,    0.000000
2456.769265,    0.000000
2470.178977,    0.000000
2483.649146,    0.000000
2497.184210,    0.000000
2510.738687,    0.000000
2524.338550,    0.000000
2537.986697,    0.000000
2551.659155,    0.000000
2565.381612,    0.000000
2579.152918,    0.000000
2592.967479,    0.000000
2606.831245,    0.000000
2620.741852,    0.000000
2634.679257,    0.000000
2648.672948,    0.000000
2662.694743,    0.000000
2676.774134,    0.000000
2690.912711,    0.000000
2702.166898,    0.000000
2705.089826,    3.000000
2719.306337,    2.994393
2733.570876,    2.967206
2747.868469,    2.940229
2762.199855,    2.913491
2776.601810,    2.886987
2791.012943,    2.860648
2805.478758,    2.834585
2820.002265,    2.808714
2834.529802,    2.783028
2849.108249,    2.757620
2863.741057,    2.732407
2878.432018,    2.707380
2881.371913,    2.682533
2884.186092,    2.677612
2886.537742,    2.672912
2886.612207,    2.668993
2886.615421,    2.668869
2886.618635,    2.668864
2886.650775,    2.668858
2886.922384,    2.668805
2888.615627,    2.668353
2895.188981,    2.665537
2910.191758,    2.654622
2925.499737,    2.629846
2940.851936,    2.604853
2956.234880,    2.580076
2971.665680,    2.555534
2987.117600,    2.531199
3002.601205,    2.507110
3018.105853,    2.483249
3033.671055,    2.459629
3049.258903,    2.436188
3064.891051,    2.412982
3080.560894,    2.389976
3096.279514,    2.367179
3112.033184,    2.344573
3127.818669,    2.322175
3143.620667,    2.299989
3159.437033,    2.278034
3175.313835,    2.256309
3191.199971,    2.234750
3207.129184,    2.213424
3223.091289,    2.192283
3239.079384,    2.171340
3255.122021,    2.150602
3271.176537,    2.130029
3272.394024,    2.109674
3273.610244,    2.108147
3274.823722,    2.106623
3276.042561,    2.105103
3277.260945,    2.103578
3278.478914,    2.102055
3279.703216,    2.100533
3280.926757,    2.099005
3282.146066,    2.097480
3283.373102,    2.095961
3284.595429,    2.094433
3285.822907,    2.092913
3287.045961,    2.091388
3288.272683,    2.089869
3289.503569,    2.088347
3290.736147,    2.086822
3291.966765,    2.085295
3293.202767,    2.083772
3294.434912,    2.082244
3295.671683,    2.080722
3296.911032,    2.079196
3298.152030,    2.077668
3299.394473,    2.076139
3300.628455,    2.074610
3301.853323,    2.073092
3303.098825,    2.071587
3304.339976,    2.070058
3305.583923,    2.068535
3306.831713,    2.067011
3308.077263,    2.065483
3309.328831,    2.063959
3310.580273,    2.062429
3311.829889,    2.060901
3313.086334,    2.059376
3314.334767,    2.057844
3315.592675,    2.056323
3316.853289,    2.054792
3318.109693,    2.053259
3319.364475,    2.051733
3320.616427,    2.050210
3321.867646,    2.048691
3323.134627,    2.047175
3324.401262,    2.045641
3325.670152,    2.044109
3326.937842,    2.042576
3328.202803,    2.041045
3329.477638,    2.039519
3330.752814,    2.037982
3332.030628,    2.036447
3333.309274,    2.034909
3334.580258,    2.033372
3335.856476,    2.031845
3337.138833,    2.030314
3338.425116,    2.028776
3339.710688,    2.027235
3340.996971,    2.025697
3342.279565,    2.024159
3343.567596,    2.022626
3344.856295,    2.021089
3346.153436,    2.019552
3347.445523,    2.018006
3348.739391,    2.016468
3350.036220,    2.014929
3351.332974,    2.013388
3352.637839,    2.011849
3353.942347,    2.010301
3355.239978,    2.008755
3356.541199,    2.007218
3357.854239,    2.005679
3359.162848,    2.004127
3360.471155,    2.002582
3361.791855,    2.001038
3363.100870,    1.999481
3364.424835,    1.997940
3365.753084,    1.996382
3367.064214,    1.994821
3368.384174,    1.993281
3369.705988,    1.991732
3371.030318,    1.990182
3372.343527,    0.000000
3373.672740,    0.000000
3375.006501,    0.000000
3376.350992,    0.000000
3377.691860,    0.000000
3379.030600,    0.000000
3380.358197,    0.000000
3381.706028,    0.000000
3383.046476,    0.000000
3384.394975,    0.000000
3385.734816,    0.000000
3387.087380,    0.000000
3388.440217,    0.000000
3389.796807,    0.000000
3391.148343,    0.000000
3392.501520,    0.000000
3393.860617,    0.000000
3395.224177,    0.000000
3396.579065,    0.000000
3397.944167,    0.000000
3399.318474,    0.000000
3400.694524,    0.000000
3402.059378,    0.000000
3403.428029,    0.000000
3404.800823,    0.000000
3406.180692,    0.000000
3407.560060,    0.000000
3408.931129,    0.000000
3410.313083,    0.000000
3411.699618,    0.000000
3413.074852,    0.000000
3414.460013,    0.000000
3415.852301,    0.000000
3417.240533,    0.000000
3418.640939,    0.000000
3420.031748,    0.000000
3421.434975,    0.000000
3422.835953,    0.000000
3424.237147,    0.000000
3425.643701,    0.000000
3427.049122,    0.000000
3428.457652,    0.000000
3429.866070,    0.000000
3431.274556,    0.000000
3432.689944,    0.000000
3434.113693,    0.000000
3435.526737,    0.000000
3436.954958,    0.000000
3438.380895,    0.000000
3439.811482,    0.000000
3441.241634,    0.000000
3442.675770,    0.000000
3444.108490,    0.000000
3445.555062,    0.000000
3446.993889,    0.000000
3448.424701,    0.000000
3449.868755,    0.000000
3451.320467,    0.000000
3452.776661,    0.000000
3454.217668,    0.000000
3455.676927,    0.000000
3457.129789,    0.000000
3458.594024,    0.000000
3460.059655,    0.000000
3461.525697,    0.000000
3462.994111,    0.000000
3464.468340,    0.000000
3465.944331,    0.000000
3467.418770,    0.000000
3468.882676,    0.000000
3470.357465,    0.000000
3471.841016,    0.000000
3473.329811,    0.000000
3474.801415,   -0.600000
3474.820365,   -0.600000
3476.312108,   -0.600000
3477.806789,   -0.600000
3479.291557,   -0.600000
3480.795278,   -0.600000
3482.303106,   -0.600000
3483.803811,   -0.600000
3485.305195,   -0.600000
3486.816928,   -0.600000
3488.336565,   -0.600000
3489.860377,   -0.600000
3491.377884,   -0.600000
3492.903027,   -0.600000
3494.433904,   -0.600000
3495.963230,   -0.600000
3497.489465,   -0.600000
3499.021255,   -0.600000
3500.555105,   -0.600000
3502.097033,   -0.600000
3503.648165,   -0.600000
3505.193941,   -0.600000
3506.740461,   -0.600000
3508.287013,   -0.600000
3509.845173,   -0.600000
3511.394294,   -0.600000
3512.949280,   -0.600000
3514.494879,   -0.600000
3516.053322,   -0.600000
3517.613094,   -0.600000
3519.177515,   -0.600000
3520.735145,   -0.600000
3522.308013,   -0.600000
3523.882238,   -0.600000
3525.463119,   -0.600000
3527.051362,   -0.600000
3528.639572,   -0.600000
3530.231332,   -0.600000
3531.822689,   -0.600000
3533.422950,   -0.600000
3535.023249,   -0.600000
3536.627259,   -0.600000
3538.227981,   -0.600000
3539.836678,   -0.600000
3541.443630,   -0.600000
3543.060760,   -0.600000
3544.675826,   -0.600000
3546.298653,   -0.600000
3547.904765,   -0.600000
3549.538294,   -0.600000
3551.174030,   -0.600000
3552.810070,   -0.600000
3554.450403,   -0.600000
3556.078121,   -0.600000
3557.712657,   -0.600000
3559.356492,   -0.600000
3560.995839,   -0.600000
3562.650823,   -0.600000
3564.295232,   -0.600000
3565.942846,   -0.600000
3567.604741,   -0.600000
3569.271690,   -0.600000
3570.945132,   -0.600000
3572.615702,   -0.600000
3574.290425,   -0.600000
3575.973263,   -0.600000
3577.633387,   -0.600000
3579.317309,   -0.600000
3581.006234,   -0.600000
3582.683739,   -0.600000
3584.378798,   -0.600000
3586.071252,   -0.600000
3587.756941,   -0.600000
3589.465375,   -0.600000
3591.185343,   -0.600000
3592.897026,   -0.600000
3594.606713,   -0.600000
3596.323919,   -0.600000
3598.044224,   -0.600000
3599.763760,   -0.600000
3601.480487,   -0.600000
3603.208638,   -0.600000
3604.949146,   -0.600000
3606.688829,   -0.600000
3608.433963,   -0.600000
3610.172406,   -0.600000
3611.922086,   -0.600000
3613.681090,   -0.600000
3615.434934,   -0.600000
3617.200270,   -0.600000
3618.966583,   -0.600000
3620.720655,   -0.600000
3622.486823,   -0.600000
3624.265351,   -0.600000
3626.043040,   -0.600000
3627.804493,   -0.600000
3629.565778,   -0.600000
3631.345191,   -0.600000
3633.148169,   -0.600000
3634.930537,   -0.600000
3636.740224,   -0.600000
3638.538289,   -0.600000
3640.332605,   -0.600000
3642.147072,   -0.600000
3643.955274,   -0.600000
3645.765844,   -0.600000
3647.588912,   -0.600000
3649.397053,   -0.600000
3651.218548,   -0.600000
3653.034159,   -0.600000
3654.843177,   -0.600000
3656.670599,   -0.600000
3658.499522,   -0.600000
3660.329843,   -0.600000
3662.178609,   -0.600000
3664.028423,   -0.600000
3665.864904,   -0.600000
3667.710297,   -0.600000
3669.565793,   -0.600000
3671.416768,   -0.600000
3673.278443,   -0.600000
3675.138606,   -0.600000
3677.014881,   -0.600000
3678.889742,   -0.600000
3680.769808,   -0.600000
3682.639228,   -0.600000
3684.519927,   -0.600000
3686.406444,   -0.600000
3688.283981,   -0.600000
3690.175362,   -0.600000
3692.065075,   -0.600000
3693.977703,   -0.600000
3695.894576,   -0.600000
3697.807704,   -0.600000
3699.713349,   -0.600000
3701.624608,   -0.600000
3703.525387,   -0.600000
3705.438010,   -0.600000
3707.349210,   -0.600000
3709.272053,   -0.600000
3711.211802,   -0.600000
3713.160847,   -0.600000
3715.108584,   -0.600000
3717.063034,   -0.600000
3719.023960,   -0.600000
3720.981476,   -0.600000
3722.940346,   -0.600000
3724.903375,   -0.600000
3726.866565,   -0.600000
3728.828821,   -0.600000
3730.803605,   -0.600000
3732.780400,   -0.600000
3734.751340,   -0.600000
3736.730657,   -0.600000
3738.723230,   -0.600000
3740.709625,   -0.600000
3742.709869,   -0.600000
3744.706121,   -0.600000
3746.701836,   -0.600000
3748.704440,   -0.600000
3750.710728,   -0.600000
3752.733229,   -0.600000
3754.755938,   -0.600000
3756.783539,   -0.600000
3758.822694,   -0.600000
3760.851407,   -0.600000
3762.870622,   -0.600000
3764.906618,   -0.600000
3766.932255,   -0.600000
3768.983418,   -0.600000
3771.019289,   -0.600000
3773.076665,   -0.600000
3775.119494,   -0.600000
3777.178174,   -0.600000
3779.242339,   -0.600000
3781.299610,   -0.600000
3783.371220,   -0.600000
3785.449497,   -0.600000
3787.508101,   -0.600000
3789.588201,   -0.600000
3791.664862,   -0.600000
3793.736062,   -0.600000
3795.836395,   -0.600000
3797.912514,   -0.600000
3799.990251,   -0.600000
3802.104716,   -0.600000
3804.198709,   -0.600000
3806.308162,   -0.600000
3808.433603,   -0.600000
3810.544739,   -0.600000
3812.645928,   -0.600000
3814.779990,   -0.600000
3816.916978,   -0.600000
3819.070877,   -0.600000
3821.192361,   -0.600000
3823.322205,   -0.600000
3825.454369,   -0.600000
3827.607053,   -0.600000
3829.745652,   -0.600000
3831.904106,   -0.600000
3834.060474,   -0.600000
3836.231849,   -0.600000
3838.379222,   -0.600000
3840.543487,   -0.600000
3842.730454,   -0.600000
3844.903375,   -0.600000
3847.086236,   -0.600000
3849.249856,   -0.600000
3851.453308,   -0.600000
3853.625023,   -0.600000
3855.841412,   -0.600000
3858.024796,   -0.600000
3860.239289,   -0.600000
3862.469323,   -0.600000
3864.670249,   -0.600000
3866.874983,   -0.600000
3869.097901,   -0.600000
3871.312069,   -0.600000
3873.534754,   -0.600000
3875.743990,   -0.600000
3877.970294,   -0.600000
3880.203355,   -0.600000
3882.442266,   -0.600000
3884.720876,   -0.600000
3886.977884,   -0.600000
3889.242453,   -0.600000
3891.506693,   -0.600000
3893.757863,   -0.600000
3895.997482,   -0.600000
3898.275761,   -0.600000
3900.534200,   -0.600000
3902.799905,   -0.600000
3905.047675,   -0.600000
3907.327630,   -0.600000
3909.614697,   -0.600000
3911.909013,   -0.600000
3914.185868,   -0.600000
3916.475191,   -0.600000
3918.770457,   -0.600000
3921.089610,   -0.600000
3923.394430,   -0.600000
3925.742608,   -0.600000
3928.045623,   -0.600000
3930.369945,   -0.600000
3932.674666,   -0.600000
3934.989021,   -0.600000
3937.311052,   -0.600000
3939.638602,   -0.600000
3941.986214,   -0.600000
3944.299728,   -0.600000
3946.652596,   -0.600000
3948.993309,   -0.600000
3951.364238,   -0.600000
3953.719170,   -0.600000
3956.068023,   -0.600000
3958.435013,   -0.600000
3960.805368,   -0.600000
3963.183601,   -0.600000
3965.576662,   -0.600000
3967.957218,   -0.600000
3970.321000,   -0.600000
3972.727295,   -0.600000
3975.097069,   -0.600000
3977.460434,   -0.600000
3979.828189,   -0.600000
3982.228379,   -0.600000
3984.601754,   -0.600000
3987.002357,   -0.600000
3989.427306,   -0.600000
3991.865721,   -0.600000
3994.299794,   -0.600000
3996.748505,   -0.600000
3999.190821,   -0.600000
4001.605046,   -0.600000
4004.034421,   -0.600000
4006.476660,   -0.600000
4008.925801,   -0.600000
4011.393313,   -0.600000
4013.835902,   -0.600000
4016.287579,   -0.600000
4018.718860,   -0.600000
4021.185310,   -0.600000
4023.639325,   -0.600000
4026.116202,   -0.600000
4028.603496,   -0.600000
4031.088457,   -0.600000
4033.581821,   -0.600000
4036.071421,   -0.600000
4038.555653,   -0.600000
4041.070472,   -0.600000
4043.599676,   -0.600000
4046.085437,   -0.600000
4048.557218,   -0.600000
4051.082023,   -0.600000
4053.590464,   -0.600000
4056.088945,   -0.600000
4058.607960,   -0.600000
4061.151262,   -0.600000
4063.673636,   -0.600000
4066.196502,   -0.600000
4068.763235,   -0.600000
4071.299932,   -0.600000
4073.844247,   -0.600000
4076.370107,   -0.600000
4078.916171,   -0.600000
4081.464074,   -0.600000
4084.019675,   -0.600000
4086.590271,   -0.600000
4087.537884,   -0.600000
