Time, Vertical Forces
   0.000100,    0.000001
   0.000597,    0.000023
   0.002118,    0.000295
   0.006000,    0.002364
   0.013409,    0.011804
   0.025776,    0.043612
   0.050478,    0.167215
   0.078860,    0.408003
   0.107231,    0.754176
   0.135754,    1.208427
   0.164285,    1.769268
   0.192786,    2.435720
   0.221427,    3.212337
   0.250002,    4.093786
   0.278792,    5.089569
   0.307720,    6.198853
   0.336801,    7.423796
   0.365999,    8.764278
   0.395324,   10.222126
   0.424752,   11.797258
   0.454334,   13.493924
   0.483922,   15.304313
   0.513902,   17.254366
   0.543998,   19.328821
   0.574132,   21.523249
   0.604589,   23.860356
   0.635202,   26.330074
   0.665680,   28.908868
   0.696805,   31.665897
   0.728105,   34.564045
   0.759386,   37.586370
   0.790805,   40.748442
   0.823009,   44.121000
   0.855112,   47.615263
   0.887601,   51.285908
   0.920021,   55.083391
   0.952657,   59.041863
   0.985716,   63.190266
   1.019144,   67.526663
   1.052681,   72.020353
   1.086312,   76.670428
   1.120768,   81.583731
   1.155376,   86.670357
   1.190329,   91.962064
   1.225051,   97.372189
   1.260463,  103.047032
   1.295730,  108.856175
   1.331831,  114.965507
   1.367713,  121.200794
   1.403564,  127.592721
   1.439859,  134.228655
   1.476690,  141.132020
   1.513168,  148.137143
   1.550329,  155.445023
   1.587555,  162.939331
   1.625520,  170.761252
   1.663335,  178.731143
   1.701359,  186.925296
   1.739975,  195.431546
   1.778616,  204.129355
   1.818149,  213.220250
   1.857714,  222.512911
   1.897315,  232.008467
   1.937493,  241.841094
   1.977233,  251.763158
   2.017468,  262.007663
   2.057621,  272.430759
   2.098892,  283.350923
   2.140367,  294.536693
   2.181313,  305.787298
   2.222727,  317.375787
   2.264752,  329.350194
   2.306943,  341.589568
   2.349666,  354.205404
   2.392480,  367.071506
   2.435325,  380.170534
   2.478412,  393.569417
   2.521890,  407.318661
   2.565666,  421.393872
   2.609548,  435.736547
   2.653538,  450.348310
   2.697987,  465.350301
   2.742758,  480.702069
   2.787783,  496.384576
   2.832751,  512.290760
   2.878364,  528.673233
   2.924142,  545.366189
   2.970033,  562.351960
   3.016121,  579.664542
   3.062908,  597.498816
   3.109176,  615.391909
   3.155950,  633.740065
   3.203176,  652.529143
   3.250564,  671.648403
   3.298182,  691.128552
   3.345500,  710.751407
   3.393585,  730.962971
   3.441717,  751.467518
   3.490411,  772.488580
   3.539407,  793.921125
   3.588110,  815.504759
   3.637471,  837.662927
   3.686899,  860.136587
   3.736685,  883.060675
   3.786223,  906.157304
   3.836643,  929.957873
   3.886872,  953.961305
   3.937877,  978.634724
   3.989209, 1003.769768
   4.040325, 1029.101436
   4.091267, 1054.645742
   4.142668, 1080.722739
   4.193968, 1107.050227
   4.246300, 1134.218252
   4.248393, 1135.311416
   4.248869, 1135.559774
   4.248974, 1135.614772
   4.249123, 1135.692570
   4.249175, 1135.719708
   4.249275, 1135.772167
   4.249316, 1135.793275
   4.249320, 1135.795605
   4.249324, 1135.797704
   4.249364, 1135.818691
   4.249766, 1136.028573
   4.251923, 1137.155635
   4.260001, 1141.382574
   4.285765, 1154.912288
   4.334340, 1180.623624
   4.382405, 1206.325978
   4.430454, 1232.278827
   4.478753, 1258.626444
   4.527143, 1285.284170
   4.575592, 1312.236029
   4.624658, 1339.796184
   4.673806, 1367.670406
   4.723125, 1395.909522
   4.772612, 1424.514313
   4.822316, 1453.515258
   4.872217, 1482.904115
   4.922507, 1512.798204
   4.973108, 1543.155588
   5.023738, 1573.809294
   5.074108, 1604.581993
   5.124756, 1635.802264
   5.175556, 1667.393914
   5.226723, 1699.495904
   5.278219, 1732.088354
   5.330175, 1765.261046
   5.381689, 1798.435749
   5.433555, 1832.123947
   5.485692, 1866.276674
   5.537972, 1900.813589
   5.590382, 1935.726552
   5.642837, 1970.959689
   5.695399, 2006.556611
   5.748291, 2042.669062
   5.801419, 2079.238881
   5.854678, 2116.194528
   5.908203, 2153.632939
   5.961203, 2190.997786
   6.014767, 2229.055935
   6.068625, 2267.622438
   6.122578, 2306.557013
   6.176799, 2345.986572
   6.231116, 2385.787774
   6.285440, 2425.896649
   6.340042, 2466.513888
   6.394772, 2507.530724
   6.450166, 2549.354684
   6.505531, 2591.467043
   6.560856, 2633.857128
   6.616344, 2676.682007
   6.672373, 2720.236985
   6.727766, 2763.606741
   6.784048, 2807.985106
   6.840168, 2852.549814
   6.896461, 2897.565752
   6.952964, 2943.063224
   7.009604, 2988.987694
   7.066298, 3035.270904
   7.123010, 3081.883810
   7.179721, 3128.810305
   7.236718, 3176.288227
   7.293922, 3224.255629
   7.351312, 3272.696432
   7.409361, 3322.017331
   7.467271, 3371.542721
   7.525191, 3421.398064
   7.583316, 3471.751321
   7.641609, 3522.573492
   7.700113, 3573.904016
   7.758616, 3625.557508
   7.817439, 3677.818113
   7.876215, 3730.362958
   7.935129, 3783.354694
   7.994180, 3836.795431
   8.053264, 3890.590534
   8.112483, 3944.833370
   8.172226, 3999.885406
   8.232014, 4055.306785
   8.291963, 4111.207778
   8.352085, 4167.600403
   8.412656, 4224.747429
   8.472889, 4281.905905
   8.533217, 4339.483398
   8.593887, 4397.719344
   8.654559, 4456.288188
   8.715533, 4515.480733
   8.727746, 4527.376631
   8.736018, 4535.441346
   8.742617, 4541.879274
   8.743599, 4542.837996
   8.743833, 4543.066517
   8.743905, 4543.137086
   8.743939, 4543.169806
   8.743946, 4543.177028
   8.743954, 4543.184543
   8.744031, 4543.259685
   8.744724, 4543.936075
   8.748743, 4547.860092
   8.763093, 4561.881227
   8.811984, 4609.782626
   8.867623, 4664.543615
   8.923520, 4719.823028
   8.979573, 4775.521589
   9.035881, 4831.739922
   9.092404, 4888.439995
   9.148720, 4945.197479
   9.205512, 5002.702254
   9.262126, 5060.291451
   9.318660, 5118.063732
   9.375511, 5176.423985
   9.432481, 5235.171434
   9.489629, 5294.368572
   9.546727, 5353.777349
   9.604263, 5413.907543
   9.661821, 5474.327182
   9.719218, 5534.841835
   9.776764, 5595.775858
   9.834634, 5657.319318
   9.892602, 5719.230391
   9.950469, 5781.297735
  10.008520, 5843.826249
  10.066906, 5906.979677
  10.125242, 5970.343234
  10.183644, 6034.040348
  10.242354, 6098.338578
  10.301234, 6163.088448
  10.360008, 6227.983573
  10.418895, 6293.267024
  10.477722, 6358.744253
  10.536972, 6424.954664
  10.596207, 6491.411897
  10.655393, 6558.073747
  10.714881, 6625.336909
  10.774554, 6693.071234
  10.834559, 6761.446684
  10.894432, 6829.931922
  10.954355, 6898.736380
  11.014374, 6967.910213
  11.074565, 7037.543168
  11.134861, 7107.557848
  11.195128, 7177.796401
  11.255503, 7248.418829
  11.316177, 7319.650694
  11.376900, 7391.198796
  11.437915, 7463.349407
  11.498965, 7535.800799
  11.559984, 7608.472271
  11.621290, 7681.742899
  11.682601, 7755.278085
  11.743915, 7829.071352
  11.805463, 7903.402538
  11.867069, 7978.058524
  11.928781, 8053.099126
  11.990563, 8128.477470
  12.052456, 8204.245660
  12.114489, 8280.439759
  12.176490, 8356.844586
  12.238494, 8433.506080
  12.300810, 8510.802818
  12.363436, 8588.737431
  12.426286, 8667.202663
  12.489304, 8746.132709
  12.552133, 8825.075485
  12.614921, 8904.215807
  12.677848, 8983.779491
  12.740675, 9063.463709
  12.803771, 9143.735747
  12.867135, 9224.595369
  12.930653, 9305.899007
  12.994164, 9387.439858
  13.057722, 9469.285978
  13.121378, 9551.502603
  13.185269, 9634.266369
  13.249443, 9717.641812
  13.313645, 9801.298600
  13.377613, 9884.892091
  13.441981, 9969.248779
  13.506369, 10053.874437
  13.570793, 10138.787340
  13.583718, 10155.851023
  13.632699, 10220.606176
  13.633215, 10221.287946
  13.633362, 10221.482993
  13.633600, 10221.798493
  13.633678, 10221.900667
  13.633832, 10222.105015
  13.633852, 10222.131505
  13.633863, 10222.145465
  13.633873, 10222.158861
  13.633882, 10222.171049
  13.633974, 10222.292929
  13.634887, 10223.501765
  13.641271, 10231.951935
  13.669796, 10269.736139
  13.726223, 10344.598868
  13.784283, 10421.792551
  13.842305, 10499.104064
  13.900518, 10576.835140
  13.958825, 10654.856763
  14.017140, 10733.053634
  14.075459, 10811.419008
  14.133968, 10890.203150
  14.192534, 10969.225533
  14.251115, 11048.427994
  14.310013, 11128.220948
  14.368785, 11208.002891
  14.427570, 11287.960679
  14.486516, 11368.294915
  14.545512, 11448.853727
  14.604755, 11529.905840
  14.664056, 11611.193575
  14.723339, 11692.612436
  14.782810, 11774.442872
  14.842262, 11856.399750
  14.901854, 11938.701311
  14.961589, 12021.352915
  15.021263, 12104.070337
  15.081189, 12187.286807
  15.141002, 12270.494960
  15.201095, 12354.241133
  15.261217, 12438.175346
  15.321506, 12522.488736
  15.381845, 12607.018842
  15.442218, 12691.740466
  15.502652, 12776.691196
  15.563200, 12861.946695
  15.623815, 12947.437425
  15.684519, 13033.194204
  15.745140, 13118.973937
  15.806020, 13205.260227
  15.866801, 13291.543956
  15.927864, 13378.364030
  15.989006, 13465.434738
  16.050203, 13552.718142
  16.111474, 13640.243157
  16.172956, 13728.203631
  16.234510, 13816.399573
  16.295991, 13904.623587
  16.357633, 13993.210622
  16.419417, 14082.130771
  16.481199, 14171.177139
  16.543123, 14260.557400
  16.605086, 14350.121271
  16.667231, 14440.075723
  16.729337, 14530.097817
  16.791521, 14620.357547
  16.853902, 14711.028053
  16.916218, 14801.725979
  16.978579, 14892.609728
  17.041098, 14983.846001
  17.103618, 15075.202354
  17.166373, 15167.020042
  17.229173, 15259.021995
  17.292014, 15351.201015
  17.354772, 15443.372091
  17.417879, 15536.172079
  17.480932, 15629.005886
  17.544131, 15722.166795
  17.607450, 15815.616956
  17.670939, 15909.428127
  17.734490, 16003.441488
  17.797970, 16097.458800
  17.861371, 16191.465801
  17.924916, 16285.792527
  17.988668, 16380.531950
  18.052596, 16475.636801
  18.116486, 16570.789636
  18.180529, 16666.273249
  18.244675, 16762.011912
  18.308912, 16857.985867
  18.373012, 16953.855730
  18.437370, 17050.207766
  18.501788, 17146.749338
  18.566283, 17243.500851
  18.630786, 17340.359784
  18.695282, 17437.301887
  18.759920, 17534.549636
  18.824800, 17632.254682
  18.889688, 17730.062418
  18.954630, 17828.040537
  19.019543, 17926.064098
  19.084698, 18024.541199
  19.149841, 18123.085276
  19.162902, 18142.854332
  19.172900, 18157.988962
  19.180257, 18169.126458
  19.181423, 18170.892410
  19.181778, 18171.430481
  19.182388, 18172.352643
  19.182592, 18172.662175
  19.182627, 18172.715648
  19.182664, 18172.771024
  19.183030, 18173.324790
  19.186252, 18178.204122
  19.204628, 18206.030262
  19.260788, 18291.115180
  19.326063, 18390.085510
  19.391247, 18488.996882
  19.456328, 18587.831903
  19.521615, 18687.057786
  19.587058, 18786.596640
  19.652481, 18886.181734
  19.718105, 18986.147186
  19.783721, 19086.174766
  19.849488, 19186.504521
  19.915331, 19287.022369
  19.981202, 19387.652181
  20.047129, 19488.438532
  20.113097, 19589.354002
  20.179258, 19690.633479
  20.245458, 19792.037804
  20.311688, 19893.551779
  20.378014, 19995.278229
  20.444471, 20097.268376
  20.510968, 20199.381002
  20.577468, 20301.558182
  20.644186, 20404.130600
  20.711054, 20506.990855
  20.777855, 20609.805827
  20.844748, 20712.818374
  20.911727, 20816.019489
  20.978858, 20919.507588
  21.046008, 21023.077917
  21.113248, 21126.837059
  21.180441, 21230.575693
  21.247762, 21334.560542
  21.315162, 21438.716179
  21.382751, 21543.209986
  21.450409, 21647.856495
  21.518081, 21752.571115
  21.585792, 21857.388619
  21.653579, 21962.365692
  21.721439, 22067.496674
  21.789321, 22172.703106
  21.857288, 22278.080045
  21.925403, 22383.724449
  21.993633, 22489.583621
  22.061984, 22595.667010
  22.130342, 22701.795222
  22.198806, 22808.121078
  22.267172, 22914.326708
  22.335786, 23020.949529
  22.404448, 23127.676724
  22.473232, 23234.624017
  22.542042, 23341.637290
  22.610851, 23448.676017
  22.679893, 23556.102845
  22.748967, 23663.604632
  22.818074, 23771.179153
  22.887356, 23879.049530
  22.956541, 23986.789317
  23.025791, 24094.649383
  23.095313, 24202.952929
  23.164660, 24311.000114
  23.234274, 24419.480035
  23.304014, 24528.171773
  23.373743, 24636.861136
  23.443587, 24745.741016
  23.513363, 24854.527234
  23.583261, 24963.515015
  23.653353, 25072.812843
  23.723314, 25181.915625
  23.793589, 25291.515654
  23.863779, 25400.988590
  23.934074, 25510.630069
  23.968044, 25563.616292
  24.004621, 25620.669140
  24.075192, 25990.962121
  24.145625, 26603.921753
  24.216207, 27216.151289
  24.286838, 27829.512826
  24.357653, 28443.501105
  24.428434, 29058.673902
  24.499351, 29673.763138
  24.570341, 30289.838072
  24.641390, 30906.400956
  24.712465, 31523.262378
  24.783691, 32140.422861
  24.854983, 32758.550300
  24.926295, 33376.941134
  24.997611, 33995.234554
  25.069004, 34613.437459
  25.140384, 35231.845210
  25.211740, 35849.799350
  25.283289, 36467.649545
  25.354902, 37086.561654
  25.426419, 37705.300016
  25.498005, 38323.145520
  25.569673, 38941.193782
  25.641402, 39559.443657
  25.713177, 40177.714499
  25.784919, 40795.706614
  25.787793, 41258.467601
  25.787930, 41276.899948
  25.788020, 41277.965792
  25.788087, 41278.687399
  25.788127, 41279.198215
  25.788144, 41279.484345
  25.788160, 41279.627107
  25.788326, 41280.104693
  25.789987, 41284.880639
  25.800024, 41317.888103
  25.844615, 41481.442980
  25.918101, 41929.269810
  25.992378, 42562.416037
  26.066619, 43199.899142
  26.140992, 43836.823179
  26.215407, 44474.012566
  26.289751, 45110.608789
  26.364219, 45746.344839
  26.438608, 46381.924921
  26.512937, 47016.107560
  26.587368, 47649.386955
  26.661705, 48282.248973
  26.736178, 48914.052382
  26.810645, 49545.808916
  26.816516, 50002.354951
  26.822395, 50051.546087
  26.828280, 50100.787365
  26.834155, 50150.019728
  26.840043, 50199.216511
  26.845938, 50248.491247
  26.851789, 50297.676497
  26.857677, 50346.682757
  26.863568, 50395.897308
  26.869437, 50445.058341
  26.875356, 50494.199829
  26.881192, 50543.412262
  26.887111, 50592.328930
  26.893035, 50641.727697
  26.898971, 50691.167886
  26.904908, 50740.663291
  26.910791, 50790.015283
  26.916694, 50839.084838
  26.922647, 50888.372422
  26.928585, 50937.902783
  26.934536, 50987.361482
  26.940496, 51036.897515
  26.946454, 51086.465493
  26.952427, 51136.036849
  26.958376, 51185.618836
  26.964364, 51235.141667
  26.970329, 51284.812337
  26.976301, 51334.352118
  26.982257, 51383.874081
  26.988259, 51433.392534
  26.994236, 51483.103600
  27.000223, 51532.674132
  27.006252, 51582.383863
  27.012257, 51632.256415
  27.018260, 51681.967349
  27.024269, 51731.661083
  27.030290, 51781.401049
  27.036323, 51831.217463
  27.042337, 51881.035639
  27.048382, 51930.801440
  27.054439, 51980.749605
  27.060428, 52030.583302
  27.066518, 52080.253750
  27.072613, 52130.496699
  27.078703, 52180.730236
  27.084808, 52230.953186
  27.090918, 52281.252881
  27.097022, 52331.545794
  27.103130, 52381.786825
  27.109227, 52432.003610
  27.115344, 52482.182449
  27.121483, 52532.507438
  27.127607, 52582.895064
  27.133760, 52633.249480
  27.139880, 52683.659141
  27.146046, 52733.975162
  27.152219, 52784.546824
  27.158390, 52835.124318
  27.164569, 52885.686083
  27.170731, 52936.229533
  27.176896, 52986.656758
  27.183112, 53037.201882
  27.189272, 53087.876802
  27.195487, 53138.339654
  27.201718, 53189.128225
  27.207962, 53240.011259
  27.214209, 53290.952469
  27.220412, 53341.778114
  27.226673, 53392.468958
  27.232902, 53443.384048
  27.239126, 53494.073036
  27.245417, 53544.870761
  27.251695, 53595.988114
  27.258024, 53647.130982
  27.264324, 53698.467978
  27.270653, 53749.680377
  27.276937, 53800.915030
  27.283294, 53852.042222
  27.289634, 53903.516149
  27.295942, 53954.784788
  27.302283, 54005.920416
  27.308669, 54057.325267
  27.315041, 54108.922835
  27.321463, 54160.524736
  27.327840, 54212.268984
  27.334284, 54263.890859
  27.340714, 54315.827532
  27.347143, 54367.654122
  27.353604, 54419.513752
  27.360048, 54471.483553
  27.366505, 54523.351652
  27.372943, 54575.216152
  27.379402, 54626.988867
  27.385858, 54678.843954
  27.392390, 54694.386809
  27.398890, 54709.833253
  27.405415, 54725.317112
  27.411927, 54740.748885
  27.418477, 54756.248233
  27.425000, 54771.663190
  27.431541, 54787.097767
  27.438112, 54802.581573
  27.444697, 54818.077763
  27.451305, 54833.603388
  27.457894, 54849.064255
  27.464466, 54864.462450
  27.471056, 54879.881236
  27.477650, 54895.285408
  27.484242, 54910.664651
  27.490903, 54926.182130
  27.497572, 54941.692264
  27.504242, 54957.183871
  27.510912, 54972.652215
  27.517581, 54988.095322
  27.524266, 55003.552595
  27.530963, 55019.013366
  27.537667, 55034.469190
  27.544410, 55049.989319
  27.551138, 55065.451346
  27.557905, 55080.977246
  27.564634, 55096.394342
  27.571383, 55111.833180
  27.578145, 55127.277018
  27.584932, 55142.752748
  27.591681, 55158.118863
  27.598455, 55173.518758
  27.605246, 55188.931914
  27.612059, 55204.369008
  27.618853, 55219.739966
  27.625693, 55235.189421
  27.632538, 55250.625968
  27.639364, 55265.993018
  27.646227, 55281.420591
  27.653122, 55296.892058
  27.659978, 55312.252733
  27.666843, 55327.606348
  27.673797, 55343.133335
  27.680744, 55358.619934
  27.687729, 55374.164356
  27.694712, 55389.677152
  27.701707, 55405.189371
  27.708703, 55420.678098
  27.715665, 55436.065091
  27.722702, 55451.591898
  27.729750, 55467.115972
  27.736786, 55482.585227
  27.743870, 55498.131634
  27.750966, 55513.678800
  27.758007, 55529.075478
  27.765088, 55544.533371
  27.772203, 55560.038503
  27.779290, 55575.453286
  27.786405, 55590.902166
  27.793532, 55606.348066
  27.800692, 55621.837938
  27.807857, 55637.309284
  27.815010, 55652.725681
  27.822211, 55668.217584
  27.829367, 55683.582005
  27.836566, 55699.010825
  27.843769, 55714.419472
  27.850982, 55729.820885
  27.858246, 55745.301426
  27.865532, 55760.798759
  27.872802, 55776.230815
  27.880071, 55791.631785
  27.885858, 55803.871732
  27.887360, 55807.044935
  27.894645, 55822.419157
  27.901967, 55837.841754
  27.909307, 55853.270127
  27.916628, 55868.629889
  27.923981, 55884.024008
  27.931365, 55899.453733
  27.938774, 55914.901697
  27.946183, 55930.320529
  27.953577, 55945.674968
  27.960999, 55961.057150
  27.968478, 55976.524983
  27.975918, 55991.880921
  27.983422, 56007.334728
  27.990949, 56022.804309
  27.998425, 56038.136159
  28.005957, 56053.549531
  28.013503, 56068.957093
  28.021092, 56084.420554
  28.028666, 56099.820950
  28.036281, 56115.269430
  28.043919, 56130.730207
  28.051601, 56146.246053
  28.059271, 56161.703013
  28.066912, 56177.067501
  28.074613, 56192.516264
  28.082302, 56207.907070
  28.089987, 56223.255055
  28.097707, 56238.637870
  28.105470, 56254.069862
  28.113190, 56269.380030
  28.121042, 56284.917569
  28.128801, 56300.234883
  28.136630, 56315.652431
  28.144455, 56331.025611
  28.152330, 56346.460785
  28.160163, 56361.776727
  28.168029, 56377.119318
  28.175910, 56392.455434
  28.183777, 56407.726549
  28.191664, 56422.998785
  28.199571, 56438.271110
  28.207507, 56453.561059
  28.215430, 56468.789821
  28.223401, 56484.070814
  28.231366, 56499.302401
  28.239379, 56514.586753
  28.247367, 56529.785081
  28.255368, 56544.967158
  28.263389, 56560.150406
  28.271499, 56575.460174
  28.279568, 56590.652341
  28.287691, 56605.906501
  28.295852, 56621.191484
  28.304004, 56636.419024
  28.312156, 56651.604777
  28.320365, 56666.854992
  28.328546, 56682.013570
  28.336745, 56697.162768
  28.344976, 56712.327506
  28.353241, 56727.515769
  28.361486, 56742.622638
  28.369820, 56757.849689
  28.378098, 56772.932516
  28.386444, 56788.095847
  28.394761, 56803.161991
  28.403117, 56818.255550
  28.411456, 56833.276575
  28.419870, 56848.386460
  28.428249, 56863.389455
  28.436624, 56878.342036
  28.445079, 56893.391228
  28.453463, 56908.271291
  28.461935, 56923.261425
  28.470403, 56938.197758
  28.478862, 56953.075654
  28.487310, 56967.886518
  28.495804, 56982.733922
  28.504275, 56997.494712
  28.512858, 57012.403328
  28.521376, 57027.152483
  28.529916, 57041.894667
  28.538476, 57056.623326
  28.547088, 57071.395490
  28.555750, 57086.203742
  28.564376, 57100.903711
  28.573005, 57115.561021
  28.581608, 57130.125813
  28.590333, 57144.849308
  28.599012, 57159.445277
  28.607692, 57173.994701
  28.616509, 57188.723621
  28.625223, 57203.231486
  28.633950, 57217.711902
  28.642771, 57232.297063
  28.651581, 57246.814318
  28.660458, 57261.391337
  28.669300, 57275.858292
  28.678114, 57290.229581
  28.686972, 57304.621507
  28.695759, 57318.847469
  28.704631, 57333.159360
  28.713564, 57347.517681
  28.722602, 57361.991013
  28.731577, 57376.311086
  28.740604, 57390.660807
  28.749595, 57404.898212
  28.758586, 57419.084693
  28.767636, 57433.308110
  28.776653, 57447.427805
  28.785754, 57461.623328
  28.794724, 57475.559677
  28.803757, 57489.541468
  28.812760, 57503.422472
  28.821940, 57517.521020
  28.831106, 57531.542083
  28.840245, 57545.465592
  28.849374, 57559.319365
  28.858568, 57573.215103
  28.867813, 57587.129575
  28.877055, 57600.984729
  28.886291, 57614.771737
  28.895524, 57628.497034
  28.904799, 57642.227930
  28.914166, 57656.035820
  28.923434, 57669.639434
  28.932767, 57683.280347
  28.941987, 57696.698778
  28.951455, 57710.418469
  28.960754, 57723.832846
  28.970137, 57737.309937
  28.979586, 57750.822175
  28.988911, 57764.096366
  28.998306, 57777.411335
  29.007764, 57790.755525
  29.017208, 57804.018647
  29.026712, 57817.303345
  29.036095, 57830.359866
  29.045554, 57843.461574
  29.054995, 57856.476370
  29.064426, 57869.417796
  29.073974, 57882.456797
  29.083540, 57895.458309
  29.093167, 57908.478666
  29.102781, 57921.417890
  29.112383, 57934.277490
  29.122037, 57947.143293
  29.131526, 57959.726294
  29.141252, 57972.558786
  29.150897, 57985.221554
  29.160620, 57997.919757
  29.170276, 58010.467262
  29.179960, 58022.984885
  29.189652, 58035.448208
  29.199346, 58047.850208
  29.209080, 58060.236020
  29.218966, 58072.749296
  29.228642, 58084.929483
  29.238289, 58097.009307
  29.248133, 58109.269459
  29.257964, 58121.445006
  29.267847, 58133.617216
  29.277716, 58145.703874
  29.287524, 58157.649598
  29.297414, 58169.625378
  29.307258, 58181.478139
  29.317156, 58193.328372
  29.327069, 58205.126644
  29.336948, 58216.815648
  29.346890, 58228.510233
  29.356849, 58240.155662
  29.366720, 58251.628191
  29.376731, 58263.194673
  29.386598, 58274.524560
  29.396690, 58286.042615
  29.406793, 58297.500179
  29.416806, 58308.786010
  29.426851, 58320.035580
  29.436806, 58331.113401
  29.446817, 58342.183637
  29.456849, 58353.206062
  29.466921, 58364.199920
  29.476888, 58375.008246
  29.487000, 58385.902347
  29.497083, 58396.692196
  29.507081, 58407.319374
  29.517212, 58418.016195
  29.527366, 58428.663921
  29.537553, 58439.271955
  29.547606, 58449.667681
  29.557777, 58460.112345
  29.567919, 58470.453901
  29.578026, 58480.685785
  29.588233, 58490.945609
  29.598401, 58501.091358
  29.608477, 58511.073133
  29.618696, 58521.120953
  29.628874, 58531.055099
  29.639192, 58541.049220
  29.649510, 58550.967285
  29.659802, 58560.784376
  29.670110, 58570.540126
  29.680297, 58580.105671
  29.690618, 58589.721737
  29.700948, 58599.269300
  29.711179, 58608.649249
  29.721457, 58617.996236
  29.731711, 58627.245211
  29.742092, 58636.531309
  29.752510, 58645.772981
  29.762855, 58654.871576
  29.773143, 58663.843716
  29.783603, 58672.886684
  29.793985, 58681.784539
  29.804480, 58690.698979
  29.814942, 58699.506536
  29.825353, 58708.192759
  29.835722, 58716.765655
  29.846218, 58725.363193
  29.856703, 58733.872438
  29.867142, 58742.265162
  29.877523, 58750.531931
  29.888072, 58758.852852
  29.898500, 58766.998488
  29.909000, 58775.120665
  29.919462, 58783.133195
  29.929979, 58791.108048
  29.940502, 58799.005845
  29.950997, 58806.803117
  29.961446, 58814.485861
  29.971898, 58822.090759
  29.982374, 58829.633402
  29.992910, 58837.138520
  30.003407, 58844.534937
  30.013965, 58851.893704
  30.024538, 58859.180716
  30.035133, 58866.400907
  30.045715, 58873.529656
  30.056295, 58880.575647
  30.066989, 58887.614559
  30.077651, 58894.548274
  30.088249, 58901.358287
  30.098804, 58908.058729
  30.109400, 58914.703110
  30.120128, 58921.345583
  30.130776, 58927.856166
  30.141529, 58934.345894
  30.152224, 58940.716023
  30.162915, 58947.000027
  30.173601, 58953.197692
  30.184214, 58959.269502
  30.194871, 58965.283127
  30.205571, 58971.237116
  30.216229, 58977.084091
  30.226929, 58982.870215
  30.237666, 58988.591588
  30.248357, 58994.203983
  30.259095, 58999.756380
  30.269784, 59005.198799
  30.280534, 59010.587914
  30.291258, 59015.879184
  30.301982, 59021.085588
  30.312764, 59026.234758
  30.321915, 59030.537754
