Time, Vertical Forces
   0.000100,    0.000000
   0.000597,    0.000000
   0.002118,    0.000000
   0.006000,    0.000000
   0.013409,    0.000000
   0.025776,    0.000000
   0.050478,    0.000000
   0.078860,    0.000000
   0.107231,    0.000000
   0.135754,    0.000000
   0.164285,    0.000000
   0.192786,    0.000000
   0.221427,    0.000000
   0.250002,    0.000000
   0.278792,    0.000000
   0.307720,    0.000000
   0.336801,    0.000000
   0.365999,    0.000000
   0.395324,    0.000000
   0.424752,    0.000000
   0.454334,    0.000000
   0.483922,    0.000000
   0.513902,    0.000000
   0.543998,    0.000000
   0.574132,    0.000000
   0.604589,    0.000000
   0.635202,    0.000000
   0.665680,    0.000000
   0.696805,    0.000000
   0.728105,    0.000000
   0.759386,    0.000000
   0.790805,    0.000000
   0.823009,    0.000000
   0.855112,    0.000000
   0.887601,    0.000000
   0.920021,    0.000000
   0.952657,    0.000000
   0.985716,    0.000000
   1.019144,    0.000000
   1.052681,    0.000000
   1.086312,    0.000000
   1.120768,    0.000000
   1.155376,    0.000000
   1.190329,    0.000000
   1.225051,    0.000000
   1.260463,    0.000000
   1.295730,    0.000000
   1.331831,    0.000000
   1.367713,    0.000000
   1.403564,    0.000000
   1.439859,    0.000000
   1.476690,    0.000000
   1.513168,    0.000000
   1.550329,    0.000000
   1.587555,    0.000000
   1.625520,    0.000000
   1.663335,    0.000000
   1.701359,    0.000000
   1.739975,    0.000000
   1.778616,    0.000000
   1.818149,    0.000000
   1.857714,    0.000000
   1.897315,    0.000000
   1.937493,    0.000000
   1.977233,    0.000000
   2.017468,    0.000000
   2.057621,    0.000000
   2.098892,    0.000000
   2.140367,    0.000000
   2.181313,    0.000000
   2.222727,    0.000000
   2.264752,    0.000000
   2.306943,    0.000000
   2.349666,    0.000000
   2.392480,    0.000000
   2.435325,    0.000000
   2.478412,    0.000000
   2.521890,    0.000000
   2.565666,    0.000000
   2.609548,    0.000000
   2.653538,    0.000000
   2.697987,    0.000000
   2.742758,    0.000000
   2.787783,    0.000000
   2.832751,    0.000000
   2.878364,    0.000000
   2.924142,    0.000000
   2.970033,    0.000000
   3.016121,    0.000000
   3.062908,    0.000000
   3.109176,    0.000000
   3.155950,    0.000000
   3.203176,    0.000000
   3.250564,    0.000000
   3.298182,    0.000000
   3.345500,    0.000000
   3.393585,    0.000000
   3.441717,    0.000000
   3.490411,    0.000000
   3.539407,    0.000000
   3.588110,    0.000000
   3.637471,    0.000000
   3.686899,    0.000000
   3.736685,    0.000000
   3.786223,    0.000000
   3.836643,    0.000000
   3.886872,    0.000000
   3.937877,    0.000000
   3.989209,    0.000000
   4.040325,    0.000000
   4.091267,    0.000000
   4.142668,    0.000000
   4.193968,    0.000000
   4.246300,    0.000000
   4.248393,    0.000000
   4.248869,    0.000000
   4.248974,    0.000000
   4.249123,    0.000000
   4.249175,    0.000000
   4.249275,    0.000000
   4.249316,    0.000000
   4.249320,    0.000000
   4.249324,    0.000000
   4.249364,    0.000000
   4.249766,    0.000000
   4.251923,    0.000000
   4.260001,    0.000000
   4.285765,    0.000000
   4.334340,    0.000000
   4.382405,    0.000000
   4.430454,    0.000000
   4.478753,    0.000000
   4.527143,    0.000000
   4.575592,    0.000000
   4.624658,    0.000000
   4.673806,    0.000000
   4.723125,    0.000000
   4.772612,    0.000000
   4.822316,    0.000000
   4.872217,    0.000000
   4.922507,    0.000000
   4.973108,    0.000000
   5.023738,    0.000000
   5.074108,    0.000000
   5.124756,    0.000000
   5.175556,    0.000000
   5.226723,    0.000000
   5.278219,    0.000000
   5.330175,    0.000000
   5.381689,    0.000000
   5.433555,    0.000000
   5.485692,    0.000000
   5.537972,    0.000000
   5.590382,    0.000000
   5.642837,    0.000000
   5.695399,    0.000000
   5.748291,    0.000000
   5.801419,    0.000000
   5.854678,    0.000000
   5.908203,    0.000000
   5.961203,    0.000000
   6.014767,    0.000000
   6.068625,    0.000000
   6.122578,    0.000000
   6.176799,    0.000000
   6.231116,    0.000000
   6.285440,    0.000000
   6.340042,    0.000000
   6.394772,    0.000000
   6.450166,    0.000000
   6.505531,    0.000000
   6.560856,    0.000000
   6.616344,    0.000000
   6.672373,    0.000000
   6.727766,    0.000000
   6.784048,    0.000000
   6.840168,    0.000000
   6.896461,    0.000000
   6.952964,    0.000000
   7.009604,    0.000000
   7.066298,    0.000000
   7.123010,    0.000000
   7.179721,    0.000000
   7.236718,    0.000000
   7.293922,    0.000000
   7.351312,    0.000000
   7.409361,    0.000000
   7.467271,    0.000000
   7.525191,    0.000000
   7.583316,    0.000000
   7.641609,    0.000000
   7.700113,    0.000000
   7.758616,    0.000000
   7.817439,    0.000000
   7.876215,    0.000000
   7.935129,    0.000000
   7.994180,    0.000000
   8.053264,    0.000000
   8.112483,    0.000000
   8.172226,    0.000000
   8.232014,    0.000000
   8.291963,    0.000000
   8.352085,    0.000000
   8.412656,    0.000000
   8.472889,    0.000000
   8.533217,    0.000000
   8.593887,    0.000000
   8.654559,    0.000000
   8.715533,    0.000000
   8.727746,    0.000000
   8.736018,    0.000000
   8.742617,    0.000000
   8.743599,    0.000000
   8.743833,    0.000000
   8.743905,    0.000000
   8.743939,    0.000000
   8.743946,    0.000000
   8.743954,    0.000000
   8.744031,    0.000000
   8.744724,    0.000000
   8.748743,    0.000000
   8.763093,    0.000000
   8.811984,    0.000000
   8.867623,    0.000000
   8.923520,    0.000000
   8.979573,    0.000000
   9.035881,    0.000000
   9.092404,    0.000000
   9.148720,    0.000000
   9.205512,    0.000000
   9.262126,    0.000000
   9.318660,    0.000000
   9.375511,    0.000000
   9.432481,    0.000000
   9.489629,    0.000000
   9.546727,    0.000000
   9.604263,    0.000000
   9.661821,    0.000000
   9.719218,    0.000000
   9.776764,    0.000000
   9.834634,    0.000000
   9.892602,    0.000000
   9.950469,    0.000000
  10.008520,    0.000000
  10.066906,    0.000000
  10.125242,    0.000000
  10.183644,    0.000000
  10.242354,    0.000000
  10.301234,    0.000000
  10.360008,    0.000000
  10.418895,    0.000000
  10.477722,    0.000000
  10.536972,    0.000000
  10.596207,    0.000000
  10.655393,    0.000000
  10.714881,    0.000000
  10.774554,    0.000000
  10.834559,    0.000000
  10.894432,    0.000000
  10.954355,    0.000000
  11.014374,    0.000000
  11.074565,    0.000000
  11.134861,    0.000000
  11.195128,    0.000000
  11.255503,    0.000000
  11.316177,    0.000000
  11.376900,    0.000000
  11.437915,    0.000000
  11.498965,    0.000000
  11.559984,    0.000000
  11.621290,    0.000000
  11.682601,    0.000000
  11.743915,    0.000000
  11.805463,    0.000000
  11.867069,    0.000000
  11.928781,    0.000000
  11.990563,    0.000000
  12.052456,    0.000000
  12.114489,    0.000000
  12.176490,    0.000000
  12.238494,    0.000000
  12.300810,    0.000000
  12.363436,    0.000000
  12.426286,    0.000000
  12.489304,    0.000000
  12.552133,    0.000000
  12.614921,    0.000000
  12.677848,    0.000000
  12.740675,    0.000000
  12.803771,    0.000000
  12.867135,    0.000000
  12.930653,    0.000000
  12.994164,    0.000000
  13.057722,    0.000000
  13.121378,    0.000000
  13.185269,    0.000000
  13.249443,    0.000000
  13.313645,    0.000000
  13.377613,    0.000000
  13.441981,    0.000000
  13.506369,    0.000000
  13.570793,    0.000000
  13.583718,    0.000000
  13.632699,    0.000000
  13.633215,    0.000000
  13.633362,    0.000000
  13.633600,    0.000000
  13.633678,    0.000000
  13.633832,    0.000000
  13.633852,    0.000000
  13.633863,    0.000000
  13.633873,    0.000000
  13.633882,    0.000000
  13.633974,    0.000000
  13.634887,    0.000000
  13.641271,    0.000000
  13.669796,    0.000000
  13.726223,    0.000000
  13.784283,    0.000000
  13.842305,    0.000000
  13.900518,    0.000000
  13.958825,    0.000000
  14.017140,    0.000000
  14.075459,    0.000000
  14.133968,    0.000000
  14.192534,    0.000000
  14.251115,    0.000000
  14.310013,    0.000000
  14.368785,    0.000000
  14.427570,    0.000000
  14.486516,    0.000000
  14.545512,    0.000000
  14.604755,    0.000000
  14.664056,    0.000000
  14.723339,    0.000000
  14.782810,    0.000000
  14.842262,    0.000000
  14.901854,    0.000000
  14.961589,    0.000000
  15.021263,    0.000000
  15.081189,    0.000000
  15.141002,    0.000000
  15.201095,    0.000000
  15.261217,    0.000000
  15.321506,    0.000000
  15.381845,    0.000000
  15.442218,    0.000000
  15.502652,    0.000000
  15.563200,    0.000000
  15.623815,    0.000000
  15.684519,    0.000000
  15.745140,    0.000000
  15.806020,    0.000000
  15.866801,    0.000000
  15.927864,    0.000000
  15.989006,    0.000000
  16.050203,    0.000000
  16.111474,    0.000000
  16.172956,    0.000000
  16.234510,    0.000000
  16.295991,    0.000000
  16.357633,    0.000000
  16.419417,    0.000000
  16.481199,    0.000000
  16.543123,    0.000000
  16.605086,    0.000000
  16.667231,    0.000000
  16.729337,    0.000000
  16.791521,    0.000000
  16.853902,    0.000000
  16.916218,    0.000000
  16.978579,    0.000000
  17.041098,    0.000000
  17.103618,    0.000000
  17.166373,    0.000000
  17.229173,    0.000000
  17.292014,    0.000000
  17.354772,    0.000000
  17.417879,    0.000000
  17.480932,    0.000000
  17.544131,    0.000000
  17.607450,    0.000000
  17.670939,    0.000000
  17.734490,    0.000000
  17.797970,    0.000000
  17.861371,    0.000000
  17.924916,    0.000000
  17.988668,    0.000000
  18.052596,    0.000000
  18.116486,    0.000000
  18.180529,    0.000000
  18.244675,    0.000000
  18.308912,    0.000000
  18.373012,    0.000000
  18.437370,    0.000000
  18.501788,    0.000000
  18.566283,    0.000000
  18.630786,    0.000000
  18.695282,    0.000000
  18.759920,    0.000000
  18.824800,    0.000000
  18.889688,    0.000000
  18.954630,    0.000000
  19.019543,    0.000000
  19.084698,    0.000000
  19.149841,    0.000000
  19.162902,    0.000000
  19.172900,    0.000000
  19.180257,    0.000000
  19.181423,    0.000000
  19.181778,    0.000000
  19.182388,    0.000000
  19.182592,    0.000000
  19.182627,    0.000000
  19.182664,    0.000000
  19.183030,    0.000000
  19.186252,    0.000000
  19.204628,    0.000000
  19.260788,    0.000000
  19.326063,    0.000000
  19.391247,    0.000000
  19.456328,    0.000000
  19.521615,    0.000000
  19.587058,    0.000000
  19.652481,    0.000000
  19.718105,    0.000000
  19.783721,    0.000000
  19.849488,    0.000000
  19.915331,    0.000000
  19.981202,    0.000000
  20.047129,    0.000000
  20.113097,    0.000000
  20.179258,    0.000000
  20.245458,    0.000000
  20.311688,    0.000000
  20.378014,    0.000000
  20.444471,    0.000000
  20.510968,    0.000000
  20.577468,    0.000000
  20.644186,    0.000000
  20.711054,    0.000000
  20.777855,    0.000000
  20.844748,    0.000000
  20.911727,    0.000000
  20.978858,    0.000000
  21.046008,    0.000000
  21.113248,    0.000000
  21.180441,    0.000000
  21.247762,    0.000000
  21.315162,    0.000000
  21.382751,    0.000000
  21.450409,    0.000000
  21.518081,    0.000000
  21.585792,    0.000000
  21.653579,    0.000000
  21.721439,    0.000000
  21.789321,    0.000000
  21.857288,    0.000000
  21.925403,    0.000000
  21.993633,    0.000000
  22.061984,    0.000000
  22.130342,    0.000000
  22.198806,    0.000000
  22.267172,    0.000000
  22.335786,    0.000000
  22.404448,    0.000000
  22.473232,    0.000000
  22.542042,    0.000000
  22.610851,    0.000000
  22.679893,    0.000000
  22.748967,    0.000000
  22.818074,    0.000000
  22.887356,    0.000000
  22.956541,    0.000000
  23.025791,    0.000000
  23.095313,    0.000000
  23.164660,    0.000000
  23.234274,    0.000000
  23.304014,    0.000000
  23.373743,    0.000000
  23.443587,    0.000000
  23.513363,    0.000000
  23.583261,    0.000000
  23.653353,    0.000000
  23.723314,    0.000000
  23.793589,    0.000000
  23.863779,    0.000000
  23.934074,    0.000000
  23.968044,    0.000000
  24.004621,    0.000000
  24.075192,   21.078348
  24.145625,   61.497332
  24.216207,  101.402178
  24.286838,  140.960398
  24.357653,  180.117388
  24.428434,  218.950864
  24.499351,  257.341899
  24.570341,  295.387530
  24.641390,  333.055306
  24.712465,  370.339797
  24.783691,  407.226937
  24.854983,  443.785476
  24.926295,  479.972465
  24.997611,  515.768032
  25.069004,  551.166866
  25.140384,  586.210006
  25.211740,  620.855563
  25.283289,  655.099824
  25.354902,  689.053850
  25.426419,  722.657522
  25.498005,  755.836347
  25.569673,  788.673179
  25.641402,  821.176004
  25.713177,  853.338639
  25.784919,  885.157712
  25.787793,  917.595626
  25.787930,  918.883335
  25.788020,  918.943390
  25.788087,  918.983065
  25.788127,  919.012543
  25.788144,  919.029992
  25.788160,  919.037275
  25.788326,  919.042509
  25.789987,  919.094845
  25.800024,  919.705860
  25.844615,  923.608074
  25.918101,  942.557948
  25.992378,  974.177309
  26.066619, 1005.781643
  26.140992, 1037.001485
  26.215407, 1067.914310
  26.289751, 1098.486412
  26.364219, 1128.669537
  26.438608, 1158.553370
  26.512937, 1188.056006
  26.587368, 1217.186965
  26.661705, 1246.019372
  26.736178, 1274.473900
  26.810645, 1302.648428
  26.816516, 1331.781179
  26.822395, 1333.956310
  26.828280, 1336.132891
  26.834155, 1338.309603
  26.840043, 1340.480569
  26.845938, 1342.654677
  26.851789, 1344.829914
  26.857677, 1346.985677
  26.863568, 1349.153755
  26.869437, 1351.321411
  26.875356, 1353.477747
  26.881192, 1355.653038
  26.887111, 1357.792842
  26.893035, 1359.962640
  26.898971, 1362.132151
  26.904908, 1364.304259
  26.910791, 1366.475827
  26.916694, 1368.624625
  26.922647, 1370.777722
  26.928585, 1372.948593
  26.934536, 1375.111759
  26.940496, 1377.277462
  26.946454, 1379.444974
  26.952427, 1381.609249
  26.958376, 1383.777695
  26.964364, 1385.934607
  26.970329, 1388.104554
  26.976301, 1390.263839
  26.982257, 1392.424410
  26.988259, 1394.575540
  26.994236, 1396.743095
  27.000223, 1398.899049
  27.006252, 1401.055945
  27.012257, 1403.227053
  27.018260, 1405.387375
  27.024269, 1407.544783
  27.030290, 1409.702467
  27.036323, 1411.862436
  27.042337, 1414.025185
  27.048382, 1416.178594
  27.054439, 1418.341010
  27.060428, 1420.507574
  27.066518, 1422.644826
  27.072613, 1424.818060
  27.078703, 1426.990916
  27.084808, 1429.159925
  27.090918, 1431.332384
  27.097022, 1433.505160
  27.103130, 1435.673257
  27.109227, 1437.841340
  27.115344, 1440.002824
  27.121483, 1442.169655
  27.127607, 1444.342477
  27.133760, 1446.507858
  27.139880, 1448.682052
  27.146046, 1450.841590
  27.152219, 1453.016184
  27.158390, 1455.191138
  27.164569, 1457.363195
  27.170731, 1459.536773
  27.176896, 1461.701924
  27.183112, 1463.865350
  27.189272, 1466.046718
  27.195487, 1468.204406
  27.201718, 1470.380106
  27.207962, 1472.559231
  27.214209, 1474.741300
  27.220412, 1476.923332
  27.226673, 1479.086240
  27.232902, 1481.269147
  27.239126, 1483.438038
  27.245417, 1485.602127
  27.251695, 1487.788747
  27.258024, 1489.967858
  27.264324, 1492.164298
  27.270653, 1494.347681
  27.276937, 1496.540186
  27.283294, 1498.712887
  27.289634, 1500.910705
  27.295942, 1503.100873
  27.302283, 1505.276641
  27.308669, 1507.461702
  27.315041, 1509.661600
  27.321463, 1511.853209
  27.327840, 1514.061545
  27.334284, 1516.250559
  27.340714, 1518.461916
  27.347143, 1520.666657
  27.353604, 1522.867909
  27.360048, 1525.079318
  27.366505, 1527.281990
  27.372943, 1529.487865
  27.379402, 1531.684253
  27.385858, 1533.886525
  27.392390, 1533.762421
  27.398890, 1533.639102
  27.405415, 1533.515501
  27.411927, 1533.392330
  27.418477, 1533.268636
  27.425000, 1533.145631
  27.431541, 1533.022484
  27.438112, 1532.898960
  27.444697, 1532.775353
  27.451305, 1532.651527
  27.457894, 1532.528233
  27.464466, 1532.405453
  27.471056, 1532.282525
  27.477650, 1532.159728
  27.484242, 1532.037146
  27.490903, 1531.913477
  27.497572, 1531.789881
  27.504242, 1531.666449
  27.510912, 1531.543217
  27.517581, 1531.420202
  27.524266, 1531.297089
  27.530963, 1531.173963
  27.537667, 1531.050892
  27.544410, 1530.927324
  27.551138, 1530.804234
  27.557905, 1530.680651
  27.564634, 1530.557948
  27.571383, 1530.435088
  27.578145, 1530.312203
  27.584932, 1530.189079
  27.591681, 1530.066842
  27.598455, 1529.944351
  27.605246, 1529.821770
  27.612059, 1529.699013
  27.618853, 1529.576796
  27.625693, 1529.453971
  27.632538, 1529.331263
  27.639364, 1529.209122
  27.646227, 1529.086515
  27.653122, 1528.963574
  27.659978, 1528.841527
  27.666843, 1528.719552
  27.673797, 1528.596214
  27.680744, 1528.473211
  27.687729, 1528.349765
  27.694712, 1528.226584
  27.701707, 1528.103422
  27.708703, 1527.980462
  27.715665, 1527.858323
  27.722702, 1527.735090
  27.729750, 1527.611893
  27.736786, 1527.489146
  27.743870, 1527.365801
  27.750966, 1527.242465
  27.758007, 1527.120337
  27.765088, 1526.997737
  27.772203, 1526.874778
  27.779290, 1526.752550
  27.786405, 1526.630065
  27.793532, 1526.507618
  27.800692, 1526.384838
  27.807857, 1526.262218
  27.815010, 1526.140048
  27.822211, 1526.017294
  27.829367, 1525.895564
  27.836566, 1525.773338
  27.843769, 1525.651286
  27.850982, 1525.529306
  27.858246, 1525.406712
  27.865532, 1525.284000
  27.872802, 1525.161819
  27.880071, 1525.039898
  27.885858, 1524.943011
  27.887360, 1524.917894
  27.894645, 1524.796213
  27.901967, 1524.674162
  27.909307, 1524.552080
  27.916628, 1524.430554
  27.923981, 1524.308770
  27.931365, 1524.186718
  27.938774, 1524.064536
  27.946183, 1523.942597
  27.953577, 1523.821182
  27.960999, 1523.699561
  27.968478, 1523.577276
  27.975918, 1523.455889
  27.983422, 1523.333743
  27.990949, 1523.211485
  27.998425, 1523.090329
  28.005957, 1522.968542
  28.013503, 1522.846815
  28.021092, 1522.724659
  28.028666, 1522.603015
  28.036281, 1522.481005
  28.043919, 1522.358911
  28.051601, 1522.236395
  28.059271, 1522.114358
  28.066912, 1521.993064
  28.074613, 1521.871117
  28.082302, 1521.749642
  28.089987, 1521.628517
  28.097707, 1521.507130
  28.105470, 1521.385368
  28.113190, 1521.264581
  28.121042, 1521.142012
  28.128801, 1521.021194
  28.136630, 1520.899598
  28.144455, 1520.778365
  28.152330, 1520.656655
  28.160163, 1520.535898
  28.168029, 1520.414944
  28.175910, 1520.294053
  28.183777, 1520.173688
  28.191664, 1520.053325
  28.199571, 1519.932974
  28.207507, 1519.812497
  28.215430, 1519.692514
  28.223401, 1519.572132
  28.231366, 1519.452151
  28.239379, 1519.331766
  28.247367, 1519.212071
  28.255368, 1519.092516
  28.263389, 1518.972963
  28.271499, 1518.852427
  28.279568, 1518.732827
  28.287691, 1518.612752
  28.295852, 1518.492446
  28.304004, 1518.372603
  28.312156, 1518.253101
  28.320365, 1518.133104
  28.328546, 1518.013839
  28.336745, 1517.894659
  28.344976, 1517.775368
  28.353241, 1517.655903
  28.361486, 1517.537090
  28.369820, 1517.417343
  28.378098, 1517.298741
  28.386444, 1517.179517
  28.394761, 1517.061068
  28.403117, 1516.942415
  28.411456, 1516.824342
  28.419870, 1516.705582
  28.428249, 1516.587672
  28.436624, 1516.470169
  28.445079, 1516.351917
  28.453463, 1516.235005
  28.461935, 1516.117238
  28.470403, 1515.999904
  28.478862, 1515.883039
  28.487310, 1515.766711
  28.495804, 1515.650105
  28.504275, 1515.534190
  28.512858, 1515.417123
  28.521376, 1515.301319
  28.529916, 1515.185578
  28.538476, 1515.069953
  28.547088, 1514.953996
  28.555750, 1514.837765
  28.564376, 1514.722393
  28.573005, 1514.607365
  28.581608, 1514.493073
  28.590333, 1514.377543
  28.599012, 1514.263023
  28.607692, 1514.148878
  28.616509, 1514.033332
  28.625223, 1513.919529
  28.633950, 1513.805950
  28.642771, 1513.691558
  28.651581, 1513.577707
  28.660458, 1513.463395
  28.669300, 1513.349955
  28.678114, 1513.237272
  28.686972, 1513.124436
  28.695759, 1513.012908
  28.704631, 1512.900714
  28.713564, 1512.788164
  28.722602, 1512.674720
  28.731577, 1512.562484
  28.740604, 1512.450023
  28.749595, 1512.338450
  28.758586, 1512.227283
  28.767636, 1512.115833
  28.776653, 1512.005202
  28.785754, 1511.893984
  28.794724, 1511.784803
  28.803757, 1511.675273
  28.812760, 1511.566538
  28.821940, 1511.456105
  28.831106, 1511.346285
  28.840245, 1511.237235
  28.849374, 1511.128736
  28.858568, 1511.019915
  28.867813, 1510.910953
  28.877055, 1510.802460
  28.886291, 1510.694507
  28.895524, 1510.587041
  28.904799, 1510.479537
  28.914166, 1510.371435
  28.923434, 1510.264937
  28.932767, 1510.158151
  28.941987, 1510.053111
  28.951455, 1509.945718
  28.960754, 1509.840718
  28.970137, 1509.735232
  28.979586, 1509.629474
  28.988911, 1509.525583
  28.998306, 1509.421376
  29.007764, 1509.316944
  29.017208, 1509.213150
  29.026712, 1509.109190
  29.036095, 1509.007018
  29.045554, 1508.904496
  29.054995, 1508.802656
  29.064426, 1508.701393
  29.073974, 1508.599369
  29.083540, 1508.497640
  29.093167, 1508.395766
  29.102781, 1508.294528
  29.112383, 1508.193915
  29.122037, 1508.093255
  29.131526, 1507.994809
  29.141252, 1507.894412
  29.150897, 1507.795344
  29.160620, 1507.695999
  29.170276, 1507.597834
  29.179960, 1507.499904
  29.189652, 1507.402398
  29.199346, 1507.305373
  29.209080, 1507.208474
  29.218966, 1507.110577
  29.228642, 1507.015286
  29.238289, 1506.920780
  29.248133, 1506.824862
  29.257964, 1506.729605
  29.267847, 1506.634373
  29.277716, 1506.539809
  29.287524, 1506.446346
  29.297414, 1506.352647
  29.307258, 1506.259907
  29.317156, 1506.167186
  29.327069, 1506.074869
  29.336948, 1505.983404
  29.346890, 1505.891893
  29.356849, 1505.800764
  29.366720, 1505.710984
  29.376731, 1505.620467
  29.386598, 1505.531797
  29.396690, 1505.441651
  29.406793, 1505.351974
  29.416806, 1505.263638
  29.426851, 1505.175580
  29.436806, 1505.088863
  29.446817, 1505.002201
  29.456849, 1504.915907
  29.466921, 1504.829833
  29.476888, 1504.745205
  29.487000, 1504.659900
  29.497083, 1504.575406
  29.507081, 1504.492180
  29.517212, 1504.408402
  29.527366, 1504.325002
  29.537553, 1504.241906
  29.547606, 1504.160467
  29.557777, 1504.078637
  29.567919, 1503.997607
  29.578026, 1503.917429
  29.588233, 1503.837024
  29.598401, 1503.757505
  29.608477, 1503.679263
  29.618696, 1503.600495
  29.628874, 1503.522610
  29.639192, 1503.444244
  29.649510, 1503.366466
  29.659802, 1503.289470
  29.670110, 1503.212945
  29.680297, 1503.137902
  29.690618, 1503.062452
  29.700948, 1502.987529
  29.711179, 1502.913911
  29.721457, 1502.840540
  29.731711, 1502.767927
  29.742092, 1502.695011
  29.752510, 1502.622432
  29.762855, 1502.550964
  29.773143, 1502.480477
  29.783603, 1502.409421
  29.793985, 1502.339491
  29.804480, 1502.269418
  29.814942, 1502.200171
  29.825353, 1502.131864
  29.835722, 1502.064434
  29.846218, 1501.996795
  29.856703, 1501.929836
  29.867142, 1501.863778
  29.877523, 1501.798696
  29.888072, 1501.733173
  29.898500, 1501.669013
  29.909000, 1501.605021
  29.919462, 1501.541877
  29.929979, 1501.479012
  29.940502, 1501.416737
  29.950997, 1501.355236
  29.961446, 1501.294621
  29.971898, 1501.234602
  29.982374, 1501.175055
  29.992910, 1501.115786
  30.003407, 1501.057355
  30.013965, 1500.999202
  30.024538, 1500.941595
  30.035133, 1500.884495
  30.045715, 1500.828098
  30.056295, 1500.772333
  30.066989, 1500.716602
  30.077651, 1500.661682
  30.088249, 1500.607718
  30.098804, 1500.554599
  30.109400, 1500.501901
  30.120128, 1500.449193
  30.130776, 1500.397508
  30.141529, 1500.345962
  30.152224, 1500.295340
  30.162915, 1500.245376
  30.173601, 1500.196072
  30.184214, 1500.147742
  30.194871, 1500.099848
  30.205571, 1500.052400
  30.216229, 1500.005777
  30.226929, 1499.959609
  30.237666, 1499.913928
  30.248357, 1499.869087
  30.259095, 1499.824694
  30.269784, 1499.781148
  30.280534, 1499.737997
  30.291258, 1499.695596
  30.301982, 1499.653841
  30.312764, 1499.612511
  30.321915, 1499.577946
