Time, Vertical Forces
   0.000100,    0.000000
   0.000632,    0.000000
   0.002658,    0.000000
   0.010813,    0.000000
   0.025337,    0.000000
   0.052438,    0.000000
   0.080756,    0.000000
   0.109151,    0.000000
   0.137475,    0.000000
   0.165924,    0.000000
   0.194561,    0.000000
   0.223268,    0.000000
   0.251881,    0.000000
   0.280809,    0.000000
   0.309715,    0.000000
   0.338699,    0.000000
   0.368081,    0.000000
   0.397342,    0.000000
   0.426895,    0.000000
   0.456628,    0.000000
   0.486143,    0.000000
   0.515893,    0.000000
   0.546240,    0.000000
   0.576696,    0.000000
   0.607149,    0.000000
   0.637996,    0.000000
   0.668871,    0.000000
   0.700113,    0.000000
   0.731322,    0.000000
   0.763022,    0.000000
   0.794720,    0.000000
   0.826546,    0.000000
   0.858859,    0.000000
   0.891226,    0.000000
   0.923987,    0.000000
   0.957066,    0.000000
   0.990520,    0.000000
   1.023672,    0.000000
   1.056808,    0.000000
   1.090362,    0.000000
   1.124297,    0.000000
   1.158939,    0.000000
   1.193709,    0.000000
   1.228613,    0.000000
   1.263827,    0.000000
   1.299374,    0.000000
   1.335333,    0.000000
   1.371267,    0.000000
   1.407707,    0.000000
   1.444142,    0.000000
   1.480707,    0.000000
   1.518105,    0.000000
   1.555786,    0.000000
   1.593149,    0.000000
   1.630917,    0.000000
   1.668815,    0.000000
   1.707771,    0.000000
   1.746453,    0.000000
   1.785409,    0.000000
   1.824306,    0.000000
   1.863714,    0.000000
   1.903442,    0.000000
   1.943357,    0.000000
   1.983599,    0.000000
   2.023895,    0.000000
   2.064363,    0.000000
   2.105067,    0.000000
   2.146850,    0.000000
   2.188147,    0.000000
   2.229894,    0.000000
   2.271762,    0.000000
   2.313916,    0.000000
   2.356660,    0.000000
   2.399529,    0.000000
   2.442515,    0.000000
   2.486167,    0.000000
   2.529532,    0.000000
   2.573081,    0.000000
   2.617413,    0.000000
   2.661707,    0.000000
   2.706131,    0.000000
   2.751359,    0.000000
   2.796088,    0.000000
   2.841126,    0.000000
   2.886382,    0.000000
   2.931919,    0.000000
   2.978012,    0.000000
   3.023810,    0.000000
   3.069837,    0.000000
   3.117171,    0.000000
   3.164173,    0.000000
   3.211172,    0.000000
   3.258823,    0.000000
   3.306476,    0.000000
   3.354392,    0.000000
   3.402537,    0.000000
   3.451201,    0.000000
   3.499963,    0.000000
   3.548561,    0.000000
   3.597683,    0.000000
   3.646529,    0.000000
   3.695882,    0.000000
   3.745358,    0.000000
   3.795275,    0.000000
   3.845122,    0.000000
   3.895289,    0.000000
   3.946060,    0.000000
   3.997251,    0.000000
   4.048293,    0.000000
   4.099339,    0.000000
   4.150836,    0.000000
   4.203207,    0.000000
   4.213623,    0.000000
   4.222181,    0.000000
   4.248275,    0.000000
   4.248673,    0.000000
   4.249019,    0.000000
   4.249095,    0.000000
   4.249133,    0.000000
   4.249201,    0.000000
   4.249210,    0.000000
   4.249215,    0.000000
   4.249219,    0.000000
   4.249267,    0.000000
   4.249690,    0.000000
   4.252402,    0.000000
   4.263208,    0.000000
   4.296545,    0.000000
   4.346130,    0.000000
   4.394214,    0.000000
   4.442159,    0.000000
   4.490780,    0.000000
   4.539116,    0.000000
   4.588034,    0.000000
   4.637220,    0.000000
   4.686517,    0.000000
   4.736073,    0.000000
   4.785890,    0.000000
   4.835599,    0.000000
   4.885333,    0.000000
   4.935507,    0.000000
   4.985866,    0.000000
   5.036514,    0.000000
   5.087323,    0.000000
   5.138593,    0.000000
   5.189482,    0.000000
   5.240800,    0.000000
   5.292242,    0.000000
   5.343674,    0.000000
   5.395388,    0.000000
   5.447523,    0.000000
   5.499790,    0.000000
   5.551821,    0.000000
   5.604327,    0.000000
   5.657122,    0.000000
   5.709862,    0.000000
   5.762575,    0.000000
   5.815843,    0.000000
   5.869189,    0.000000
   5.922726,    0.000000
   5.976250,    0.000000
   6.030013,    0.000000
   6.083682,    0.000000
   6.137844,    0.000000
   6.192220,    0.000000
   6.246317,    0.000000
   6.300580,    0.000000
   6.355191,    0.000000
   6.410002,    0.000000
   6.465018,    0.000000
   6.520351,    0.000000
   6.575494,    0.000000
   6.631043,    0.000000
   6.686863,    0.000000
   6.742963,    0.000000
   6.799092,    0.000000
   6.855475,    0.000000
   6.911870,    0.000000
   6.968183,    0.000000
   7.024938,    0.000000
   7.081384,    0.000000
   7.138307,    0.000000
   7.195322,    0.000000
   7.252454,    0.000000
   7.309991,    0.000000
   7.367677,    0.000000
   7.425368,    0.000000
   7.483269,    0.000000
   7.541544,    0.000000
   7.599963,    0.000000
   7.658227,    0.000000
   7.716613,    0.000000
   7.775218,    0.000000
   7.833858,    0.000000
   7.892667,    0.000000
   7.951721,    0.000000
   8.011161,    0.000000
   8.070831,    0.000000
   8.130410,    0.000000
   8.189876,    0.000000
   8.249436,    0.000000
   8.309561,    0.000000
   8.369460,    0.000000
   8.429665,    0.000000
   8.490076,    0.000000
   8.550362,    0.000000
   8.611048,    0.000000
   8.671989,    0.000000
   8.733065,    0.000000
   8.735514,    0.000000
   8.737607,    0.000000
   8.739641,    0.000000
   8.742127,    0.000000
   8.742682,    0.000000
   8.743352,    0.000000
   8.743493,    0.000000
   8.743563,    0.000000
   8.743701,    0.000000
   8.743716,    0.000000
   8.743725,    0.000000
   8.743816,    0.000000
   8.743929,    0.000000
   8.745058,    0.000000
   8.751410,    0.000000
   8.773873,    0.000000
   8.825941,    0.000000
   8.881811,    0.000000
   8.937860,    0.000000
   8.993927,    0.000000
   9.050154,    0.000000
   9.106220,    0.000000
   9.162728,    0.000000
   9.219317,    0.000000
   9.276054,    0.000000
   9.332797,    0.000000
   9.389730,    0.000000
   9.446577,    0.000000
   9.503703,    0.000000
   9.560852,    0.000000
   9.618324,    0.000000
   9.675771,    0.000000
   9.733194,    0.000000
   9.790908,    0.000000
   9.848630,    0.000000
   9.906377,    0.000000
   9.964418,    0.000000
  10.022419,    0.000000
  10.080549,    0.000000
  10.139048,    0.000000
  10.197540,    0.000000
  10.256306,    0.000000
  10.314900,    0.000000
  10.373545,    0.000000
  10.432610,    0.000000
  10.491838,    0.000000
  10.550919,    0.000000
  10.610485,    0.000000
  10.669931,    0.000000
  10.729587,    0.000000
  10.789269,    0.000000
  10.848904,    0.000000
  10.908531,    0.000000
  10.968608,    0.000000
  11.028690,    0.000000
  11.088953,    0.000000
  11.149277,    0.000000
  11.209650,    0.000000
  11.270424,    0.000000
  11.331182,    0.000000
  11.392066,    0.000000
  11.452787,    0.000000
  11.513669,    0.000000
  11.574900,    0.000000
  11.636200,    0.000000
  11.697552,    0.000000
  11.759047,    0.000000
  11.820512,    0.000000
  11.882249,    0.000000
  11.943990,    0.000000
  12.005911,    0.000000
  12.067807,    0.000000
  12.129737,    0.000000
  12.191896,    0.000000
  12.254202,    0.000000
  12.316645,    0.000000
  12.379231,    0.000000
  12.441718,    0.000000
  12.504194,    0.000000
  12.567178,    0.000000
  12.630040,    0.000000
  12.693062,    0.000000
  12.756189,    0.000000
  12.819533,    0.000000
  12.883028,    0.000000
  12.946426,    0.000000
  13.009801,    0.000000
  13.073526,    0.000000
  13.137278,    0.000000
  13.201257,    0.000000
  13.265230,    0.000000
  13.329196,    0.000000
  13.393376,    0.000000
  13.457570,    0.000000
  13.522034,    0.000000
  13.586432,    0.000000
  13.599392,    0.000000
  13.608217,    0.000000
  13.615227,    0.000000
  13.620126,    0.000000
  13.623802,    0.000000
  13.627521,    0.000000
  13.630650,    0.000000
  13.631552,    0.000000
  13.632899,    0.000000
  13.633184,    0.000000
  13.633296,    0.000000
  13.633519,    0.000000
  13.633534,    0.000000
  13.633549,    0.000000
  13.633692,    0.000000
  13.634882,    0.000000
  13.642222,    0.000000
  13.681772,    0.000000
  13.739743,    0.000000
  13.797912,    0.000000
  13.856017,    0.000000
  13.914109,    0.000000
  13.972329,    0.000000
  14.030702,    0.000000
  14.089048,    0.000000
  14.147659,    0.000000
  14.206281,    0.000000
  14.264802,    0.000000
  14.323447,    0.000000
  14.382239,    0.000000
  14.441245,    0.000000
  14.500144,    0.000000
  14.559290,    0.000000
  14.618562,    0.000000
  14.677885,    0.000000
  14.737128,    0.000000
  14.796642,    0.000000
  14.856058,    0.000000
  14.915644,    0.000000
  14.975266,    0.000000
  15.035017,    0.000000
  15.094719,    0.000000
  15.154784,    0.000000
  15.214706,    0.000000
  15.274816,    0.000000
  15.335089,    0.000000
  15.395270,    0.000000
  15.455589,    0.000000
  15.516108,    0.000000
  15.576628,    0.000000
  15.637224,    0.000000
  15.697817,    0.000000
  15.758578,    0.000000
  15.819490,    0.000000
  15.880458,    0.000000
  15.941488,    0.000000
  16.002586,    0.000000
  16.063799,    0.000000
  16.124990,    0.000000
  16.186168,    0.000000
  16.247844,    0.000000
  16.309469,    0.000000
  16.370863,    0.000000
  16.432565,    0.000000
  16.494322,    0.000000
  16.556203,    0.000000
  16.618024,    0.000000
  16.680143,    0.000000
  16.742204,    0.000000
  16.804267,    0.000000
  16.866480,    0.000000
  16.929038,    0.000000
  16.991566,    0.000000
  17.054138,    0.000000
  17.116678,    0.000000
  17.179318,    0.000000
  17.242122,    0.000000
  17.304960,    0.000000
  17.367945,    0.000000
  17.431010,    0.000000
  17.494262,    0.000000
  17.557292,    0.000000
  17.620391,    0.000000
  17.683846,    0.000000
  17.747425,    0.000000
  17.810979,    0.000000
  17.874352,    0.000000
  17.938096,    0.000000
  18.001987,    0.000000
  18.065859,    0.000000
  18.129744,    0.000000
  18.193673,    0.000000
  18.257823,    0.000000
  18.321894,    0.000000
  18.386184,    0.000000
  18.450438,    0.000000
  18.514793,    0.000000
  18.579328,    0.000000
  18.643987,    0.000000
  18.708539,    0.000000
  18.773222,    0.000000
  18.838009,    0.000000
  18.902914,    0.000000
  18.967936,    0.000000
  19.033104,    0.000000
  19.098203,    0.000000
  19.163320,    0.000000
  19.176408,    0.000000
  19.178533,    0.000000
  19.180862,    0.000000
  19.181386,    0.000000
  19.181743,    0.000000
  19.181922,    0.000000
  19.182050,    0.000000
  19.182125,    0.000000
  19.182172,    0.000000
  19.182215,    0.000000
  19.182643,    0.000000
  19.186108,    0.000000
  19.207347,    0.000000
  19.264769,    0.000000
  19.330096,    0.000000
  19.395185,    0.000000
  19.460489,    0.000000
  19.525808,    0.000000
  19.591274,    0.000000
  19.656838,    0.000000
  19.722436,    0.000000
  19.788088,    0.000000
  19.853770,    0.000000
  19.919587,    0.000000
  19.985511,    0.000000
  20.051414,    0.000000
  20.117350,    0.000000
  20.183326,    0.000000
  20.249442,    0.000000
  20.315737,    0.000000
  20.381975,    0.000000
  20.448427,    0.000000
  20.514867,    0.000000
  20.581477,    0.000000
  20.648104,    0.000000
  20.714923,    0.000000
  20.781694,    0.000000
  20.848595,    0.000000
  20.915508,    0.000000
  20.982529,    0.000000
  21.049656,    0.000000
  21.116935,    0.000000
  21.184116,    0.000000
  21.251573,    0.000000
  21.318992,    0.000000
  21.386447,    0.000000
  21.453954,    0.000000
  21.521493,    0.000000
  21.589342,    0.000000
  21.657052,    0.000000
  21.724956,    0.000000
  21.792864,    0.000000
  21.860877,    0.000000
  21.929004,    0.000000
  21.997206,    0.000000
  22.065524,    0.000000
  22.133808,    0.000000
  22.202272,    0.000000
  22.270736,    0.000000
  22.339293,    0.000000
  22.407878,    0.000000
  22.476730,    0.000000
  22.545552,    0.000000
  22.614458,    0.000000
  22.683398,    0.000000
  22.752445,    0.000000
  22.821702,    0.000000
  22.890851,    0.000000
  22.959974,    0.000000
  23.029289,    0.000000
  23.098736,    0.000000
  23.168081,    0.000000
  23.237668,    0.000000
  23.307226,    0.000000
  23.377005,    0.000000
  23.446710,    0.000000
  23.516719,    0.000000
  23.586575,    0.000000
  23.656507,    0.000000
  23.726536,    0.000000
  23.796740,    0.000000
  23.867005,    0.000000
  23.937359,    0.000000
  23.967061,    0.000000
  24.007723,    0.000000
  24.078299,   23.430769
  24.148844,   63.827363
  24.219490,  103.770464
  24.290268,  143.339342
  24.361048,  182.552263
  24.431805,  221.340170
  24.502713,  259.692805
  24.573733,  297.707781
  24.644876,  335.365539
  24.715999,  372.674616
  24.787062,  409.562787
  24.858332,  446.010447
  24.929562,  482.162417
  25.000896,  517.892429
  25.072192,  553.277390
  25.143504,  588.249482
  25.215019,  622.837331
  25.286510,  657.138194
  25.358125,  691.041272
  25.429753,  724.622625
  25.501380,  757.831848
  25.573152,  790.663805
  25.644947,  823.192025
  25.716642,  855.363697
  25.731009,  887.926991
  25.781596,  893.720102
  25.784464,  916.529154
  25.785359,  917.803562
  25.786514,  918.188719
  25.786789,  918.702987
  25.787313,  918.818432
  25.787437,  919.051937
  25.787475,  919.107177
  25.787514,  919.123376
  25.787551,  919.140425
  25.787926,  919.152238
  25.790516,  919.285841
  25.804901,  920.255205
  25.867860,  925.857145
  25.942166,  952.974056
  26.016388,  984.837129
  26.090677, 1016.292978
  26.164910, 1047.413677
  26.239166, 1078.148229
  26.313450, 1108.534192
  26.387905, 1138.575128
  26.462339, 1168.337266
  26.536750, 1197.742527
  26.611017, 1226.796454
  26.685460, 1255.448731
  26.759824, 1283.836712
  26.765667, 1313.134067
  26.771513, 1315.316337
  26.777368, 1317.497367
  26.783225, 1319.680218
  26.789082, 1321.861458
  26.794942, 1324.040862
  26.800784, 1326.220000
  26.806649, 1328.389599
  26.812524, 1330.566214
  26.818386, 1332.744659
  26.824261, 1334.916049
  26.830126, 1337.090785
  26.835999, 1339.259708
  26.841878, 1341.429397
  26.847777, 1343.599063
  26.853662, 1345.774982
  26.859552, 1347.943386
  26.865462, 1350.111479
  26.871357, 1352.285473
  26.877278, 1354.451663
  26.883207, 1356.625193
  26.889132, 1358.800144
  26.895061, 1360.971610
  26.900984, 1363.142994
  26.906924, 1365.309588
  26.912830, 1367.481181
  26.918780, 1369.637177
  26.924697, 1371.808904
  26.930650, 1373.965022
  26.936594, 1376.133544
  26.942555, 1378.296079
  26.948526, 1380.462780
  26.954503, 1382.631609
  26.960489, 1384.800662
  26.966479, 1386.970832
  26.972461, 1389.140863
  26.978470, 1391.305343
  26.984490, 1393.477979
  26.990500, 1395.653099
  26.996513, 1397.822086
  27.002526, 1399.990584
  27.008539, 1402.157261
  27.014576, 1404.321089
  27.020614, 1406.492386
  27.026633, 1408.662463
  27.032691, 1410.822153
  27.038701, 1412.996000
  27.044756, 1415.148975
  27.050800, 1417.317021
  27.056859, 1419.478614
  27.062920, 1421.643921
  27.068995, 1423.808094
  27.075073, 1425.974895
  27.081174, 1428.140966
  27.087300, 1430.312932
  27.093414, 1432.492591
  27.099527, 1434.665974
  27.105629, 1436.836985
  27.111735, 1439.002104
  27.117876, 1441.165995
  27.124017, 1443.340895
  27.130169, 1445.513419
  27.136320, 1447.688361
  27.142479, 1449.860981
  27.148664, 1452.033709
  27.154855, 1454.214295
  27.161043, 1456.395045
  27.167259, 1458.572192
  27.173481, 1460.757473
  27.179690, 1462.943633
  27.185887, 1465.122868
  27.192141, 1467.294722
  27.198387, 1469.485979
  27.204623, 1471.672029
  27.210826, 1473.853286
  27.217052, 1476.019961
  27.223332, 1478.192073
  27.229594, 1480.382554
  27.235882, 1482.563730
  27.242161, 1484.752589
  27.248459, 1486.936178
  27.254793, 1489.123780
  27.261100, 1491.323129
  27.267450, 1493.509517
  27.273810, 1495.709469
  27.280124, 1497.912246
  27.286479, 1500.095394
  27.292837, 1502.291269
  27.299215, 1504.485619
  27.305613, 1506.685334
  27.312015, 1508.889773
  27.318419, 1511.094099
  27.324834, 1513.296618
  27.331235, 1515.501161
  27.337695, 1517.697924
  27.344134, 1519.913946
  27.350578, 1522.120752
  27.357029, 1524.326673
  27.363466, 1526.533846
  27.369929, 1528.732926
  27.376423, 1530.939320
  27.382977, 1533.153258
  27.389477, 1533.030131
  27.396045, 1532.905912
  27.402605, 1532.782019
  27.409143, 1532.658739
  27.415656, 1532.536113
  27.422223, 1532.412651
  27.428800, 1532.289191
  27.435373, 1532.166002
  27.441921, 1532.043486
  27.448481, 1531.920903
  27.455121, 1531.797034
  27.461772, 1531.673161
  27.468416, 1531.549605
  27.475046, 1531.426521
  27.481676, 1531.303607
  27.488361, 1531.179896
  27.495047, 1531.056354
  27.501731, 1530.933031
  27.508440, 1530.809468
  27.515165, 1530.685798
  27.521860, 1530.562896
  27.528564, 1530.440032
  27.535309, 1530.316606
  27.542039, 1530.193648
  27.548794, 1530.070460
  27.555536, 1529.947702
  27.562329, 1529.824222
  27.569092, 1529.701506
  27.575883, 1529.578472
  27.582704, 1529.455125
  27.589541, 1529.331674
  27.596372, 1529.208557
  27.603192, 1529.085852
  27.610025, 1528.963111
  27.616901, 1528.839829
  27.623803, 1528.716286
  27.630654, 1528.593878
  27.637524, 1528.471349
  27.644453, 1528.347965
  27.651372, 1528.225002
  27.658279, 1528.102445
  27.665224, 1527.979459
  27.672201, 1527.856110
  27.679111, 1527.734182
  27.686102, 1527.611046
  27.693098, 1527.488031
  27.700072, 1527.365636
  27.707063, 1527.243171
  27.714104, 1527.120057
  27.721121, 1526.997593
  27.728186, 1526.874516
  27.735265, 1526.751431
  27.742318, 1526.629022
  27.749336, 1526.507450
  27.756460, 1526.384288
  27.763568, 1526.261632
  27.770675, 1526.139224
  27.777806, 1526.016637
  27.784901, 1525.894913
  27.792031, 1525.772822
  27.799167, 1525.650881
  27.806338, 1525.528564
  27.813541, 1525.405945
  27.820746, 1525.283536
  27.827995, 1525.160636
  27.835214, 1525.038471
  27.842472, 1524.915903
  27.849722, 1524.793725
  27.856966, 1524.671894
  27.864238, 1524.549836
  27.871559, 1524.427210
  27.878882, 1524.304817
  27.882977, 1524.236465
  27.886268, 1524.181604
  27.893635, 1524.058983
  27.901014, 1523.936421
  27.908377, 1523.814380
  27.915771, 1523.692075
  27.923157, 1523.570169
  27.930567, 1523.448130
  27.937993, 1523.326102
  27.945427, 1523.204184
  27.952918, 1523.081610
  27.960366, 1522.960010
  27.967863, 1522.837868
  27.975332, 1522.716459
  27.982815, 1522.595086
  27.990329, 1522.473485
  27.997821, 1522.352515
  28.005413, 1522.230202
  28.013003, 1522.108198
  28.020577, 1521.986731
  28.028238, 1521.864155
  28.035852, 1521.742599
  28.043515, 1521.620559
  28.051180, 1521.498765
  28.058845, 1521.377253
  28.066558, 1521.255278
  28.074237, 1521.134124
  28.081932, 1521.013008
  28.089663, 1520.891607
  28.097406, 1520.770325
  28.105171, 1520.648979
  28.112938, 1520.527895
  28.120735, 1520.406658
  28.128531, 1520.285721
  28.136326, 1520.165098
  28.144136, 1520.044546
  28.151925, 1519.924612
  28.159784, 1519.803912
  28.167622, 1519.683824
  28.175569, 1519.562386
  28.183441, 1519.442394
  28.191382, 1519.321668
  28.199340, 1519.200994
  28.207273, 1519.081012
  28.215249, 1518.960684
  28.223180, 1518.841357
  28.231122, 1518.722172
  28.239113, 1518.602568
  28.247170, 1518.482316
  28.255253, 1518.361975
  28.263391, 1518.241154
  28.271434, 1518.122079
  28.279550, 1518.002233
  28.287622, 1517.883373
  28.295736, 1517.764228
  28.303870, 1517.645104
  28.312021, 1517.526078
  28.320222, 1517.406650
  28.328370, 1517.288328
  28.336554, 1517.169831
  28.344821, 1517.050465
  28.353071, 1516.931685
  28.361355, 1516.812762
  28.369599, 1516.694761
  28.377906, 1516.576195
  28.386232, 1516.457723
  28.394603, 1516.338953
  28.402921, 1516.221295
  28.411280, 1516.103401
  28.419658, 1515.985599
  28.428038, 1515.868129
  28.436504, 1515.749802
  28.444934, 1515.632352
  28.453373, 1515.515148
  28.461835, 1515.397973
  28.470275, 1515.281469
  28.478752, 1515.164828
  28.487301, 1515.047559
  28.495795, 1514.931421
  28.504307, 1514.815400
  28.512901, 1514.698636
  28.521514, 1514.582009
  28.530179, 1514.465045
  28.538803, 1514.349031
  28.547455, 1514.233014
  28.556044, 1514.118225
  28.564723, 1514.002620
  28.573393, 1513.887521
  28.582098, 1513.772358
  28.590775, 1513.657945
  28.599565, 1513.542431
  28.608284, 1513.428259
  28.617053, 1513.313822
  28.625840, 1513.199548
  28.634593, 1513.086124
  28.643411, 1512.972246
  28.652272, 1512.858226
  28.661153, 1512.744352
  28.670041, 1512.630812
  28.678937, 1512.517565
  28.687775, 1512.405476
  28.696662, 1512.293174
  28.705632, 1512.180236
  28.714550, 1512.068372
  28.723519, 1511.956289
  28.732440, 1511.845227
  28.741409, 1511.733976
  28.750423, 1511.622599
  28.759467, 1511.511286
  28.768583, 1511.399501
  28.777680, 1511.288402
  28.786659, 1511.179163
  28.795755, 1511.068937
  28.804835, 1510.959331
  28.813982, 1510.849355
  28.823182, 1510.739191
  28.832294, 1510.630529
  28.841460, 1510.521648
  28.850676, 1510.412632
  28.859880, 1510.304204
  28.869210, 1510.194745
  28.878449, 1510.086806
  28.887687, 1509.979334
  28.897017, 1509.871260
  28.906286, 1509.764342
  28.915582, 1509.657568
  28.924813, 1509.551998
  28.934099, 1509.446248
  28.943392, 1509.340883
  28.952726, 1509.235512
  28.962125, 1509.129883
  28.971474, 1509.025286
  28.980899, 1508.920293
  28.990202, 1508.817137
  28.999548, 1508.713972
  29.009085, 1508.609175
  29.018549, 1508.505657
  29.027989, 1508.402885
  29.037560, 1508.299179
  29.047047, 1508.196856
  29.056604, 1508.094272
  29.066213, 1507.991622
  29.075783, 1507.889877
  29.085283, 1507.789364
  29.094978, 1507.687293
  29.104563, 1507.586872
  29.114101, 1507.487437
  29.123685, 1507.388016
  29.133347, 1507.288286
  29.142962, 1507.189551
  29.152587, 1507.091199
  29.162212, 1506.993354
  29.171903, 1506.895334
  29.181508, 1506.798696
  29.191230, 1506.701385
  29.200944, 1506.604658
  29.210686, 1506.508177
  29.220389, 1506.412585
  29.230192, 1506.316526
  29.239881, 1506.222094
  29.249636, 1506.127543
  29.259402, 1506.033396
  29.269160, 1505.939840
  29.279021, 1505.845832
  29.288938, 1505.751818
  29.298816, 1505.658701
  29.308749, 1505.565610
  29.318584, 1505.473962
  29.328538, 1505.381743
  29.338435, 1505.290584
  29.348336, 1505.199923
  29.358304, 1505.109196
  29.368231, 1505.019377
  29.378164, 1504.930041
  29.388126, 1504.840983
  29.398015, 1504.753123
  29.407997, 1504.664972
  29.417965, 1504.577491
  29.427913, 1504.490729
  29.437997, 1504.403337
  29.448066, 1504.316622
  29.458107, 1504.230712
  29.468246, 1504.144519
  29.478254, 1504.059989
  29.488348, 1503.975293
  29.498445, 1503.891132
  29.508611, 1503.806970
  29.518706, 1503.723946
  29.528818, 1503.641352
  29.538949, 1503.559163
  29.549118, 1503.477232
  29.559397, 1503.395003
  29.569669, 1503.313399
  29.579828, 1503.233270
  29.589965, 1503.153882
  29.600053, 1503.075448
  29.610233, 1502.996854
  29.620422, 1502.918771
  29.630651, 1502.840958
  29.640805, 1502.764286
  29.650985, 1502.687991
  29.661433, 1502.610284
  29.671687, 1502.534600
  29.681950, 1502.459437
  29.692180, 1502.385094
  29.702307, 1502.312077
  29.712630, 1502.238221
  29.722980, 1502.164771
  29.733242, 1502.092525
  29.743500, 1502.020896
  29.753730, 1501.950042
  29.764032, 1501.879280
  29.774359, 1501.808930
  29.784667, 1501.739307
  29.795017, 1501.669990
  29.805401, 1501.601043
  29.815775, 1501.532754
  29.826172, 1501.464920
  29.836553, 1501.397793
  29.847139, 1501.329951
  29.857585, 1501.263624
  29.867989, 1501.198158
  29.878448, 1501.132961
  29.888887, 1501.068490
  29.899359, 1501.004427
  29.909832, 1500.940965
  29.920247, 1500.878468
  29.930717, 1500.816245
  29.941221, 1500.754431
  29.951757, 1500.693048
  29.962330, 1500.632072
  29.972939, 1500.571516
  29.983510, 1500.511796
  29.994067, 1500.452782
  30.004620, 1500.394412
  30.015140, 1500.336839
  30.025646, 1500.279958
  30.036298, 1500.222922
  30.046869, 1500.166939
  30.057501, 1500.111266
  30.068141, 1500.056181
  30.078752, 1500.001879
  30.089423, 1499.947897
  30.100033, 1499.894859
  30.110612, 1499.842603
  30.121151, 1499.791166
  30.131828, 1499.739684
  30.142474, 1499.688992
  30.153179, 1499.638654
  30.163889, 1499.588930
  30.174544, 1499.540102
  30.185261, 1499.491631
  30.195962, 1499.443873
  30.206630, 1499.396895
  30.217331, 1499.350415
  30.227972, 1499.304830
  30.238721, 1499.259424
  30.249493, 1499.214568
  30.260295, 1499.170241
  30.271111, 1499.126511
  30.281862, 1499.083692
  30.292666, 1499.041311
  30.303465, 1498.999601
  30.310498, 1498.972791
