Time, Vertical Forces
   0.000100, 48403.450380
   0.000563, 48403.450380
   0.002175, 48403.450380
   0.007627, 48403.450380
   0.018279, 48403.450380
   0.043028, 48403.450380
   0.074761, 48403.450380
   0.106589, 48403.450380
   0.138419, 48403.450380
   0.170367, 48403.450380
   0.202449, 48403.450380
   0.234606, 48403.450380
   0.266795, 48403.450380
   0.298936, 48403.450380
   0.331344, 48403.450380
   0.364128, 48403.450380
   0.396992, 48403.450380
   0.430231, 48403.450380
   0.463468, 48403.450380
   0.497017, 48403.450380
   0.530749, 48403.450380
   0.564722, 48403.450380
   0.598971, 48403.450380
   0.633962, 48403.450380
   0.668628, 48403.450380
   0.703295, 48403.450380
   0.738638, 48403.450380
   0.773839, 48403.450380
   0.809514, 48403.450380
   0.845820, 48403.450380
   0.882477, 48403.450380
   0.919539, 48403.450380
   0.956759, 48403.450380
   0.994074, 48403.450380
   1.031360, 48403.450380
   1.069143, 48403.450380
   1.107675, 48403.450380
   1.146076, 48403.450380
   1.184756, 48403.450380
   1.224656, 48403.450380
   1.264031, 48403.450380
   1.304592, 48403.450380
   1.345193, 48403.450380
   1.385681, 48403.450380
   1.427201, 48403.450380
   1.468964, 48403.450380
   1.511334, 48403.450380
   1.553785, 48403.450380
   1.596117, 48403.450380
   1.639305, 48403.450380
   1.682639, 48403.450380
   1.726109, 48403.450380
   1.769876, 48403.450380
   1.813591, 48403.450380
   1.857923, 48403.450380
   1.902586, 48403.450380
   1.948056, 48403.450380
   1.993212, 48403.450380
   2.039212, 48403.450380
   2.086002, 48403.450380
   2.132129, 48403.450380
   2.179480, 48403.450380
   2.226599, 48403.450380
   2.274107, 48403.450380
   2.322608, 48403.450380
   2.370983, 48403.450380
   2.419662, 48403.450380
   2.468385, 48403.450380
   2.517680, 48403.450380
   2.567397, 48403.450380
   2.617949, 48403.450380
   2.668443, 48403.450380
   2.719108, 48403.450380
   2.770340, 48403.450380
   2.821979, 48403.450380
   2.873739, 48403.450380
   2.925653, 48403.450380
   2.978478, 48403.450380
   3.031016, 48403.450380
   3.084059, 48403.450380
   3.137460, 48403.450380
   3.190999, 48403.450380
   3.244725, 48403.450380
   3.299622, 48403.450380
   3.353968, 48403.450380
   3.408985, 48403.450380
   3.464851, 48403.450380
   3.520715, 48403.450380
   3.577044, 48403.450380
   3.633149, 48403.450380
   3.690624, 48403.450380
   3.747547, 48403.450380
   3.804784, 48403.450380
   3.862238, 48403.450380
   3.919593, 48403.450380
   3.977980, 48403.450380
   4.036509, 48403.450380
   4.095383, 48403.450380
   4.154362, 48403.450380
   4.213627, 48403.450380
   4.225591, 48403.450380
   4.231550, 48403.450380
   4.235140, 48403.450380
   4.237473, 48403.450380
   4.245497, 48403.450380
   4.245545, 48403.450380
   4.245624, 48403.450380
   4.245657, 48403.450380
   4.245667, 48403.450380
   4.245672, 48403.450380
   4.245676, 48403.450380
   4.245722, 48403.450380
   4.246108, 48403.450380
   4.248483, 48403.450380
   4.257281, 48403.450380
   4.283310, 48403.450380
   4.334905, 48403.450380
   4.388402, 48403.450380
   4.442624, 48403.450380
   4.496760, 48403.450380
   4.551242, 48403.450380
   4.605903, 48403.450380
   4.660765, 48403.450380
   4.715778, 48403.450380
   4.771417, 48403.450380
   4.827290, 48403.450380
   4.883905, 48403.450380
   4.940491, 48403.450380
   4.997232, 48403.450380
   5.054250, 48403.450380
   5.111466, 48403.450380
   5.168656, 48403.450380
   5.226433, 48403.450380
   5.284476, 48403.450380
   5.342147, 48403.450380
   5.400677, 48403.450380
   5.458925, 48403.450380
   5.517536, 48403.450380
   5.576156, 48403.450380
   5.635518, 48403.450380
   5.694961, 48403.450380
   5.754496, 48403.450380
   5.814341, 48403.450380
   5.874378, 48403.450380
   5.934336, 48403.450380
   5.994787, 48403.450380
   6.055382, 48403.450380
   6.116305, 48403.450380
   6.177577, 48403.450380
   6.238877, 48403.450380
   6.300784, 48403.450380
   6.363159, 48403.450380
   6.425250, 48403.450380
   6.487380, 48403.450380
   6.550281, 48403.450380
   6.613184, 48403.450380
   6.676534, 48403.450380
   6.740024, 48403.450380
   6.803165, 48403.450380
   6.867067, 48403.450380
   6.930834, 48403.450380
   6.995340, 48403.450380
   7.059616, 48403.450380
   7.124514, 48403.450380
   7.189303, 48403.450380
   7.254312, 48403.450380
   7.319620, 48403.450380
   7.385219, 48403.450380
   7.451111, 48403.450380
   7.516637, 48403.450380
   7.582852, 48403.450380
   7.648821, 48403.450380
   7.715137, 48403.450380
   7.781862, 48403.450380
   7.848710, 48403.450380
   7.915549, 48403.450380
   7.983113, 48403.450380
   8.051030, 48403.450380
   8.118940, 48403.450380
   8.186825, 48403.450380
   8.254714, 48403.450380
   8.323430, 48403.450380
   8.392405, 48403.450380
   8.461157, 48403.450380
   8.530125, 48403.450380
   8.599211, 48403.450380
   8.668705, 48403.450380
   8.682592, 48403.450380
   8.690805, 48403.450380
   8.695537, 48403.450380
   8.699890, 48403.450380
   8.703292, 48403.450380
   8.706068, 48403.450380
   8.708076, 48403.450380
   8.710027, 48403.450380
   8.712253, 48403.450380
   8.712656, 48403.450380
   8.712758, 48403.450380
   8.712782, 48403.450380
   8.712795, 48403.450380
   8.712801, 48403.450380
   8.712808, 48403.450380
   8.712876, 48403.450380
   8.713557, 48403.450380
   8.718392, 48403.450380
   8.735729, 48403.450380
   8.795400, 48403.450380
   8.857640, 48403.450380
   8.919888, 48403.450380
   8.982560, 48403.450380
   9.045127, 48403.450380
   9.107881, 48403.450380
   9.170470, 48403.450380
   9.233838, 48403.450380
   9.297198, 48403.450380
   9.360602, 48403.450380
   9.423968, 48403.450380
   9.487829, 48403.450380
   9.551605, 48403.450380
   9.615567, 48403.450380
   9.679952, 48403.450380
   9.744304, 48403.450380
   9.808842, 48403.450380
   9.873501, 48403.450380
   9.938148, 48403.450380
  10.003079, 48403.450380
  10.068440, 48403.450380
  10.134092, 48403.450380
  10.199508, 48403.450380
  10.265284, 48403.450380
  10.331199, 48403.450380
  10.397235, 48403.450380
  10.463330, 48403.450380
  10.529581, 48403.450380
  10.596195, 48403.450380
  10.662914, 48403.450380
  10.729970, 48403.450380
  10.796962, 48403.450380
  10.863952, 48403.450380
  10.931306, 48403.450380
  10.999026, 48403.450380
  11.066634, 48403.450380
  11.134651, 48403.450380
  11.202549, 48403.450380
  11.270743, 48403.450380
  11.339155, 48403.450380
  11.407555, 48403.450380
  11.476041, 48403.450380
  11.544498, 48403.450380
  11.613515, 48403.450380
  11.682422, 48403.450380
  11.751561, 48403.450380
  11.820758, 48403.450380
  11.890236, 48403.450380
  11.959728, 48403.450380
  12.029462, 48403.450380
  12.099594, 48403.450380
  12.169840, 48403.450380
  12.240267, 48403.450380
  12.310696, 48403.450380
  12.381483, 48403.450380
  12.452094, 48403.450380
  12.523047, 48403.450380
  12.594051, 48403.450380
  12.665311, 48403.450380
  12.736830, 48403.450380
  12.808262, 48403.450380
  12.880237, 48403.450380
  12.952100, 48403.450380
  13.024065, 48403.450380
  13.096364, 48403.450380
  13.168726, 48403.450380
  13.241291, 48403.450380
  13.314175, 48403.450380
  13.386964, 48403.450380
  13.459845, 48403.450380
  13.474426, 48403.450380
  13.484159, 48403.450380
  13.514687, 48403.450380
  13.515287, 48403.450380
  13.515438, 48403.450380
  13.515681, 48403.450380
  13.515714, 48403.450380
  13.515732, 48403.450380
  13.515744, 48403.450380
  13.515755, 48403.450380
  13.515862, 48403.450380
  13.516805, 48403.450380
  13.521939, 48403.450380
  13.547688, 48403.450380
  13.611193, 48403.450380
  13.675096, 48403.450380
  13.739150, 48403.450380
  13.803268, 48403.450380
  13.867434, 48403.450380
  13.931586, 48403.450380
  13.995945, 48403.450380
  14.060451, 48403.450380
  14.125034, 48403.450380
  14.189756, 48403.450380
  14.254703, 48403.450380
  14.319783, 48403.450380
  14.385118, 48403.450380
  14.450605, 48403.450380
  14.515866, 48403.450380
  14.581550, 48403.450380
  14.647229, 48403.450380
  14.712979, 48403.450380
  14.779057, 48403.450380
  14.845199, 48403.450380
  14.911148, 48403.450380
  14.977270, 48403.450380
  15.043660, 48403.450380
  15.110304, 48403.450380
  15.177069, 48403.450380
  15.243949, 48403.450380
  15.310694, 48403.450380
  15.377691, 48403.450380
  15.444728, 48403.450380
  15.511905, 48403.450380
  15.579305, 48403.450380
  15.646876, 48403.450380
  15.714396, 48403.450380
  15.782218, 48403.450380
  15.849993, 48403.450380
  15.918091, 48403.450380
  15.986306, 48403.450380
  16.054407, 48403.450380
  16.122897, 48403.450380
  16.191331, 48403.450380
  16.259743, 48403.450380
  16.328243, 48403.450380
  16.396943, 48403.450380
  16.465782, 48403.450380
  16.534713, 48403.450380
  16.603872, 48403.450380
  16.673040, 48403.450380
  16.742434, 48403.450380
  16.811864, 48403.450380
  16.881573, 48403.450380
  16.951013, 48403.450380
  17.020725, 48403.450380
  17.090678, 48403.450380
  17.160676, 48403.450380
  17.230844, 48403.450380
  17.301083, 48403.450380
  17.371658, 48403.450380
  17.442018, 48403.450380
  17.512453, 48403.450380
  17.583229, 48403.450380
  17.654065, 48403.450380
  17.725022, 48403.450380
  17.796141, 48403.450380
  17.867328, 48403.450380
  17.938623, 48403.450380
  18.010105, 48403.450380
  18.081539, 48403.450380
  18.153278, 48403.450380
  18.225005, 48403.450380
  18.296936, 48403.450380
  18.369071, 48403.450380
  18.441217, 48403.450380
  18.513348, 48403.450380
  18.585732, 48403.450380
  18.658112, 48403.450380
  18.730787, 48403.450380
  18.803439, 48403.450380
  18.818024, 48403.450380
  18.828509, 48403.450380
  18.835714, 48403.450380
  18.842384, 48403.450380
  18.847961, 48403.450380
  18.848994, 48403.450380
  18.850175, 48403.450380
  18.850428, 48403.450380
  18.850678, 48403.450380
  18.850764, 48403.450380
  18.850797, 48403.450380
  18.850834, 48403.450380
  18.851200, 48403.450380
  18.854214, 48403.450380
  18.870526, 48403.450380
  18.931045, 48403.450380
  19.003471, 48403.450380
  19.076288, 48403.450380
  19.149273, 48403.450380
  19.222036, 48403.450380
  19.295059, 48403.450380
  19.368240, 48403.450380
  19.441642, 48403.450380
  19.515169, 48403.450380
  19.588577, 48403.450380
  19.662290, 48403.450380
  19.736163, 48403.450380
  19.809868, 48403.450380
  19.883680, 48403.450380
  19.957723, 48403.450380
  20.031827, 48403.450380
  20.106083, 48403.450380
  20.180476, 48403.450380
  20.255005, 48403.450380
  20.329509, 48403.450380
  20.404272, 48403.450380
  20.479145, 48403.450380
  20.553977, 48403.450380
  20.629021, 48403.450380
  20.704187, 48403.450380
  20.779423, 48403.450380
  20.854826, 48403.450380
  20.930414, 48403.450380
  21.006016, 48403.450380
  21.081806, 48403.450380
  21.157722, 48403.450380
  21.233619, 48403.450380
  21.309695, 48403.450380
  21.386047, 48403.450380
  21.462366, 48403.450380
  21.538800, 48403.450380
  21.615264, 48403.450380
  21.691979, 48403.450380
  21.768675, 48403.450380
  21.845458, 48403.450380
  21.922394, 48403.450380
  21.999406, 48403.450380
  22.076471, 48403.450380
  22.153695, 48403.450380
  22.231298, 48403.450380
  22.308798, 48403.450380
  22.386316, 48403.450380
  22.463976, 48403.450380
  22.541717, 48403.450380
  22.619838, 48403.450380
  22.697774, 48403.450380
  22.775989, 48403.450380
  22.781275, 48403.450380
  22.854265, 48403.450380
  22.932592, 48403.450380
  23.011104, 48403.450380
  23.089671, 48403.450380
  23.168688, 48403.450380
  23.247757, 48403.450380
  23.326843, 48403.450380
  23.406168, 48403.450380
  23.485656, 48403.450380
  23.565108, 48403.450380
  23.644881, 48403.450380
  23.724674, 48403.450380
  23.804475, 48403.450380
  23.884552, 48403.450380
  23.964416, 48403.450380
  24.044396, 48403.450380
  24.124445, 48403.450380
  24.204831, 48403.450380
  24.285085, 48403.450380
  24.365304, 48403.450380
  24.445603, 48403.450380
  24.525884, 48403.450380
  24.606149, 48403.450380
  24.686475, 48403.450380
  24.766695, 48403.450380
  24.847055, 48403.450380
  24.927300, 48403.450380
  24.943382, 48403.450380
  24.958277, 48403.450380
  24.963806, 48403.450359
  24.969337, 48403.450294
  24.970443, 48403.450275
  24.973628, 48403.450210
  24.973679, 48403.450208
  24.973750, 48403.450207
  24.973766, 48403.450206
  24.973771, 48403.450206
  24.973778, 48403.450206
  24.973820, 48403.450205
  24.974038, 48403.450200
  24.974897, 48403.450178
  24.977207, 48403.450115
  24.980974, 48403.449989
  24.986493, 48403.449757
  24.992019, 48403.449461
  24.997548, 48403.449095
  25.003090, 48403.448654
  25.008635, 48403.448132
  25.014182, 48403.447525
  25.019730, 48403.446825
  25.025283, 48403.446027
  25.030813, 48403.445129
  25.036345, 48403.444121
  25.041897, 48403.442993
  25.047457, 48403.441741
  25.053026, 48403.440355
  25.058597, 48403.438831
  25.064166, 48403.437163
  25.069746, 48403.435340
  25.075327, 48403.433356
  25.080901, 48403.431207
  25.086489, 48403.428877
  25.092082, 48403.426362
  25.097680, 48403.423652
  25.103281, 48403.420739
  25.108870, 48403.417624
  25.114473, 48403.414284
  25.120060, 48403.410727
  25.125675, 48403.406916
  25.131298, 48403.402854
  25.136924, 48403.398534
  25.142520, 48403.393973
  25.148154, 48403.389107
  25.153785, 48403.383957
  25.159405, 48403.378524
  25.165050, 48403.372760
  25.170696, 48403.366678
  25.176341, 48403.360269
  25.181995, 48403.353511
  25.187659, 48403.346391
  25.193326, 48403.338904
  25.198983, 48403.331056
  25.204650, 48403.322811
  25.210316, 48403.314170
  25.215973, 48403.305133
  25.221629, 48403.295683
  25.227325, 48403.285728
  25.233016, 48403.275335
  25.238720, 48403.264455
  25.244430, 48403.253088
  25.250120, 48403.241274
  25.255841, 48403.228892
  25.261560, 48403.215999
  25.267275, 48403.202582
  25.273010, 48403.188575
  25.278715, 48403.174083
  25.284435, 48403.158980
  25.290182, 48403.143219
  25.295934, 48403.126837
  25.301692, 48403.109816
  25.307422, 48403.092245
  25.313186, 48403.073915
  25.318964, 48403.054873
  25.324750, 48403.035115
  25.330546, 48403.014616
  25.336291, 48402.993581
  25.342090, 48402.971615
  25.347866, 48402.948982
  25.353671, 48402.925465
  25.359455, 48402.901245
  25.365279, 48402.876053
  25.371067, 48402.850190
  25.376885, 48402.823352
  25.382716, 48402.795585
  25.388553, 48402.766908
  25.394399, 48402.737279
  25.400261, 48402.706646
  25.406122, 48402.675066
  25.411970, 48402.642597
  25.417819, 48402.609141
  25.423710, 48402.574435
  25.429565, 48402.538915
  25.435456, 48402.502129
  25.441369, 48402.464132
  25.447279, 48402.425051
  25.453170, 48402.384985
  25.459077, 48402.343671
  25.464970, 48402.301304
  25.470897, 48402.257508
  25.476849, 48402.212313
  25.482770, 48402.166124
  25.488709, 48402.118541
  25.494590, 48402.070162
  25.500568, 48402.019681
  25.506503, 48401.968243
  25.512493, 48401.915281
  25.518476, 48401.861316
  25.524453, 48401.806353
  25.530448, 48401.750145
  25.536448, 48401.692823
  25.542450, 48401.634380
  25.548477, 48401.574591
  25.554526, 48401.513477
  25.560561, 48401.451374
  25.566593, 48401.388175
  25.572620, 48401.323909
  25.578660, 48401.258344
  25.584707, 48401.191562
  25.590790, 48401.123219
  25.596847, 48401.053980
  25.602949, 48400.983051
  25.609055, 48400.910877
  25.615151, 48400.837604
  25.621250, 48400.763083
  25.627341, 48400.687443
  25.633459, 48400.610239
  25.639585, 48400.531696
  25.645685, 48400.452230
  25.651819, 48400.371072
  25.657961, 48400.288528
  25.664089, 48400.204899
  25.670235, 48400.119736
  25.676382, 48400.033267
  25.682550, 48399.945195
  25.688725, 48399.855691
  25.694919, 48399.764592
  25.701099, 48399.672347
  25.707301, 48399.578417
  25.713498, 48399.483202
  25.719700, 48399.386559
  25.725937, 48399.287962
  25.732174, 48399.187966
  25.738405, 48399.086662
  25.744639, 48398.983900
  25.750865, 48398.879849
  25.757121, 48398.773850
  25.763345, 48398.666966
  25.769601, 48398.558078
  25.775877, 48398.447380
  25.782156, 48398.335143
  25.788488, 48398.220449
  25.794811, 48398.104416
  25.801123, 48397.987049
  25.807440, 48397.868070
  25.813764, 48397.747396
  25.820097, 48397.625030
  25.826475, 48397.500199
  25.832851, 48397.373804
  25.839212, 48397.246143
  25.845585, 48397.116621
  25.851949, 48396.985672
  25.858343, 48396.852480
  25.864735, 48396.717676
  25.871180, 48396.580104
  25.877627, 48396.440812
  25.884071, 48396.299878
  25.890498, 48396.157641
  25.896967, 48396.012745
  25.903447, 48395.865874
  25.909904, 48395.717786
  25.916359, 48395.568022
  25.922849, 48395.415661
  25.929391, 48395.260309
  25.935916, 48395.103534
  25.942437, 48394.945067
  25.948969, 48394.784508
  25.955533, 48394.621309
  25.962098, 48394.456225
  25.968667, 48394.289173
  25.975235, 48394.120259
  25.981782, 48393.950026
  25.988389, 48393.776320
  25.995015, 48393.600161
  26.001665, 48393.421426
  26.006503, 48393.290154
  26.008277, 48393.241761
  26.014923, 48393.059175
  26.021592, 48392.873982
  26.028254, 48392.686975
  26.034933, 48392.497455
  26.041614, 48392.305842
  26.048295, 48392.112189
  26.054948, 48391.917337
  26.061665, 48391.718486
  26.068346, 48391.518654
  26.075082, 48391.315059
  26.081831, 48391.108947
  26.088590, 48390.900385
  26.095335, 48390.690086
  26.102072, 48390.477875
  26.108800, 48390.263808
  26.115596, 48390.045359
  26.122392, 48389.824707
  26.129204, 48389.601299
  26.136029, 48389.375200
  26.142882, 48389.145885
  26.149722, 48388.914703
  26.156570, 48388.680959
  26.163419, 48388.444843
  26.170273, 48388.206246
  26.177139, 48387.964868
  26.184026, 48387.720417
  26.190935, 48387.472765
  26.197866, 48387.221927
  26.204818, 48386.967840
  26.211791, 48386.710575
  26.218749, 48386.451344
  26.225710, 48386.189542
  26.232725, 48385.923162
  26.239715, 48385.655190
  26.246750, 48385.382966
  26.253776, 48385.108500
  26.260792, 48384.831821
  26.267878, 48384.549795
  26.274956, 48384.265429
  26.282031, 48383.978500
  26.289122, 48383.688270
  26.296206, 48383.395618
  26.303329, 48383.098649
  26.310437, 48382.799615
  26.317615, 48382.494834
  26.324795, 48382.187143
  26.331937, 48381.878348
  26.339136, 48381.564195
  26.346285, 48381.249420
  26.353487, 48380.929508
  26.360674, 48380.607329
  26.367879, 48380.281476
  26.375088, 48379.952563
  26.382363, 48379.617656
  26.389652, 48379.279148
  26.396942, 48378.937569
  26.404243, 48378.592473
  26.411548, 48378.244087
  26.418861, 48377.892331
  26.426248, 48377.533871
  26.433621, 48377.172905
  26.440985, 48376.809319
  26.448367, 48376.441650
  26.455759, 48376.070254
  26.463154, 48375.695571
  26.470614, 48375.314295
  26.478027, 48374.932168
  26.485477, 48374.544865
  26.492874, 48374.157087
  26.500353, 48373.761641
  26.507857, 48373.361534
  26.515318, 48372.960368
  26.522833, 48372.552871
  26.530395, 48372.139412
  26.537931, 48371.723906
  26.545512, 48371.302415
  26.553075, 48370.878414
  26.560615, 48370.452202
  26.568226, 48370.018443
  26.575857, 48369.579890
  26.583504, 48369.136832
  26.591158, 48368.689695
  26.598834, 48368.237598
  26.606517, 48367.781416
  26.614183, 48367.322495
  26.621886, 48366.857619
  26.629611, 48366.387628
  26.637341, 48365.913521
  26.645092, 48365.434301
  26.652843, 48364.951172
  26.660628, 48364.462103
  26.668446, 48363.966974
  26.676289, 48363.466306
  26.684116, 48362.962649
  26.691922, 48362.456336
  26.699805, 48361.941034
  26.707679, 48361.422164
  26.715604, 48360.895881
  26.723495, 48360.367657
  26.731452, 48359.830817
  26.739378, 48359.291915
  26.747321, 48358.747637
  26.755316, 48358.195513
  26.763287, 48357.640758
  26.771283, 48357.079917
  26.779297, 48356.513463
  26.787288, 48355.944331
  26.795345, 48355.365989
  26.803403, 48354.783238
  26.811502, 48354.192942
  26.819560, 48353.601159
  26.827633, 48353.003799
  26.835749, 48352.398695
  26.843893, 48351.786829
  26.852015, 48351.172050
  26.860154, 48350.551320
  26.868348, 48349.921705
  26.876520, 48349.289064
  26.884724, 48348.649126
  26.892972, 48348.000980
  26.901181, 48347.351081
  26.909478, 48346.689340
  26.917707, 48346.028143
  26.926005, 48345.356448
  26.934340, 48344.676734
  26.942654, 48343.993689
  26.950998, 48343.303180
  26.959284, 48342.612468
  26.967656, 48341.909518
  26.975997, 48341.203986
  26.984426, 48340.485816
  26.992852, 48339.762654
  27.001310, 48339.031511
  27.009727, 48338.298562
  27.018162, 48337.558839
  27.026603, 48336.813238
  27.035088, 48336.058393
  27.043563, 48335.298968
  27.052080, 48334.530323
  27.060581, 48333.757734
  27.069078, 48332.979941
  27.077600, 48332.194427
  27.086191, 48331.396907
  27.094742, 48330.597484
  27.103367, 48329.785465
  27.111930, 48328.973588
  27.120514, 48328.154090
  27.129235, 48327.315591
  27.137848, 48326.481726
  27.146549, 48325.633520
  27.155177, 48324.786560
  27.163902, 48323.924118
  27.172637, 48323.054715
  27.181390, 48322.177472
  27.190155, 48321.293022
  27.198901, 48320.404395
  27.207731, 48319.501018
  27.216571, 48318.590495
  27.225358, 48317.679196
  27.234210, 48316.754840
  27.243098, 48315.820476
  27.251911, 48314.887711
  27.260819, 48313.938407
  27.269756, 48312.979660
  27.278648, 48312.019239
  27.287564, 48311.049878
  27.296494, 48310.072408
  27.305481, 48309.082053
  27.314430, 48308.089354
  27.323421, 48307.085387
  27.332486, 48306.066427
  27.341551, 48305.040556
  27.350565, 48304.013807
  27.359573, 48302.980832
  27.368695, 48301.928016
  27.377764, 48300.874383
  27.386823, 48299.815093
  27.395943, 48298.741708
  27.405158, 48297.649856
  27.414228, 48296.568323
  27.423413, 48295.465992
  27.432576, 48294.359074
  27.441762, 48293.242241
  27.450977, 48292.114699
  27.460195, 48290.979467
  27.469485, 48289.827979
  27.478729, 48288.674884
  27.488004, 48287.510517
  27.497328, 48286.332439
  27.506695, 48285.141445
  27.515993, 48283.951630
  27.525303, 48282.752742
  27.534606, 48281.547262
  27.543996, 48280.322820
  27.553278, 48279.104843
  27.562753, 48277.853730
  27.572186, 48276.600366
  27.581532, 48275.350767
  27.590965, 48274.081690
  27.600435, 48272.799733
  27.609872, 48271.514304
  27.619349, 48270.215487
  27.628694, 48268.926910
  27.638105, 48267.621297
  27.647565, 48266.300812
  27.657105, 48264.961124
  27.666633, 48263.614960
  27.676212, 48262.253337
  27.685832, 48260.877453
  27.695400, 48259.500820
  27.704920, 48258.122725
  27.714451, 48256.734883
  27.724032, 48255.331240
  27.733619, 48253.918523
  27.743324, 48252.479731
  27.752970, 48251.041155
  27.762610, 48249.594810
  27.772286, 48248.134613
  27.782008, 48246.658735
  27.791758, 48245.169838
  27.801448, 48243.681310
  27.811173, 48242.178579
  27.820906, 48240.666033
  27.830604, 48239.149889
  27.840231, 48237.636306
  27.849979, 48236.094812
  27.859813, 48234.530692
  27.869515, 48232.978753
  27.879334, 48231.399008
  27.889180, 48229.805747
  27.899027, 48228.203097
  27.908879, 48226.590534
  27.918720, 48224.970707
  27.928512, 48223.349707
  27.938422, 48221.699791
  27.948180, 48220.066131
  27.958150, 48218.387571
  27.967957, 48216.727183
  27.977892, 48215.035728
  27.987757, 48213.346872
  27.997642, 48211.645058
  28.007532, 48209.933034
  28.017459, 48208.205108
  28.027435, 48206.459091
  28.037411, 48204.703536
  28.047290, 48202.955301
  28.057309, 48201.172735
  28.067381, 48199.370923
  28.077390, 48197.570668
  28.087479, 48195.745991
  28.097518, 48193.920606
  28.107611, 48192.075339
  28.117705, 48190.219816
  28.127713, 48188.370525
  28.137753, 48186.505097
  28.147813, 48184.626134
  28.157759, 48182.758703
  28.167934, 48180.838140
  28.178073, 48178.914236
  28.188128, 48176.996101
  28.198201, 48175.064436
  28.208409, 48173.096667
  28.218600, 48171.121921
  28.228826, 48169.129981
  28.238957, 48167.146151
  28.249085, 48165.152782
  28.259278, 48163.136239
  28.269521, 48161.099240
  28.279716, 48159.061434
  28.290024, 48156.990323
  28.300347, 48154.905550
  28.310610, 48152.822308
  28.320958, 48150.710996
  28.331278, 48148.594611
  28.341431, 48146.501955
  28.351677, 48144.379718
  28.361961, 48142.238771
  28.372305, 48140.074595
  28.382583, 48137.913541
  28.392910, 48135.731283
  28.403171, 48133.552286
  28.413521, 48131.343331
  28.423829, 48129.132688
  28.434333, 48126.868919
  28.444671, 48124.629828
  28.455023, 48122.376581
  28.465499, 48120.085327
  28.475937, 48117.791297
  28.486289, 48115.504977
  28.496710, 48113.192444
  28.507080, 48110.880032
  28.517450, 48108.556629
  28.527905, 48106.202972
  28.538217, 48103.870406
  28.548738, 48101.479378
  28.559140, 48099.104083
  28.569678, 48096.686486
  28.579450, 48094.434232
