Time, Vertical Forces
   0.000100, 48403.450380
   0.000632, 48403.450380
   0.002658, 48403.450380
   0.010813, 48403.450380
   0.025337, 48403.450380
   0.052438, 48403.450380
   0.080756, 48403.450380
   0.109151, 48403.450380
   0.137475, 48403.450380
   0.165924, 48403.450380
   0.194561, 48403.450380
   0.223268, 48403.450380
   0.251881, 48403.450380
   0.280809, 48403.450380
   0.309715, 48403.450380
   0.338699, 48403.450380
   0.368081, 48403.450380
   0.397342, 48403.450380
   0.426895, 48403.450380
   0.456628, 48403.450380
   0.486143, 48403.450380
   0.515893, 48403.450380
   0.546240, 48403.450380
   0.576696, 48403.450380
   0.607149, 48403.450380
   0.637996, 48403.450380
   0.668871, 48403.450380
   0.700113, 48403.450380
   0.731322, 48403.450380
   0.763022, 48403.450380
   0.794720, 48403.450380
   0.826546, 48403.450380
   0.858859, 48403.450380
   0.891226, 48403.450380
   0.923987, 48403.450380
   0.957066, 48403.450380
   0.990520, 48403.450380
   1.023672, 48403.450380
   1.056808, 48403.450380
   1.090362, 48403.450380
   1.124297, 48403.450380
   1.158939, 48403.450380
   1.193709, 48403.450380
   1.228613, 48403.450380
   1.263827, 48403.450380
   1.299374, 48403.450380
   1.335333, 48403.450380
   1.371267, 48403.450380
   1.407707, 48403.450380
   1.444142, 48403.450380
   1.480707, 48403.450380
   1.518105, 48403.450380
   1.555786, 48403.450380
   1.593149, 48403.450380
   1.630917, 48403.450380
   1.668815, 48403.450380
   1.707771, 48403.450380
   1.746453, 48403.450380
   1.785409, 48403.450380
   1.824306, 48403.450380
   1.863714, 48403.450380
   1.903442, 48403.450380
   1.943357, 48403.450380
   1.983599, 48403.450380
   2.023895, 48403.450380
   2.064363, 48403.450380
   2.105067, 48403.450380
   2.146850, 48403.450380
   2.188147, 48403.450380
   2.229894, 48403.450380
   2.271762, 48403.450380
   2.313916, 48403.450380
   2.356660, 48403.450380
   2.399529, 48403.450380
   2.442515, 48403.450380
   2.486167, 48403.450380
   2.529532, 48403.450380
   2.573081, 48403.450380
   2.617413, 48403.450380
   2.661707, 48403.450380
   2.706131, 48403.450380
   2.751359, 48403.450380
   2.796088, 48403.450380
   2.841126, 48403.450380
   2.886382, 48403.450380
   2.931919, 48403.450380
   2.978012, 48403.450380
   3.023810, 48403.450380
   3.069837, 48403.450380
   3.117171, 48403.450380
   3.164173, 48403.450380
   3.211172, 48403.450380
   3.258823, 48403.450380
   3.306476, 48403.450380
   3.354392, 48403.450380
   3.402537, 48403.450380
   3.451201, 48403.450380
   3.499963, 48403.450380
   3.548561, 48403.450380
   3.597683, 48403.450380
   3.646529, 48403.450380
   3.695882, 48403.450380
   3.745358, 48403.450380
   3.795275, 48403.450380
   3.845122, 48403.450380
   3.895289, 48403.450380
   3.946060, 48403.450380
   3.997251, 48403.450380
   4.048293, 48403.450380
   4.099339, 48403.450380
   4.150836, 48403.450380
   4.203207, 48403.450380
   4.213623, 48403.450380
   4.222181, 48403.450380
   4.248275, 48403.450380
   4.248673, 48403.450380
   4.249019, 48403.450380
   4.249095, 48403.450380
   4.249133, 48403.450380
   4.249201, 48403.450380
   4.249210, 48403.450380
   4.249215, 48403.450380
   4.249219, 48403.450380
   4.249267, 48403.450380
   4.249690, 48403.450380
   4.252402, 48403.450380
   4.263208, 48403.450380
   4.296545, 48403.450380
   4.346130, 48403.450380
   4.394214, 48403.450380
   4.442159, 48403.450380
   4.490780, 48403.450380
   4.539116, 48403.450380
   4.588034, 48403.450380
   4.637220, 48403.450380
   4.686517, 48403.450380
   4.736073, 48403.450380
   4.785890, 48403.450380
   4.835599, 48403.450380
   4.885333, 48403.450380
   4.935507, 48403.450380
   4.985866, 48403.450380
   5.036514, 48403.450380
   5.087323, 48403.450380
   5.138593, 48403.450380
   5.189482, 48403.450380
   5.240800, 48403.450380
   5.292242, 48403.450380
   5.343674, 48403.450380
   5.395388, 48403.450380
   5.447523, 48403.450380
   5.499790, 48403.450380
   5.551821, 48403.450380
   5.604327, 48403.450380
   5.657122, 48403.450380
   5.709862, 48403.450380
   5.762575, 48403.450380
   5.815843, 48403.450380
   5.869189, 48403.450380
   5.922726, 48403.450380
   5.976250, 48403.450380
   6.030013, 48403.450380
   6.083682, 48403.450380
   6.137844, 48403.450380
   6.192220, 48403.450380
   6.246317, 48403.450380
   6.300580, 48403.450380
   6.355191, 48403.450380
   6.410002, 48403.450380
   6.465018, 48403.450380
   6.520351, 48403.450380
   6.575494, 48403.450380
   6.631043, 48403.450380
   6.686863, 48403.450380
   6.742963, 48403.450380
   6.799092, 48403.450380
   6.855475, 48403.450380
   6.911870, 48403.450380
   6.968183, 48403.450380
   7.024938, 48403.450380
   7.081384, 48403.450380
   7.138307, 48403.450380
   7.195322, 48403.450380
   7.252454, 48403.450380
   7.309991, 48403.450380
   7.367677, 48403.450380
   7.425368, 48403.450380
   7.483269, 48403.450380
   7.541544, 48403.450380
   7.599963, 48403.450380
   7.658227, 48403.450380
   7.716613, 48403.450380
   7.775218, 48403.450380
   7.833858, 48403.450380
   7.892667, 48403.450380
   7.951721, 48403.450380
   8.011161, 48403.450380
   8.070831, 48403.450380
   8.130410, 48403.450380
   8.189876, 48403.450380
   8.249436, 48403.450380
   8.309561, 48403.450380
   8.369460, 48403.450380
   8.429665, 48403.450380
   8.490076, 48403.450380
   8.550362, 48403.450380
   8.611048, 48403.450380
   8.671989, 48403.450380
   8.733065, 48403.450380
   8.735514, 48403.450380
   8.737607, 48403.450380
   8.739641, 48403.450380
   8.742127, 48403.450380
   8.742682, 48403.450380
   8.743352, 48403.450380
   8.743493, 48403.450380
   8.743563, 48403.450380
   8.743701, 48403.450380
   8.743716, 48403.450380
   8.743725, 48403.450380
   8.743816, 48403.450380
   8.743929, 48403.450380
   8.745058, 48403.450380
   8.751410, 48403.450380
   8.773873, 48403.450380
   8.825941, 48403.450380
   8.881811, 48403.450380
   8.937860, 48403.450380
   8.993927, 48403.450380
   9.050154, 48403.450380
   9.106220, 48403.450380
   9.162728, 48403.450380
   9.219317, 48403.450380
   9.276054, 48403.450380
   9.332797, 48403.450380
   9.389730, 48403.450380
   9.446577, 48403.450380
   9.503703, 48403.450380
   9.560852, 48403.450380
   9.618324, 48403.450380
   9.675771, 48403.450380
   9.733194, 48403.450380
   9.790908, 48403.450380
   9.848630, 48403.450380
   9.906377, 48403.450380
   9.964418, 48403.450380
  10.022419, 48403.450380
  10.080549, 48403.450380
  10.139048, 48403.450380
  10.197540, 48403.450380
  10.256306, 48403.450380
  10.314900, 48403.450380
  10.373545, 48403.450380
  10.432610, 48403.450380
  10.491838, 48403.450380
  10.550919, 48403.450380
  10.610485, 48403.450380
  10.669931, 48403.450380
  10.729587, 48403.450380
  10.789269, 48403.450380
  10.848904, 48403.450380
  10.908531, 48403.450380
  10.968608, 48403.450380
  11.028690, 48403.450380
  11.088953, 48403.450380
  11.149277, 48403.450380
  11.209650, 48403.450380
  11.270424, 48403.450380
  11.331182, 48403.450380
  11.392066, 48403.450380
  11.452787, 48403.450380
  11.513669, 48403.450380
  11.574900, 48403.450380
  11.636200, 48403.450380
  11.697552, 48403.450380
  11.759047, 48403.450380
  11.820512, 48403.450380
  11.882249, 48403.450380
  11.943990, 48403.450380
  12.005911, 48403.450380
  12.067807, 48403.450380
  12.129737, 48403.450380
  12.191896, 48403.450380
  12.254202, 48403.450380
  12.316645, 48403.450380
  12.379231, 48403.450380
  12.441718, 48403.450380
  12.504194, 48403.450380
  12.567178, 48403.450380
  12.630040, 48403.450380
  12.693062, 48403.450380
  12.756189, 48403.450380
  12.819533, 48403.450380
  12.883028, 48403.450380
  12.946426, 48403.450380
  13.009801, 48403.450380
  13.073526, 48403.450380
  13.137278, 48403.450380
  13.201257, 48403.450380
  13.265230, 48403.450380
  13.329196, 48403.450380
  13.393376, 48403.450380
  13.457570, 48403.450380
  13.522034, 48403.450380
  13.586432, 48403.450380
  13.599392, 48403.450380
  13.608217, 48403.450380
  13.615227, 48403.450380
  13.620126, 48403.450380
  13.623802, 48403.450380
  13.627521, 48403.450380
  13.630650, 48403.450380
  13.631552, 48403.450380
  13.632899, 48403.450380
  13.633184, 48403.450380
  13.633296, 48403.450380
  13.633519, 48403.450380
  13.633534, 48403.450380
  13.633549, 48403.450380
  13.633692, 48403.450380
  13.634882, 48403.450380
  13.642222, 48403.450380
  13.681772, 48403.450380
  13.739743, 48403.450380
  13.797912, 48403.450380
  13.856017, 48403.450380
  13.914109, 48403.450380
  13.972329, 48403.450380
  14.030702, 48403.450380
  14.089048, 48403.450380
  14.147659, 48403.450380
  14.206281, 48403.450380
  14.264802, 48403.450380
  14.323447, 48403.450380
  14.382239, 48403.450380
  14.441245, 48403.450380
  14.500144, 48403.450380
  14.559290, 48403.450380
  14.618562, 48403.450380
  14.677885, 48403.450380
  14.737128, 48403.450380
  14.796642, 48403.450380
  14.856058, 48403.450380
  14.915644, 48403.450380
  14.975266, 48403.450380
  15.035017, 48403.450380
  15.094719, 48403.450380
  15.154784, 48403.450380
  15.214706, 48403.450380
  15.274816, 48403.450380
  15.335089, 48403.450380
  15.395270, 48403.450380
  15.455589, 48403.450380
  15.516108, 48403.450380
  15.576628, 48403.450380
  15.637224, 48403.450380
  15.697817, 48403.450380
  15.758578, 48403.450380
  15.819490, 48403.450380
  15.880458, 48403.450380
  15.941488, 48403.450380
  16.002586, 48403.450380
  16.063799, 48403.450380
  16.124990, 48403.450380
  16.186168, 48403.450380
  16.247844, 48403.450380
  16.309469, 48403.450380
  16.370863, 48403.450380
  16.432565, 48403.450380
  16.494322, 48403.450380
  16.556203, 48403.450380
  16.618024, 48403.450380
  16.680143, 48403.450380
  16.742204, 48403.450380
  16.804267, 48403.450380
  16.866480, 48403.450380
  16.929038, 48403.450380
  16.991566, 48403.450380
  17.054138, 48403.450380
  17.116678, 48403.450380
  17.179318, 48403.450380
  17.242122, 48403.450380
  17.304960, 48403.450380
  17.367945, 48403.450380
  17.431010, 48403.450380
  17.494262, 48403.450380
  17.557292, 48403.450380
  17.620391, 48403.450380
  17.683846, 48403.450380
  17.747425, 48403.450380
  17.810979, 48403.450380
  17.874352, 48403.450380
  17.938096, 48403.450380
  18.001987, 48403.450380
  18.065859, 48403.450380
  18.129744, 48403.450380
  18.193673, 48403.450380
  18.257823, 48403.450380
  18.321894, 48403.450380
  18.386184, 48403.450380
  18.450438, 48403.450380
  18.514793, 48403.450380
  18.579328, 48403.450380
  18.643987, 48403.450380
  18.708539, 48403.450380
  18.773222, 48403.450380
  18.838009, 48403.450380
  18.902914, 48403.450380
  18.967936, 48403.450380
  19.033104, 48403.450380
  19.098203, 48403.450380
  19.163320, 48403.450380
  19.176408, 48403.450380
  19.178533, 48403.450380
  19.180862, 48403.450380
  19.181386, 48403.450380
  19.181743, 48403.450380
  19.181922, 48403.450380
  19.182050, 48403.450380
  19.182125, 48403.450380
  19.182172, 48403.450380
  19.182215, 48403.450380
  19.182643, 48403.450380
  19.186108, 48403.450380
  19.207347, 48403.450380
  19.264769, 48403.450380
  19.330096, 48403.450380
  19.395185, 48403.450380
  19.460489, 48403.450380
  19.525808, 48403.450380
  19.591274, 48403.450380
  19.656838, 48403.450380
  19.722436, 48403.450380
  19.788088, 48403.450380
  19.853770, 48403.450380
  19.919587, 48403.450380
  19.985511, 48403.450380
  20.051414, 48403.450380
  20.117350, 48403.450380
  20.183326, 48403.450380
  20.249442, 48403.450380
  20.315737, 48403.450380
  20.381975, 48403.450380
  20.448427, 48403.450380
  20.514867, 48403.450380
  20.581477, 48403.450380
  20.648104, 48403.450380
  20.714923, 48403.450380
  20.781694, 48403.450380
  20.848595, 48403.450380
  20.915508, 48403.450380
  20.982529, 48403.450380
  21.049656, 48403.450380
  21.116935, 48403.450380
  21.184116, 48403.450380
  21.251573, 48403.450380
  21.318992, 48403.450380
  21.386447, 48403.450380
  21.453954, 48403.450380
  21.521493, 48403.450380
  21.589342, 48403.450380
  21.657052, 48403.450380
  21.724956, 48403.450380
  21.792864, 48403.450380
  21.860877, 48403.450380
  21.929004, 48403.450380
  21.997206, 48403.450380
  22.065524, 48403.450380
  22.133808, 48403.450380
  22.202272, 48403.450380
  22.270736, 48403.450380
  22.339293, 48403.450380
  22.407878, 48403.450380
  22.476730, 48403.450380
  22.545552, 48403.450380
  22.614458, 48403.450380
  22.683398, 48403.450380
  22.752445, 48403.450380
  22.821702, 48403.450380
  22.890851, 48403.450380
  22.959974, 48403.450380
  23.029289, 48403.450380
  23.098736, 48403.450380
  23.168081, 48403.450380
  23.237668, 48403.450380
  23.307226, 48403.450380
  23.377005, 48403.450380
  23.446710, 48403.450380
  23.516719, 48403.450380
  23.586575, 48403.450380
  23.656507, 48403.450380
  23.726536, 48403.450380
  23.796740, 48403.450380
  23.867005, 48403.450380
  23.937359, 48403.450380
  23.967061, 48403.450380
  24.007723, 48403.450380
  24.078299, 48403.450380
  24.148844, 48403.450380
  24.219490, 48403.450380
  24.290268, 48403.450380
  24.361048, 48403.450380
  24.431805, 48403.450380
  24.502713, 48403.450380
  24.573733, 48403.450380
  24.644876, 48403.450380
  24.715999, 48403.450380
  24.787062, 48403.450380
  24.858332, 48403.450380
  24.929562, 48403.450380
  25.000896, 48403.450380
  25.072192, 48403.450380
  25.143504, 48403.450380
  25.215019, 48403.450380
  25.286510, 48403.450380
  25.358125, 48403.450380
  25.429753, 48403.450380
  25.501380, 48403.450380
  25.573152, 48403.450380
  25.644947, 48403.450380
  25.716642, 48403.450380
  25.731009, 48403.450380
  25.781596, 48403.450380
  25.784464, 48403.450380
  25.785359, 48403.450380
  25.786514, 48403.450380
  25.786789, 48403.450380
  25.787313, 48403.450380
  25.787437, 48403.450380
  25.787475, 48403.450380
  25.787514, 48403.450380
  25.787551, 48403.450380
  25.787926, 48403.450380
  25.790516, 48403.450380
  25.804901, 48403.450380
  25.867860, 48403.450380
  25.942166, 48403.450380
  26.016388, 48403.450380
  26.090677, 48403.450380
  26.164910, 48403.450380
  26.239166, 48403.450380
  26.313450, 48403.450380
  26.387905, 48403.450380
  26.462339, 48403.450380
  26.536750, 48403.450380
  26.611017, 48403.450380
  26.685460, 48403.450380
  26.759824, 48403.450380
  26.765667, 48403.450322
  26.771513, 48403.450144
  26.777368, 48403.449838
  26.783225, 48403.449397
  26.789082, 48403.448813
  26.794942, 48403.448077
  26.800784, 48403.447187
  26.806649, 48403.446126
  26.812524, 48403.444887
  26.818386, 48403.443469
  26.824261, 48403.441855
  26.830126, 48403.440043
  26.835999, 48403.438019
  26.841878, 48403.435774
  26.847777, 48403.433293
  26.853662, 48403.430579
  26.859552, 48403.427616
  26.865462, 48403.424385
  26.871357, 48403.420894
  26.877278, 48403.417110
  26.883207, 48403.413030
  26.889132, 48403.408653
  26.895061, 48403.403961
  26.900984, 48403.398954
  26.906924, 48403.393600
  26.912830, 48403.387935
  26.918780, 48403.381872
  26.924697, 48403.375479
  26.930650, 48403.368668
  26.936594, 48403.361478
  26.942555, 48403.353866
  26.948526, 48403.345822
  26.954503, 48403.337341
  26.960489, 48403.328406
  26.966479, 48403.319008
  26.972461, 48403.309154
  26.978470, 48403.298772
  26.984490, 48403.287872
  26.990500, 48403.276480
  26.996513, 48403.264555
  27.002526, 48403.252092
  27.008539, 48403.239079
  27.014576, 48403.225443
  27.020614, 48403.211221
  27.026633, 48403.196450
  27.032691, 48403.180966
  27.038701, 48403.164980
  27.044756, 48403.148232
  27.050800, 48403.130856
  27.056859, 48403.112761
  27.062920, 48403.093965
  27.068995, 48403.074421
  27.075073, 48403.054137
  27.081174, 48403.033031
  27.087300, 48403.011069
  27.093414, 48402.988363
  27.099527, 48402.964862
  27.105629, 48402.940586
  27.111735, 48402.915463
  27.117876, 48402.889341
  27.124017, 48402.862346
  27.130169, 48402.834403
  27.136320, 48402.805549
  27.142479, 48402.775729
  27.148664, 48402.744821
  27.154855, 48402.712904
  27.161043, 48402.680005
  27.167259, 48402.645934
  27.173481, 48402.610778
  27.179690, 48402.574637
  27.185887, 48402.537485
  27.192141, 48402.498877
  27.198387, 48402.459191
  27.204623, 48402.418411
  27.210826, 48402.376685
  27.217052, 48402.333619
  27.223332, 48402.288955
  27.229594, 48402.243177
  27.235882, 48402.195938
  27.242161, 48402.147465
  27.248459, 48402.097531
  27.254793, 48402.045956
  27.261100, 48401.993233
  27.267450, 48401.938743
  27.273810, 48401.882723
  27.280124, 48401.825662
  27.286479, 48401.766757
  27.292837, 48401.706323
  27.299215, 48401.644148
  27.305613, 48401.580218
  27.312015, 48401.514634
  27.318419, 48401.447412
  27.324834, 48401.378424
  27.331235, 48401.307897
  27.337695, 48401.235012
  27.344134, 48401.160599
  27.350578, 48401.084371
  27.357029, 48401.006241
  27.363466, 48400.926473
  27.369929, 48400.844504
  27.376423, 48400.760255
  27.382977, 48400.673253
  27.389477, 48400.585446
  27.396045, 48400.495170
  27.402605, 48400.403427
  27.409143, 48400.310431
  27.415656, 48400.216227
  27.422223, 48400.119650
  27.428800, 48400.021321
  27.435373, 48399.921446
  27.441921, 48399.820355
  27.448481, 48399.717433
  27.455121, 48399.611613
  27.461772, 48399.503944
  27.468416, 48399.394696
  27.475046, 48399.284007
  27.481676, 48399.171602
  27.488361, 48399.056567
  27.495047, 48398.939768
  27.501731, 48398.821243
  27.508440, 48398.700534
  27.515165, 48398.577745
  27.521860, 48398.453742
  27.528564, 48398.327789
  27.535309, 48398.199243
  27.542039, 48398.069155
  27.548794, 48397.936772
  27.555536, 48397.802793
  27.562329, 48397.665933
  27.569092, 48397.527820
  27.575883, 48397.387230
  27.582704, 48397.244133
  27.589541, 48397.098740
  27.596372, 48396.951555
  27.603192, 48396.802669
  27.610025, 48396.651529
  27.616901, 48396.497479
  27.623803, 48396.340825
  27.630654, 48396.183340
  27.637524, 48396.023417
  27.644453, 48395.860049
  27.651372, 48395.694892
  27.658279, 48395.527928
  27.665224, 48395.357996
  27.672201, 48395.185143
  27.679111, 48395.011879
  27.686102, 48394.834451
  27.693098, 48394.654718
  27.700072, 48394.473412
  27.707063, 48394.289500
  27.714104, 48394.102071
  27.721121, 48393.913078
  27.728186, 48393.720549
  27.735265, 48393.525388
  27.742318, 48393.328674
  27.749336, 48393.130690
  27.756460, 48392.927438
  27.763568, 48392.722314
  27.770675, 48392.514888
  27.777806, 48392.304411
  27.784901, 48392.092671
  27.792031, 48391.877519
  27.799167, 48391.659835
  27.806338, 48391.438641
  27.813541, 48391.214025
  27.820746, 48390.986891
  27.827995, 48390.755902
  27.835214, 48390.523346
  27.842472, 48390.287037
  27.849722, 48390.048476
  27.856966, 48389.807579
  27.864238, 48389.563185
  27.871559, 48389.314553
  27.878882, 48389.063265
  27.882977, 48388.921557
  27.886268, 48388.807104
  27.893635, 48388.548971
  27.901014, 48388.287733
  27.908377, 48388.024370
  27.915771, 48387.757166
  27.923157, 48387.487541
  27.930567, 48387.214302
  27.937993, 48386.937730
  27.945427, 48386.658025
  27.952918, 48386.373369
  27.960366, 48386.087531
  27.967863, 48385.796933
  27.975332, 48385.504578
  27.982815, 48385.208792
  27.990329, 48384.908884
  27.997821, 48384.606956
  28.005413, 48384.298018
  28.013003, 48383.986154
  28.020577, 48383.671951
  28.028238, 48383.351089
  28.035852, 48383.029096
  28.043515, 48382.701979
  28.051180, 48382.371639
  28.058845, 48382.038166
  28.066558, 48381.699463
  28.074237, 48381.359076
  28.081932, 48381.014802
  28.089663, 48380.665674
  28.097406, 48380.312806
  28.105171, 48379.955623
  28.112938, 48379.595053
  28.120735, 48379.229823
  28.128531, 48378.861264
  28.136326, 48378.489403
  28.144136, 48378.113473
  28.151925, 48377.735167
  28.159784, 48377.350071
  28.167622, 48376.962527
  28.175569, 48376.566114
  28.183441, 48376.169918
  28.191382, 48375.766734
  28.199340, 48375.359100
  28.207273, 48374.949171
  28.215249, 48374.533373
  28.223180, 48374.116348
  28.231122, 48373.695113
  28.239113, 48373.267617
  28.247170, 48372.832924
  28.255253, 48372.392961
  28.263391, 48371.946207
  28.271434, 48371.500919
  28.279550, 48371.047691
  28.287622, 48370.593125
  28.295736, 48370.132347
  28.303870, 48369.666475
  28.312021, 48369.195757
  28.320222, 48368.718138
  28.328370, 48368.239633
  28.336554, 48367.755072
  28.344821, 48367.261483
  28.353071, 48366.764805
  28.361355, 48366.261951
  28.369599, 48365.757419
  28.377906, 48365.244820
  28.386232, 48364.726900
  28.394603, 48364.201861
  28.402921, 48363.675936
  28.411280, 48363.143096
  28.419658, 48362.604742
  28.428038, 48362.061940
  28.436504, 48361.509082
  28.444934, 48360.954203
  28.453373, 48360.394338
  28.461835, 48359.828398
  28.470275, 48359.259465
  28.478752, 48358.683572
  28.487301, 48358.098145
  28.495795, 48357.511942
  28.504307, 48356.919863
  28.512901, 48356.317395
  28.521514, 48355.708950
  28.530179, 48355.091946
  28.538803, 48354.473147
  28.547455, 48353.847475
  28.556044, 48353.221592
  28.564723, 48352.584302
  28.573393, 48351.942785
  28.582098, 48351.293814
  28.590775, 48350.641958
  28.599565, 48349.976537
  28.608284, 48349.311565
  28.617053, 48348.637693
  28.625840, 48347.957339
  28.634593, 48347.274592
  28.643411, 48346.581559
  28.652272, 48345.879966
  28.661153, 48345.171499
  28.670041, 48344.457275
  28.678937, 48343.736995
  28.687775, 48343.016215
  28.696662, 48342.286120
  28.705632, 48341.543749
  28.714550, 48340.800297
  28.723519, 48340.047153
  28.732440, 48339.292628
  28.741409, 48338.528486
  28.750423, 48337.755011
  28.759467, 48336.973403
  28.768583, 48336.179732
  28.777680, 48335.382125
  28.786659, 48334.589199
  28.795755, 48333.780272
  28.804835, 48332.966968
  28.813982, 48332.141848
  28.823182, 48331.306086
  28.832294, 48330.472533
  28.841460, 48329.628032
  28.850676, 48328.773048
  28.859880, 48327.913176
  28.869210, 48327.035395
  28.878449, 48326.160069
  28.887687, 48325.278809
  28.897017, 48324.382674
  28.906286, 48323.486175
  28.915582, 48322.580873
  28.924813, 48321.675783
  28.934099, 48320.759058
  28.943392, 48319.835465
  28.952726, 48318.901483
  28.962125, 48317.954687
  28.971474, 48317.006590
  28.980899, 48316.044201
  28.990202, 48315.088029
  28.999548, 48314.121094
  29.009085, 48313.127762
  29.018549, 48312.135396
  29.027989, 48311.139053
  29.037560, 48310.122213
  29.047047, 48309.107523
  29.056604, 48308.078656
  29.066213, 48307.037352
  29.075783, 48305.993409
  29.085283, 48304.950363
  29.094978, 48303.879018
  29.104563, 48302.812862
  29.114101, 48301.745126
  29.123685, 48300.665355
  29.133347, 48299.569802
  29.142962, 48298.472694
  29.152587, 48297.367303
  29.162212, 48296.254973
  29.171903, 48295.127797
  29.181508, 48294.003714
  29.191230, 48292.858752
  29.200944, 48291.707436
  29.210686, 48290.545706
  29.220389, 48289.381291
  29.230192, 48288.197543
  29.239881, 48287.020282
  29.249636, 48285.827805
  29.259402, 48284.626547
  29.269160, 48283.418865
  29.279021, 48282.191071
  29.288938, 48280.948623
  29.298816, 48279.703404
  29.308749, 48278.443710
  29.318584, 48277.188794
  29.328538, 48275.911010
  29.338435, 48274.632818
  29.348336, 48273.346409
  29.358304, 48272.043623
  29.368231, 48270.738375
  29.378164, 48269.424535
  29.388126, 48268.099001
  29.398015, 48266.775536
  29.407997, 48265.431680
  29.417965, 48264.081831
  29.427913, 48262.726861
  29.437997, 48261.345352
  29.448066, 48259.957687
  29.458107, 48258.565972
  29.468246, 48257.152410
  29.478254, 48255.748965
  29.488348, 48254.325388
  29.498445, 48252.893214
  29.508611, 48251.443096
  29.518706, 48249.994662
  29.528818, 48248.535685
  29.538949, 48247.065619
  29.549118, 48245.581636
  29.559397, 48244.073277
  29.569669, 48242.557157
  29.579828, 48241.049389
  29.589965, 48239.536503
  29.600053, 48238.022779
  29.610233, 48236.486583
  29.620422, 48234.940690
  29.630651, 48233.380179
  29.640805, 48231.822619
  29.650985, 48230.252631
  29.661433, 48228.632461
  29.671687, 48227.033537
  29.681950, 48225.424622
  29.692180, 48223.812235
  29.702307, 48222.207717
  29.712630, 48220.563232
  29.722980, 48218.905720
  29.733242, 48217.253416
  29.743500, 48215.593154
  29.753730, 48213.928693
  29.764032, 48212.243834
  29.774359, 48210.545885
  29.784667, 48208.842376
  29.795017, 48207.122924
  29.805401, 48205.388863
  29.815775, 48203.647325
  29.826172, 48201.893057
  29.836553, 48200.132550
  29.847139, 48198.327842
  29.857585, 48196.537982
  29.867989, 48194.745993
  29.878448, 48192.935601
  29.888887, 48191.119350
  29.899359, 48189.288222
  29.909832, 48187.447583
  29.920247, 48185.608206
  29.930717, 48183.749749
  29.941221, 48181.875909
  29.951757, 48179.987062
  29.962330, 48178.082161
  29.972939, 48176.161316
  29.983510, 48174.237733
  29.994067, 48172.307380
  30.004620, 48170.368384
  30.015140, 48168.425907
  30.025646, 48166.476602
  30.036298, 48164.490887
  30.046869, 48162.510513
  30.057501, 48160.509261
  30.068141, 48158.496809
  30.078752, 48156.480359
  30.089423, 48154.442571
  30.100033, 48152.407017
  30.110612, 48150.367874
  30.121151, 48148.326989
  30.131828, 48146.249499
  30.142474, 48144.168628
  30.153179, 48142.066302
  30.163889, 48139.953044
  30.174544, 48137.841075
  30.185261, 48135.707126
  30.195962, 48133.566503
  30.206630, 48131.422563
  30.217331, 48129.262335
  30.227972, 48127.104534
  30.238721, 48124.914866
  30.249493, 48122.710533
  30.260295, 48120.490199
  30.271111, 48118.257012
  30.281862, 48116.027259
  30.292666, 48113.776456
  30.303465, 48111.516607
  30.310498, 48110.039606
