Time, Horizontal Forces
   0.000000, 13845.160051
   0.000001, 13845.080343
   0.000014, 13844.774305
   0.000156, 13843.821938
   0.000782, 13842.145574
   0.002688, 13839.556268
   0.007394, 13835.853409
   0.014461, 13832.132066
   0.023877, 13828.406900
   0.035670, 13824.669275
   0.049839, 13820.923531
   0.066438, 13817.159355
   0.085437, 13813.387967
   0.106783, 13809.618725
   0.130585, 13805.833607
   0.156972, 13802.017613
   0.186117, 13798.155271
   0.217660, 13794.298179
   0.251836, 13790.418803
   0.289052, 13786.478873
   0.328332, 13782.582585
   0.371428, 13778.562781
   0.416840, 13774.567518
   0.465161, 13770.544164
   0.516737, 13766.469542
   0.570731, 13762.411745
   0.628089, 13758.301565
   0.688250, 13754.182882
   0.752418, 13749.978845
   0.819968, 13745.737744
   0.891399, 13741.433887
   0.964810, 13737.181906
   1.041959, 13732.879295
   1.123790, 13728.481015
   1.208075, 13724.110034
   1.297802, 13719.615881
   1.390692, 13715.118620
   1.487032, 13710.604877
   1.587141, 13706.061359
   1.692428, 13701.429180
   1.800283, 13696.825457
   1.912911, 13692.157165
   2.029919, 13687.444811
   2.152339, 13682.651681
   2.277627, 13677.879407
   2.407565, 13673.060646
   2.542818, 13668.174771
   2.683973, 13663.206006
   2.827889, 13658.266436
   2.976902, 13653.276235
   3.131878, 13648.210542
   3.291233, 13643.124175
   3.454741, 13638.025040
   3.623499, 13632.880475
   3.798434, 13627.665699
   3.976737, 13622.465806
   4.163292, 13617.141538
   4.356661, 13611.739992
   4.554217, 13606.336583
   4.758197, 13600.871710
   4.967340, 13595.381333
   5.183097, 13589.829612
   5.403511, 13584.268510
   5.631031, 13578.638120
   5.861511, 13573.041634
   6.100839, 13567.337729
   6.348931, 13561.533786
   6.600544, 13555.754074
   6.856919, 13549.969201
   7.118577, 13544.167539
   7.390726, 13538.237040
   7.669395, 13532.268122
   7.956244, 13526.227634
   8.249842, 13520.148121
   8.549883, 13514.037217
   8.856458, 13507.894253
   9.169849, 13501.714832
   9.495203, 13495.401114
   9.822850, 13489.142271
  10.154795, 13482.897956
  10.500140, 13476.499740
  10.852299, 13470.073371
  11.212496, 13463.597889
  11.578409, 13457.115833
  11.954403, 13450.551451
  12.336114, 13443.982421
  12.728920, 13437.317931
  13.129295, 13430.620146
  13.536378, 13423.904139
  13.952968, 13417.125034
  14.375267, 13410.345556
  14.811546, 13403.435173
  15.252071, 13396.549807
  15.702175, 13389.606361
  16.161120, 13382.617844
  16.633288, 13375.520163
  17.107971, 13368.474965
  17.595842, 13361.324480
  18.095189, 13354.096816
  18.598346, 13346.903380
  19.109865, 13339.678642
  19.635729, 13332.340368
  20.168658, 13324.991984
  20.715181, 13317.545043
  21.268122, 13310.098675
  21.831991, 13302.592804
  22.403363, 13295.073903
  22.983593, 13287.524523
  23.572757, 13279.944355
  24.176016, 13272.268739
  24.787088, 13264.579052
  25.410767, 13256.816077
  26.043338, 13249.027280
  26.169919, 13247.478686
  26.494846, 13243.518467
  26.629007, 13241.889520
  26.643179, 13241.717655
  26.655968, 13241.562598
  26.658269, 13241.534700
  26.661207, 13241.499091
  26.662120, 13241.488020
  26.662483, 13241.483619
  26.663158, 13241.473337
  26.663775, 13241.463930
  26.668653, 13241.389565
  26.701120, 13240.894794
  26.822373, 13239.049464
  27.193703, 13233.421932
  27.787297, 13224.498803
  28.397195, 13215.421311
  29.015889, 13206.303855
  29.647682, 13197.084901
  30.283367, 13187.899575
  30.929807, 13178.648921
  31.591149, 13169.276122
  32.256399, 13159.938019
  32.934857, 13150.504703
  33.617578, 13141.101253
  34.311839, 13131.627766
  35.015570, 13122.113847
  35.732444, 13112.511396
  36.457795, 13102.884248
  37.193731, 13093.205265
  37.932053, 13083.582004
  38.683547, 13073.874073
  39.446026, 13064.111362
  40.217394, 13054.321571
  41.000371, 13044.471156
  41.794755, 13034.563968
  42.598588, 13024.625359
  43.412059, 13014.653637
  44.235472, 13004.645741
  45.067210, 12994.621788
  45.914564, 12984.495228
  46.769184, 12974.366930
  47.636519, 12964.172982
  48.513122, 12953.954793
  49.397261, 12943.732710
  50.298040, 12933.402644
  51.201095, 12923.129735
  52.113844, 12912.829076
  53.048877, 12902.360696
  53.985926, 12891.952634
  54.930432, 12881.543534
  55.884656, 12871.108625
  56.860890, 12860.515424
  57.847599, 12849.891133
  58.841631, 12839.269818
  59.844509, 12828.635138
  60.859888, 12817.948888
  61.888010, 12807.209527
  62.925198, 12796.456048
  63.980448, 12785.596334
  65.044450, 12774.727319
  66.117907, 12763.841907
  67.204698, 12752.901375
  68.299961, 12741.955177
  69.411012, 12730.930909
  70.533893, 12719.868937
  71.662298, 12708.831342
  72.806082, 12697.722081
  73.962541, 12686.568458
  75.132446, 12675.363878
  76.312262, 12664.142748
  77.506463, 12652.863129
  78.709912, 12641.574075
  79.929850, 12630.208400
  81.159276, 12618.832060
  82.401849, 12607.411587
  83.659830, 12595.927143
  84.924708, 12584.456773
  86.204957, 12572.923956
  87.493807, 12561.390172
  88.798759, 12549.788810
  90.112788, 12538.182879
  91.437154, 12526.561314
  92.777156, 12514.878205
  94.136749, 12503.100436
  95.506412, 12491.311368
  96.886207, 12479.510546
  98.274989, 12467.707745
  99.678292, 12455.856274
 101.100091, 12443.923651
 102.531173, 12431.987838
 103.978026, 12419.995158
 105.434947, 12407.993355
 106.904419, 12395.962198
 108.390627, 12383.868137
 109.895543, 12371.696270
 110.198421, 12369.255498
 110.564547, 12366.308991
 110.834063, 12364.142725
 110.876456, 12363.802201
 110.921166, 12363.443127
 110.959292, 12363.136980
 110.967641, 12363.069945
 110.977788, 12362.988478
 110.989894, 12362.891283
 110.992752, 12362.868339
 110.992940, 12362.866760
 110.993113, 12362.865049
 110.994853, 12362.847934
 111.009991, 12362.698970
 111.097964, 12361.833483
 111.547186, 12357.419094
 112.860866, 12344.558432
 114.266455, 12330.876999
 115.679540, 12317.203479
 117.099020, 12303.548245
 118.534416, 12289.820165
 119.981208, 12276.063303
 121.446330, 12262.212767
 122.917836, 12248.382105
 124.396628, 12234.562534
 125.890441, 12220.682151
 127.390297, 12206.824692
 128.903734, 12192.920675
 130.430490, 12178.973252
 131.969175, 12164.995704
 133.521388, 12150.974102
 135.084137, 12136.935976
 136.662149, 12122.839453
 138.246450, 12108.764976
 139.842832, 12094.661132
 141.455977, 12080.487362
 143.083152, 12066.268604
 144.718144, 12052.059427
 146.366353, 12037.813089
 148.023172, 12023.569699
 149.691522, 12009.304266
 151.375738, 11994.980366
 153.066769, 11980.675278
 154.775672, 11966.295907
 156.495167, 11951.904189
 158.230901, 11937.453405
 159.973305, 11923.023526
 161.731741, 11908.537298
 163.507115, 11893.988176
 165.286570, 11879.481691
 167.085433, 11864.893185
 168.889736, 11850.336327
 170.710084, 11835.725730
 172.535956, 11821.146012
 174.379963, 11806.496765
 176.236144, 11791.826053
 178.102306, 11777.151392
 179.986759, 11762.408006
 181.884350, 11747.636939
 183.785815, 11732.910178
 185.707215, 11718.103618
 187.642639, 11703.263655
 189.592614, 11688.386788
 191.549145, 11673.534113
 193.521358, 11658.636524
 195.503825, 11643.735389
 197.509371, 11628.735080
 199.524923, 11613.734126
 201.548124, 11598.749967
 203.581828, 11583.761386
 205.630464, 11568.736053
 207.687852, 11553.719520
 209.764231, 11538.637485
 211.855254, 11523.522253
 213.958095, 11508.394600
 216.078073, 11493.216734
 218.215767, 11477.985277
 220.349109, 11462.857134
 222.500246, 11447.674930
 224.669598, 11432.436505
 226.839657, 11417.264789
 229.034060, 11401.994780
 231.243359, 11386.693164
 233.464283, 11371.382907
 235.699335, 11356.047029
 237.946174, 11340.701852
 240.215558, 11325.274582
 242.488415, 11309.895143
 244.781882, 11294.447746
 247.080050, 11279.039767
 249.392953, 11263.603903
 251.729187, 11248.083583
 254.061639, 11232.658886
 256.417401, 11217.150618
 258.787229, 11201.620378
 261.173672, 11186.051913
 263.574887, 11170.457728
 263.671358, 11169.832685
 263.762966, 11169.239255
 263.861555, 11168.600716
 263.879612, 11168.483777
 263.900162, 11168.350695
 263.906707, 11168.308314
 263.916463, 11168.245140
 263.921394, 11168.213208
 263.923387, 11168.200304
 263.924093, 11168.195730
 263.924427, 11168.193565
 263.924996, 11168.189052
 263.925513, 11168.184905
 263.930687, 11168.143429
 263.977245, 11167.770199
 264.226896, 11165.769497
 265.237386, 11157.682110
 267.412174, 11140.333897
 269.583205, 11123.093294
 271.771590, 11105.792458
 273.977906, 11088.427789
 276.192292, 11071.077349
 278.411473, 11053.766572
 280.641450, 11036.448560
 282.890075, 11019.062958
 285.144322, 11001.710826
 287.407226, 10984.368658
 289.685301, 10966.986845
 291.971847, 10949.616835
 294.276523, 10932.185703
 296.593410, 10914.738850
 298.917722, 10897.312421
 301.252833, 10879.881157
 303.600178, 10862.434610
 305.963317, 10844.946819
 308.342386, 10827.417459
 310.726636, 10809.925894
 313.117050, 10792.464605
 315.522256, 10774.970713
 317.934247, 10757.502656
 320.364759, 10739.975771
 322.806111, 10722.446001
 325.253808, 10704.945580
 327.713494, 10687.434185
 330.189883, 10669.878748
 332.678927, 10652.308481
 335.173708, 10634.772249
 337.687246, 10617.178806
 340.212846, 10599.575604
 342.749723, 10581.968335
 345.297555, 10564.359418
 347.857373, 10546.741946
 350.427018, 10529.130931
 353.011656, 10511.491259
 355.603425, 10493.876756
 358.212615, 10476.217769
 360.827598, 10458.593198
 363.454117, 10440.964301
 366.100994, 10423.272443
 368.762000, 10405.559925
 371.429267, 10387.879215
 374.103208, 10370.227337
 376.791302, 10352.555036
 379.489623, 10334.888356
 382.201299, 10317.207035
 384.930998, 10299.481163
 387.672358, 10281.752485
 390.421265, 10264.047653
 393.185254, 10246.318286
 395.960141, 10228.591526
 398.747524, 10210.857343
 401.548619, 10193.108308
 404.360312, 10175.364359
 407.190528, 10157.575903
 410.021887, 10139.852207
 412.867217, 10122.112832
 415.726201, 10104.360100
 418.602485, 10086.571830
 421.493731, 10068.762986
 424.400312, 10050.931692
 427.316887, 10033.110965
 430.237645, 10015.336125
 433.177335, 9997.517579
 436.125433, 9979.719422
 439.086448, 9961.914512
 442.056814, 9944.124428
 445.041222, 9926.321225
 448.041262, 9908.495805
 451.051126, 9890.682897
 454.070852, 9872.882311
 457.109647, 9855.040117
 460.155685, 9837.226009
 463.214483, 9819.407745
 466.284829, 9801.592570
 469.370966, 9783.756148
 472.466897, 9765.933361
 475.579008, 9748.087671
 478.704065, 9730.237968
 481.840231, 9712.394897
 484.987183, 9694.560394
 488.147155, 9676.721942
 491.321951, 9658.869644
 494.513920, 9640.990714
 497.713657, 9623.138008
 500.923931, 9605.296042
 504.140767, 9587.486848
 504.789070, 9583.906015
 507.091731, 9571.209997
 507.117677, 9571.067139
 507.159085, 9570.839162
 507.165796, 9570.802213
 507.169939, 9570.779404
 507.171581, 9570.770337
 507.173220, 9570.761238
 507.189605, 9570.670246
 507.339902, 9569.835657
 508.087235, 9565.688012
 510.943792, 9549.868556
 514.187978, 9531.967797
 517.452065, 9514.026793
 520.717477, 9496.147709
 524.007872, 9478.201230
 527.303099, 9460.297600
 530.615794, 9442.368252
 533.939278, 9424.449615
 537.278157, 9406.517055
 540.627039, 9388.599732
 543.991458, 9370.668209
 547.364457, 9352.759716
 550.758404, 9334.808889
 554.164052, 9316.865034
 557.578302, 9298.944497
 561.008264, 9281.010111
 564.450928, 9263.077868
 567.900736, 9245.176724
 571.365015, 9227.268726
 574.841034, 9209.368177
 578.333107, 9191.453105
 581.838122, 9173.539745
 585.358801, 9155.614444
 588.882201, 9137.743060
 592.422945, 9119.851427
 595.974916, 9101.970717
 599.542915, 9084.076969
 603.118290, 9066.213678
 606.709583, 9048.338266
 610.314935, 9030.460266
 613.933479, 9012.584189
 617.565515, 8994.708743
 621.206300, 8976.857334
 624.863452, 8958.992753
 628.535184, 8941.124033
 632.220959, 8923.254024
 635.917931, 8905.396667
 639.631641, 8887.525415
 643.353475, 8869.681848
 647.089852, 8851.835257
 650.839357, 8833.992612
 654.596071, 8816.182086
 658.377799, 8798.319584
 662.165256, 8780.496476
 665.963105, 8762.690718
 669.774314, 8744.888486
 673.598442, 8727.091998
 677.434635, 8709.305358
 681.291518, 8691.488892
 685.160417, 8673.682998
 689.039234, 8655.897371
 692.931144, 8638.117518
 696.832410, 8620.360574
 700.756330, 8602.566304
 704.682464, 8584.827515
 708.628034, 8567.066425
 712.584787, 8549.320451
 716.559773, 8531.558186
 720.539275, 8513.840992
 724.537449, 8496.105907
 728.548926, 8478.377033
 732.577085, 8460.639669
 736.622639, 8442.891007
 740.674237, 8425.180909
 744.738236, 8407.481544
 748.823272, 8389.755610
 752.910552, 8372.084715
 757.016260, 8354.398899
 761.141747, 8336.692749
 765.273152, 8319.025884
 769.418390, 8301.364430
 773.578345, 8283.704810
 777.745710, 8266.078074
 781.928315, 8248.451154
 786.125809, 8230.825744
 790.336488, 8213.209173
 794.562164, 8195.594025
 798.802116, 8177.983497
 803.050237, 8160.403002
 807.315515, 8142.815444
 811.589358, 8125.256359
 815.880756, 8107.688931
 820.190194, 8090.111505
 823.620470, 8076.165454
 824.511379, 8072.549952
 828.844571, 8055.241366
 833.192403, 8038.286966
 837.550309, 8020.909657
 841.918516, 8003.117717
 846.308232, 7984.680178
 850.700745, 7966.089852
 855.109925, 7946.670390
 859.536690, 7927.101822
 863.964684, 7906.926055
 868.408194, 7886.427894
 872.868274, 7865.562318
 877.346079, 7844.084145
 878.242159, 7836.437200
 879.099921, 7832.201685
 879.816704, 7828.475766
 879.839401, 7827.595823
 879.840380, 7827.567016
 879.841360, 7827.562342
 879.851156, 7827.525346
 879.933943, 7827.211032
 880.450043, 7825.227956
 882.453601, 7817.319985
 887.026448, 7798.381354
 891.692320, 7776.210649
 896.371670, 7753.440502
 901.060391, 7730.274741
 905.763699, 7706.947812
 910.473445, 7682.915645
 915.192847, 7658.829048
 919.918664, 7634.284903
 924.662938, 7609.370700
 929.414114, 7584.403369
 934.178792, 7558.689996
 938.954960, 7532.927539
 943.745996, 7506.862514
 948.547714, 7480.316000
 953.359130, 7453.744727
 958.175579, 7426.725137
 962.996408, 7399.485591
 967.835657, 7372.216792
 972.677751, 7344.359827
 977.532975, 7316.421614
 982.398225, 7288.461118
 987.271396, 7259.866814
 992.161192, 7231.262354
 997.054609, 7202.615939
 997.425698, 7186.078549
 997.796402, 7181.140891
 998.166271, 7176.164537
 998.537772, 7171.123764
 998.909136, 7166.031469
 999.280373, 7160.892166
 999.653540, 7155.682417
1000.026475, 7150.421276
1000.398121, 7145.126797
1000.772122, 7139.759129
1001.144687, 7134.353444
1001.518822, 7128.883700
1001.891609, 7123.377343
1002.265514, 7117.811947
1002.640688, 7112.178950
1003.016378, 7106.487033
1003.391470, 7100.752177
1003.768203, 7094.948684
1004.143761, 7089.106914
1004.520729, 7083.200592
1004.898483, 7077.230923
1005.276739, 7071.203050
1005.655435, 7065.118401
1006.031553, 7059.018306
1006.404893, 7052.914270
1006.784522, 7046.681651
1007.162825, 7040.373359
1007.541980, 7033.987253
1007.922306, 7027.532743
1008.301950, 7021.035380
1008.683428, 7014.463745
1009.064867, 7007.838010
1009.445750, 7001.170959
1009.828715, 6994.424753
1010.209237, 6987.659928
1010.592647, 6980.808380
1010.976883, 6973.886515
1011.359834, 6966.932263
1011.742292, 6959.939486
1012.123887, 6952.912142
1012.505258, 6945.841457
1012.891434, 6938.645350
1013.277505, 6931.387896
1013.664262, 6924.069385
1014.050654, 6916.704792
1014.436214, 6909.304837
1014.824784, 6901.807119
1015.213458, 6894.249128
1015.602935, 6886.626767
1015.992667, 6878.947325
1016.380063, 6871.256744
1016.769054, 6863.494809
1017.159916, 6855.645703
1017.551975, 6847.719890
1017.943818, 6839.743798
1018.335877, 6831.713620
1018.726811, 6823.652282
1019.119403, 6815.513506
1019.512199, 6807.315838
1019.907567, 6799.019619
1020.301395, 6790.693696
1020.695766, 6782.310871
1021.091040, 6773.858729
1021.486290, 6765.353514
1021.884013, 6756.750326
1022.281627, 6748.091063
1022.677145, 6739.378591
1023.073757, 6730.592459
1023.473972, 6721.681869
1023.872836, 6712.735918
1024.271608, 6703.744051
1024.674157, 6694.625797
1025.073145, 6685.516186
1025.476690, 6676.273200
1025.881540, 6666.938663
1026.281173, 6657.654514
1026.683496, 6648.278223
1027.086385, 6638.830934
1027.490041, 6629.314185
1027.890307, 6619.814327
1028.295451, 6611.317036
1028.701981, 6602.779249
1029.111782, 6594.161226
1029.520479, 6585.554902
1029.928527, 6576.950777
1030.333178, 6568.407001
1030.743997, 6559.721536
1031.152566, 6551.072220
1031.563588, 6542.359486
1031.971972, 6533.691317
1032.384233, 6524.929368
1032.796578, 6516.154154
1033.210067, 6507.343064
1033.622015, 6498.553360
1034.034463, 6489.741558
1034.448716, 6480.879726
1034.864329, 6471.977272
1035.277299, 6463.120017
1035.693382, 6454.184516
1036.112271, 6445.177153
1036.531691, 6436.146722
1036.947698, 6427.178284
1037.364863, 6418.173439
1037.783291, 6409.129839
1038.203875, 6400.028061
1038.624306, 6390.918016
1039.042208, 6381.851351
1039.463428, 6372.701190
1039.886043, 6363.509121
1040.305215, 6354.380533
1040.727412, 6345.174572
1041.151781, 6335.909659
1041.574915, 6326.660197
1042.001758, 6317.317990
1042.425677, 6308.028258
1042.853380, 6298.643953
1043.280399, 6289.263064
1043.707482, 6279.869145
1044.136200, 6270.427665
1044.564572, 6260.982183
1044.993892, 6251.504199
1045.423178, 6242.015377
1045.852485, 6232.514536
1046.283895, 6222.955521
1046.717854, 6213.328321
1047.148549, 6203.761917
1047.583871, 6194.081055
1048.018497, 6184.403966
1048.454540, 6174.683602
1048.890450, 6164.954478
1049.327575, 6155.186529
1049.764268, 6145.416532
1050.205183, 6135.540253
1050.643737, 6125.705092
1051.079849, 6115.913118
1051.519997, 6106.018834
1051.962478, 6096.060270
1052.406326, 6086.059089
1052.845545, 6076.150554
1053.290327, 6066.104725
1053.733160, 6056.091169
1054.179459, 6045.987391
1054.626183, 6035.862114
1055.073032, 6025.722153
1055.520605, 6015.553939
1055.969950, 6005.333569
1056.419832, 5995.089080
1056.869241, 5984.843502
1057.315440, 5974.659426
1057.764955, 5964.387892
1058.217142, 5954.043465
1058.670927, 5943.650547
1059.119471, 5933.365927
1059.125247, 5933.233418
1059.579930, 5922.801076
1060.035509, 5912.726786
1060.488067, 5902.726204
1060.946401, 5892.594129
1061.405987, 5882.441868
1061.863402, 5872.344179
1062.321023, 5862.243669
1062.781800, 5852.074835
1063.244985, 5841.857302
1063.709443, 5831.616558
1064.171979, 5821.424829
1064.636842, 5811.182206
1065.103454, 5800.905581
1065.569593, 5790.645306
1066.034789, 5780.410276
1066.501678, 5770.139894
1066.969196, 5759.860758
1067.439176, 5749.530173
1067.911961, 5739.141913
1068.383113, 5728.797594
1068.854492, 5718.451101
1069.325881, 5708.108972
1069.800809, 5697.690687
1070.272981, 5687.342593
1070.746940, 5676.956022
1071.218039, 5666.640572
1071.693053, 5656.238263
1072.168471, 5645.834644
1072.645306, 5635.403840
1073.120072, 5625.025943
1073.599482, 5614.545619
1074.079306, 5604.064613
1074.561159, 5593.542825
1075.045255, 5582.976806
1075.529341, 5572.417902
1076.014510, 5561.839539
1076.499556, 5551.269954
1076.987315, 5540.644005
1077.475086, 5530.025261
1077.963988, 5519.386218
1078.451889, 5508.771770
1078.942220, 5498.092659
1079.432018, 5487.432878
1079.924920, 5476.708100
1080.417192, 5466.005485
1080.911829, 5455.254584
1081.401373, 5444.625926
1081.899272, 5433.810628
1082.397844, 5422.992566
1082.896509, 5412.178745
1083.396483, 5401.341420
1083.892611, 5390.597408
1084.390818, 5379.809523
1084.891859, 5368.965586
1085.391532, 5358.160598
1085.895971, 5347.253688
1086.397187, 5336.428930
1086.899379, 5325.585862
1087.405925, 5314.652311
1087.914011, 5303.694064
1088.424076, 5292.699168
1088.933266, 5281.731857
1089.443722, 5270.742059
1089.956651, 5259.704608
1090.462656, 5248.830163
1090.975916, 5237.795048
1091.490700, 5226.738400
1092.002004, 5215.767249
1092.518658, 5204.681011
1093.034518, 5193.623563
1093.548316, 5182.618228
1094.069046, 5171.464170
1094.593293, 5160.244668
1095.115014, 5149.091206
1095.636126, 5137.956448
1096.159531, 5126.777664
1096.683880, 5115.587101
1097.207994, 5104.409857
1097.731252, 5093.258777
1098.257993, 5082.037493
1098.788500, 5070.743341
1099.318755, 5059.465414
1099.850672, 5048.158377
1100.380549, 5036.905414
1100.913852, 5025.583201
1101.449996, 5014.209061
1101.984568, 5002.879804
1102.522642, 4991.480355
1103.061015, 4980.085308
1103.595656, 4968.780620
1104.133984, 4957.400269
1104.676079, 4945.948556
1105.217919, 4934.513854
1105.754810, 4923.195742
1106.291649, 4911.883229
1106.834014, 4900.458305
1107.383562, 4888.889471
1107.926828, 4877.472261
1108.478420, 4865.877234
1109.026471, 4854.374958
1109.573378, 4842.903729
1110.126427, 4831.306903
1110.677567, 4819.765599
1111.229429, 4808.216270
1111.785100, 4796.594037
1112.336222, 4785.082867
1112.891413, 4773.489178
1113.444812, 4761.946966
1113.996200, 4750.456256
1114.553199, 4738.852074
1115.110654, 4727.252032
1115.668536, 4715.652828
1116.232040, 4703.942427
1116.795863, 4692.239511
1117.355623, 4680.634384
1117.918099, 4668.977536
1118.483654, 4657.266667
1119.047831, 4645.598008
1119.615269, 4633.868468
1120.182247, 4622.161707
1120.754136, 4610.359746
1121.325593, 4598.581445
1121.898637, 4586.779497
1122.468437, 4575.058841
1123.041674, 4563.272886
1123.616684, 4551.462601
1124.188958, 4539.722946
1124.765450, 4527.902155
1125.341435, 4516.106530
1125.924404, 4504.173128
1126.508667, 4492.229104
1127.091788, 4480.321778
1127.672629, 4468.473383
1128.255181, 4456.598393
1128.834538, 4444.803852
1129.417506, 4432.941970
1130.000039, 4421.103703
1130.586122, 4409.201893
1131.177357, 4397.206107
1131.771426, 4385.166779
1132.365096, 4373.140552
1132.960813, 4361.070228
1133.558503, 4348.972403
1134.155154, 4336.910370
1134.752217, 4324.851460
1135.350549, 4312.778924
1135.948929, 4300.718999
1136.547025, 4288.677796
1137.148939, 4276.569491
1137.751466, 4264.464223
1138.352208, 4252.409615
1138.955504, 4240.313599
1139.562840, 4228.148706
1140.168294, 4216.039283
1140.777968, 4203.854308
1141.386426, 4191.711250
1141.994720, 4179.584265
1142.605113, 4167.427385
1143.216630, 4155.262638
1143.833088, 4143.010684
1144.449610, 4130.775202
1145.067623, 4118.523274
1145.689157, 4106.214365
1146.307509, 4093.987894
1146.922966, 4081.832825
1147.543537, 4069.585182
1148.160951, 4057.420495
1148.786146, 4045.109011
1149.406679, 4032.913295
1150.033767, 4020.595268
1150.656422, 4008.387441
1151.283907, 3996.093027
1151.913065, 3983.783424
1152.540121, 3971.533020
1153.171548, 3959.207798
1153.805007, 3946.860210
1154.432469, 3934.651014
1155.066484, 3922.320581
1155.699450, 3910.031914
1156.330752, 3897.791813
1156.970933, 3885.387664
1157.603734, 3873.154581
1158.237028, 3860.922111
1158.881518, 3848.481725
1159.519766, 3836.191081
1160.162728, 3823.818039
1160.810562, 3811.367863
1161.454037, 3799.025137
1162.094479, 3786.756345
1162.744941, 3774.302807
1163.396295, 3761.856179
1164.052803, 3749.325358
1164.699432, 3737.011614
1165.348608, 3724.657432
1165.998492, 3712.308536
1166.654630, 3699.854300
1167.306475, 3687.507044
1167.964372, 3675.055312
1168.621632, 3662.638560
1169.283468, 3650.149718
1169.937987, 3637.825854
1170.597655, 3625.413967
1171.264242, 3612.889114
1171.926549, 3600.471591
1172.591885, 3588.010551
1173.251356, 3575.684564
1173.922968, 3563.137161
1174.584907, 3550.805422
1175.260462, 3538.221863
1175.925958, 3525.862283
1176.600935, 3513.331479
1177.280650, 3500.736038
1177.951492, 3488.334753
1178.623495, 3475.924245
1179.301040, 3463.427968
1179.975919, 3451.006859
1180.653393, 3438.554120
1181.326768, 3426.201675
1182.005346, 3413.767053
1182.685982, 3401.317370
1183.368403, 3388.855807
1184.062923, 3376.186695
1184.750859, 3363.672552
1185.441100, 3351.131141
1186.131240, 3338.614604
1186.817397, 3326.180038
1187.500033, 3313.817702
1188.194452, 3301.252613
1188.882824, 3288.830817
1189.573411, 3276.384844
1190.258531, 3264.064203
1190.953462, 3251.578134
1191.650560, 3239.080480
1192.349867, 3226.565461
1193.043853, 3214.173156
1193.741638, 3201.728905
1194.441235, 3189.276191
1195.148113, 3176.712898
1195.850622, 3164.258255
1196.566347, 3151.580369
1197.268306, 3139.188192
1197.976759, 3126.690464
1198.679238, 3114.329976
1199.384654, 3101.934859
1200.092409, 3089.522468
1200.801846, 3077.104641
1201.517398, 3064.600638
1202.222557, 3052.313462
1202.939711, 3039.825649
1203.653161, 3027.437405
1204.375820, 3014.904822
1205.093603, 3002.491200
1205.809533, 2990.132153
1206.530992, 2977.697312
1207.253476, 2965.272914
1207.978362, 2952.831476
1208.707767, 2940.336503
1209.433360, 2927.938139
1210.153841, 2915.653428
1210.887279, 2903.160909
1211.609587, 2890.900217
1212.329940, 2878.691834
1213.051632, 2866.483921
1213.783210, 2854.128744
1214.506615, 2841.949922
1215.238318, 2829.646038
1215.977443, 2817.244649
1216.720672, 2804.803804
1217.462577, 2792.416133
1218.208944, 2779.977461
1218.953362, 2767.603298
1219.689218, 2755.403362
1220.429692, 2743.145021
1221.174086, 2730.849821
1221.920584, 2718.548982
1222.672682, 2706.181681
1223.417183, 2693.976512
1224.164454, 2681.746910
1224.905508, 2669.653211
1225.657282, 2657.401130
1226.405266, 2645.249245
1227.160218, 2633.005492
1227.918346, 2620.742003
1228.675762, 2608.522003
1229.435739, 2596.287903
1230.194569, 2584.104381
1230.951763, 2571.977003
1231.718280, 2559.722675
1232.489181, 2547.432103
1233.246841, 2535.394849
1234.000240, 2523.448851
1234.769801, 2511.262646
1235.534373, 2499.200336
1236.295910, 2487.214971
1237.063706, 2475.155262
1237.838905, 2463.009620
1238.607724, 2451.004499
1239.376694, 2439.023654
1240.159034, 2426.857081
1240.932219, 2414.879973
1241.707726, 2402.871546
1242.477608, 2390.975982
1243.253649, 2379.009343
1244.030250, 2367.069635
1244.809197, 2355.124881
1245.592715, 2343.141130
1245.881547, 2339.052798
