Time, Horizontal Forces
   0.000000,    0.000000
   0.000001,    0.000000
   0.000014,    0.000000
   0.000156,    0.000000
   0.000782,    0.000000
   0.002688,    0.000000
   0.007394,    0.000000
   0.014461,    0.000000
   0.023877,    0.000000
   0.035670,    0.000000
   0.049839,    0.000000
   0.066438,    0.000000
   0.085437,    0.000000
   0.106783,    0.000000
   0.130585,    0.000000
   0.156972,    0.000000
   0.186117,    0.000000
   0.217660,    0.000000
   0.251836,    0.000000
   0.289052,    0.000000
   0.328332,    0.000000
   0.371428,    0.000000
   0.416840,    0.000000
   0.465161,    0.000000
   0.516737,    0.000000
   0.570731,    0.000000
   0.628089,    0.000000
   0.688250,    0.000000
   0.752418,    0.000000
   0.819968,    0.000000
   0.891399,    0.000000
   0.964810,    0.000000
   1.041959,    0.000000
   1.123790,    0.000000
   1.208075,    0.000000
   1.297802,    0.000000
   1.390692,    0.000000
   1.487032,    0.000000
   1.587141,    0.000000
   1.692428,    0.000000
   1.800283,    0.000000
   1.912911,    0.000000
   2.029919,    0.000000
   2.152339,    0.000000
   2.277627,    0.000000
   2.407565,    0.000000
   2.542818,    0.000000
   2.683973,    0.000000
   2.827889,    0.000000
   2.976902,    0.000000
   3.131878,    0.000000
   3.291233,    0.000000
   3.454741,    0.000000
   3.623499,    0.000000
   3.798434,    0.000000
   3.976737,    0.000000
   4.163292,    0.000000
   4.356661,    0.000000
   4.554217,    0.000000
   4.758197,    0.000000
   4.967340,    0.000000
   5.183097,    0.000000
   5.403511,    0.000000
   5.631031,    0.000000
   5.861511,    0.000000
   6.100839,    0.000000
   6.348931,    0.000000
   6.600544,    0.000000
   6.856919,    0.000000
   7.118577,    0.000000
   7.390726,    0.000000
   7.669395,    0.000000
   7.956244,    0.000000
   8.249842,    0.000000
   8.549883,    0.000000
   8.856458,    0.000000
   9.169849,    0.000000
   9.495203,    0.000000
   9.822850,    0.000000
  10.154795,    0.000000
  10.500140,    0.000000
  10.852299,    0.000000
  11.212496,    0.000000
  11.578409,    0.000000
  11.954403,    0.000000
  12.336114,    0.000000
  12.728920,    0.000000
  13.129295,    0.000000
  13.536378,    0.000000
  13.952968,    0.000000
  14.375267,    0.000000
  14.811546,    0.000000
  15.252071,    0.000000
  15.702175,    0.000000
  16.161120,    0.000000
  16.633288,    0.000000
  17.107971,    0.000000
  17.595842,    0.000000
  18.095189,    0.000000
  18.598346,    0.000000
  19.109865,    0.000000
  19.635729,    0.000000
  20.168658,    0.000000
  20.715181,    0.000000
  21.268122,    0.000000
  21.831991,    0.000000
  22.403363,    0.000000
  22.983593,    0.000000
  23.572757,    0.000000
  24.176016,    0.000000
  24.787088,    0.000000
  25.410767,    0.000000
  26.043338,    0.000000
  26.169919,    0.000000
  26.494846,    0.000000
  26.629007,    0.000000
  26.643179,    0.000000
  26.655968,    0.000000
  26.658269,    0.000000
  26.661207,    0.000000
  26.662120,    0.000000
  26.662483,    0.000000
  26.663158,    0.000000
  26.663775,    0.000000
  26.668653,    0.000000
  26.701120,    0.000000
  26.822373,    0.000000
  27.193703,    0.000000
  27.787297,    0.000000
  28.397195,    0.000000
  29.015889,    0.000000
  29.647682,    0.000000
  30.283367,    0.000000
  30.929807,    0.000000
  31.591149,    0.000000
  32.256399,    0.000000
  32.934857,    0.000000
  33.617578,    0.000000
  34.311839,    0.000000
  35.015570,    0.000000
  35.732444,    0.000000
  36.457795,    0.000000
  37.193731,    0.000000
  37.932053,    0.000000
  38.683547,    0.000000
  39.446026,    0.000000
  40.217394,    0.000000
  41.000371,    0.000000
  41.794755,    0.000000
  42.598588,    0.000000
  43.412059,    0.000000
  44.235472,    0.000000
  45.067210,    0.000000
  45.914564,    0.000000
  46.769184,    0.000000
  47.636519,    0.000000
  48.513122,    0.000000
  49.397261,    0.000000
  50.298040,    0.000000
  51.201095,    0.000000
  52.113844,    0.000000
  53.048877,    0.000000
  53.985926,    0.000000
  54.930432,    0.000000
  55.884656,    0.000000
  56.860890,    0.000000
  57.847599,    0.000000
  58.841631,    0.000000
  59.844509,    0.000000
  60.859888,    0.000000
  61.888010,    0.000000
  62.925198,    0.000000
  63.980448,    0.000000
  65.044450,    0.000000
  66.117907,    0.000000
  67.204698,    0.000000
  68.299961,    0.000000
  69.411012,    0.000000
  70.533893,    0.000000
  71.662298,    0.000000
  72.806082,    0.000000
  73.962541,    0.000000
  75.132446,    0.000000
  76.312262,    0.000000
  77.506463,    0.000000
  78.709912,    0.000000
  79.929850,    0.000000
  81.159276,    0.000000
  82.401849,    0.000000
  83.659830,    0.000000
  84.924708,    0.000000
  86.204957,    0.000000
  87.493807,    0.000000
  88.798759,    0.000000
  90.112788,    0.000000
  91.437154,    0.000000
  92.777156,    0.000000
  94.136749,    0.000000
  95.506412,    0.000000
  96.886207,    0.000000
  98.274989,    0.000000
  99.678292,    0.000000
 101.100091,    0.000000
 102.531173,    0.000000
 103.978026,    0.000000
 105.434947,    0.000000
 106.904419,    0.000000
 108.390627,    0.000000
 109.895543,    0.000000
 110.198421,    0.000000
 110.564547,    0.000000
 110.834063,    0.000000
 110.876456,    0.000000
 110.921166,    0.000000
 110.959292,    0.000000
 110.967641,    0.000000
 110.977788,    0.000000
 110.989894,    0.000000
 110.992752,    0.000000
 110.992940,    0.000000
 110.993113,    0.000000
 110.994853,    0.000000
 111.009991,    0.000000
 111.097964,    0.000000
 111.547186,    0.000000
 112.860866,    0.000000
 114.266455,    0.000000
 115.679540,    0.000000
 117.099020,    0.000000
 118.534416,    0.000000
 119.981208,    0.000000
 121.446330,    0.000000
 122.917836,    0.000000
 124.396628,    0.000000
 125.890441,    0.000000
 127.390297,    0.000000
 128.903734,    0.000000
 130.430490,    0.000000
 131.969175,    0.000000
 133.521388,    0.000000
 135.084137,    0.000000
 136.662149,    0.000000
 138.246450,    0.000000
 139.842832,    0.000000
 141.455977,    0.000000
 143.083152,    0.000000
 144.718144,    0.000000
 146.366353,    0.000000
 148.023172,    0.000000
 149.691522,    0.000000
 151.375738,    0.000000
 153.066769,    0.000000
 154.775672,    0.000000
 156.495167,    0.000000
 158.230901,    0.000000
 159.973305,    0.000000
 161.731741,    0.000000
 163.507115,    0.000000
 165.286570,    0.000000
 167.085433,    0.000000
 168.889736,    0.000000
 170.710084,    0.000000
 172.535956,    0.000000
 174.379963,    0.000000
 176.236144,    0.000000
 178.102306,    0.000000
 179.986759,    0.000000
 181.884350,    0.000000
 183.785815,    0.000000
 185.707215,    0.000000
 187.642639,    0.000000
 189.592614,    0.000000
 191.549145,    0.000000
 193.521358,    0.000000
 195.503825,    0.000000
 197.509371,    0.000000
 199.524923,    0.000000
 201.548124,    0.000000
 203.581828,    0.000000
 205.630464,    0.000000
 207.687852,    0.000000
 209.764231,    0.000000
 211.855254,    0.000000
 213.958095,    0.000000
 216.078073,    0.000000
 218.215767,    0.000000
 220.349109,    0.000000
 222.500246,    0.000000
 224.669598,    0.000000
 226.839657,    0.000000
 229.034060,    0.000000
 231.243359,    0.000000
 233.464283,    0.000000
 235.699335,    0.000000
 237.946174,    0.000000
 240.215558,    0.000000
 242.488415,    0.000000
 244.781882,    0.000000
 247.080050,    0.000000
 249.392953,    0.000000
 251.729187,    0.000000
 254.061639,    0.000000
 256.417401,    0.000000
 258.787229,    0.000000
 261.173672,    0.000000
 263.574887,    0.000000
 263.671358,    0.000000
 263.762966,    0.000000
 263.861555,    0.000000
 263.879612,    0.000000
 263.900162,    0.000000
 263.906707,    0.000000
 263.916463,    0.000000
 263.921394,    0.000000
 263.923387,    0.000000
 263.924093,    0.000000
 263.924427,    0.000000
 263.924996,    0.000000
 263.925513,    0.000000
 263.930687,    0.000000
 263.977245,    0.000000
 264.226896,    0.000000
 265.237386,    0.000000
 267.412174,    0.000000
 269.583205,    0.000000
 271.771590,    0.000000
 273.977906,    0.000000
 276.192292,    0.000000
 278.411473,    0.000000
 280.641450,    0.000000
 282.890075,    0.000000
 285.144322,    0.000000
 287.407226,    0.000000
 289.685301,    0.000000
 291.971847,    0.000000
 294.276523,    0.000000
 296.593410,    0.000000
 298.917722,    0.000000
 301.252833,    0.000000
 303.600178,    0.000000
 305.963317,    0.000000
 308.342386,    0.000000
 310.726636,    0.000000
 313.117050,    0.000000
 315.522256,    0.000000
 317.934247,    0.000000
 320.364759,    0.000000
 322.806111,    0.000000
 325.253808,    0.000000
 327.713494,    0.000000
 330.189883,    0.000000
 332.678927,    0.000000
 335.173708,    0.000000
 337.687246,    0.000000
 340.212846,    0.000000
 342.749723,    0.000000
 345.297555,    0.000000
 347.857373,    0.000000
 350.427018,    0.000000
 353.011656,    0.000000
 355.603425,    0.000000
 358.212615,    0.000000
 360.827598,    0.000000
 363.454117,    0.000000
 366.100994,    0.000000
 368.762000,    0.000000
 371.429267,    0.000000
 374.103208,    0.000000
 376.791302,    0.000000
 379.489623,    0.000000
 382.201299,    0.000000
 384.930998,    0.000000
 387.672358,    0.000000
 390.421265,    0.000000
 393.185254,    0.000000
 395.960141,    0.000000
 398.747524,    0.000000
 401.548619,    0.000000
 404.360312,    0.000000
 407.190528,    0.000000
 410.021887,    0.000000
 412.867217,    0.000000
 415.726201,    0.000000
 418.602485,    0.000000
 421.493731,    0.000000
 424.400312,    0.000000
 427.316887,    0.000000
 430.237645,    0.000000
 433.177335,    0.000000
 436.125433,    0.000000
 439.086448,    0.000000
 442.056814,    0.000000
 445.041222,    0.000000
 448.041262,    0.000000
 451.051126,    0.000000
 454.070852,    0.000000
 457.109647,    0.000000
 460.155685,    0.000000
 463.214483,    0.000000
 466.284829,    0.000000
 469.370966,    0.000000
 472.466897,    0.000000
 475.579008,    0.000000
 478.704065,    0.000000
 481.840231,    0.000000
 484.987183,    0.000000
 488.147155,    0.000000
 491.321951,    0.000000
 494.513920,    0.000000
 497.713657,    0.000000
 500.923931,    0.000000
 504.140767,    0.000000
 504.789070,    0.000000
 507.091731,    0.000000
 507.117677,    0.000000
 507.159085,    0.000000
 507.165796,    0.000000
 507.169939,    0.000000
 507.171581,    0.000000
 507.173220,    0.000000
 507.189605,    0.000000
 507.339902,    0.000000
 508.087235,    0.000000
 510.943792,    0.000000
 514.187978,    0.000000
 517.452065,    0.000000
 520.717477,    0.000000
 524.007872,    0.000000
 527.303099,    0.000000
 530.615794,    0.000000
 533.939278,    0.000000
 537.278157,    0.000000
 540.627039,    0.000000
 543.991458,    0.000000
 547.364457,    0.000000
 550.758404,    0.000000
 554.164052,    0.000000
 557.578302,    0.000000
 561.008264,    0.000000
 564.450928,    0.000000
 567.900736,    0.000000
 571.365015,    0.000000
 574.841034,    0.000000
 578.333107,    0.000000
 581.838122,    0.000000
 585.358801,    0.000000
 588.882201,    0.000000
 592.422945,    0.000000
 595.974916,    0.000000
 599.542915,    0.000000
 603.118290,    0.000000
 606.709583,    0.000000
 610.314935,    0.000000
 613.933479,    0.000000
 617.565515,    0.000000
 621.206300,    0.000000
 624.863452,    0.000000
 628.535184,    0.000000
 632.220959,    0.000000
 635.917931,    0.000000
 639.631641,    0.000000
 643.353475,    0.000000
 647.089852,    0.000000
 650.839357,    0.000000
 654.596071,    0.000000
 658.377799,    0.000000
 662.165256,    0.000000
 665.963105,    0.000000
 669.774314,    0.000000
 673.598442,    0.000000
 677.434635,    0.000000
 681.291518,    0.000000
 685.160417,    0.000000
 689.039234,    0.000000
 692.931144,    0.000000
 696.832410,    0.000000
 700.756330,    0.000000
 704.682464,    0.000000
 708.628034,    0.000000
 712.584787,    0.000000
 716.559773,    0.000000
 720.539275,    0.000000
 724.537449,    0.000000
 728.548926,    0.000000
 732.577085,    0.000000
 736.622639,    0.000000
 740.674237,    0.000000
 744.738236,    0.000000
 748.823272,    0.000000
 752.910552,    0.000000
 757.016260,    0.000000
 761.141747,    0.000000
 765.273152,    0.000000
 769.418390,    0.000000
 773.578345,    0.000000
 777.745710,    0.000000
 781.928315,    0.000000
 786.125809,    0.000000
 790.336488,    0.000000
 794.562164,    0.000000
 798.802116,    0.000000
 803.050237,    0.000000
 807.315515,    0.000000
 811.589358,    0.000000
 815.880756,    0.000000
 820.190194,    0.000000
 823.620470,    0.000000
 824.511379,    0.000000
 828.844571,    0.000000
 833.192403,    0.000000
 837.550309,    0.000000
 841.918516,    0.000000
 846.308232,    0.000000
 850.700745,    0.000000
 855.109925,    0.000000
 859.536690,    0.000000
 863.964684,    0.000000
 868.408194,    0.000000
 872.868274,    0.000000
 877.346079,    0.000000
 878.242159,    0.000000
 879.099921,    0.000000
 879.816704,    0.000000
 879.839401,    0.000000
 879.840380,    0.000000
 879.841360,    0.000000
 879.851156,    0.000000
 879.933943,    0.000000
 880.450043,    0.000000
 882.453601,    0.000000
 887.026448,    0.000000
 891.692320,    0.000000
 896.371670,    0.000000
 901.060391,    0.000000
 905.763699,    0.000000
 910.473445,    0.000000
 915.192847,    0.000000
 919.918664,    0.000000
 924.662938,    0.000000
 929.414114,    0.000000
 934.178792,    0.000000
 938.954960,    0.000000
 943.745996,    0.000000
 948.547714,    0.000000
 953.359130,    0.000000
 958.175579,    0.000000
 962.996408,    0.000000
 967.835657,    0.000000
 972.677751,    0.000000
 977.532975,    0.000000
 982.398225,    0.000000
 987.271396,    0.000000
 992.161192,    0.000000
 997.054609,    0.000000
 997.425698,    2.707622
 997.796402,    5.462553
 998.166271,    8.261173
 998.537772,   11.122153
 998.909136,   14.032186
 999.280373,   16.991259
 999.653540,   20.015973
1000.026475,   23.089202
1000.398121,   26.201924
1000.772122,   29.384646
1001.144687,   32.605430
1001.518822,   35.890085
1001.891609,   39.213126
1002.265514,   42.596313
1002.640688,   46.041433
1003.016378,   49.541918
1003.391470,   53.087376
1003.768203,   56.699013
1004.143761,   60.350007
1004.520729,   64.065358
1004.898483,   67.839329
1005.276739,   71.669316
1005.655435,   75.554827
1006.031553,   79.464544
1006.404893,   83.395282
1006.784522,   87.442694
1007.162825,   91.526913
1007.541980,   95.671197
1007.922306,   99.879366
1008.301950,  104.131042
1008.683428,  108.454465
1009.064867,  112.828811
1009.445750,  117.247984
1009.828715,  121.742713
1010.209237,  126.260002
1010.592647,  130.862889
1010.976883,  135.527401
1011.359834,  140.227900
1011.742292,  144.973617
1012.123887,  149.759668
1012.505258,  154.593768
1012.891434,  159.540251
1013.277505,  164.537355
1013.664262,  169.595371
1014.050654,  174.700577
1014.436214,  179.846544
1014.824784,  185.084728
1015.213458,  190.376664
1015.602935,  195.731983
1015.992667,  201.143292
1016.380063,  206.574296
1016.769054,  212.079694
1017.159916,  217.664007
1017.551975,  223.318194
1017.943818,  229.022084
1018.335877,  234.781891
1018.726811,  240.577747
1019.119403,  246.450795
1019.512199,  252.379668
1019.907567,  258.400517
1020.301395,  264.451050
1020.695766,  270.562902
1021.091040,  276.741861
1021.486290,  282.973618
1021.884013,  289.297820
1022.281627,  295.673971
1022.677145,  302.069795
1023.073757,  308.536445
1023.473972,  315.115580
1023.872836,  321.726419
1024.271608,  328.389391
1024.674157,  335.169641
1025.073145,  341.943907
1025.476690,  348.849738
1025.881540,  355.832795
1026.281173,  362.780025
1026.683496,  369.827934
1027.086385,  376.939978
1027.490041,  384.119911
1027.890307,  391.293409
1028.295451,  398.567424
1028.701981,  405.879546
1029.111782,  413.263865
1029.520479,  420.641633
1029.928527,  428.020971
1030.333178,  435.351953
1030.743997,  442.807969
1031.152566,  450.236402
1031.563588,  457.722767
1031.971972,  465.174274
1032.384233,  472.709863
1032.796578,  480.260339
1033.210067,  487.845168
1033.622015,  495.415050
1034.034463,  503.007421
1034.448716,  510.646373
1034.864329,  518.323834
1035.277299,  525.965775
1035.693382,  533.678706
1036.112271,  541.457188
1036.531691,  549.259126
1036.947698,  557.010989
1037.364863,  564.797803
1037.783291,  572.621622
1038.203875,  580.499293
1038.624306,  588.387640
1039.042208,  596.241905
1039.463428,  604.172008
1039.886043,  612.141961
1040.305215,  620.060360
1040.727412,  628.049379
1041.151781,  636.093093
1041.574915,  644.126919
1042.001758,  652.244858
1042.425677,  660.320730
1042.853380,  668.482377
1043.280399,  676.644615
1043.707482,  684.821741
1044.136200,  693.043833
1044.564572,  701.272973
1044.993892,  709.533994
1045.423178,  717.808026
1045.852485,  726.096094
1046.283895,  734.438485
1046.717854,  742.843995
1047.148549,  751.199996
1047.583871,  759.659585
1048.018497,  768.119492
1048.454540,  776.620854
1048.890450,  785.133499
1049.327575,  793.683743
1049.764268,  802.239403
1050.205183,  810.891801
1050.643737,  819.511824
1051.079849,  828.097598
1051.519997,  836.776714
1051.962478,  845.515890
1052.406326,  854.296159
1052.845545,  862.998729
1053.290327,  871.825560
1053.733160,  880.627708
1054.179459,  889.512863
1054.626183,  898.420638
1055.073032,  907.345041
1055.520605,  916.298023
1055.969950,  925.300660
1056.419832,  934.328281
1056.869241,  943.360591
1057.315440,  952.342364
1057.764955,  961.404970
1058.217142,  970.535634
1058.670927,  979.712866
1059.119471,  988.798170
1059.125247,  988.915251
1059.579930,  998.139086
1060.035509, 1007.379777
1060.488067, 1016.557771
1060.946401, 1025.851629
1061.405987, 1035.169448
1061.863402, 1044.441747
1062.321023, 1053.716760
1062.781800, 1063.054223
1063.244985, 1072.438971
1063.709443, 1081.847909
1064.171979, 1091.216234
1064.636842, 1100.630065
1065.103454, 1110.077601
1065.569593, 1119.513802
1066.034789, 1128.929132
1066.501678, 1138.376953
1066.969196, 1147.835643
1067.439176, 1157.342286
1067.911961, 1166.903786
1068.383113, 1176.430258
1068.854492, 1185.959322
1069.325881, 1195.486548
1069.800809, 1205.083260
1070.272981, 1214.622145
1070.746940, 1224.195029
1071.218039, 1233.707922
1071.693053, 1243.297721
1072.168471, 1252.893453
1072.645306, 1262.515520
1073.120072, 1272.093471
1073.599482, 1281.762831
1074.079306, 1291.438124
1074.561159, 1301.151889
1075.045255, 1310.908413
1075.529341, 1320.662175
1076.014510, 1330.435159
1076.499556, 1340.203038
1076.987315, 1350.022924
1077.475086, 1359.840325
1077.963988, 1369.677735
1078.451889, 1379.492170
1078.942220, 1389.352697
1079.432018, 1399.199633
1079.924920, 1409.106056
1080.417192, 1418.996838
1080.911829, 1428.932167
1081.401373, 1438.762046
1081.899272, 1448.756755
1082.397844, 1458.761793
1082.896509, 1468.765473
1083.396483, 1478.792152
1083.892611, 1488.738378
1084.390818, 1498.722991
1084.891859, 1508.761080
1085.391532, 1518.768319
1085.895971, 1528.867613
1086.397187, 1538.898807
1086.899379, 1548.946025
1087.405925, 1559.076788
1087.914011, 1569.234687
1088.424076, 1579.428437
1088.933266, 1589.600886
1089.443722, 1599.794814
1089.956651, 1610.034272
1090.462656, 1620.131524
1090.975916, 1630.369692
1091.490700, 1640.634265
1092.002004, 1650.825313
1092.518658, 1661.118979
1093.034518, 1671.392625
1093.548316, 1681.620976
1094.069046, 1691.983175
1094.593293, 1702.410982
1095.115014, 1712.784076
1095.636126, 1723.140609
1096.159531, 1733.538214
1096.683880, 1743.950026
1097.207994, 1754.352562
1097.731252, 1764.733446
1098.257993, 1775.178762
1098.788500, 1785.694012
1099.318755, 1796.199391
1099.850672, 1806.732781
1100.380549, 1817.220788
1100.913852, 1827.771618
1101.449996, 1838.373602
1101.984568, 1848.939292
1102.522642, 1859.569040
1103.061015, 1870.199369
1103.595656, 1880.750659
1104.133984, 1891.369422
1104.676079, 1902.057082
1105.217919, 1912.734163
1105.754810, 1923.308130
1106.291649, 1933.875565
1106.834014, 1944.546245
1107.383562, 1955.352561
1107.926828, 1966.029413
1108.478420, 1976.864146
1109.026471, 1987.623257
1109.573378, 1998.353928
1110.126427, 2009.199126
1110.677567, 2020.000685
1111.229429, 2030.810207
1111.785100, 2041.688110
1112.336222, 2052.470557
1112.891413, 2063.326339
1113.444812, 2074.140603
1113.996200, 2084.909142
1114.553199, 2095.780809
1115.110654, 2106.654790
1115.668536, 2117.530414
1116.232040, 2128.508930
1116.795863, 2139.486773
1117.355623, 2150.378520
1117.918099, 2161.316235
1118.483654, 2172.306831
1119.047831, 2183.263518
1119.615269, 2194.276412
1120.182247, 2205.273102
1120.754136, 2216.357750
1121.325593, 2227.426580
1121.898637, 2238.518638
1122.468437, 2249.540299
1123.041674, 2260.620916
1123.616684, 2271.728129
1124.188958, 2282.774697
1124.765450, 2293.894971
1125.341435, 2304.997535
1125.924404, 2316.226802
1126.508667, 2327.472812
1127.091788, 2338.688596
1127.672629, 2349.852230
1128.255181, 2361.040501
1128.834538, 2372.159073
1129.417506, 2383.338620
1130.000039, 2394.501394
1130.586122, 2405.723685
1131.177357, 2417.036002
1131.771426, 2428.393697
1132.365096, 2439.734792
1132.960813, 2451.105969
1133.558503, 2462.505698
1134.155154, 2473.876380
1134.752217, 2485.245679
1135.350549, 2496.629811
1135.948929, 2508.005480
1136.547025, 2519.366293
1137.148939, 2530.790145
1137.751466, 2542.215971
1138.352208, 2553.598237
1138.955504, 2565.019158
1139.562840, 2576.506710
1140.168294, 2587.948616
1140.777968, 2599.460268
1141.386426, 2610.938735
1141.994720, 2622.403891
1142.605113, 2633.898355
1143.216630, 2645.403577
1143.833088, 2656.991282
1144.449610, 2668.569483
1145.067623, 2680.164925
1145.689157, 2691.815579
1146.307509, 2703.395547
1146.922966, 2714.910342
1147.543537, 2726.509892
1148.160951, 2738.039286
1148.786146, 2749.702839
1149.406679, 2761.268034
1150.033767, 2772.944050
1150.656422, 2784.525931
1151.283907, 2796.186162
1151.913065, 2807.865730
1152.540121, 2819.494461
1153.171548, 2831.192401
1153.805007, 2842.915951
1154.432469, 2854.516391
1155.066484, 2866.225934
1155.699450, 2877.903838
1156.330752, 2889.538728
1156.970933, 2901.324929
1157.603734, 2912.962590
1158.237028, 2924.596860
1158.881518, 2936.424186
1159.519766, 2948.123998
1160.162728, 2959.897322
1160.810562, 2971.746757
1161.454037, 2983.503128
1162.094479, 2995.190904
1162.744941, 3007.048321
1163.396295, 3018.908363
1164.052803, 3030.848507
1164.699432, 3042.595044
1165.348608, 3054.374216
1165.998492, 3066.152422
1166.654630, 3078.030053
1167.306475, 3089.815798
1167.964372, 3101.696838
1168.621632, 3113.552000
1169.283468, 3125.475203
1169.937987, 3137.251983
1170.597655, 3149.106944
1171.264242, 3161.071483
1171.926549, 3172.944143
1172.591885, 3184.856147
1173.251356, 3196.648069
1173.922968, 3208.642036
1174.584907, 3220.447810
1175.260462, 3232.481143
1175.925958, 3244.319551
1176.600935, 3256.311093
1177.280650, 3268.370800
1177.951492, 3280.256968
1178.623495, 3292.147822
1179.301040, 3304.120709
1179.975919, 3316.030195
1180.653393, 3327.969225
1181.326768, 3339.819645
1182.005346, 3351.745273
1182.685982, 3363.690472
1183.368403, 3375.650192
1184.062923, 3387.804921
1184.750859, 3399.826929
1185.441100, 3411.871876
1186.131240, 3423.897591
1186.817397, 3435.836405
1187.500033, 3447.696598
1188.194452, 3459.744086
1188.882824, 3471.668796
1189.573411, 3483.614145
1190.258531, 3495.447134
1190.953462, 3507.431774
1191.650560, 3519.435542
1192.349867, 3531.458923
1193.043853, 3543.372294
1193.741638, 3555.332485
1194.441235, 3567.305073
1195.148113, 3579.383366
1195.850622, 3591.367834
1196.566347, 3603.558486
1197.268306, 3615.495022
1197.976759, 3627.522730
1198.679238, 3639.429506
1199.384654, 3651.366686
1200.092409, 3663.323867
1200.801846, 3675.289700
1201.517398, 3687.338668
1202.222557, 3699.192494
1202.939711, 3711.227971
1203.653161, 3723.180805
1204.375820, 3735.267387
1205.093603, 3747.251525
1205.809533, 3759.183986
1206.530992, 3771.187764
1207.253476, 3783.187476
1207.978362, 3795.205788
1208.707767, 3807.277503
1209.433360, 3819.264421
1210.153841, 3831.145346
1210.887279, 3843.218326
1211.609587, 3855.086059
1212.329940, 3866.900100
1213.051632, 3878.714494
1213.783210, 3890.668819
1214.506615, 3902.467364
1215.238318, 3914.379158
1215.977443, 3926.389081
1216.720672, 3938.442563
1217.462577, 3950.451231
1218.208944, 3962.508660
1218.953362, 3974.510919
1219.689218, 3986.351643
1220.429692, 3998.243390
1221.174086, 4010.174475
1221.920584, 4022.115364
1222.672682, 4034.121630
1223.417183, 4045.982285
1224.164454, 4057.862930
1224.905508, 4069.620540
1225.657282, 4081.524007
1226.405266, 4093.342780
1227.160218, 4105.246921
1227.918346, 4117.175945
1228.675762, 4129.068401
1229.435739, 4140.975595
1230.194569, 4152.839180
1230.951763, 4164.651574
1231.718280, 4176.583572
1232.489181, 4188.557399
1233.246841, 4200.299187
1234.000240, 4211.949183
1234.769801, 4223.823075
1235.534373, 4235.593318
1236.295910, 4247.290358
1237.063706, 4259.056980
1237.838905, 4270.909963
1238.607724, 4282.638071
1239.376694, 4294.341340
1240.159034, 4306.220569
1240.932219, 4317.932795
1241.707726, 4329.652485
1242.477608, 4341.259431
1243.253649, 4352.931517
1244.030250, 4364.583949
1244.809197, 4376.243350
1245.592715, 4387.942621
1245.881547, 4392.242949
