Time, Rate of Climb
   0.000000,    0.000000
   0.001667,    0.000000
   0.003333,    0.000000
   0.005000,    0.000000
   0.006667,    0.000000
   0.008333,    0.000000
   0.010000,    0.000000
   0.011667,    0.000000
   0.013333,    0.000000
   0.015000,    0.000000
   0.016667,    0.000000
   0.018333,    0.000000
   0.020000,    0.000000
   0.021667,    0.000000
   0.023333,    0.000000
   0.025000,    0.000000
   0.026667,    0.000000
   0.028333,    0.000000
   0.030000,    0.000000
   0.031667,    0.000000
   0.033333,    0.000000
   0.035000,    0.000000
   0.036667,    0.000000
   0.038333,    0.000000
   0.040000,    0.000000
   0.041667,    0.000000
   0.043333,    0.000000
   0.045000,    0.000000
   0.046667,    0.000000
   0.048333,    0.000000
   0.050000,    0.000000
   0.051667,    0.000000
   0.053333,    0.000000
   0.055000,    0.000000
   0.056667,    0.000000
   0.058333,    0.000000
   0.060000,    0.000000
   0.061667,    0.000000
   0.063333,    0.000000
   0.065000,    0.000000
   0.066667,    0.000000
   0.068333,    0.000000
   0.070000,    0.000000
   0.071667,    0.000000
   0.073333,    0.000000
   0.075000,    0.000000
   0.076667,    0.000000
   0.078333,    0.000000
   0.080000,    0.000000
   0.081667,    0.000000
   0.083333,    0.000000
   0.085000,    0.000000
   0.086667,    0.000000
   0.088333,    0.000000
   0.090000,    0.000000
   0.091667,    0.000000
   0.093333,    0.000000
   0.095000,    0.000000
   0.096667,    0.000000
   0.098333,    0.000000
   0.100000,    0.000000
   0.101667,    0.000000
   0.103333,    0.000000
   0.105000,    0.000000
   0.106667,    0.000000
   0.108333,    0.000000
   0.110000,    0.000000
   0.111667,    0.000000
   0.113333,    0.000000
   0.115000,    0.000000
   0.116667,    0.000000
   0.118333,    0.000000
   0.120000,    0.000000
   0.121667,    0.000000
   0.123333,    0.000000
   0.125000,    0.000000
   0.126667,    0.000000
   0.128333,    0.000000
   0.130000,    0.000000
   0.131667,    0.000000
   0.133333,    0.000000
   0.135000,    0.000000
   0.136667,    0.000000
   0.138333,    0.000000
   0.140000,    0.000000
   0.141667,    0.000000
   0.143333,    0.000000
   0.145000,    0.000000
   0.146667,    0.000000
   0.148333,    0.000000
   0.150000,    0.000000
   0.151667,    0.000000
   0.153333,    0.000000
   0.155000,    0.000000
   0.156667,    0.000000
   0.158333,    0.000000
   0.160000,    0.000000
   0.161667,    0.000000
   0.163333,    0.000000
   0.165000,    0.000000
   0.166667,    0.000000
   0.168333,    0.000000
   0.170000,    0.000000
   0.171667,    0.000000
   0.173333,    0.000000
   0.175000,    0.000000
   0.176667,    0.000000
   0.178333,    0.000000
   0.180000,    0.000000
   0.181667,    0.000000
   0.183333,    0.000000
   0.185000,    0.000000
   0.186667,    0.000000
   0.188333,    0.000000
   0.190000,    0.000000
   0.191667,    0.000000
   0.193333,    0.000000
   0.195000,    0.000000
   0.196667,    0.000000
   0.198333,    0.000000
   0.200000,    0.000000
   0.201667,    0.000000
   0.203333,    0.000000
   0.205000,    0.000000
   0.206667,    0.000000
   0.208333,    0.000000
   0.210000,    0.000000
   0.211667,    0.000000
   0.213333,    0.000000
   0.215000,    0.000000
   0.216667,    0.000000
   0.218333,    0.000000
   0.220000,    0.000000
   0.221667,    0.000000
   0.223333,    0.000000
   0.225000,    0.000000
   0.226667,    0.000000
   0.228333,    0.000000
   0.230000,    0.000000
   0.231667,    0.000000
   0.233333,    0.000000
   0.235000,    0.000000
   0.236667,    0.000000
   0.238333,    0.000000
   0.240000,    0.000000
   0.241667,    0.000000
   0.243333,    0.000000
   0.245000,    0.000000
   0.246667,    0.000000
   0.248333,    0.000000
   0.250000,    0.000000
   0.251667,    0.000000
   0.253333,    0.000000
   0.255000,    0.000000
   0.256667,    0.000000
   0.258333,    0.000000
   0.260000,    0.000000
   0.261667,    0.000000
   0.263333,    0.000000
   0.265000,    0.000000
   0.266667,    0.000000
   0.268333,    0.000000
   0.270000,    0.000000
   0.271667,    0.000000
   0.273333,    0.000000
   0.275000,    0.000000
   0.276667,    0.000000
   0.278333,    0.000000
   0.280000,    0.000000
   0.281667,    0.000000
   0.283333,    0.000000
   0.285000,    0.000000
   0.286667,    0.000000
   0.288333,    0.000000
   0.290000,    0.000000
   0.291667,    0.000000
   0.293333,    0.000000
   0.295000,    0.000000
   0.296667,    0.000000
   0.298333,    0.000000
   0.300000,    0.000000
   0.301667,    0.000000
   0.303333,    0.000000
   0.305000,    0.000000
   0.306667,    0.000000
   0.308333,    0.000000
   0.310000,    0.000000
   0.311667,    0.000000
   0.312642,    0.000000
   0.314309,    0.000000
   0.315975,    0.000000
   0.317642,    0.000000
   0.319309,    0.000000
   0.320975,    0.000000
   0.322642,    0.000000
   0.324309,    0.000000
   0.325975,    0.000000
   0.327642,    0.000000
   0.329309,    0.000000
   0.330975,    0.000000
   0.332642,    0.000000
   0.334309,    0.000000
   0.335975,    0.000000
   0.337642,    0.000000
   0.339309,    0.000000
   0.340975,    0.000000
   0.342642,    0.000000
   0.344309,    0.000000
   0.345975,    0.000000
   0.347642,    0.000000
   0.349309,    0.000000
   0.350975,    0.000000
   0.352642,    0.000000
   0.354309,    0.000000
   0.355975,    0.000000
   0.357642,    0.000000
   0.359309,    0.000000
   0.360975,    0.000000
   0.362642,    0.000000
   0.364309,    0.000000
   0.365975,    0.000000
   0.367642,    0.000000
   0.368518,    0.000000
   0.370185,    0.311398
   0.371852,    0.622797
   0.373518,    0.934195
   0.375185,    1.245594
   0.376852,    1.556992
   0.378518,    1.868390
   0.380185,    2.179789
   0.381852,    2.491187
   0.383518,    2.802586
   0.385185,    3.113984
   0.386852,    3.459635
   0.388518,    3.805287
   0.390185,    4.150938
   0.391852,    4.496589
   0.393518,    4.842240
   0.395185,    5.193104
   0.396852,    5.543967
   0.398518,    5.894830
   0.400185,    6.245693
   0.401852,    6.596557
   0.403518,    6.949093
   0.405185,    7.301629
   0.406852,    7.654166
   0.408518,    8.006702
   0.410185,    8.359238
   0.410185,    8.096550
   1.605400,    7.928774
   2.825139,    7.774136
   4.084250,    7.443467
   5.433948,    6.777282
   6.920962,    6.134002
   8.567151,    5.531062
  10.405942,    4.919991
  12.496124,    4.286278
  14.982109,    3.497485
  14.982109,    0.000000
  15.801212,    0.000000
  16.620315,    0.000000
  17.439418,    0.000000
  18.258522,    0.000000
  19.077625,    0.000000
  19.896728,    0.000000
  20.715832,    0.000000
  21.534935,    0.000000
  22.354038,    0.000000
  23.173141,    0.000000
  23.992245,    0.000000
  24.811348,    0.000000
  25.630451,    0.000000
  26.449554,    0.000000
  27.268658,    0.000000
  28.087761,    0.000000
  28.906864,    0.000000
  29.725967,    0.000000
  30.545071,    0.000000
  31.364174,    0.000000
  32.183277,    0.000000
  33.002380,    0.000000
  33.821484,    0.000000
  34.640587,    0.000000
  35.459690,    0.000000
  36.278793,    0.000000
  37.097897,    0.000000
  37.917000,    0.000000
  38.736103,    0.000000
  38.736103,   -7.469321
  39.896032,   -7.544393
  41.058764,   -7.526249
  42.220084,   -7.535422
  43.376236,   -7.569074
  44.524976,   -7.617845
  45.661995,   -7.696263
  46.783206,   -7.804576
  47.900611,   -7.831105
  49.010509,   -7.883981
  49.010509,    8.321334
  49.589924,    8.239835
  50.174964,    8.162059
  50.765469,    8.088036
  51.364214,    7.939456
  51.981985,    7.600472
  52.628108,    7.258374
  53.305596,    6.913456
  54.016769,    6.587016
  54.763442,    6.271792
  54.763442,    0.000000
  56.615618,    0.000000
  58.468603,    0.000000
  60.322397,    0.000000
  62.177002,    0.000000
  64.032418,    0.000000
  65.888646,    0.000000
  67.745686,    0.000000
  69.603540,    0.000000
  71.462208,    0.000000
  71.462208,   -7.604134
  72.108615,   -7.423607
  72.744854,   -7.542070
  73.383630,   -7.512057
  74.025084,   -7.480758
  74.669359,   -7.448081
  75.316244,   -7.418080
  75.965602,   -7.389896
  76.616971,   -7.367135
  77.269434,   -7.354815
  77.269434,    0.000000
  82.269434,    0.000000
  87.269434,    0.000000
  92.269434,    0.000000
  97.269434,    0.000000
 102.269434,    0.000000
 107.269434,    0.000000
 112.269434,    0.000000
 117.269434,    0.000000
 122.269434,    0.000000
 122.269434,   -2.892158
 122.271101,   -2.890768
 122.272767,   -2.890681
 122.274434,   -2.890595
 122.276101,   -2.890301
 122.277767,   -2.889968
 122.279434,   -2.889634
 122.281101,   -2.889300
 122.282767,   -2.888966
 122.284434,   -2.888633
 122.286101,   -2.888299
 122.287767,   -2.887965
 122.289434,   -2.887631
 122.291101,   -2.887298
 122.292767,   -2.887113
 122.294434,   -2.886957
 122.296101,   -2.886800
 122.297767,   -2.886644
 122.299434,   -2.886488
 122.301101,   -2.886332
 122.302767,   -2.886176
 122.304434,   -2.886020
 122.306101,   -2.885864
 122.307767,   -2.885708
 122.309434,   -2.885659
 122.311101,   -2.885632
 122.312767,   -2.885605
 122.314434,   -2.885578
 122.316101,   -2.885550
 122.317767,   -2.885523
 122.319434,   -2.885496
 122.321101,   -2.885468
 122.322767,   -2.885441
 122.324434,   -2.885414
 122.326101,   -2.884675
 122.327767,   -2.883797
 122.329434,   -2.882919
 122.331101,   -2.882042
 122.332767,   -2.881164
 122.334434,   -2.880286
 122.336101,   -2.879408
 122.337767,   -2.878531
 122.339434,   -2.877653
 122.341101,   -2.876775
 122.342767,   -2.877216
 122.344434,   -2.877914
 122.346101,   -2.878611
 122.347767,   -2.879309
 122.349434,   -2.880007
 122.351101,   -2.880704
 122.352767,   -2.881402
 122.354434,   -2.882100
 122.356101,   -2.882798
 122.357767,   -2.883495
 122.359434,   -2.883489
 122.361101,   -2.883345
 122.362767,   -2.883201
 122.364434,   -2.883057
 122.366101,   -2.882913
 122.367767,   -2.882769
 122.369434,   -2.882625
 122.371101,   -2.882481
 122.372767,   -2.882337
 122.374434,   -2.882193
 122.376101,   -2.882174
 122.377767,   -2.882180
 122.379434,   -2.882185
 122.381101,   -2.882191
 122.382767,   -2.882196
 122.384434,   -2.882202
 122.386101,   -2.882207
 122.387767,   -2.882213
 122.389434,   -2.882218
 122.391101,   -2.882224
 122.392767,   -2.882351
 122.394434,   -2.882501
 122.396101,   -2.882652
 122.397767,   -2.882802
 122.399434,   -2.882952
 122.401101,   -2.883103
 122.402767,   -2.883253
 122.404434,   -2.883404
 122.406101,   -2.883554
 122.407767,   -2.883705
 122.409434,   -2.883542
 122.411101,   -2.883318
 122.412767,   -2.883094
 122.414434,   -2.882870
 122.416101,   -2.882647
 122.417767,   -2.882423
 122.419434,   -2.882199
 122.421101,   -2.881975
 122.422767,   -2.881751
 122.424434,   -2.881528
 122.426101,   -2.881468
 122.427767,   -2.881441
 122.429434,   -2.881414
 122.431101,   -2.881387
 122.432767,   -2.881359
 122.434434,   -2.881332
 122.436101,   -2.881305
 122.437767,   -2.881277
 122.439434,   -2.881250
 122.441101,   -2.881223
 122.442767,   -2.880494
 122.444434,   -2.879629
 122.446101,   -2.878764
 122.447767,   -2.877899
 122.449434,   -2.877033
 122.451101,   -2.876168
 122.452767,   -2.875303
 122.454434,   -2.874438
 122.456101,   -2.873572
 122.457767,   -2.872707
 122.459434,   -2.872768
 122.461101,   -2.873010
 122.462767,   -2.873251
 122.464434,   -2.873493
 122.466101,   -2.873734
 122.467767,   -2.873976
 122.469434,   -2.874218
 122.471101,   -2.874459
 122.472767,   -2.874701
 122.474434,   -2.874942
 122.476101,   -2.874939
 122.477767,   -2.874887
 122.479434,   -2.874836
 122.481101,   -2.874785
 122.482767,   -2.874733
 122.484434,   -2.874682
 122.486101,   -2.874630
 122.487767,   -2.874579
 122.489434,   -2.874528
 122.491101,   -2.874476
 122.492767,   -2.874580
 122.494434,   -2.874714
 122.496101,   -2.874848
 122.497767,   -2.874983
 122.499434,   -2.875117
 122.501101,   -2.875251
 122.502767,   -2.875385
 122.504434,   -2.875520
 122.506101,   -2.875654
 122.507767,   -2.875788
 122.509434,   -2.875642
 122.511101,   -2.875441
 122.512767,   -2.875239
 122.514434,   -2.875038
 122.516101,   -2.874837
 122.517767,   -2.874636
 122.519434,   -2.874435
 122.521101,   -2.874234
 122.522767,   -2.874033
 122.524434,   -2.873832
 122.526101,   -2.873789
 122.527767,   -2.873777
 122.529434,   -2.873765
 122.531101,   -2.873753
 122.532767,   -2.873741
 122.534434,   -2.873728
 122.536101,   -2.873716
 122.537767,   -2.873704
 122.539434,   -2.873692
 122.541101,   -2.873680
 122.542767,   -2.873822
 122.544434,   -2.873994
 122.546101,   -2.874165
 122.547767,   -2.874337
 122.549434,   -2.874509
 122.551101,   -2.874681
 122.552767,   -2.874852
 122.554434,   -2.875024
 122.556101,   -2.875196
 122.557767,   -2.875368
 122.559434,   -2.875255
 122.561101,   -2.875087
 122.562767,   -2.874919
 122.564434,   -2.874751
 122.566101,   -2.874583
 122.567767,   -2.874414
 122.569434,   -2.874246
 122.571101,   -2.874078
 122.572767,   -2.873910
 122.574434,   -2.873742
 122.576101,   -2.873723
 122.577767,   -2.873734
 122.579434,   -2.873744
 122.581101,   -2.873755
 122.582767,   -2.873765
 122.584434,   -2.873775
 122.586101,   -2.873786
 122.587767,   -2.873796
 122.589434,   -2.873807
 122.591101,   -2.873817
 122.592767,   -2.873983
 122.594434,   -2.874179
 122.596101,   -2.874375
 122.597767,   -2.874571
 122.599434,   -2.874767
 122.601101,   -2.874963
 122.602767,   -2.875159
 122.604434,   -2.875355
 122.606101,   -2.875551
 122.607767,   -2.875747
 122.609434,   -2.875648
 122.611101,   -2.875491
 122.612767,   -2.875334
 122.614434,   -2.875177
 122.616101,   -2.875020
 122.617767,   -2.874863
 122.619434,   -2.874706
 122.621101,   -2.874549
 122.622767,   -2.874392
 122.624434,   -2.874235
 122.626101,   -2.874220
 122.627767,   -2.874233
 122.629434,   -2.874246
 122.631101,   -2.874259
 122.632767,   -2.874272
 122.634434,   -2.874285
 122.636101,   -2.874298
 122.637767,   -2.874311
 122.639434,   -2.874324
 122.641101,   -2.874337
 122.642767,   -2.874498
 122.644434,   -2.874688
 122.646101,   -2.874879
 122.647767,   -2.875069
 122.649434,   -2.875259
 122.651101,   -2.875450
 122.652767,   -2.875640
 122.654434,   -2.875831
 122.656101,   -2.876021
 122.657767,   -2.876211
 122.659434,   -2.876099
 122.661101,   -2.875929
 122.662767,   -2.875758
 122.664434,   -2.875587
 122.666101,   -2.875416
 122.667767,   -2.875245
 122.669434,   -2.875074
 122.671101,   -2.874904
 122.672767,   -2.874733
 122.674434,   -2.874562
 122.676101,   -2.874532
 122.677767,   -2.874529
 122.679434,   -2.874527
 122.681101,   -2.874524
 122.682767,   -2.874522
 122.684434,   -2.874519
 122.686101,   -2.874516
 122.687767,   -2.874514
 122.689434,   -2.874511
 122.691101,   -2.874509
 122.692767,   -2.874643
 122.694434,   -2.874804
 122.696101,   -2.874965
 122.697767,   -2.875126
 122.699434,   -2.875286
 122.701101,   -2.875447
 122.702767,   -2.875608
 122.704434,   -2.875769
 122.706101,   -2.875930
 122.707767,   -2.876091
 122.709434,   -2.875950
 122.711101,   -2.875751
 122.712767,   -2.875551
 122.714434,   -2.875352
 122.716101,   -2.875153
 122.717767,   -2.874953
 122.719434,   -2.874754
 122.721101,   -2.874555
 122.722767,   -2.874355
 122.724434,   -2.874156
 122.726101,   -2.874096
 122.727767,   -2.874064
 122.729434,   -2.874032
 122.731101,   -2.874000
 122.732767,   -2.873967
 122.734434,   -2.873935
 122.736101,   -2.873903
 122.737767,   -2.873871
 122.739434,   -2.873838
 122.741101,   -2.873806
 122.742767,   -2.873911
 122.744434,   -2.874043
 122.746101,   -2.874175
 122.747767,   -2.874307
 122.749434,   -2.874439
 122.751101,   -2.874571
 122.752767,   -2.874703
 122.754434,   -2.874835
 122.756101,   -2.874967
 122.757767,   -2.875099
 122.759434,   -2.874931
 122.761101,   -2.874705
 122.762767,   -2.874478
 122.764434,   -2.874252
 122.766101,   -2.874026
 122.767767,   -2.873800
 122.769434,   -2.873573
 122.771101,   -2.873347
 122.772767,   -2.873121
 122.774434,   -2.872894
 122.776101,   -2.874131
 122.777767,   -2.875652
 122.779434,   -2.877174
 122.781101,   -2.878695
 122.782767,   -2.880217
 122.784434,   -2.881738
 122.786101,   -2.883260
 122.787767,   -2.884781
 122.789434,   -2.886303
 122.791101,   -2.887824
 122.792767,   -2.887337
 122.794434,   -2.886457
 122.796101,   -2.885578
 122.797767,   -2.884698
 122.799434,   -2.883819
 122.801101,   -2.882939
 122.802767,   -2.882060
 122.804434,   -2.881180
 122.806101,   -2.880301
 122.807767,   -2.879421
 122.809434,   -2.878998
 122.811101,   -2.878663
 122.812767,   -2.878329
 122.814434,   -2.877994
 122.816101,   -2.877660
 122.817767,   -2.877325
 122.819434,   -2.876991
 122.821101,   -2.876656
 122.822767,   -2.876322
 122.824434,   -2.875987
 122.826101,   -2.875817
 122.827767,   -2.875679
 122.829434,   -2.875542
 122.831101,   -2.875404
 122.832767,   -2.875266
 122.834434,   -2.875128
 122.836101,   -2.874990
 122.837767,   -2.874852
 122.839434,   -2.874714
 122.841101,   -2.874577
 122.842767,   -2.874523
 122.844434,   -2.874485
 122.846101,   -2.874448
 122.847767,   -2.874410
 122.849434,   -2.874373
 122.851101,   -2.874335
 122.852767,   -2.874298
 122.854434,   -2.874260
 122.856101,   -2.874223
 122.857767,   -2.874185
 122.859434,   -2.874274
 122.861101,   -2.874388
 122.862767,   -2.874501
 122.864434,   -2.874615
 122.866101,   -2.874728
 122.867767,   -2.874842
 122.869434,   -2.874955
 122.871101,   -2.875069
 122.872767,   -2.875182
 122.874434,   -2.875296
 122.876101,   -2.875099
 122.877767,   -2.874841
 122.879434,   -2.874584
 122.881101,   -2.874326
 122.882767,   -2.874069
 122.884434,   -2.873811
 122.886101,   -2.873554
 122.887767,   -2.873297
 122.889434,   -2.873039
 122.891101,   -2.872782
 122.892767,   -2.872697
 122.894434,   -2.872647
 122.896101,   -2.872596
 122.897767,   -2.872546
 122.899434,   -2.872495
 122.901101,   -2.872445
 122.902767,   -2.872394
 122.904434,   -2.872344
 122.906101,   -2.872293
 122.907767,   -2.872243
 122.909434,   -2.871492
 122.911101,   -2.870605
 122.912767,   -2.869718
 122.914434,   -2.868831
 122.916101,   -2.867944
 122.917767,   -2.867057
 122.919434,   -2.866170
 122.921101,   -2.865283
 122.922767,   -2.864396
 122.924434,   -2.863509
 122.926101,   -2.863565
 122.927767,   -2.863806
 122.929434,   -2.864046
 122.931101,   -2.864287
 122.932767,   -2.864527
 122.934434,   -2.864768
 122.936101,   -2.865008
 122.937767,   -2.865249
 122.939434,   -2.865489
 122.941101,   -2.865730
 122.942767,   -2.865731
 122.944434,   -2.865685
 122.946101,   -2.865639
 122.947767,   -2.865594
 122.949434,   -2.865548
 122.951101,   -2.865502
 122.952767,   -2.865457
 122.954434,   -2.865411
 122.956101,   -2.865366
 122.957767,   -2.865320
 122.959434,   -2.865439
 122.961101,   -2.865589
 122.962767,   -2.865740
 122.964434,   -2.865891
 122.966101,   -2.866042
 122.967767,   -2.866192
 122.969434,   -2.866343
 122.971101,   -2.866494
 122.972767,   -2.866645
 122.974434,   -2.866795
 122.976101,   -2.866669
 122.977767,   -2.866489
 122.979434,   -2.866309
 122.981101,   -2.866129
 122.982767,   -2.865948
 122.984434,   -2.865768
 122.986101,   -2.865588
 122.987767,   -2.865408
 122.989434,   -2.865228
 122.991101,   -2.865048
 122.992767,   -2.865028
 122.994434,   -2.865040
 122.996101,   -2.865052
 122.997767,   -2.865064
 122.999434,   -2.865076
 123.001101,   -2.865088
 123.002767,   -2.865099
 123.004434,   -2.865111
 123.006101,   -2.865123
 123.007767,   -2.865135
 123.009434,   -2.865313
 123.011101,   -2.865524
 123.012767,   -2.865735
 123.014434,   -2.865945
 123.016101,   -2.866156
 123.017767,   -2.866366
 123.019434,   -2.866577
 123.021101,   -2.866788
 123.022767,   -2.866998
 123.024434,   -2.867209
 123.026101,   -2.867130
 123.027767,   -2.866994
 123.029434,   -2.866859
 123.031101,   -2.866724
 123.032767,   -2.866588
 123.034434,   -2.866453
 123.036101,   -2.866317
 123.037767,   -2.866182
 123.039434,   -2.866047
 123.041101,   -2.865911
 123.042767,   -2.865141
 123.044434,   -2.864246
 123.046101,   -2.863351
 123.047767,   -2.862457
 123.049434,   -2.861562
 123.051101,   -2.860668
 123.052767,   -2.859773
 123.054434,   -2.858879
 123.056101,   -2.857984
 123.057767,   -2.857089
 123.059434,   -2.857162
 123.061101,   -2.857424
 123.062767,   -2.857686
 123.064434,   -2.857947
 123.066101,   -2.858209
 123.067767,   -2.858471
 123.069434,   -2.858732
 123.071101,   -2.858994
 123.072767,   -2.859256
 123.074434,   -2.859517
 123.076101,   -2.859558
 123.077767,   -2.859556
 123.079434,   -2.859555
 123.081101,   -2.859553
 123.082767,   -2.859551
 123.084434,   -2.859549
 123.086101,   -2.859547
 123.087767,   -2.859546
 123.089434,   -2.859544
 123.091101,   -2.859542
 123.092767,   -2.859721
 123.094434,   -2.859936
 123.096101,   -2.860151
 123.097767,   -2.860366
 123.099434,   -2.860580
 123.101101,   -2.860795
 123.102767,   -2.861010
 123.104434,   -2.861225
 123.106101,   -2.861439
 123.107767,   -2.861654
 123.109434,   -2.861604
 123.111101,   -2.861501
 123.112767,   -2.861399
 123.114434,   -2.861297
 123.116101,   -2.861195
 123.117767,   -2.861093
 123.119434,   -2.860991
 123.121101,   -2.860889
 123.122767,   -2.860787
 123.124434,   -2.860685
 123.126101,   -2.861669
 123.127767,   -2.862864
 123.129434,   -2.864060
 123.131101,   -2.865256
 123.132767,   -2.866452
 123.134434,   -2.867647
 123.136101,   -2.868843
 123.137767,   -2.870039
 123.139434,   -2.871235
 123.141101,   -2.872431
 123.142767,   -2.871741
 123.144434,   -2.870683
 123.146101,   -2.869626
 123.147767,   -2.868568
 123.149434,   -2.867511
 123.151101,   -2.866453
 123.152767,   -2.865396
 123.154434,   -2.864339
 123.156101,   -2.863281
 123.157767,   -2.862224
 123.159434,   -2.862029
 123.161101,   -2.862003
 123.162767,   -2.861977
 123.164434,   -2.861950
 123.166101,   -2.861924
 123.167767,   -2.861898
 123.169434,   -2.861872
 123.171101,   -2.861846
 123.172767,   -2.861819
 123.174434,   -2.861793
 123.176101,   -2.861930
 123.177767,   -2.862099
 123.179434,   -2.862268
 123.181101,   -2.862437
 123.182767,   -2.862605
 123.184434,   -2.862774
 123.186101,   -2.862943
 123.187767,   -2.863112
 123.189434,   -2.863281
 123.191101,   -2.863449
 123.192767,   -2.863338
 123.194434,   -2.863171
 123.196101,   -2.863004
 123.197767,   -2.862838
 123.199434,   -2.862671
 123.201101,   -2.862505
 123.202767,   -2.862338
 123.204434,   -2.862172
 123.206101,   -2.862005
 123.207767,   -2.861839
 123.209434,   -2.861830
 123.211101,   -2.861853
 123.212767,   -2.861875
 123.214434,   -2.861897
 123.216101,   -2.861920
 123.217767,   -2.861942
 123.219434,   -2.861965
 123.221101,   -2.861987
 123.222767,   -2.862009
 123.224434,   -2.862032
 123.226101,   -2.862218
 123.227767,   -2.862435
 123.229434,   -2.862653
 123.231101,   -2.862870
 123.232767,   -2.863088
 123.234434,   -2.863306
 123.236101,   -2.863523
 123.237767,   -2.863741
 123.239434,   -2.863958
 123.241101,   -2.864176
 123.242767,   -2.864099
 123.244434,   -2.863965
 123.246101,   -2.863831
 123.247767,   -2.863696
 123.249434,   -2.863562
 123.251101,   -2.863428
 123.252767,   -2.863293
 123.254434,   -2.863159
 123.256101,   -2.863025
 123.257767,   -2.862890
 123.259434,   -2.862114
 123.261101,   -2.861213
 123.262767,   -2.860312
 123.264434,   -2.859411
 123.266101,   -2.858510
 123.267767,   -2.857609
 123.269434,   -2.856708
 123.271101,   -2.855807
 123.272767,   -2.854906
 123.274434,   -2.854005
 123.276101,   -2.854072
 123.277767,   -2.854328
 123.279434,   -2.854584
 123.281101,   -2.854840
 123.282767,   -2.855096
 123.284434,   -2.855352
 123.286101,   -2.855608
 123.287767,   -2.855864
 123.289434,   -2.856119
 123.291101,   -2.856375
 123.292767,   -2.856407
 123.294434,   -2.856395
 123.296101,   -2.856383
 123.297767,   -2.856371
 123.299434,   -2.856359
 123.301101,   -2.856347
 123.302767,   -2.856334
 123.304434,   -2.856322
 123.306101,   -2.856310
 123.307767,   -2.856298
 123.309434,   -2.856466
 123.311101,   -2.856669
 123.312767,   -2.856871
 123.314434,   -2.857074
 123.316101,   -2.857277
 123.317767,   -2.857479
 123.319434,   -2.857682
 123.321101,   -2.857885
 123.322767,   -2.858088
 123.324434,   -2.858290
 123.326101,   -2.858225
 123.327767,   -2.858108
 123.329434,   -2.857991
 123.331101,   -2.857874
 123.332767,   -2.857757
 123.334434,   -2.857639
 123.336101,   -2.857522
 123.337767,   -2.857405
 123.339434,   -2.857288
 123.341101,   -2.857171
 123.342767,   -2.858144
 123.344434,   -2.859329
 123.346101,   -2.860514
 123.347767,   -2.861700
 123.349434,   -2.862885
 123.351101,   -2.864070
 123.352767,   -2.865256
 123.354434,   -2.866441
 123.356101,   -2.867626
 123.357767,   -2.868812
 123.359434,   -2.868104
 123.361101,   -2.867027
 123.362767,   -2.865950
 123.364434,   -2.864873
 123.366101,   -2.863797
 123.367767,   -2.862720
 123.369434,   -2.861643
 123.371101,   -2.860566
 123.372767,   -2.859489
 123.374434,   -2.858412
 123.376101,   -2.858203
 123.377767,   -2.858163
 123.379434,   -2.858123
 123.381101,   -2.858083
 123.382767,   -2.858043
 123.384434,   -2.858002
 123.386101,   -2.857962
 123.387767,   -2.857922
 123.389434,   -2.857882
 123.391101,   -2.857842
 123.392767,   -2.857968
 123.394434,   -2.858126
 123.396101,   -2.858285
 123.397767,   -2.858443
 123.399434,   -2.858602
 123.401101,   -2.858760
 123.402767,   -2.858919
 123.404434,   -2.859077
 123.406101,   -2.859236
 123.407767,   -2.859394
 123.409434,   -2.859274
 123.411101,   -2.859099
 123.412767,   -2.858924
 123.414434,   -2.858749
 123.416101,   -2.858575
 123.417767,   -2.858400
 123.419434,   -2.858225
 123.421101,   -2.858051
 123.422767,   -2.857876
 123.424434,   -2.857701
 123.426101,   -2.857689
 123.427767,   -2.857708
 123.429434,   -2.857727
 123.431101,   -2.857746
 123.432767,   -2.857766
 123.434434,   -2.857785
 123.436101,   -2.857804
 123.437767,   -2.857823
 123.439434,   -2.857843
 123.441101,   -2.857862
 123.442767,   -2.858049
 123.444434,   -2.858269
 123.446101,   -2.858489
 123.447767,   -2.858709
 123.449434,   -2.858929
 123.451101,   -2.859148
 123.452767,   -2.859368
 123.454434,   -2.859588
 123.456101,   -2.859808
 123.457767,   -2.860028
 123.459434,   -2.859956
 123.461101,   -2.859828
 123.462767,   -2.859700
 123.464434,   -2.859571
 123.466101,   -2.859443
 123.467767,   -2.859314
 123.469434,   -2.859186
 123.471101,   -2.859058
 123.472767,   -2.858929
 123.474434,   -2.858801
 123.476101,   -2.858032
 123.477767,   -2.857139
 123.479434,   -2.856245
 123.481101,   -2.855352
 123.482767,   -2.854458
 123.484434,   -2.853564
 123.486101,   -2.852671
 123.487767,   -2.851777
 123.489434,   -2.850884
 123.491101,   -2.849990
 123.492767,   -2.850071
 123.494434,   -2.850342
 123.496101,   -2.850614
 123.497767,   -2.850885
 123.499434,   -2.851156
 123.501101,   -2.851427
 123.502767,   -2.851699
 123.504434,   -2.851970
 123.506101,   -2.852241
 123.507767,   -2.852512
 123.509434,   -2.852562
 123.511101,   -2.852567
 123.512767,   -2.852573
 123.514434,   -2.852579
 123.516101,   -2.852584
 123.517767,   -2.852590
 123.519434,   -2.852596
 123.521101,   -2.852602
 123.522767,   -2.852607
 123.524434,   -2.852613
 123.526101,   -2.852802
 123.527767,   -2.853026
 123.529434,   -2.853251
 123.531101,   -2.853475
 123.532767,   -2.853700
 123.534434,   -2.853924
 123.536101,   -2.854149
 123.537767,   -2.854373
 123.539434,   -2.854598
 123.541101,   -2.854822
 123.542767,   -2.854779
 123.544434,   -2.854684
 123.546101,   -2.854589
 123.547767,   -2.854494
 123.549434,   -2.854399
 123.551101,   -2.854304
 123.552767,   -2.854209
 123.554434,   -2.854114
 123.556101,   -2.854019
 123.557767,   -2.853924
 123.559434,   -2.854923
 123.561101,   -2.856136
 123.562767,   -2.857349
 123.564434,   -2.858562
 123.566101,   -2.859775
 123.567767,   -2.860988
 123.569434,   -2.862201
 123.571101,   -2.863413
 123.572767,   -2.864626
 123.574434,   -2.865839
 123.576101,   -2.865152
 123.577767,   -2.864094
 123.579434,   -2.863037
 123.581101,   -2.861979
 123.582767,   -2.860921
 123.584434,   -2.859864
 123.586101,   -2.858806
 123.587767,   -2.857748
 123.589434,   -2.856691
 123.591101,   -2.855633
 123.592767,   -2.855445
 123.594434,   -2.855426
 123.596101,   -2.855406
 123.597767,   -2.855387
 123.599434,   -2.855368
 123.601101,   -2.855349
 123.602767,   -2.855330
 123.604434,   -2.855311
 123.606101,   -2.855292
 123.607767,   -2.855273
 123.609434,   -2.855419
 123.611101,   -2.855597
 123.612767,   -2.855774
 123.614434,   -2.855952
 123.616101,   -2.856130
 123.617767,   -2.856308
 123.619434,   -2.856485
 123.621101,   -2.856663
 123.622767,   -2.856841
 123.624434,   -2.857018
 123.626101,   -2.856913
 123.627767,   -2.856752
 123.629434,   -2.856592
 123.631101,   -2.856431
 123.632767,   -2.856270
 123.634434,   -2.856109
 123.636101,   -2.855949
 123.637767,   -2.855788
 123.639434,   -2.855627
 123.641101,   -2.855467
 123.642767,   -2.855465
 123.644434,   -2.855495
 123.646101,   -2.855525
 123.647767,   -2.855554
 123.649434,   -2.855584
 123.651101,   -2.855613
 123.652767,   -2.855643
 123.654434,   -2.855673
 123.656101,   -2.855702
 123.657767,   -2.855732
 123.659434,   -2.855926
 123.661101,   -2.856152
 123.662767,   -2.856378
 123.664434,   -2.856604
 123.666101,   -2.856830
 123.667767,   -2.857056
 123.669434,   -2.857282
 123.671101,   -2.857508
 123.672767,   -2.857734
 123.674434,   -2.857960
 123.676101,   -2.857890
 123.677767,   -2.857761
 123.679434,   -2.857632
 123.681101,   -2.857504
 123.682767,   -2.857375
 123.684434,   -2.857247
 123.686101,   -2.857118
 123.687767,   -2.856989
 123.689434,   -2.856861
 123.691101,   -2.856732
 123.692767,   -2.855956
 123.694434,   -2.855055
 123.696101,   -2.854153
 123.697767,   -2.853251
 123.699434,   -2.852349
 123.701101,   -2.851447
 123.702767,   -2.850545
 123.704434,   -2.849643
 123.706101,   -2.848742
 123.707767,   -2.847840
 123.709434,   -2.847913
 123.711101,   -2.848177
 123.712767,   -2.848440
 123.714434,   -2.848704
 123.716101,   -2.848967
 123.717767,   -2.849230
 123.719434,   -2.849494
 123.721101,   -2.849757
 123.722767,   -2.850021
 123.724434,   -2.850284
 123.726101,   -2.850322
 123.727767,   -2.850315
 123.729434,   -2.850308
 123.731101,   -2.850301
 123.732767,   -2.850295
 123.734434,   -2.850288
 123.736101,   -2.850281
 123.737767,   -2.850274
 123.739434,   -2.850268
 123.741101,   -2.850261
 123.742767,   -2.850436
 123.744434,   -2.850646
 123.746101,   -2.850856
 123.747767,   -2.851066
 123.749434,   -2.851277
 123.751101,   -2.851487
 123.752767,   -2.851697
 123.754434,   -2.851907
 123.756101,   -2.852118
 123.757767,   -2.852328
 123.759434,   -2.852268
 123.761101,   -2.852156
 123.762767,   -2.852044
 123.764434,   -2.851932
 123.766101,   -2.851820
 123.767767,   -2.851708
 123.769434,   -2.851595
 123.771101,   -2.851483
 123.772767,   -2.851371
 123.774434,   -2.851259
 123.776101,   -2.852245
 123.777767,   -2.853446
 123.779434,   -2.854647
 123.781101,   -2.855847
 123.782767,   -2.857048
 123.784434,   -2.858249
 123.786101,   -2.859449
 123.787767,   -2.860650
 123.789434,   -2.861851
 123.791101,   -2.863052
 123.792767,   -2.862345
 123.794434,   -2.861266
 123.796101,   -2.860188
 123.797767,   -2.859109
 123.799434,   -2.858030
 123.801101,   -2.856952
 123.802767,   -2.855873
 123.804434,   -2.854795
 123.806101,   -2.853716
 123.807767,   -2.852637
 123.809434,   -2.852433
 123.811101,   -2.852399
 123.812767,   -2.852365
 123.814434,   -2.852331
 123.816101,   -2.852297
 123.817767,   -2.852263
 123.819434,   -2.852229
 123.821101,   -2.852195
 123.822767,   -2.852160
 123.824434,   -2.852126
 123.826101,   -2.852260
 123.827767,   -2.852426
 123.829434,   -2.852592
 123.831101,   -2.852758
 123.832767,   -2.852924
 123.834434,   -2.853090
 123.836101,   -2.853256
 123.837767,   -2.853422
 123.839434,   -2.853588
 123.841101,   -2.853754
 123.842767,   -2.853638
 123.844434,   -2.853468
 123.846101,   -2.853297
 123.847767,   -2.853126
 123.849434,   -2.852956
 123.851101,   -2.852785
 123.852767,   -2.852614
 123.854434,   -2.852444
 123.856101,   -2.852273
 123.857767,   -2.852103
 123.859434,   -2.852095
 123.861101,   -2.852119
 123.862767,   -2.852143
 123.864434,   -2.852167
 123.866101,   -2.852191
 123.867767,   -2.852215
 123.869434,   -2.852239
 123.871101,   -2.852263
 123.872767,   -2.852287
 123.874434,   -2.852311
 123.876101,   -2.852504
 123.877767,   -2.852729
 123.879434,   -2.852954
 123.881101,   -2.853179
 123.882767,   -2.853404
 123.884434,   -2.853629
 123.886101,   -2.853854
 123.887767,   -2.854080
 123.889434,   -2.854305
 123.891101,   -2.854530
 123.892767,   -2.854460
 123.894434,   -2.854333
 123.896101,   -2.854206
 123.897767,   -2.854079
 123.899434,   -2.853951
 123.901101,   -2.853824
 123.902767,   -2.853697
 123.904434,   -2.853570
 123.906101,   -2.853442
 123.907767,   -2.853315
 123.909434,   -2.852541
 123.911101,   -2.851641
 123.912767,   -2.850741
 123.914434,   -2.849841
 123.916101,   -2.848940
 123.917767,   -2.848040
 123.919434,   -2.847140
 123.921101,   -2.846240
 123.922767,   -2.845340
 123.924434,   -2.844440
 123.926101,   -2.844521
 123.927767,   -2.844794
 123.929434,   -2.845067
 123.931101,   -2.845340
 123.932767,   -2.845613
 123.934434,   -2.845886
 123.936101,   -2.846159
 123.937767,   -2.846432
 123.939434,   -2.846705
 123.941101,   -2.846978
 123.942767,   -2.847026
 123.944434,   -2.847030
 123.946101,   -2.847034
 123.947767,   -2.847038
 123.949434,   -2.847042
 123.951101,   -2.847046
 123.952767,   -2.847050
 123.954434,   -2.847054
 123.956101,   -2.847058
 123.957767,   -2.847062
 123.959434,   -2.847249
 123.961101,   -2.847473
 123.962767,   -2.847696
 123.964434,   -2.847920
 123.966101,   -2.848143
 123.967767,   -2.848367
 123.969434,   -2.848590
 123.971101,   -2.848814
 123.972767,   -2.849037
 123.974434,   -2.849261
 123.976101,   -2.849214
 123.977767,   -2.849114
 123.979434,   -2.849015
 123.981101,   -2.848915
 123.982767,   -2.848816
 123.984434,   -2.848716
 123.986101,   -2.848617
 123.987767,   -2.848518
 123.989434,   -2.848418
 123.991101,   -2.848319
 123.992767,   -2.849322
 123.994434,   -2.850541
 123.996101,   -2.851760
 123.997767,   -2.852979
 123.999434,   -2.854197
 124.001101,   -2.855416
 124.002767,   -2.856635
 124.004434,   -2.857853
 124.006101,   -2.859072
 124.007767,   -2.860291
 124.009434,   -2.859594
 124.011101,   -2.858523
 124.012767,   -2.857452
 124.014434,   -2.856381
 124.016101,   -2.855310
 124.017767,   -2.854240
 124.019434,   -2.853169
 124.021101,   -2.852098
 124.022767,   -2.851027
 124.024434,   -2.849956
 124.026101,   -2.849762
 124.027767,   -2.849739
 124.029434,   -2.849715
 124.031101,   -2.849692
 124.032767,   -2.849668
 124.034434,   -2.849645
 124.036101,   -2.849621
 124.037767,   -2.849598
 124.039434,   -2.849574
 124.041101,   -2.849551
 124.042767,   -2.849693
 124.044434,   -2.849869
 124.046101,   -2.850044
 124.047767,   -2.850219
 124.049434,   -2.850394
 124.051101,   -2.850570
 124.052767,   -2.850745
 124.054434,   -2.850920
 124.056101,   -2.851095
 124.057767,   -2.851271
 124.059434,   -2.851161
 124.061101,   -2.850995
 124.062767,   -2.850830
 124.064434,   -2.850665
 124.066101,   -2.850499
 124.067767,   -2.850334
 124.069434,   -2.850169
 124.071101,   -2.850003
 124.072767,   -2.849838
 124.074434,   -2.849673
 124.076101,   -2.849669
 124.077767,   -2.849696
 124.079434,   -2.849723
 124.081101,   -2.849750
 124.082767,   -2.849778
 124.084434,   -2.849805
 124.086101,   -2.849832
 124.087767,   -2.849860
 124.089434,   -2.849887
 124.091101,   -2.849914
 124.092767,   -2.850108
 124.094434,   -2.850335
 124.096101,   -2.850561
 124.097767,   -2.850787
 124.099434,   -2.851014
 124.101101,   -2.851240
 124.102767,   -2.851467
 124.104434,   -2.851693
 124.106101,   -2.851919
 124.107767,   -2.852146
 124.109434,   -2.852074
 124.111101,   -2.851943
 124.112767,   -2.851813
 124.114434,   -2.851683
 124.116101,   -2.851553
 124.117767,   -2.851423
 124.119434,   -2.851292
 124.121101,   -2.851162
 124.122767,   -2.851032
 124.124434,   -2.850902
 124.126101,   -2.850120
 124.127767,   -2.849211
 124.129434,   -2.848302
 124.131101,   -2.847393
 124.132767,   -2.846484
 124.134434,   -2.845576
 124.136101,   -2.844667
 124.137767,   -2.843758
 124.139434,   -2.842849
 124.141101,   -2.841940
 124.142767,   -2.842015
 124.144434,   -2.842282
 124.146101,   -2.842549
 124.147767,   -2.842817
 124.149434,   -2.843084
 124.151101,   -2.843351
 124.152767,   -2.843618
 124.154434,   -2.843885
 124.156101,   -2.844152
 124.157767,   -2.844419
 124.159434,   -2.844459
 124.161101,   -2.844454
 124.162767,   -2.844450
 124.164434,   -2.844445
 124.166101,   -2.844441
 124.167767,   -2.844436
 124.169434,   -2.844431
 124.171101,   -2.844427
 124.172767,   -2.844422
 124.174434,   -2.844418
 124.176101,   -2.844597
 124.177767,   -2.844812
 124.179434,   -2.845027
 124.181101,   -2.845242
 124.182767,   -2.845457
 124.184434,   -2.845672
 124.186101,   -2.845886
 124.187767,   -2.846101
 124.189434,   -2.846316
 124.191101,   -2.846531
 124.192767,   -2.846475
 124.194434,   -2.846365
 124.196101,   -2.846255
 124.197767,   -2.846146
 124.199434,   -2.846036
 124.201101,   -2.845926
 124.202767,   -2.845817
 124.204434,   -2.845707
 124.206101,   -2.845597
 124.207767,   -2.845488
 124.209434,   -2.846486
 124.211101,   -2.847701
 124.212767,   -2.848915
 124.214434,   -2.850129
 124.216101,   -2.851344
 124.217767,   -2.852558
 124.219434,   -2.853772
 124.221101,   -2.854987
 124.222767,   -2.856201
 124.224434,   -2.857416
 124.226101,   -2.856707
 124.227767,   -2.855623
 124.229434,   -2.854539
 124.231101,   -2.853455
 124.232767,   -2.852371
 124.234434,   -2.851288
 124.236101,   -2.850204
 124.237767,   -2.849120
 124.239434,   -2.848036
 124.241101,   -2.846953
 124.242767,   -2.846750
 124.244434,   -2.846719
 124.246101,   -2.846689
 124.247767,   -2.846658
 124.249434,   -2.846627
 124.251101,   -2.846597
 124.252767,   -2.846566
 124.254434,   -2.846535
 124.256101,   -2.846504
 124.257767,   -2.846474
 124.259434,   -2.846612
 124.261101,   -2.846782
 124.262767,   -2.846953
 124.264434,   -2.847124
 124.266101,   -2.847294
 124.267767,   -2.847465
 124.269434,   -2.847636
 124.271101,   -2.847806
 124.272767,   -2.847977
 124.274434,   -2.848148
 124.276101,   -2.848034
 124.277767,   -2.847864
 124.279434,   -2.847695
 124.281101,   -2.847526
 124.282767,   -2.847357
 124.284434,   -2.847187
 124.286101,   -2.847018
 124.287767,   -2.846849
 124.289434,   -2.846679
 124.291101,   -2.846510
 124.292767,   -2.846505
 124.294434,   -2.846531
 124.296101,   -2.846557
 124.297767,   -2.846584
 124.299434,   -2.846610
 124.301101,   -2.846636
 124.302767,   -2.846663
 124.304434,   -2.846689
 124.306101,   -2.846716
 124.307767,   -2.846742
 124.309434,   -2.846937
 124.311101,   -2.847166
 124.312767,   -2.847394
 124.314434,   -2.847623
 124.316101,   -2.847851
 124.317767,   -2.848079
 124.319434,   -2.848308
 124.321101,   -2.848536
 124.322767,   -2.848765
 124.324434,   -2.848993
 124.326101,   -2.848923
 124.327767,   -2.848796
 124.329434,   -2.848668
 124.331101,   -2.848541
 124.332767,   -2.848413
 124.334434,   -2.848285
 124.336101,   -2.848158
 124.337767,   -2.848030
 124.339434,   -2.847902
 124.341101,   -2.847775
 124.342767,   -2.846994
 124.344434,   -2.846086
 124.346101,   -2.845178
 124.347767,   -2.844271
 124.349434,   -2.843363
 124.351101,   -2.842455
 124.352767,   -2.841547
 124.354434,   -2.840639
 124.356101,   -2.839731
 124.357767,   -2.838824
 124.359434,   -2.838905
 124.361101,   -2.839179
 124.362767,   -2.839454
 124.364434,   -2.839728
 124.366101,   -2.840003
 124.367767,   -2.840277
 124.369434,   -2.840551
 124.371101,   -2.840826
 124.372767,   -2.841100
 124.374434,   -2.841374
 124.376101,   -2.841421
 124.377767,   -2.841424
 124.379434,   -2.841426
 124.381101,   -2.841429
 124.382767,   -2.841432
 124.384434,   -2.841434
 124.386101,   -2.841437
 124.387767,   -2.841439
 124.389434,   -2.841442
 124.391101,   -2.841444
 124.392767,   -2.841632
 124.394434,   -2.841855
 124.396101,   -2.842078
 124.397767,   -2.842302
 124.399434,   -2.842525
 124.401101,   -2.842749
 124.402767,   -2.842972
 124.404434,   -2.843195
 124.406101,   -2.843419
 124.407767,   -2.843642
 124.409434,   -2.843593
 124.411101,   -2.843490
 124.412767,   -2.843388
 124.414434,   -2.843285
 124.416101,   -2.843182
 124.417767,   -2.843080
 124.419434,   -2.842977
 124.421101,   -2.842875
 124.422767,   -2.842772
 124.424434,   -2.842670
 124.426101,   -2.843679
 124.427767,   -2.844906
 124.429434,   -2.846132
 124.431101,   -2.847359
 124.432767,   -2.848585
 124.434434,   -2.849812
 124.436101,   -2.851038
 124.437767,   -2.852265
 124.439434,   -2.853491
 124.441101,   -2.854718
 124.442767,   -2.854012
 124.444434,   -2.852930
 124.446101,   -2.851848
 124.447767,   -2.850766
 124.449434,   -2.849684
 124.451101,   -2.848602
 124.452767,   -2.847520
 124.454434,   -2.846438
 124.456101,   -2.845356
 124.457767,   -2.844273
 124.459434,   -2.844075
 124.461101,   -2.844049
 124.462767,   -2.844024
 124.464434,   -2.843998
 124.466101,   -2.843972
 124.467767,   -2.843946
 124.469434,   -2.843920
 124.471101,   -2.843894
 124.472767,   -2.843868
 124.474434,   -2.843843
 124.476101,   -2.843985
 124.477767,   -2.844160
 124.479434,   -2.844335
 124.481101,   -2.844510
 124.482767,   -2.844684
 124.484434,   -2.844859
 124.486101,   -2.845034
 124.487767,   -2.845209
 124.489434,   -2.845384
 124.491101,   -2.845559
 124.492767,   -2.845447
 124.494434,   -2.845279
 124.496101,   -2.845111
 124.497767,   -2.844943
 124.499434,   -2.844775
 124.501101,   -2.844607
 124.502767,   -2.844439
 124.504434,   -2.844271
 124.506101,   -2.844102
 124.507767,   -2.843934
 124.509434,   -2.843929
 124.511101,   -2.843956
 124.512767,   -2.843983
 124.514434,   -2.844010
 124.516101,   -2.844036
 124.517767,   -2.844063
 124.519434,   -2.844090
 124.521101,   -2.844117
 124.522767,   -2.844143
 124.524434,   -2.844170
 124.526101,   -2.844365
 124.527767,   -2.844594
 124.529434,   -2.844822
 124.531101,   -2.845050
 124.532767,   -2.845278
 124.534434,   -2.845506
 124.536101,   -2.845734
 124.537767,   -2.845962
 124.539434,   -2.846190
 124.541101,   -2.846418
 124.542767,   -2.846346
 124.544434,   -2.846215
 124.546101,   -2.846084
 124.547767,   -2.845953
 124.549434,   -2.845822
 124.551101,   -2.845691
 124.552767,   -2.845560
 124.554434,   -2.845430
 124.556101,   -2.845299
 124.557767,   -2.845168
 124.559434,   -2.844380
 124.561101,   -2.843465
 124.562767,   -2.842549
 124.564434,   -2.841634
 124.566101,   -2.840718
 124.567767,   -2.839803
 124.569434,   -2.838887
 124.571101,   -2.837972
 124.572767,   -2.837056
 124.574434,   -2.836140
 124.576101,   -2.836218
 124.577767,   -2.836488
 124.579434,   -2.836759
 124.581101,   -2.837030
 124.582767,   -2.837301
 124.584434,   -2.837571
 124.586101,   -2.837842
 124.587767,   -2.838113
 124.589434,   -2.838384
 124.591101,   -2.838654
 124.592767,   -2.838696
 124.594434,   -2.838693
 124.596101,   -2.838691
 124.597767,   -2.838688
 124.599434,   -2.838685
 124.601101,   -2.838682
 124.602767,   -2.838679
 124.604434,   -2.838677
 124.606101,   -2.838674
 124.607767,   -2.838671
 124.609434,   -2.838854
 124.611101,   -2.839072
 124.612767,   -2.839291
 124.614434,   -2.839510
 124.616101,   -2.839729
 124.617767,   -2.839948
 124.619434,   -2.840166
 124.621101,   -2.840385
 124.622767,   -2.840604
 124.624434,   -2.840823
 124.626101,   -2.840768
 124.627767,   -2.840659
 124.629434,   -2.840551
 124.631101,   -2.840443
 124.632767,   -2.840334
 124.634434,   -2.840226
 124.636101,   -2.840118
 124.637767,   -2.840009
 124.639434,   -2.839901
 124.641101,   -2.839793
 124.642767,   -2.840802
 124.644434,   -2.842028
 124.646101,   -2.843255
 124.647767,   -2.844482
 124.649434,   -2.845709
 124.651101,   -2.846936
 124.652767,   -2.848162
 124.654434,   -2.849389
 124.656101,   -2.850616
 124.657767,   -2.851843
 124.659434,   -2.851130
 124.661101,   -2.850040
 124.662767,   -2.848949
 124.664434,   -2.847858
 124.666101,   -2.846767
 124.667767,   -2.845677
 124.669434,   -2.844586
 124.671101,   -2.843495
 124.672767,   -2.842405
 124.674434,   -2.841314
 124.676101,   -2.841112
 124.677767,   -2.841083
 124.679434,   -2.841054
 124.681101,   -2.841025
 124.682767,   -2.840996
 124.684434,   -2.840967
 124.686101,   -2.840938
 124.687767,   -2.840909
 124.689434,   -2.840880
 124.691101,   -2.840851
 124.692767,   -2.840992
 124.694434,   -2.841165
 124.696101,   -2.841339
 124.697767,   -2.841513
 124.699434,   -2.841687
 124.701101,   -2.841861
 124.702767,   -2.842034
 124.704434,   -2.842208
 124.706101,   -2.842382
 124.707767,   -2.842556
 124.709434,   -2.842442
 124.711101,   -2.842273
 124.712767,   -2.842104
 124.714434,   -2.841934
 124.716101,   -2.841765
 124.717767,   -2.841595
 124.719434,   -2.841426
 124.721101,   -2.841257
 124.722767,   -2.841087
 124.724434,   -2.840918
 124.726101,   -2.840913
 124.727767,   -2.840941
 124.729434,   -2.840968
 124.731101,   -2.840996
 124.732767,   -2.841023
 124.734434,   -2.841051
 124.736101,   -2.841078
 124.737767,   -2.841106
 124.739434,   -2.841133
 124.741101,   -2.841161
 124.742767,   -2.841358
 124.744434,   -2.841589
 124.746101,   -2.841820
 124.747767,   -2.842051
 124.749434,   -2.842282
 124.751101,   -2.842513
 124.752767,   -2.842743
 124.754434,   -2.842974
 124.756101,   -2.843205
 124.757767,   -2.843436
 124.759434,   -2.843366
 124.761101,   -2.843237
 124.762767,   -2.843109
 124.764434,   -2.842980
 124.766101,   -2.842851
 124.767767,   -2.842723
 124.769434,   -2.842594
 124.771101,   -2.842465
 124.772767,   -2.842337
 124.774434,   -2.842208
 124.776101,   -2.841421
 124.777767,   -2.840505
 124.779434,   -2.839589
 124.781101,   -2.838673
 124.782767,   -2.837757
 124.784434,   -2.836842
 124.786101,   -2.835926
 124.787767,   -2.835010
 124.789434,   -2.834094
 124.791101,   -2.833178
 124.792767,   -2.833260
 124.794434,   -2.833536
 124.796101,   -2.833812
 124.797767,   -2.834088
 124.799434,   -2.834364
 124.801101,   -2.834640
 124.802767,   -2.834916
 124.804434,   -2.835192
 124.806101,   -2.835468
 124.807767,   -2.835744
 124.809434,   -2.835790
 124.811101,   -2.835792
 124.812767,   -2.835793
 124.814434,   -2.835795
 124.816101,   -2.835797
 124.817767,   -2.835798
 124.819434,   -2.835800
 124.821101,   -2.835801
 124.822767,   -2.835803
 124.824434,   -2.835804
 124.826101,   -2.835992
 124.827767,   -2.836216
 124.829434,   -2.836440
 124.831101,   -2.836664
 124.832767,   -2.836889
 124.834434,   -2.837113
 124.836101,   -2.837337
 124.837767,   -2.837561
 124.839434,   -2.837785
 124.841101,   -2.838009
 124.842767,   -2.838048
 124.844434,   -2.838051
 124.846101,   -2.838054
 124.846511,   -2.838055
 124.848178,   -2.837902
 124.849844,   -2.837750
 124.851511,   -2.837597
 124.853178,   -2.837444
 124.854844,   -2.837291
 124.856511,   -2.837139
 124.858178,   -2.836690
 124.859844,   -2.832985
 124.861511,   -2.829280
 124.863178,   -2.825574
 124.864844,   -2.821869
 124.866511,   -2.818164
 124.868178,   -2.814458
 124.869844,   -2.810753
 124.871511,   -2.807047
 124.873178,   -2.803342
 124.874844,   -2.799360
 124.876511,   -2.792324
 124.878178,   -2.785289
 124.879844,   -2.778253
 124.881511,   -2.771218
 124.883178,   -2.764182
 124.884844,   -2.757146
 124.886511,   -2.750111
 124.888178,   -2.743075
 124.889844,   -2.736040
 124.891511,   -2.729325
 124.893178,   -2.726141
 124.894844,   -2.722957
 124.896511,   -2.719774
 124.898178,   -2.716590
 124.899844,   -2.713407
 124.901134,   -2.710944
 124.902801,   -2.703901
 124.904467,   -2.696858
 124.906134,   -2.689816
 124.907801,   -2.682773
 124.909467,   -2.615993
 124.911134,   -2.540662
 124.912801,   -2.465330
 124.914467,   -2.389999
 124.916134,   -2.314668
 124.917801,   -2.239337
 124.919467,   -2.164006
 124.921134,   -2.088674
 124.922801,   -2.013343
 124.924467,   -1.938012
 124.926134,   -1.848114
 124.927801,   -1.756131
 124.929467,   -1.664147
 124.931134,   -1.572164
 124.932801,   -1.480181
 124.934467,   -1.388198
 124.936134,   -1.296215
 124.937801,   -1.204231
 124.939467,   -1.112248
 124.941134,   -1.020265
 124.942801,   -0.961657
 124.944467,   -0.907827
 124.946134,   -0.853996
 124.947801,   -0.800166
 124.949467,   -0.746336
 124.951134,   -0.692505
 124.952801,   -0.638675
 124.954467,   -0.584845
 124.956134,   -0.531014
 124.957801,   -0.477184
 124.959467,   -0.301996
 124.961134,   -0.109436
 124.962081,    0.000000
 124.963748,    0.000000
 124.965414,    0.000000
 124.967081,    0.000000
 124.968748,    0.000000
 124.970414,    0.000000
 124.972081,    0.000000
 124.973748,    0.000000
 124.975414,    0.000000
 124.977081,    0.000000
 124.978748,    0.000000
 124.980414,    0.000000
 124.982081,    0.000000
 124.983748,    0.000000
 124.985414,    0.000000
 124.987081,    0.000000
 124.988748,    0.000000
 124.990414,    0.000000
 124.992081,    0.000000
 124.993748,    0.000000
 124.995414,    0.000000
 124.997081,    0.000000
 124.998748,    0.000000
 125.000414,    0.000000
 125.002081,    0.000000
 125.003748,    0.000000
 125.005414,    0.000000
 125.007081,    0.000000
 125.008748,    0.000000
 125.010414,    0.000000
 125.012081,    0.000000
 125.013748,    0.000000
 125.015414,    0.000000
 125.017081,    0.000000
 125.018748,    0.000000
 125.020414,    0.000000
 125.022081,    0.000000
 125.023748,    0.000000
 125.025414,    0.000000
 125.027081,    0.000000
 125.028748,    0.000000
 125.030414,    0.000000
 125.032081,    0.000000
 125.033748,    0.000000
 125.035414,    0.000000
 125.037081,    0.000000
 125.038748,    0.000000
 125.040414,    0.000000
 125.042081,    0.000000
 125.043748,    0.000000
 125.045414,    0.000000
 125.047081,    0.000000
 125.048748,    0.000000
 125.050414,    0.000000
 125.052081,    0.000000
 125.053748,    0.000000
 125.055414,    0.000000
 125.057081,    0.000000
 125.058748,    0.000000
 125.060414,    0.000000
 125.062081,    0.000000
 125.063748,    0.000000
 125.065414,    0.000000
 125.067081,    0.000000
 125.068748,    0.000000
 125.070414,    0.000000
 125.072081,    0.000000
 125.073748,    0.000000
 125.075414,    0.000000
 125.077081,    0.000000
 125.078748,    0.000000
 125.080414,    0.000000
 125.082081,    0.000000
 125.083748,    0.000000
 125.085414,    0.000000
 125.087081,    0.000000
 125.088748,    0.000000
 125.090414,    0.000000
 125.092081,    0.000000
 125.093748,    0.000000
 125.095414,    0.000000
 125.097081,    0.000000
 125.098748,    0.000000
 125.100414,    0.000000
 125.102081,    0.000000
 125.103748,    0.000000
 125.105414,    0.000000
 125.107081,    0.000000
 125.108748,    0.000000
 125.110414,    0.000000
 125.112081,    0.000000
 125.113748,    0.000000
 125.115414,    0.000000
 125.117081,    0.000000
 125.118748,    0.000000
 125.120414,    0.000000
 125.122081,    0.000000
 125.123748,    0.000000
 125.125414,    0.000000
 125.127081,    0.000000
 125.128748,    0.000000
 125.130414,    0.000000
 125.132081,    0.000000
 125.133748,    0.000000
 125.135414,    0.000000
 125.137081,    0.000000
 125.138748,    0.000000
 125.140414,    0.000000
 125.142081,    0.000000
 125.143748,    0.000000
 125.145414,    0.000000
 125.147081,    0.000000
 125.148748,    0.000000
 125.150414,    0.000000
 125.152081,    0.000000
 125.153748,    0.000000
 125.155414,    0.000000
 125.157081,    0.000000
 125.158748,    0.000000
 125.160050,    0.000000
