Time, Angles
   0.000100,    0.000000
   0.000834,    0.000000
   0.003455,    0.000000
   0.013481,    0.000000
   0.041935,    0.000000
   0.074333,    0.000000
   0.106675,    0.000000
   0.139111,    0.000000
   0.171528,    0.000000
   0.204109,    0.000000
   0.236729,    0.000000
   0.269690,    0.000000
   0.302865,    0.000000
   0.336067,    0.000000
   0.369308,    0.000000
   0.402497,    0.000000
   0.436116,    0.000000
   0.469867,    0.000000
   0.504170,    0.000000
   0.538666,    0.000000
   0.573178,    0.000000
   0.607951,    0.000000
   0.642782,    0.000000
   0.677934,    0.000000
   0.713709,    0.000000
   0.749855,    0.000000
   0.786376,    0.000000
   0.822939,    0.000000
   0.860079,    0.000000
   0.897345,    0.000000
   0.935352,    0.000000
   0.972769,    0.000000
   1.010422,    0.000000
   1.049205,    0.000000
   1.088346,    0.000000
   1.127532,    0.000000
   1.166502,    0.000000
   1.206849,    0.000000
   1.246713,    0.000000
   1.287332,    0.000000
   1.327658,    0.000000
   1.369212,    0.000000
   1.411386,    0.000000
   1.453819,    0.000000
   1.496743,    0.000000
   1.538956,    0.000000
   1.581694,    0.000000
   1.624900,    0.000000
   1.668517,    0.000000
   1.712480,    0.000000
   1.757238,    0.000000
   1.801894,    0.000000
   1.847149,    0.000000
   1.893257,    0.000000
   1.939800,    0.000000
   1.985995,    0.000000
   2.032742,    0.000000
   2.079120,    0.000000
   2.126742,    0.000000
   2.174492,    0.000000
   2.222404,    0.000000
   2.270863,    0.000000
   2.319781,    0.000000
   2.368896,    0.000000
   2.419044,    0.000000
   2.468881,    0.000000
   2.519665,    0.000000
   2.570700,    0.000000
   2.622152,    0.000000
   2.673377,    0.000000
   2.725123,    0.000000
   2.777272,    0.000000
   2.830107,    0.000000
   2.883263,    0.000000
   2.936304,    0.000000
   2.989817,    0.000000
   3.044474,    0.000000
   3.099543,    0.000000
   3.154329,    0.000000
   3.209607,    0.000000
   3.265053,    0.000000
   3.320065,    0.000000
   3.376196,    0.000000
   3.432074,    0.000000
   3.488376,    0.000000
   3.544829,    0.000000
   3.601954,    0.000000
   3.659424,    0.000000
   3.717406,    0.000000
   3.775571,    0.000000
   3.833604,    0.000000
   3.892167,    0.000000
   3.951315,    0.000000
   4.010898,    0.000000
   4.070940,    0.000000
   4.131217,    0.000000
   4.191371,    0.000000
   4.252592,    0.000000
   4.264912,    0.000000
   4.266236,    0.000000
   4.267386,    0.000000
   4.268463,    0.000000
   4.268692,    0.000000
   4.268748,    0.000000
   4.268860,    0.000000
   4.268867,    0.000000
   4.268882,    0.000000
   4.268896,    0.000000
   4.269036,    0.000000
   4.269933,    0.000000
   4.274232,    0.000000
   4.290868,    0.000000
   4.331364,    0.000000
   4.385933,    0.000000
   4.440866,    0.000000
   4.495908,    0.000000
   4.551586,    0.000000
   4.606841,    0.000000
   4.662584,    0.000000
   4.718355,    0.000000
   4.774835,    0.000000
   4.831694,    0.000000
   4.888503,    0.000000
   4.945978,    0.000000
   5.003862,    0.000000
   5.061447,    0.000000
   5.119727,    0.000000
   5.178012,    0.000000
   5.236721,    0.000000
   5.295174,    0.000000
   5.354041,    0.000000
   5.413287,    0.000000
   5.472676,    0.000000
   5.532094,    0.000000
   5.591980,    0.000000
   5.652111,    0.000000
   5.712514,    0.000000
   5.773343,    0.000000
   5.834037,    0.000000
   5.895350,    0.000000
   5.957178,    0.000000
   6.018925,    0.000000
   6.080182,    0.000000
   6.142006,    0.000000
   6.204184,    0.000000
   6.266517,    0.000000
   6.329607,    0.000000
   6.392447,    0.000000
   6.455824,    0.000000
   6.519303,    0.000000
   6.583197,    0.000000
   6.647166,    0.000000
   6.711354,    0.000000
   6.775940,    0.000000
   6.840683,    0.000000
   6.905644,    0.000000
   6.970879,    0.000000
   7.036113,    0.000000
   7.101258,    0.000000
   7.167290,    0.000000
   7.233220,    0.000000
   7.299399,    0.000000
   7.365894,    0.000000
   7.432768,    0.000000
   7.499521,    0.000000
   7.566937,    0.000000
   7.634106,    0.000000
   7.701694,    0.000000
   7.769566,    0.000000
   7.837622,    0.000000
   7.905678,    0.000000
   7.974398,    0.000000
   8.042962,    0.000000
   8.112278,    0.000000
   8.181158,    0.000000
   8.250483,    0.000000
   8.320048,    0.000000
   8.389907,    0.000000
   8.459650,    0.000000
   8.529942,    0.000000
   8.600092,    0.000000
   8.670887,    0.000000
   8.741817,    0.000000
   8.756001,    0.000000
   8.757697,    0.000000
   8.758031,    0.000000
   8.758158,    0.000000
   8.758399,    0.000000
   8.758478,    0.000000
   8.758500,    0.000000
   8.758510,    0.000000
   8.758526,    0.000000
   8.758540,    0.000000
   8.758683,    0.000000
   8.759801,    0.000000
   8.766457,    0.000000
   8.791821,    0.000000
   8.855031,    0.000000
   8.918150,    0.000000
   8.981219,    0.000000
   9.044774,    0.000000
   9.108539,    0.000000
   9.172471,    0.000000
   9.236587,    0.000000
   9.300808,    0.000000
   9.365268,    0.000000
   9.429759,    0.000000
   9.494452,    0.000000
   9.559497,    0.000000
   9.624499,    0.000000
   9.689786,    0.000000
   9.755122,    0.000000
   9.820802,    0.000000
   9.886639,    0.000000
   9.952294,    0.000000
  10.018325,    0.000000
  10.084664,    0.000000
  10.151141,    0.000000
  10.217537,    0.000000
  10.284353,    0.000000
  10.351222,    0.000000
  10.418440,    0.000000
  10.485619,    0.000000
  10.552848,    0.000000
  10.620291,    0.000000
  10.687956,    0.000000
  10.755962,    0.000000
  10.824091,    0.000000
  10.892249,    0.000000
  10.960832,    0.000000
  11.029522,    0.000000
  11.098145,    0.000000
  11.166941,    0.000000
  11.236113,    0.000000
  11.305225,    0.000000
  11.374671,    0.000000
  11.444232,    0.000000
  11.513975,    0.000000
  11.583859,    0.000000
  11.654133,    0.000000
  11.724494,    0.000000
  11.794720,    0.000000
  11.865064,    0.000000
  11.935919,    0.000000
  12.006704,    0.000000
  12.077673,    0.000000
  12.148965,    0.000000
  12.220172,    0.000000
  12.291717,    0.000000
  12.363510,    0.000000
  12.435420,    0.000000
  12.507277,    0.000000
  12.579455,    0.000000
  12.651782,    0.000000
  12.724307,    0.000000
  12.797182,    0.000000
  12.870078,    0.000000
  12.942913,    0.000000
  13.015993,    0.000000
  13.089288,    0.000000
  13.162551,    0.000000
  13.236228,    0.000000
  13.310034,    0.000000
  13.383724,    0.000000
  13.458069,    0.000000
  13.532170,    0.000000
  13.547070,    0.000000
  13.556968,    0.000000
  13.564963,    0.000000
  13.570884,    0.000000
  13.575559,    0.000000
  13.576705,    0.000000
  13.578352,    0.000000
  13.580236,    0.000000
  13.580657,    0.000000
  13.580775,    0.000000
  13.581012,    0.000000
  13.581032,    0.000000
  13.581047,    0.000000
  13.581053,    0.000000
  13.581060,    0.000000
  13.581125,    0.000000
  13.581705,    0.000000
  13.584970,    0.000000
  13.599294,    0.000000
  13.657272,    0.000000
  13.722141,    0.000000
  13.787294,    0.000000
  13.852390,    0.000000
  13.917662,    0.000000
  13.982989,    0.000000
  14.048495,    0.000000
  14.113986,    0.000000
  14.179942,    0.000000
  14.246087,    0.000000
  14.311999,    0.000000
  14.378247,    0.000000
  14.444544,    0.000000
  14.510960,    0.000000
  14.577300,    0.000000
  14.643653,    0.000000
  14.710345,    0.000000
  14.776962,    0.000000
  14.843989,    0.000000
  14.911116,    0.000000
  14.978115,    0.000000
  15.045418,    0.000000
  15.112842,    0.000000
  15.180379,    0.000000
  15.248207,    0.000000
  15.315969,    0.000000
  15.383801,    0.000000
  15.451813,    0.000000
  15.519863,    0.000000
  15.588168,    0.000000
  15.656475,    0.000000
  15.725022,    0.000000
  15.793732,    0.000000
  15.862598,    0.000000
  15.931667,    0.000000
  16.000621,    0.000000
  16.069699,    0.000000
  16.139120,    0.000000
  16.208576,    0.000000
  16.278219,    0.000000
  16.347779,    0.000000
  16.417701,    0.000000
  16.487626,    0.000000
  16.557658,    0.000000
  16.627902,    0.000000
  16.698239,    0.000000
  16.768528,    0.000000
  16.839154,    0.000000
  16.909748,    0.000000
  16.980498,    0.000000
  17.051415,    0.000000
  17.122430,    0.000000
  17.193669,    0.000000
  17.264890,    0.000000
  17.336148,    0.000000
  17.407561,    0.000000
  17.479120,    0.000000
  17.550827,    0.000000
  17.622742,    0.000000
  17.694782,    0.000000
  17.766949,    0.000000
  17.839165,    0.000000
  17.911444,    0.000000
  17.983929,    0.000000
  18.056605,    0.000000
  18.129428,    0.000000
  18.202084,    0.000000
  18.275076,    0.000000
  18.348193,    0.000000
  18.421288,    0.000000
  18.494517,    0.000000
  18.567901,    0.000000
  18.641457,    0.000000
  18.715045,    0.000000
  18.788791,    0.000000
  18.862591,    0.000000
  18.877359,    0.000000
  18.927244,    0.000000
  18.927834,    0.000000
  18.928260,    0.000000
  18.928468,    0.000000
  18.928618,    0.000000
  18.928763,    0.000000
  18.928917,    0.000000
  18.929057,    0.000000
  18.930456,    0.000000
  18.938447,    0.000000
  18.983577,    0.000000
  19.057331,    0.000000
  19.131291,    0.000000
  19.205262,    0.000000
  19.279156,    0.000000
  19.353278,    0.000000
  19.427635,    0.000000
  19.502040,    0.000000
  19.576679,    0.000000
  19.651527,    0.000000
  19.726410,    0.000000
  19.801287,    0.000000
  19.876363,    0.000000
  19.951546,    0.000000
  20.026843,    0.000000
  20.102184,    0.000000
  20.177586,    0.000000
  20.253233,    0.000000
  20.328965,    0.000000
  20.404910,    0.000000
  20.480793,    0.000000
  20.556999,    0.000000
  20.633281,    0.000000
  20.709666,    0.000000
  20.786032,    0.000000
  20.862507,    0.000000
  20.939307,    0.000000
  21.016119,    0.000000
  21.092920,    0.000000
  21.170066,    0.000000
  21.247279,    0.000000
  21.324518,    0.000000
  21.402028,    0.000000
  21.479691,    0.000000
  21.557293,    0.000000
  21.634958,    0.000000
  21.712784,    0.000000
  21.790703,    0.000000
  21.868714,    0.000000
  21.946919,    0.000000
  22.025400,    0.000000
  22.103939,    0.000000
  22.142906,    0.000000
  22.182647,    0.000000
  22.261432,    0.119222
  22.340333,    0.354451
  22.419280,    0.587799
  22.498424,    0.819072
  22.577692,    1.048722
  22.657150,    1.276550
  22.736932,    1.502753
  22.816704,    1.727713
  22.896719,    1.950491
  22.976852,    2.171806
  23.057129,    2.391321
  23.137635,    2.609117
  23.218303,    2.825430
  23.298964,    3.040081
  23.379577,    3.252638
  23.460250,    3.463014
  23.541282,    3.671508
  23.622187,    3.878903
  23.703260,    4.083960
  23.784288,    4.287447
  23.865399,    4.488842
  23.946417,    4.688484
  24.027784,    4.885955
  24.108982,    5.082349
  24.190269,    5.276423
  24.271523,    5.468814
  24.352718,    5.659253
  24.358186,    5.847698
  24.363651,    5.860264
  24.369124,    5.872816
  24.374600,    5.885378
  24.380081,    5.897939
  24.385556,    5.910503
  24.391044,    5.923044
  24.396531,    5.935607
  24.402027,    5.948161
  24.407521,    5.960726
  24.413020,    5.973279
  24.418498,    5.985833
  24.424001,    5.998333
  24.429515,    6.010881
  24.435023,    6.023446
  24.440544,    6.035988
  24.446068,    6.048553
  24.451570,    6.061116
  24.457089,    6.073619
  24.462620,    6.086154
  24.468161,    6.098706
  24.473692,    6.111274
  24.479190,    6.123810
  24.484744,    6.136266
  24.490291,    6.148838
  24.495850,    6.161386
  24.501416,    6.173953
  24.506984,    6.186526
  24.512543,    6.199097
  24.518110,    6.211639
  24.523652,    6.224189
  24.529237,    6.236677
  24.534803,    6.249252
  24.540395,    6.261777
  24.545971,    6.274351
  24.551566,    6.286880
  24.557159,    6.299444
  24.562758,    6.311994
  24.568354,    6.324552
  24.573963,    6.337093
  24.579577,    6.349653
  24.585195,    6.362219
  24.590816,    6.374783
  24.596446,    6.387346
  24.602094,    6.399921
  24.607747,    6.412526
  24.613397,    6.425137
  24.619055,    6.437731
  24.624705,    6.450334
  24.630376,    6.462909
  24.636017,    6.475525
  24.641680,    6.488064
  24.647363,    6.500644
  24.653059,    6.513261
  24.658760,    6.525896
  24.664442,    6.538533
  24.670145,    6.551121
  24.675867,    6.563748
  24.681556,    6.576406
  24.687268,    6.588983
  24.693013,    6.601604
  24.698730,    6.614288
  24.704469,    6.626902
  24.710179,    6.639555
  24.715948,    6.652135
  24.721704,    6.664836
  24.727442,    6.677502
  24.733216,    6.690117
  24.739008,    6.702803
  24.744774,    6.715522
  24.750577,    6.728173
  24.756348,    6.740897
  24.762160,    6.753542
  24.767941,    6.766267
  24.773769,    6.778917
  24.779572,    6.778917
  24.785413,    6.778917
  24.791258,    6.778917
  24.797092,    6.778917
  24.802939,    6.778917
  24.808789,    6.778917
  24.814659,    6.778917
  24.820540,    6.778917
  24.826411,    6.778917
  24.832276,    6.778917
  24.838175,    6.778917
  24.844068,    6.778917
  24.849959,    6.778917
  24.855788,    6.778917
  24.861712,    6.778917
  24.867634,    6.778917
  24.873565,    6.778917
  24.879492,    6.778917
  24.885373,    6.778917
  24.891306,    6.778917
  24.897247,    6.778917
  24.903202,    6.778917
  24.909181,    6.778917
  24.915130,    6.778917
  24.921107,    6.778917
  24.927078,    6.778917
  24.933044,    6.778917
  24.939034,    6.778917
  24.945007,    6.778917
  24.951026,    6.778917
  24.957019,    6.778917
  24.963048,    6.778917
  24.969070,    6.778917
  24.975107,    6.778917
  24.981118,    6.778917
  24.987136,    6.778917
  24.993177,    6.778917
  24.999238,    6.778917
  25.005314,    6.778917
  25.011371,    6.778917
  25.017431,    6.778917
  25.023537,    6.778917
  25.029634,    6.778917
  25.035722,    6.778917
  25.041842,    6.778917
  25.047955,    6.778917
  25.054066,    6.778917
  25.060212,    6.778917
  25.066330,    6.778917
  25.072467,    6.778917
  25.078578,    6.778917
  25.084743,    6.778917
  25.090889,    6.778917
  25.092125,    6.778917
  25.092983,    6.778917
  25.093595,    6.778917
  25.094099,    6.778917
  25.095520,    6.778917
  25.095690,    6.778917
  25.095714,    6.778917
  25.095721,    6.778917
  25.095728,    6.778917
  25.095780,    6.778917
  25.096050,    6.778917
  25.097024,    6.778917
  25.099401,    6.778917
  25.104719,    6.778917
  25.110867,    6.778917
  25.117063,    6.778917
  25.123265,    6.778917
  25.129502,    6.778917
  25.135726,    6.778917
  25.141965,    6.778917
  25.148221,    6.778917
  25.154460,    6.778917
  25.160708,    6.778917
  25.166990,    6.778917
  25.173259,    6.778917
  25.179547,    6.778917
  25.185837,    6.778917
  25.192142,    6.778917
  25.198457,    6.778917
  25.204804,    6.778917
  25.211118,    6.778917
  25.217457,    6.778917
  25.223808,    6.778917
  25.230154,    6.778917
  25.236525,    6.778917
  25.242904,    6.778917
  25.249281,    6.778917
  25.255665,    6.778917
  25.262098,    6.778917
  25.268510,    6.778917
  25.273769,    6.778917
  25.274931,    6.778917
  25.281361,    6.778917
  25.287786,    6.778917
  25.294261,    6.778917
  25.300727,    6.778917
  25.307217,    6.778917
  25.313699,    6.778917
  25.320169,    6.778917
  25.326676,    6.778917
  25.333208,    6.778917
  25.339759,    6.778917
  25.346309,    6.778917
  25.352860,    6.778917
  25.359432,    6.778917
  25.365996,    6.778917
  25.372593,    6.778917
  25.379198,    6.778917
  25.385796,    6.778917
  25.392391,    6.778917
  25.399010,    6.778917
  25.405663,    6.778917
  25.412311,    6.778917
  25.418964,    6.778917
  25.425642,    6.778917
  25.432314,    6.778917
  25.438993,    6.778917
  25.445686,    6.778917
  25.452397,    6.778917
  25.459138,    6.778917
  25.465864,    6.778917
  25.472624,    6.778917
  25.479369,    6.778917
  25.486127,    6.778917
  25.492896,    6.778917
  25.499720,    6.778917
  25.506544,    6.778917
  25.513350,    6.778917
  25.520164,    6.778917
  25.526979,    6.778917
  25.533822,    6.778917
  25.540703,    6.778917
  25.547527,    6.778917
  25.554435,    6.778917
  25.561320,    6.778917
  25.568241,    6.778917
  25.575137,    6.778917
  25.582063,    6.778917
  25.588991,    6.778917
  25.595970,    6.778917
  25.602914,    6.778917
  25.609904,    6.778917
  25.616878,    6.778917
  25.623890,    6.778917
  25.630937,    6.778917
  25.637962,    6.778917
  25.645050,    6.778917
  25.652112,    6.778917
  25.659209,    6.778917
  25.666254,    6.778917
  25.673371,    6.778917
  25.680488,    6.778917
  25.687627,    6.778917
  25.694756,    6.778917
  25.701896,    6.778917
  25.709037,    6.778917
  25.716194,    6.778917
  25.723403,    6.778917
  25.730586,    6.778917
  25.737817,    6.778917
  25.745065,    6.778917
  25.752265,    6.778917
  25.759560,    6.778917
  25.766783,    6.778917
  25.774096,    6.778917
  25.781358,    6.778917
  25.788658,    6.778917
  25.795969,    6.778917
  25.803278,    6.778917
  25.810652,    6.778917
  25.818029,    6.778917
  25.825447,    6.778917
  25.832814,    6.778917
  25.840185,    6.778917
  25.847545,    6.778917
  25.854954,    6.778917
  25.862389,    6.778917
  25.869854,    6.778917
  25.877326,    6.778917
  25.884787,    6.778917
  25.892318,    6.778917
  25.899888,    6.778917
  25.907400,    6.778917
  25.914933,    6.778917
  25.922465,    6.778917
  25.930048,    6.778917
  25.937670,    6.778917
  25.945249,    6.778917
  25.952855,    6.778917
  25.960490,    6.778917
  25.968168,    6.778917
  25.975834,    6.778917
  25.983518,    6.778917
  25.991245,    6.778917
  25.998953,    6.778917
  26.006713,    6.778917
  26.014459,    6.778917
  26.022186,    6.778917
  26.029992,    6.778917
  26.037758,    6.778917
  26.045595,    6.778917
  26.053435,    6.778917
  26.061233,    6.778917
  26.069095,    6.778917
  26.076940,    6.778917
  26.084835,    6.778917
  26.092731,    6.778917
  26.100697,    6.778917
  26.108677,    6.778917
  26.116636,    6.778917
  26.124579,    6.778917
  26.132512,    6.778917
  26.140501,    6.778917
  26.148468,    6.778917
  26.156547,    6.778917
  26.164571,    6.778917
  26.172568,    6.778917
  26.180568,    6.778917
  26.188609,    6.778917
  26.196670,    6.778917
  26.204702,    6.778917
  26.212846,    6.778917
  26.220912,    6.778917
  26.229039,    6.778917
  26.237240,    6.778917
  26.245414,    6.778917
  26.253609,    6.778917
  26.261840,    6.778917
  26.270026,    6.778917
  26.278272,    6.778917
  26.286492,    6.778917
  26.294696,    6.778917
  26.302988,    6.778917
  26.311316,    6.778917
  26.319576,    6.778917
  26.327818,    6.778917
  26.336119,    6.778917
  26.344411,    6.778917
  26.352670,    6.778917
  26.361100,    6.778917
  26.369443,    6.778917
  26.377858,    6.778917
  26.386272,    6.778917
  26.394659,    6.778917
  26.403188,    6.778917
  26.411690,    6.778917
  26.420130,    6.778917
  26.428583,    6.778917
  26.437121,    6.778917
  26.445671,    6.778917
  26.454193,    6.778917
  26.462690,    6.778917
  26.471222,    6.778917
  26.479807,    6.778917
  26.488403,    6.778917
  26.497022,    6.778917
  26.505639,    6.778917
  26.514237,    6.778917
  26.522872,    6.778917
  26.531611,    6.778917
  26.540221,    6.778917
  26.548951,    6.778917
  26.557724,    6.778917
  26.566506,    6.778917
  26.575252,    6.778917
  26.583993,    6.778917
  26.592746,    6.778917
  26.601513,    6.778917
  26.610255,    6.778917
  26.619064,    6.778917
  26.627887,    6.778917
  26.636695,    6.778917
  26.645624,    6.778917
  26.654418,    6.778917
  26.663239,    6.778917
  26.672203,    6.778917
  26.681142,    6.778917
  26.690084,    6.778917
  26.699010,    6.778917
  26.707927,    6.778917
  26.717015,    6.778917
  26.726023,    6.778917
  26.734985,    6.778917
  26.744097,    6.778917
  26.753095,    6.778917
  26.762163,    6.778917
  26.771191,    6.778917
  26.780408,    6.778917
  26.789491,    6.778917
  26.798572,    6.778917
  26.807752,    6.778917
  26.816871,    6.778917
  26.826009,    6.778917
  26.835258,    6.778917
  26.844477,    6.778917
  26.853596,    6.778917
  26.862812,    6.778917
  26.872039,    6.778917
  26.881224,    6.778917
  26.890397,    6.778917
  26.899646,    6.778917
  26.908910,    6.778917
  26.918212,    6.778917
  26.927501,    6.778917
  26.936808,    6.778917
  26.946079,    6.778917
  26.955331,    6.778917
  26.964680,    6.778917
  26.974025,    6.778917
  26.983440,    6.778917
  26.992799,    6.778917
  27.002242,    6.778917
  27.011702,    6.778917
  27.021110,    6.778917
  27.030543,    6.778917
  27.040057,    6.778917
  27.049546,    6.778917
  27.059060,    6.778917
  27.068610,    6.778917
  27.078062,    6.778917
  27.087626,    6.778917
  27.097240,    6.778917
  27.106780,    6.778917
  27.116189,    6.778917
  27.125650,    6.778917
  27.135320,    6.778917
  27.144918,    6.778917
  27.154444,    6.778917
  27.164002,    6.778917
  27.173582,    6.778917
  27.183104,    6.778917
  27.192768,    6.778917
  27.202455,    6.778917
  27.212068,    6.778917
  27.221714,    6.778917
  27.231455,    6.778917
  27.241133,    6.778917
  27.250834,    6.778917
  27.260497,    6.778917
  27.270178,    6.778917
  27.279861,    6.778917
  27.289513,    6.778917
  27.299283,    6.778917
  27.309042,    6.778917
  27.318745,    6.778917
  27.328595,    6.778917
  27.338440,    6.778917
  27.348202,    6.778917
  27.358006,    6.778917
  27.367897,    6.778917
  27.377789,    6.778917
  27.387564,    6.778917
  27.397434,    6.778917
  27.407257,    6.778917
  27.417178,    6.778917
  27.427134,    6.778917
  27.437005,    6.778917
  27.446901,    6.778917
  27.456765,    6.778917
  27.466721,    6.778917
  27.476721,    6.778917
  27.486724,    6.778917
  27.496628,    6.778917
  27.506646,    6.778917
  27.516554,    6.778917
  27.526558,    6.778917
  27.536558,    6.778917
  27.546534,    6.778917
  27.556525,    6.778917
  27.566613,    6.778917
  27.576741,    6.778917
  27.586686,    6.778917
  27.596854,    6.778917
  27.606893,    6.778917
  27.616906,    6.778917
  27.626948,    6.778917
  27.637089,    6.778917
  27.647137,    6.778917
  27.657210,    6.778917
  27.667309,    6.778917
  27.677410,    6.778917
  27.687541,    6.778917
  27.697622,    6.778917
  27.707898,    6.778917
  27.718054,    6.778917
  27.728326,    6.778917
  27.738563,    6.778917
  27.748721,    6.778917
  27.758901,    6.778917
  27.769061,    6.778917
  27.779241,    6.778917
  27.789424,    6.778917
  27.799688,    6.778917
  27.809889,    6.778917
  27.820112,    6.778917
  27.830301,    6.778917
  27.836774,    6.778917
