Time, Angles
   0.000100,    0.000000
   0.000834,    0.000000
   0.003455,    0.000000
   0.013481,    0.000000
   0.041935,    0.000000
   0.074333,    0.000000
   0.106675,    0.000000
   0.139111,    0.000000
   0.171528,    0.000000
   0.204109,    0.000000
   0.236729,    0.000000
   0.269690,    0.000000
   0.302865,    0.000000
   0.336067,    0.000000
   0.369308,    0.000000
   0.402497,    0.000000
   0.436116,    0.000000
   0.469867,    0.000000
   0.504170,    0.000000
   0.538666,    0.000000
   0.573178,    0.000000
   0.607951,    0.000000
   0.642782,    0.000000
   0.677934,    0.000000
   0.713709,    0.000000
   0.749855,    0.000000
   0.786376,    0.000000
   0.822939,    0.000000
   0.860079,    0.000000
   0.897345,    0.000000
   0.935352,    0.000000
   0.972769,    0.000000
   1.010422,    0.000000
   1.049205,    0.000000
   1.088346,    0.000000
   1.127532,    0.000000
   1.166502,    0.000000
   1.206849,    0.000000
   1.246713,    0.000000
   1.287332,    0.000000
   1.327658,    0.000000
   1.369212,    0.000000
   1.411386,    0.000000
   1.453819,    0.000000
   1.496743,    0.000000
   1.538956,    0.000000
   1.581694,    0.000000
   1.624900,    0.000000
   1.668517,    0.000000
   1.712480,    0.000000
   1.757238,    0.000000
   1.801894,    0.000000
   1.847149,    0.000000
   1.893257,    0.000000
   1.939800,    0.000000
   1.985995,    0.000000
   2.032742,    0.000000
   2.079120,    0.000000
   2.126742,    0.000000
   2.174492,    0.000000
   2.222404,    0.000000
   2.270863,    0.000000
   2.319781,    0.000000
   2.368896,    0.000000
   2.419044,    0.000000
   2.468881,    0.000000
   2.519665,    0.000000
   2.570700,    0.000000
   2.622152,    0.000000
   2.673377,    0.000000
   2.725123,    0.000000
   2.777272,    0.000000
   2.830107,    0.000000
   2.883263,    0.000000
   2.936304,    0.000000
   2.989817,    0.000000
   3.044474,    0.000000
   3.099543,    0.000000
   3.154329,    0.000000
   3.209607,    0.000000
   3.265053,    0.000000
   3.320065,    0.000000
   3.376196,    0.000000
   3.432074,    0.000000
   3.488376,    0.000000
   3.544829,    0.000000
   3.601954,    0.000000
   3.659424,    0.000000
   3.717406,    0.000000
   3.775571,    0.000000
   3.833604,    0.000000
   3.892167,    0.000000
   3.951315,    0.000000
   4.010898,    0.000000
   4.070940,    0.000000
   4.131217,    0.000000
   4.191371,    0.000000
   4.252592,    0.000000
   4.264912,    0.000000
   4.266236,    0.000000
   4.267386,    0.000000
   4.268463,    0.000000
   4.268692,    0.000000
   4.268748,    0.000000
   4.268860,    0.000000
   4.268867,    0.000000
   4.268882,    0.000000
   4.268896,    0.000000
   4.269036,    0.000000
   4.269933,    0.000000
   4.274232,    0.000000
   4.290868,    0.000000
   4.331364,    0.000000
   4.385933,    0.000000
   4.440866,    0.000000
   4.495908,    0.000000
   4.551586,    0.000000
   4.606841,    0.000000
   4.662584,    0.000000
   4.718355,    0.000000
   4.774835,    0.000000
   4.831694,    0.000000
   4.888503,    0.000000
   4.945978,    0.000000
   5.003862,    0.000000
   5.061447,    0.000000
   5.119727,    0.000000
   5.178012,    0.000000
   5.236721,    0.000000
   5.295174,    0.000000
   5.354041,    0.000000
   5.413287,    0.000000
   5.472676,    0.000000
   5.532094,    0.000000
   5.591980,    0.000000
   5.652111,    0.000000
   5.712514,    0.000000
   5.773343,    0.000000
   5.834037,    0.000000
   5.895350,    0.000000
   5.957178,    0.000000
   6.018925,    0.000000
   6.080182,    0.000000
   6.142006,    0.000000
   6.204184,    0.000000
   6.266517,    0.000000
   6.329607,    0.000000
   6.392447,    0.000000
   6.455824,    0.000000
   6.519303,    0.000000
   6.583197,    0.000000
   6.647166,    0.000000
   6.711354,    0.000000
   6.775940,    0.000000
   6.840683,    0.000000
   6.905644,    0.000000
   6.970879,    0.000000
   7.036113,    0.000000
   7.101258,    0.000000
   7.167290,    0.000000
   7.233220,    0.000000
   7.299399,    0.000000
   7.365894,    0.000000
   7.432768,    0.000000
   7.499521,    0.000000
   7.566937,    0.000000
   7.634106,    0.000000
   7.701694,    0.000000
   7.769566,    0.000000
   7.837622,    0.000000
   7.905678,    0.000000
   7.974398,    0.000000
   8.042962,    0.000000
   8.112278,    0.000000
   8.181158,    0.000000
   8.250483,    0.000000
   8.320048,    0.000000
   8.389907,    0.000000
   8.459650,    0.000000
   8.529942,    0.000000
   8.600092,    0.000000
   8.670887,    0.000000
   8.741817,    0.000000
   8.756001,    0.000000
   8.757697,    0.000000
   8.758031,    0.000000
   8.758158,    0.000000
   8.758399,    0.000000
   8.758478,    0.000000
   8.758500,    0.000000
   8.758510,    0.000000
   8.758526,    0.000000
   8.758540,    0.000000
   8.758683,    0.000000
   8.759801,    0.000000
   8.766457,    0.000000
   8.791821,    0.000000
   8.855031,    0.000000
   8.918150,    0.000000
   8.981219,    0.000000
   9.044774,    0.000000
   9.108539,    0.000000
   9.172471,    0.000000
   9.236587,    0.000000
   9.300808,    0.000000
   9.365268,    0.000000
   9.429759,    0.000000
   9.494452,    0.000000
   9.559497,    0.000000
   9.624499,    0.000000
   9.689786,    0.000000
   9.755122,    0.000000
   9.820802,    0.000000
   9.886639,    0.000000
   9.952294,    0.000000
  10.018325,    0.000000
  10.084664,    0.000000
  10.151141,    0.000000
  10.217537,    0.000000
  10.284353,    0.000000
  10.351222,    0.000000
  10.418440,    0.000000
  10.485619,    0.000000
  10.552848,    0.000000
  10.620291,    0.000000
  10.687956,    0.000000
  10.755962,    0.000000
  10.824091,    0.000000
  10.892249,    0.000000
  10.960832,    0.000000
  11.029522,    0.000000
  11.098145,    0.000000
  11.166941,    0.000000
  11.236113,    0.000000
  11.305225,    0.000000
  11.374671,    0.000000
  11.444232,    0.000000
  11.513975,    0.000000
  11.583859,    0.000000
  11.654133,    0.000000
  11.724494,    0.000000
  11.794720,    0.000000
  11.865064,    0.000000
  11.935919,    0.000000
  12.006704,    0.000000
  12.077673,    0.000000
  12.148965,    0.000000
  12.220172,    0.000000
  12.291717,    0.000000
  12.363510,    0.000000
  12.435420,    0.000000
  12.507277,    0.000000
  12.579455,    0.000000
  12.651782,    0.000000
  12.724307,    0.000000
  12.797182,    0.000000
  12.870078,    0.000000
  12.942913,    0.000000
  13.015993,    0.000000
  13.089288,    0.000000
  13.162551,    0.000000
  13.236228,    0.000000
  13.310034,    0.000000
  13.383724,    0.000000
  13.458069,    0.000000
  13.532170,    0.000000
  13.547070,    0.000000
  13.556968,    0.000000
  13.564963,    0.000000
  13.570884,    0.000000
  13.575559,    0.000000
  13.576705,    0.000000
  13.578352,    0.000000
  13.580236,    0.000000
  13.580657,    0.000000
  13.580775,    0.000000
  13.581012,    0.000000
  13.581032,    0.000000
  13.581047,    0.000000
  13.581053,    0.000000
  13.581060,    0.000000
  13.581125,    0.000000
  13.581705,    0.000000
  13.584970,    0.000000
  13.599294,    0.000000
  13.657272,    0.000000
  13.722141,    0.000000
  13.787294,    0.000000
  13.852390,    0.000000
  13.917662,    0.000000
  13.982989,    0.000000
  14.048495,    0.000000
  14.113986,    0.000000
  14.179942,    0.000000
  14.246087,    0.000000
  14.311999,    0.000000
  14.378247,    0.000000
  14.444544,    0.000000
  14.510960,    0.000000
  14.577300,    0.000000
  14.643653,    0.000000
  14.710345,    0.000000
  14.776962,    0.000000
  14.843989,    0.000000
  14.911116,    0.000000
  14.978115,    0.000000
  15.045418,    0.000000
  15.112842,    0.000000
  15.180379,    0.000000
  15.248207,    0.000000
  15.315969,    0.000000
  15.383801,    0.000000
  15.451813,    0.000000
  15.519863,    0.000000
  15.588168,    0.000000
  15.656475,    0.000000
  15.725022,    0.000000
  15.793732,    0.000000
  15.862598,    0.000000
  15.931667,    0.000000
  16.000621,    0.000000
  16.069699,    0.000000
  16.139120,    0.000000
  16.208576,    0.000000
  16.278219,    0.000000
  16.347779,    0.000000
  16.417701,    0.000000
  16.487626,    0.000000
  16.557658,    0.000000
  16.627902,    0.000000
  16.698239,    0.000000
  16.768528,    0.000000
  16.839154,    0.000000
  16.909748,    0.000000
  16.980498,    0.000000
  17.051415,    0.000000
  17.122430,    0.000000
  17.193669,    0.000000
  17.264890,    0.000000
  17.336148,    0.000000
  17.407561,    0.000000
  17.479120,    0.000000
  17.550827,    0.000000
  17.622742,    0.000000
  17.694782,    0.000000
  17.766949,    0.000000
  17.839165,    0.000000
  17.911444,    0.000000
  17.983929,    0.000000
  18.056605,    0.000000
  18.129428,    0.000000
  18.202084,    0.000000
  18.275076,    0.000000
  18.348193,    0.000000
  18.421288,    0.000000
  18.494517,    0.000000
  18.567901,    0.000000
  18.641457,    0.000000
  18.715045,    0.000000
  18.788791,    0.000000
  18.862591,    0.000000
  18.877359,    0.000000
  18.927244,    0.000000
  18.927834,    0.000000
  18.928260,    0.000000
  18.928468,    0.000000
  18.928618,    0.000000
  18.928763,    0.000000
  18.928917,    0.000000
  18.929057,    0.000000
  18.930456,    0.000000
  18.938447,    0.000000
  18.983577,    0.000000
  19.057331,    0.000000
  19.131291,    0.000000
  19.205262,    0.000000
  19.279156,    0.000000
  19.353278,    0.000000
  19.427635,    0.000000
  19.502040,    0.000000
  19.576679,    0.000000
  19.651527,    0.000000
  19.726410,    0.000000
  19.801287,    0.000000
  19.876363,    0.000000
  19.951546,    0.000000
  20.026843,    0.000000
  20.102184,    0.000000
  20.177586,    0.000000
  20.253233,    0.000000
  20.328965,    0.000000
  20.404910,    0.000000
  20.480793,    0.000000
  20.556999,    0.000000
  20.633281,    0.000000
  20.709666,    0.000000
  20.786032,    0.000000
  20.862507,    0.000000
  20.939307,    0.000000
  21.016119,    0.000000
  21.092920,    0.000000
  21.170066,    0.000000
  21.247279,    0.000000
  21.324518,    0.000000
  21.402028,    0.000000
  21.479691,    0.000000
  21.557293,    0.000000
  21.634958,    0.000000
  21.712784,    0.000000
  21.790703,    0.000000
  21.868714,    0.000000
  21.946919,    0.000000
  22.025400,    0.000000
  22.103939,    0.000000
  22.142906,    0.000000
  22.182647,    0.000000
  22.261432,    0.000000
  22.340333,    0.000000
  22.419280,    0.000000
  22.498424,    0.000000
  22.577692,    0.000000
  22.657150,    0.000000
  22.736932,    0.000000
  22.816704,    0.000000
  22.896719,    0.000000
  22.976852,    0.000000
  23.057129,    0.000000
  23.137635,    0.000000
  23.218303,    0.000000
  23.298964,    0.000000
  23.379577,    0.000000
  23.460250,    0.000000
  23.541282,    0.000000
  23.622187,    0.000000
  23.703260,    0.000000
  23.784288,    0.000000
  23.865399,    0.000000
  23.946417,    0.000000
  24.027784,    0.000000
  24.108982,    0.000000
  24.190269,    0.000000
  24.271523,    0.000000
  24.352718,    0.000000
  24.358186,    0.003020
  24.363651,    0.006099
  24.369124,    0.009243
  24.374600,    0.012449
  24.380081,    0.015719
  24.385556,    0.019045
  24.391044,    0.022440
  24.396531,    0.025896
  24.402027,    0.029417
  24.407521,    0.032998
  24.413020,    0.036643
  24.418498,    0.040335
  24.424001,    0.044104
  24.429515,    0.047941
  24.435023,    0.051836
  24.440544,    0.055800
  24.446068,    0.059828
  24.451570,    0.063901
  24.457089,    0.068047
  24.462620,    0.072263
  24.468161,    0.076548
  24.473692,    0.080887
  24.479190,    0.085261
  24.484744,    0.089740
  24.490291,    0.094275
  24.495850,    0.098881
  24.501416,    0.103555
  24.506984,    0.108292
  24.512543,    0.113083
  24.518110,    0.117943
  24.523652,    0.122843
  24.529237,    0.127841
  24.534803,    0.132885
  24.540395,    0.138014
  24.545971,    0.143190
  24.551566,    0.148446
  24.557159,    0.153761
  24.562758,    0.159146
  24.568354,    0.164588
  24.573963,    0.170105
  24.579577,    0.175691
  24.585195,    0.181342
  24.590816,    0.187058
  24.596446,    0.192846
  24.602094,    0.198715
  24.607747,    0.204653
  24.613397,    0.210650
  24.619055,    0.216719
  24.624705,    0.222841
  24.630376,    0.229051
  24.636017,    0.235289
  24.641680,    0.241615
  24.647363,    0.248026
  24.653059,    0.254516
  24.658760,    0.261074
  24.664442,    0.267675
  24.670145,    0.274363
  24.675867,    0.281137
  24.681556,    0.287936
  24.687268,    0.294827
  24.693013,    0.301821
  24.698730,    0.308845
  24.704469,    0.315960
  24.710179,    0.323102
  24.715948,    0.330383
  24.721704,    0.337712
  24.727442,    0.345082
  24.733216,    0.352563
  24.739008,    0.360133
  24.744774,    0.367733
  24.750577,    0.375447
  24.756348,    0.383183
  24.762160,    0.391038
  24.767941,    0.398918
  24.773769,    0.406926
  24.779572,    0.414919
  24.785413,    0.422985
  24.791258,    0.431075
  24.797092,    0.439169
  24.802939,    0.447302
  24.808789,    0.455458
  24.814659,    0.463660
  24.820540,    0.471897
  24.826411,    0.480142
  24.832276,    0.488397
  24.838175,    0.496718
  24.844068,    0.505051
  24.849959,    0.513401
  24.855788,    0.521682
  24.861712,    0.530119
  24.867634,    0.538571
  24.873565,    0.547057
  24.879492,    0.555556
  24.885373,    0.564009
  24.891306,    0.572557
  24.897247,    0.581135
  24.903202,    0.589752
  24.909181,    0.598427
  24.915130,    0.607076
  24.921107,    0.615786
  24.927078,    0.624506
  24.933044,    0.633239
  24.939034,    0.642029
  24.945007,    0.650812
  24.951026,    0.659682
  24.957019,    0.668534
  24.963048,    0.677461
  24.969070,    0.686395
  24.975107,    0.695372
  24.981118,    0.704331
  24.987136,    0.713321
  24.993177,    0.722364
  24.999238,    0.731458
  25.005314,    0.740593
  25.011371,    0.749720
  25.017431,    0.758874
  25.023537,    0.768116
  25.029634,    0.777364
  25.035722,    0.786617
  25.041842,    0.795942
  25.047955,    0.805276
  25.054066,    0.814627
  25.060212,    0.824050
  25.066330,    0.833452
  25.072467,    0.842903
  25.078578,    0.852335
  25.084743,    0.861871
  25.090889,    0.871396
  25.092125,    0.873314
  25.092983,    0.874646
  25.093595,    0.875597
  25.094099,    0.876379
  25.095520,    0.878587
  25.095690,    0.878852
  25.095714,    0.878889
  25.095721,    0.878900
  25.095728,    0.878911
  25.095780,    0.878992
  25.096050,    0.879411
  25.097024,    0.880925
  25.099401,    0.884623
  25.104719,    0.892906
  25.110867,    0.902501
  25.117063,    0.912191
  25.123265,    0.921911
  25.129502,    0.931707
  25.135726,    0.941504
  25.141965,    0.951343
  25.148221,    0.961232
  25.154460,    0.971112
  25.160708,    0.981029
  25.166990,    0.991020
  25.173259,    1.001012
  25.179547,    1.011054
  25.185837,    1.021121
  25.192142,    1.031232
  25.198457,    1.041380
  25.204804,    1.051600
  25.211118,    1.061790
  25.217457,    1.072039
  25.223808,    1.082329
  25.230154,    1.092633
  25.236525,    1.102999
  25.242904,    1.113397
  25.249281,    1.123814
  25.255665,    1.134264
  25.262098,    1.144815
  25.268510,    1.155352
  25.273769,    1.164010
  25.274931,    1.165926
  25.281361,    1.176537
  25.287786,    1.187159
  25.294261,    1.197886
  25.300727,    1.208620
  25.307217,    1.219416
  25.313699,    1.230219
  25.320169,    1.241024
  25.326676,    1.251912
  25.333208,    1.262864
  25.339759,    1.273869
  25.346309,    1.284895
  25.352860,    1.295942
  25.359432,    1.307049
  25.365996,    1.318163
  25.372593,    1.329356
  25.379198,    1.340584
  25.385796,    1.351820
  25.392391,    1.363075
  25.399010,    1.374393
  25.405663,    1.385790
  25.412311,    1.397201
  25.418964,    1.408643
  25.425642,    1.420151
  25.432314,    1.431669
  25.438993,    1.443223
  25.445686,    1.454823
  25.452397,    1.466476
  25.459138,    1.478203
  25.465864,    1.489927
  25.472624,    1.501732
  25.479369,    1.513534
  25.486127,    1.525382
  25.492896,    1.537270
  25.499720,    1.549277
  25.506544,    1.561308
  25.513350,    1.573330
  25.520164,    1.585388
  25.526979,    1.597472
  25.533822,    1.609626
  25.540703,    1.621873
  25.547527,    1.634039
  25.554435,    1.646378
  25.561320,    1.658700
  25.568241,    1.671109
  25.575137,    1.683496
  25.582063,    1.695960
  25.588991,    1.708450
  25.595970,    1.721056
  25.602914,    1.733620
  25.609904,    1.746293
  25.616878,    1.758959
  25.623890,    1.771717
  25.630937,    1.784563
  25.637962,    1.797391
  25.645050,    1.810359
  25.652112,    1.823303
  25.659209,    1.836333
  25.666254,    1.849294
  25.673371,    1.862408
  25.680488,    1.875548
  25.687627,    1.888750
  25.694756,    1.901960
  25.701896,    1.915212
  25.709037,    1.928490
  25.716194,    1.941822
  25.723403,    1.955276
  25.730586,    1.968703
  25.737817,    1.982246
  25.745065,    1.995844
  25.752265,    2.009375
  25.759560,    2.023109
  25.766783,    2.036732
  25.774096,    2.050549
  25.781358,    2.064295
  25.788658,    2.078135
  25.795969,    2.092021
  25.803278,    2.105929
  25.810652,    2.119983
  25.818029,    2.134069
  25.825447,    2.148257
  25.832814,    2.162371
  25.840185,    2.176518
  25.847545,    2.190669
  25.854954,    2.204937
  25.862389,    2.219280
  25.869854,    2.233708
  25.877326,    2.248172
  25.884787,    2.262639
  25.892318,    2.277270
  25.899888,    2.291999
  25.907400,    2.306642
  25.914933,    2.321349
  25.922465,    2.336080
  25.930048,    2.350935
  25.937670,    2.365892
  25.945249,    2.380791
  25.952855,    2.395767
  25.960490,    2.410826
  25.968168,    2.425994
  25.975834,    2.441166
  25.983518,    2.456398
  25.991245,    2.471740
  25.998953,    2.487071
  26.006713,    2.502531
  26.014459,    2.517988
  26.022186,    2.533433
  26.029992,    2.549062
  26.037758,    2.564637
  26.045595,    2.580381
  26.053435,    2.596154
  26.061233,    2.611871
  26.069095,    2.627742
  26.076940,    2.643604
  26.084835,    2.659595
  26.092731,    2.675611
  26.100697,    2.691798
  26.108677,    2.708039
  26.116636,    2.724263
  26.124579,    2.740482
  26.132512,    2.756706
  26.140501,    2.773070
  26.148468,    2.789416
  26.156547,    2.806018
  26.164571,    2.822534
  26.172568,    2.839020
  26.180568,    2.855539
  26.188609,    2.872168
  26.196670,    2.888864
  26.204702,    2.905529
  26.212846,    2.922450
  26.220912,    2.939236
  26.229039,    2.956176
  26.237240,    2.973297
  26.245414,    2.990388
  26.253609,    3.007550
  26.261840,    3.024813
  26.270026,    3.042010
  26.278272,    3.059358
  26.286492,    3.076679
  26.294696,    3.093995
  26.302988,    3.111520
  26.311316,    3.129150
  26.319576,    3.146662
  26.327818,    3.164164
  26.336119,    3.181814
  26.344411,    3.199475
  26.352670,    3.217093
  26.361100,    3.235100
  26.369443,    3.252949
  26.377858,    3.270979
  26.386272,    3.289034
  26.394659,    3.307058
  26.403188,    3.325413
  26.411690,    3.343741
  26.420130,    3.361959
  26.428583,    3.380232
  26.437121,    3.398718
  26.445671,    3.417257
  26.454193,    3.435761
  26.462690,    3.454239
  26.471222,    3.472819
  26.479807,    3.491544
  26.488403,    3.510317
  26.497022,    3.529169
  26.505639,    3.548044
  26.514237,    3.566905
  26.522872,    3.585873
  26.531611,    3.605099
  26.540221,    3.624068
  26.548951,    3.643327
  26.557724,    3.662710
  26.566506,    3.682139
  26.575252,    3.701518
  26.583993,    3.720911
  26.592746,    3.740359
  26.601513,    3.759866
  26.610255,    3.779343
  26.619064,    3.798998
  26.627887,    3.818712
  26.636695,    3.838417
  26.645624,    3.858422
  26.654418,    3.878152
  26.663239,    3.897969
  26.672203,    3.918135
  26.681142,    3.938273
  26.690084,    3.958447
  26.699010,    3.978610
  26.707927,    3.998778
  26.717015,    4.019362
  26.726023,    4.039795
  26.734985,    4.060147
  26.744097,    4.080871
  26.753095,    4.101361
  26.762163,    4.122040
  26.771191,    4.142652
  26.780408,    4.163725
  26.789491,    4.184518
  26.798572,    4.205337
  26.807752,    4.226407
  26.816871,    4.247365
  26.826009,    4.268395
  26.835258,    4.289710
  26.844477,    4.310980
  26.853596,    4.332048
  26.862812,    4.353366
  26.872039,    4.374738
  26.881224,    4.396039
  26.890397,    4.417339
  26.899646,    4.438844
  26.908910,    4.460408
  26.918212,    4.482092
  26.927501,    4.503770
  26.936808,    4.525516
  26.946079,    4.547206
  26.955331,    4.568879
  26.964680,    4.590806
  26.974025,    4.612751
  26.983440,    4.634885
  26.992799,    4.656916
  27.002242,    4.679172
  27.011702,    4.701494
  27.021110,    4.723722
  27.030543,    4.746034
  27.040057,    4.768566
  27.049546,    4.791063
  27.059060,    4.813648
  27.068610,    4.836348
  27.078062,    4.858838
  27.087626,    4.881622
  27.097240,    4.904551
  27.106780,    4.927332
  27.116189,    4.949825
  27.125650,    4.972469
  27.135320,    4.995641
  27.144918,    5.018666
  27.154444,    5.041543
  27.164002,    5.064522
  27.173582,    5.087581
  27.183104,    5.110528
  27.192768,    5.133841
  27.202455,    5.157235
  27.212068,    5.180478
  27.221714,    5.203826
  27.231455,    5.227428
  27.241133,    5.250907
  27.250834,    5.274465
  27.260497,    5.297955
  27.270178,    5.321516
  27.279861,    5.345107
  27.289513,    5.368646
  27.299283,    5.392499
  27.309042,    5.416352
  27.318745,    5.440091
  27.328595,    5.464215
  27.338440,    5.488353
  27.348202,    5.512313
  27.358006,    5.536398
  27.367897,    5.560724
  27.377789,    5.585078
  27.387564,    5.609170
  27.397434,    5.633517
  27.407257,    5.657774
  27.417178,    5.682300
  27.427134,    5.706934
  27.437005,    5.731383
  27.446901,    5.755920
  27.456765,    5.780400
  27.466721,    5.805133
  27.476721,    5.830000
  27.486724,    5.854896
  27.496628,    5.879573
  27.506646,    5.904557
  27.516554,    5.929290
  27.526558,    5.954288
  27.536558,    5.979296
  27.546534,    6.004271
  27.556525,    6.029305
  27.566613,    6.054605
  27.576741,    6.080031
  27.586686,    6.105018
  27.596854,    6.130591
  27.606893,    6.155862
  27.616906,    6.181089
  27.626948,    6.206415
  27.637089,    6.232009
  27.647137,    6.257394
  27.657210,    6.282864
  27.667309,    6.308423
  27.677410,    6.334007
  27.687541,    6.359693
  27.697622,    6.385272
  27.707898,    6.411366
  27.718054,    6.437181
  27.728326,    6.463310
  27.738563,    6.489376
  27.748721,    6.515258
  27.758901,    6.541221
  27.769061,    6.567152
  27.779241,    6.593158
  27.789424,    6.619192
  27.799688,    6.645453
  27.809889,    6.671574
  27.820112,    6.697773
  27.830301,    6.723907
  27.836774,    6.740519
