Time, Forces
   0.000000, 16631.982066
   0.001667, 16614.077512
   0.003333, 16596.259134
   0.005000, 16578.453596
   0.006667, 16560.648058
   0.008333, 16542.842520
   0.010000, 16525.036981
   0.011667, 16507.231443
   0.013333, 16489.425905
   0.015000, 16471.620367
   0.016667, 16453.814828
   0.018333, 16436.009290
   0.020000, 16418.394996
   0.021667, 16400.804580
   0.023333, 16383.214164
   0.025000, 16365.623749
   0.026667, 16348.033333
   0.028333, 16330.442917
   0.030000, 16312.852502
   0.031667, 16295.262086
   0.033333, 16277.671670
   0.035000, 16260.081255
   0.036667, 16242.687905
   0.038333, 16225.319162
   0.040000, 16207.950418
   0.041667, 16190.581674
   0.043333, 16173.212931
   0.045000, 16155.844187
   0.046667, 16138.475444
   0.048333, 16121.106700
   0.050000, 16103.737956
   0.051667, 16086.369213
   0.053333, 16069.202978
   0.055000, 16052.062028
   0.056667, 16034.921078
   0.058333, 16017.780128
   0.060000, 16000.639178
   0.061667, 15983.498228
   0.063333, 15966.357278
   0.065000, 15949.216329
   0.066667, 15932.075379
   0.068333, 15914.934429
   0.070000, 15898.001047
   0.071667, 15881.093582
   0.073333, 15864.186117
   0.075000, 15847.278653
   0.076667, 15830.371188
   0.078333, 15813.463723
   0.080000, 15796.556258
   0.081667, 15779.648793
   0.083333, 15762.741328
   0.085000, 15745.833863
   0.086667, 15723.693227
   0.088333, 15700.899179
   0.090000, 15678.105132
   0.091667, 15655.311084
   0.093333, 15632.517037
   0.095000, 15609.722989
   0.096667, 15586.928942
   0.098333, 15564.134894
   0.100000, 15541.340847
   0.101667, 15518.546799
   0.103333, 15494.813140
   0.105000, 15470.962161
   0.106667, 15447.111182
   0.108333, 15423.260203
   0.110000, 15399.409224
   0.111667, 15375.558245
   0.113333, 15351.707266
   0.115000, 15327.856287
   0.116667, 15304.005308
   0.118333, 15280.154329
   0.120000, 15256.734870
   0.121667, 15233.369291
   0.123333, 15210.003712
   0.125000, 15186.638132
   0.126667, 15163.272553
   0.128333, 15139.906974
   0.130000, 15116.541395
   0.131667, 15093.175816
   0.133333, 15069.810236
   0.135000, 15046.444657
   0.136667, 15023.511553
   0.138333, 15000.632447
   0.140000, 14977.753340
   0.141667, 14954.874234
   0.143333, 14931.995128
   0.145000, 14909.116022
   0.146667, 14886.236916
   0.148333, 14863.357810
   0.150000, 14840.478704
   0.151667, 14817.599598
   0.153333, 14795.153294
   0.155000, 14772.761029
   0.156667, 14750.368764
   0.158333, 14727.976499
   0.160000, 14705.584234
   0.161667, 14683.191969
   0.163333, 14660.799704
   0.165000, 14638.407439
   0.166667, 14616.015174
   0.168333, 14593.622909
   0.170000, 14571.663171
   0.171667, 14549.757438
   0.173333, 14527.851705
   0.175000, 14505.945972
   0.176667, 14484.040240
   0.178333, 14462.134507
   0.180000, 14440.228774
   0.181667, 14418.323041
   0.183333, 14396.417308
   0.185000, 14374.511575
   0.186667, 14345.439859
   0.188333, 14315.473404
   0.190000, 14285.506948
   0.191667, 14255.540492
   0.193333, 14225.574036
   0.195000, 14195.607580
   0.196667, 14165.641124
   0.198333, 14135.674668
   0.200000, 14105.708212
   0.201667, 14075.741757
   0.203333, 14046.249340
   0.205000, 14016.816111
   0.206667, 13987.382882
   0.208333, 13957.949653
   0.210000, 13928.516425
   0.211667, 13899.083196
   0.213333, 13869.649967
   0.215000, 13840.216738
   0.216667, 13810.783510
   0.218333, 13781.350281
   0.220000, 13752.700536
   0.221667, 13724.148616
   0.223333, 13695.596696
   0.225000, 13667.044776
   0.226667, 13638.492856
   0.228333, 13609.940936
   0.230000, 13581.389016
   0.231667, 13552.837096
   0.233333, 13524.285176
   0.235000, 13495.733256
   0.236667, 13467.951501
   0.238333, 13440.265908
   0.240000, 13412.580315
   0.241667, 13384.894722
   0.243333, 13357.209129
   0.245000, 13329.523536
   0.246667, 13301.837943
   0.248333, 13274.152350
   0.250000, 13246.466757
   0.251667, 13218.781164
   0.253333, 13191.851899
   0.255000, 13165.017068
   0.256667, 13138.182238
   0.258333, 13111.347407
   0.260000, 13084.512577
   0.261667, 13057.677747
   0.263333, 13030.842916
   0.265000, 13004.008086
   0.266667, 12977.173256
   0.268333, 12950.338425
   0.270000, 12924.245634
   0.271667, 12898.245493
   0.273333, 12872.245352
   0.275000, 12846.245211
   0.276667, 12820.245070
   0.278333, 12794.244929
   0.280000, 12768.244788
   0.281667, 12742.244647
   0.283333, 12716.244506
   0.285000, 12690.244365
   0.286667, 12664.993918
   0.288333, 12639.837077
   0.290000, 12614.680236
   0.291667, 12589.523394
   0.293333, 12564.366553
   0.295000, 12539.209712
   0.296667, 12514.052871
   0.298333, 12488.896030
   0.300000, 12463.739189
   0.301667, 12438.582347
   0.303333, 12414.368749
   0.305000, 12390.272923
   0.306667, 12366.177098
   0.308333, 12342.081272
   0.310000, 12317.985446
   0.311667, 12293.889621
   0.312369, 12283.731457
   0.314036, 12260.019609
   0.315703, 12236.307761
   0.317369, 12212.595913
   0.319036, 12189.140702
   0.320703, 12166.255186
   0.322369, 12143.369671
   0.324036, 12120.484156
   0.325703, 12097.598641
   0.327369, 12074.713126
   0.329036, 12051.827611
   0.330703, 12028.942096
   0.332369, 12006.056581
   0.334036, 11983.171066
   0.335703, 11960.713183
   0.337369, 11939.204581
   0.339036, 11917.695980
   0.340703, 11896.187378
   0.342369, 11874.678776
   0.344036, 11853.170174
   0.345703, 11831.661572
   0.347369, 11810.152970
   0.349036, 11788.644368
   0.350703, 11767.135766
   0.352369, 11746.107957
   0.354036, 11726.147435
   0.355703, 11706.186913
   0.357369, 11686.226391
   0.359036, 11666.265870
   0.360703, 11646.305348
   0.362369, 11626.344826
   0.364036, 11606.384304
   0.365703, 11586.423782
   0.367369, 11566.463261
   0.368518, 11552.701950
   0.370185, 11540.274181
   0.371852, 11527.846413
   0.373518, 11515.418645
   0.375185, 11502.990876
   0.376852, 11490.563108
   0.378518, 11478.135339
   0.380185, 11465.707571
   0.381852, 11453.279803
   0.383518, 11440.852034
   0.385185, 11428.424266
   0.386852, 11421.958838
   0.388518, 11415.493409
   0.390185, 11409.027981
   0.391852, 11402.562552
   0.393518, 11396.097124
   0.395185, 11392.825873
   0.396852, 11389.554623
   0.398518, 11386.283372
   0.400185, 11383.012121
   0.401852, 11379.740871
   0.403518, 11379.805460
   0.405185, 11379.870049
   0.406852, 11379.934638
   0.408518, 11379.999227
   0.410185, 11380.063816
   0.410185, 7258.321578
   1.604481, 7056.527752
   2.823272, 6867.679053
   4.081386, 6600.086171
   5.429985, 6186.079638
   6.915721, 5802.152552
   8.560390, 5454.548955
  10.397371, 5120.511927
  12.485334, 4793.974496
  14.968358, 4422.048786
  14.968358, 3291.280550
  15.830802, 3290.480587
  16.693245, 3289.680770
  17.555688, 3288.881100
  18.418132, 3288.081577
  19.280575, 3287.282201
  20.143018, 3286.482971
  21.005461, 3285.683889
  21.867905, 3284.884953
  22.730348, 3284.086165
  23.592791, 3283.287523
  24.455235, 3282.489028
  25.317678, 3281.690680
  26.180121, 3280.892478
  27.042565, 3280.094424
  27.905008, 3279.296516
  28.767451, 3278.498756
  29.629895, 3277.701142
  30.492338, 3276.903674
  31.354781, 3276.106354
  32.217225, 3275.309181
  33.079668, 3274.512154
  33.942111, 3273.715274
  34.804555, 3272.918541
  35.666998, 3272.121955
  36.529441, 3271.325516
  37.391885, 3270.529223
  38.254328, 3269.733077
  39.116771, 3268.937078
  39.979215, 3268.141226
  39.979215, 1620.336427
  41.139143, 1532.743427
  42.301874, 1472.367662
  43.463193, 1402.344308
  44.619342, 1322.890091
  45.768081, 1236.605063
  46.905098, 1137.840271
  48.026307, 1025.631130
  49.143709,  941.203127
  50.253604,  845.084619
  50.253604, 7100.404410
  50.833005, 7002.643062
  51.418049, 6908.201372
  52.008556, 6817.212116
  52.607292, 6692.499116
  53.225054, 6481.747974
  53.871173, 6274.536230
  54.548638, 6071.136158
  55.259779, 5880.551943
  56.006440, 5699.600252
  56.006440, 2773.561449
  57.858634, 2771.140436
  59.711637, 2768.720357
  61.565449, 2766.301211
  63.420072, 2763.883001
  65.275506, 2761.465729
  67.131752, 2759.049395
  68.988810, 2756.634002
  70.846682, 2754.219551
  72.705368, 2751.806043
  72.705368, 1326.484712
  73.351774, 1350.272385
  73.988012, 1272.721577
  74.626788, 1245.444351
  75.268241, 1218.653272
  75.912514, 1192.395157
  76.559398, 1165.216667
  77.208755, 1137.398392
  77.860123, 1107.561397
  78.512585, 1073.713458
  78.512585, 2745.796122
  83.512585, 2739.411540
  88.512585, 2733.039430
  93.512585, 2726.740311
  98.512585, 2720.613875
 103.512585, 2714.499020
 108.512585, 2708.395734
 113.512585, 2702.304006
 118.512585, 2696.223822
 123.512585, 2690.155170
 123.512585, 2270.862529
 123.514252, 2270.862529
 123.515918, 2270.862529
 123.517585, 2270.862529
 123.519252, 2270.862529
 123.520918, 2270.862529
 123.522585, 2270.862529
 123.524252, 2270.862529
 123.525918, 2270.862529
 123.527585, 2270.862529
 123.529252, 2270.862529
 123.530918, 2270.862529
 123.532585, 2270.862529
 123.534252, 2270.862529
 123.535918, 2270.862529
 123.537585, 2270.862529
 123.539252, 2270.862529
 123.540918, 2270.862529
 123.542585, 2270.862529
 123.544252, 2270.862529
 123.545918, 2270.862529
 123.547585, 2270.862529
 123.549252, 2270.862529
 123.550918, 2270.862529
 123.552585, 2270.862529
 123.554252, 2270.862529
 123.555918, 2270.862529
 123.557585, 2270.862529
 123.559252, 2270.862529
 123.560918, 2270.862529
 123.562585, 2270.862529
 123.564252, 2270.862529
 123.565918, 2270.862529
 123.567585, 2270.862529
 123.569252, 2270.862529
 123.570918, 2270.862529
 123.572585, 2270.862529
 123.574252, 2270.862529
 123.575918, 2270.862529
 123.577585, 2270.862529
 123.579252, 2270.862529
 123.580918, 2270.862529
 123.582585, 2270.862529
 123.584252, 2270.862529
 123.585918, 2270.862529
 123.587585, 2270.862529
 123.589252, 2270.862529
 123.590918, 2270.862529
 123.592585, 2270.862529
 123.594252, 2270.862529
 123.595918, 2270.862529
 123.597585, 2270.862529
 123.599252, 2270.862529
 123.600918, 2270.862529
 123.602585, 2270.862529
 123.604252, 2270.862529
 123.605918, 2270.862529
 123.607585, 2270.862529
 123.609252, 2270.862529
 123.610918, 2270.862529
 123.612585, 2270.862529
 123.614252, 2270.862529
 123.615918, 2270.862529
 123.617585, 2270.862529
 123.619252, 2270.862529
 123.620918, 2270.862529
 123.622585, 2270.862529
 123.624252, 2270.862529
 123.625918, 2270.862529
 123.627585, 2270.862529
 123.629252, 2270.862529
 123.630918, 2270.862529
 123.632585, 2270.862529
 123.634252, 2270.862529
 123.635918, 2270.862529
 123.637585, 2270.862529
 123.639252, 2270.862529
 123.640918, 2270.862529
 123.642585, 2270.862529
 123.644252, 2270.862529
 123.645918, 2270.862529
 123.647585, 2270.862529
 123.649252, 2270.862529
 123.650918, 2270.862529
 123.652585, 2270.862529
 123.654252, 2270.862529
 123.655918, 2270.862529
 123.657585, 2270.862529
 123.659252, 2270.862529
 123.660918, 2270.862529
 123.662585, 2270.862529
 123.664252, 2270.862529
 123.665918, 2270.862529
 123.667585, 2270.862529
 123.669252, 2270.862529
 123.670918, 2270.862529
 123.672585, 2270.862529
 123.674252, 2270.862529
 123.675918, 2270.862529
 123.677585, 2270.862529
 123.679252, 2270.862529
 123.680918, 2270.862529
 123.682585, 2270.862529
 123.684252, 2270.862529
 123.685918, 2270.862529
 123.687585, 2270.862529
 123.689252, 2270.862529
 123.690918, 2270.862529
 123.692585, 2270.862529
 123.694252, 2270.862529
 123.695918, 2270.862529
 123.697585, 2270.862529
 123.699252, 2270.862529
 123.700918, 2270.862529
 123.702585, 2270.862529
 123.704252, 2270.862529
 123.705918, 2270.862529
 123.707585, 2270.862529
 123.709252, 2270.862529
 123.710918, 2270.862529
 123.712585, 2270.862529
 123.714252, 2270.862529
 123.715918, 2270.862529
 123.717585, 2270.862529
 123.719252, 2270.862529
 123.720918, 2270.862529
 123.722585, 2270.862529
 123.724252, 2270.862529
 123.725918, 2270.862529
 123.727585, 2270.862529
 123.729252, 2270.862529
 123.730918, 2270.862529
 123.732585, 2270.862529
 123.734252, 2270.862529
 123.735918, 2270.862529
 123.737585, 2270.862529
 123.739252, 2270.862529
 123.740918, 2270.862529
 123.742585, 2270.862529
 123.744252, 2270.862529
 123.745918, 2270.862529
 123.747585, 2270.862529
 123.749252, 2270.862529
 123.750918, 2270.862529
 123.752585, 2270.862529
 123.754252, 2270.862529
 123.755918, 2270.862529
 123.757585, 2270.862529
 123.759252, 2270.862529
 123.760918, 2270.862529
 123.762585, 2270.862529
 123.764252, 2270.862529
 123.765918, 2270.862529
 123.767585, 2270.862529
 123.769252, 2270.862529
 123.770918, 2270.862529
 123.772585, 2270.862529
 123.774252, 2270.862529
 123.775918, 2270.862529
 123.777585, 2270.862529
 123.779252, 2270.862529
 123.780918, 2270.862529
 123.782585, 2270.862529
 123.784252, 2270.862529
 123.785918, 2270.862529
 123.787585, 2270.862529
 123.789252, 2270.862529
 123.790918, 2270.862529
 123.792585, 2270.862529
 123.794252, 2270.862529
 123.795918, 2270.862529
 123.797585, 2270.862529
 123.799252, 2270.862529
 123.800918, 2270.862529
 123.802585, 2270.862529
 123.804252, 2270.862529
 123.805918, 2270.862529
 123.807585, 2270.862529
 123.809252, 2270.862529
 123.810918, 2270.862529
 123.812585, 2270.862529
 123.814252, 2270.862529
 123.815918, 2270.862529
 123.817585, 2270.862529
 123.819252, 2270.862529
 123.820918, 2270.862529
 123.822585, 2270.862529
 123.824252, 2270.862529
 123.825918, 2270.862529
 123.827585, 2270.862529
 123.829252, 2270.862529
 123.830918, 2270.862529
 123.832585, 2270.862529
 123.834252, 2270.862529
 123.835918, 2270.862529
 123.837585, 2270.862529
 123.839252, 2270.862529
 123.840918, 2270.862529
 123.842585, 2270.862529
 123.844252, 2270.862529
 123.845918, 2270.862529
 123.847585, 2270.862529
 123.849252, 2270.862529
 123.850918, 2270.862529
 123.852585, 2270.862529
 123.854252, 2270.862529
 123.855918, 2270.862529
 123.857585, 2270.862529
 123.859252, 2270.862529
 123.860918, 2270.862529
 123.862585, 2270.862529
 123.864252, 2270.862529
 123.865918, 2270.862529
 123.867585, 2270.862529
 123.869252, 2270.862529
 123.870918, 2270.862529
 123.872585, 2270.862529
 123.874252, 2270.862529
 123.875918, 2270.862529
 123.877585, 2270.862529
 123.879252, 2270.862529
 123.880918, 2270.862529
 123.882585, 2270.862529
 123.884252, 2270.862529
 123.885918, 2270.862529
 123.887585, 2270.862529
 123.889252, 2270.862529
 123.890918, 2270.862529
 123.892585, 2270.862529
 123.894252, 2270.862529
 123.895918, 2270.862529
 123.897585, 2270.862529
 123.899252, 2270.862529
 123.900918, 2270.862529
 123.902585, 2270.862529
 123.904252, 2270.862529
 123.905918, 2270.862529
 123.907585, 2270.862529
 123.909252, 2270.862529
 123.910918, 2270.862529
 123.912585, 2270.862529
 123.914252, 2270.862529
 123.915918, 2270.862529
 123.917585, 2270.862529
 123.919252, 2270.862529
 123.920918, 2270.862529
 123.922585, 2270.862529
 123.924252, 2270.862529
 123.925918, 2270.862529
 123.927585, 2270.862529
 123.929252, 2270.862529
 123.930918, 2270.862529
 123.932585, 2270.862529
 123.934252, 2270.862529
 123.935918, 2270.862529
 123.937585, 2270.862529
 123.939252, 2270.862529
 123.940918, 2270.862529
 123.942585, 2270.862529
 123.944252, 2270.862529
 123.945918, 2270.862529
 123.947585, 2270.862529
 123.949252, 2270.862529
 123.950918, 2270.862529
 123.952585, 2270.862529
 123.954252, 2270.862529
 123.955918, 2270.862529
 123.957585, 2270.862529
 123.959252, 2270.862529
 123.960918, 2270.862529
 123.962585, 2270.862529
 123.964252, 2270.862529
 123.965918, 2270.862529
 123.967585, 2270.862529
 123.969252, 2270.862529
 123.970918, 2270.862529
 123.972585, 2270.862529
 123.974252, 2270.862529
 123.975918, 2270.862529
 123.977585, 2270.862529
 123.979252, 2270.862529
 123.980918, 2270.862529
 123.982585, 2270.862529
 123.984252, 2270.862529
 123.985918, 2270.862529
 123.987585, 2270.862529
 123.989252, 2270.862529
 123.990918, 2270.862529
 123.992585, 2270.862529
 123.994252, 2270.862529
 123.995918, 2270.862529
 123.997585, 2270.862529
 123.999252, 2270.862529
 124.000918, 2270.862529
 124.002585, 2270.862529
 124.004252, 2270.862529
 124.005918, 2270.862529
 124.007585, 2270.862529
 124.009252, 2270.862529
 124.010918, 2270.862529
 124.012585, 2270.862529
 124.014252, 2270.862529
 124.015918, 2270.862529
 124.017585, 2270.862529
 124.019252, 2270.862529
 124.020918, 2270.862529
 124.022585, 2270.862529
 124.024252, 2270.862529
 124.025918, 2270.862529
 124.027585, 2270.862529
 124.029252, 2270.862529
 124.030918, 2270.862529
 124.032585, 2270.862529
 124.034252, 2270.862529
 124.035918, 2270.862529
 124.037585, 2270.862529
 124.039252, 2270.862529
 124.040918, 2270.862529
 124.042585, 2270.862529
 124.044252, 2270.862529
 124.045918, 2270.862529
 124.047585, 2270.862529
 124.049252, 2270.862529
 124.050918, 2270.862529
 124.052585, 2270.862529
 124.054252, 2270.862529
 124.055918, 2270.862529
 124.057585, 2270.862529
 124.059252, 2270.862529
 124.060918, 2270.862529
 124.062585, 2270.862529
 124.064252, 2270.862529
 124.065918, 2270.862529
 124.067585, 2270.862529
 124.069252, 2270.862529
 124.070918, 2270.862529
 124.072585, 2270.862529
 124.074252, 2270.862529
 124.075918, 2270.862529
 124.077585, 2270.862529
 124.079252, 2270.862529
 124.080918, 2270.862529
 124.082585, 2270.862529
 124.084252, 2270.862529
 124.085918, 2270.862529
 124.087585, 2270.862529
 124.089252, 2270.862529
 124.090918, 2270.862529
 124.092585, 2270.862529
 124.094252, 2270.862529
 124.095918, 2270.862529
 124.097585, 2270.862529
 124.099252, 2270.862529
 124.100918, 2270.862529
 124.102585, 2270.862529
 124.104252, 2270.862529
 124.105918, 2270.862529
 124.107585, 2270.862529
 124.109252, 2270.862529
 124.110918, 2270.862529
 124.112585, 2270.862529
 124.114252, 2270.862529
 124.115918, 2270.862529
 124.117585, 2270.862529
 124.119252, 2270.862529
 124.120918, 2270.862529
 124.122585, 2270.862529
 124.124252, 2270.862529
 124.125918, 2270.862529
 124.127585, 2270.862529
 124.129252, 2270.862529
 124.130918, 2270.862529
 124.132585, 2270.862529
 124.134252, 2270.862529
 124.135918, 2270.862529
 124.137585, 2270.862529
 124.139252, 2270.862529
 124.140918, 2270.862529
 124.142585, 2270.862529
 124.144252, 2270.862529
 124.145918, 2270.862529
 124.147585, 2270.862529
 124.149252, 2270.862529
 124.150918, 2270.862529
 124.152585, 2270.862529
 124.154252, 2270.862529
 124.155918, 2270.862529
 124.157585, 2270.862529
 124.159252, 2270.862529
 124.160918, 2270.862529
 124.162585, 2270.862529
 124.164252, 2270.862529
 124.165918, 2270.862529
 124.167585, 2270.862529
 124.169252, 2270.862529
 124.170918, 2270.862529
 124.172585, 2270.862529
 124.174252, 2270.862529
 124.175918, 2270.862529
 124.177585, 2270.862529
 124.179252, 2270.862529
 124.180918, 2270.862529
 124.182585, 2270.862529
 124.184252, 2270.862529
 124.185918, 2270.862529
 124.187585, 2270.862529
 124.189252, 2270.862529
 124.190918, 2270.862529
 124.192585, 2270.862529
 124.194252, 2270.862529
 124.195918, 2270.862529
 124.197585, 2270.862529
 124.199252, 2270.862529
 124.200918, 2270.862529
 124.202585, 2270.862529
 124.204252, 2270.862529
 124.205918, 2270.862529
 124.207585, 2270.862529
 124.209252, 2270.862529
 124.210918, 2270.862529
 124.212585, 2270.862529
 124.214252, 2270.862529
 124.215918, 2270.862529
 124.217585, 2270.862529
 124.219252, 2270.862529
 124.220918, 2270.862529
 124.222585, 2270.862529
 124.224252, 2270.862529
 124.225918, 2270.862529
 124.227585, 2270.862529
 124.229252, 2270.862529
 124.230918, 2270.862529
 124.232585, 2270.862529
 124.234252, 2270.862529
 124.235918, 2270.862529
 124.237585, 2270.862529
 124.239252, 2270.862529
 124.240918, 2270.862529
 124.242585, 2270.862529
 124.244252, 2270.862529
 124.245918, 2270.862529
 124.247585, 2270.862529
 124.249252, 2270.862529
 124.250918, 2270.862529
 124.252585, 2270.862529
 124.254252, 2270.862529
 124.255918, 2270.862529
 124.257585, 2270.862529
 124.259252, 2270.862529
 124.260918, 2270.862529
 124.262585, 2270.862529
 124.264252, 2270.862529
 124.265918, 2270.862529
 124.267585, 2270.862529
 124.269252, 2270.862529
 124.270918, 2270.862529
 124.272585, 2270.862529
 124.274252, 2270.862529
 124.275918, 2270.862529
 124.277585, 2270.862529
 124.279252, 2270.862529
 124.280918, 2270.862529
 124.282585, 2270.862529
 124.284252, 2270.862529
 124.285918, 2270.862529
 124.287585, 2270.862529
 124.289252, 2270.862529
 124.290918, 2270.862529
 124.292585, 2270.862529
 124.294252, 2270.862529
 124.295918, 2270.862529
 124.297585, 2270.862529
 124.299252, 2270.862529
 124.300918, 2270.862529
 124.302585, 2270.862529
 124.304252, 2270.862529
 124.305918, 2270.862529
 124.307585, 2270.862529
 124.309252, 2270.862529
 124.310918, 2270.862529
 124.312585, 2270.862529
 124.314252, 2270.862529
 124.315918, 2270.862529
 124.317585, 2270.862529
 124.319252, 2270.862529
 124.320918, 2270.862529
 124.322585, 2270.862529
 124.324252, 2270.862529
 124.325918, 2270.862529
 124.327585, 2270.862529
 124.329252, 2270.862529
 124.330918, 2270.862529
 124.332585, 2270.862529
 124.334252, 2270.862529
 124.335918, 2270.862529
 124.337585, 2270.862529
 124.339252, 2270.862529
 124.340918, 2270.862529
 124.342585, 2270.862529
 124.344252, 2270.862529
 124.345918, 2270.862529
 124.347585, 2270.862529
 124.349252, 2270.862529
 124.350918, 2270.862529
 124.352585, 2270.862529
 124.354252, 2270.862529
 124.355918, 2270.862529
 124.357585, 2270.862529
 124.359252, 2270.862529
 124.360918, 2270.862529
 124.362585, 2270.862529
 124.364252, 2270.862529
 124.365918, 2270.862529
 124.367585, 2270.862529
 124.369252, 2270.862529
 124.370918, 2270.862529
 124.372585, 2270.862529
 124.374252, 2270.862529
 124.375918, 2270.862529
 124.377585, 2270.862529
 124.379252, 2270.862529
 124.380918, 2270.862529
 124.382585, 2270.862529
 124.384252, 2270.862529
 124.385918, 2270.862529
 124.387585, 2270.862529
 124.389252, 2270.862529
 124.390918, 2270.862529
 124.392585, 2270.862529
 124.394252, 2270.862529
 124.395918, 2270.862529
 124.397585, 2270.862529
 124.399252, 2270.862529
 124.400918, 2270.862529
 124.402585, 2270.862529
 124.404252, 2270.862529
 124.405918, 2270.862529
 124.407585, 2270.862529
 124.409252, 2270.862529
 124.410918, 2270.862529
 124.412585, 2270.862529
 124.414252, 2270.862529
 124.415918, 2270.862529
 124.417585, 2270.862529
 124.419252, 2270.862529
 124.420918, 2270.862529
 124.422585, 2270.862529
 124.424252, 2270.862529
 124.425918, 2270.862529
 124.427585, 2270.862529
 124.429252, 2270.862529
 124.430918, 2270.862529
 124.432585, 2270.862529
 124.434252, 2270.862529
 124.435918, 2270.862529
 124.437585, 2270.862529
 124.439252, 2270.862529
 124.440918, 2270.862529
 124.442585, 2270.862529
 124.444252, 2270.862529
 124.445918, 2270.862529
 124.447585, 2270.862529
 124.449252, 2270.862529
 124.450918, 2270.862529
 124.452585, 2270.862529
 124.454252, 2270.862529
 124.455918, 2270.862529
 124.457585, 2270.862529
 124.459252, 2270.862529
 124.460918, 2270.862529
 124.462585, 2270.862529
 124.464252, 2270.862529
 124.465918, 2270.862529
 124.467585, 2270.862529
 124.469252, 2270.862529
 124.470918, 2270.862529
 124.472585, 2270.862529
 124.474252, 2270.862529
 124.475918, 2270.862529
 124.477585, 2270.862529
 124.479252, 2270.862529
 124.480918, 2270.862529
 124.482585, 2270.862529
 124.484252, 2270.862529
 124.485918, 2270.862529
 124.487585, 2270.862529
 124.489252, 2270.862529
 124.490918, 2270.862529
 124.492585, 2270.862529
 124.494252, 2270.862529
 124.495918, 2270.862529
 124.497585, 2270.862529
 124.499252, 2270.862529
 124.500918, 2270.862529
 124.502585, 2270.862529
 124.504252, 2270.862529
 124.505918, 2270.862529
 124.507585, 2270.862529
 124.509252, 2270.862529
 124.510918, 2270.862529
 124.512585, 2270.862529
 124.514252, 2270.862529
 124.515918, 2270.862529
 124.517585, 2270.862529
 124.519252, 2270.862529
 124.520918, 2270.862529
 124.522585, 2270.862529
 124.524252, 2270.862529
 124.525918, 2270.862529
 124.527585, 2270.862529
 124.529252, 2270.862529
 124.530918, 2270.862529
 124.532585, 2270.862529
 124.534252, 2270.862529
 124.535918, 2270.862529
 124.537585, 2270.862529
 124.539252, 2270.862529
 124.540918, 2270.862529
 124.542585, 2270.862529
 124.544252, 2270.862529
 124.545918, 2270.862529
 124.547585, 2270.862529
 124.549252, 2270.862529
 124.550918, 2270.862529
 124.552585, 2270.862529
 124.554252, 2270.862529
 124.555918, 2270.862529
 124.557585, 2270.862529
 124.559252, 2270.862529
 124.560918, 2270.862529
 124.562585, 2270.862529
 124.564252, 2270.862529
 124.565918, 2270.862529
 124.567585, 2270.862529
 124.569252, 2270.862529
 124.570918, 2270.862529
 124.572585, 2270.862529
 124.574252, 2270.862529
 124.575918, 2270.862529
 124.577585, 2270.862529
 124.579252, 2270.862529
 124.580918, 2270.862529
 124.582585, 2270.862529
 124.584252, 2270.862529
 124.585918, 2270.862529
 124.587585, 2270.862529
 124.589252, 2270.862529
 124.590918, 2270.862529
 124.592585, 2270.862529
 124.594252, 2270.862529
 124.595918, 2270.862529
 124.597585, 2270.862529
 124.599252, 2270.862529
 124.600918, 2270.862529
 124.602585, 2270.862529
 124.604252, 2270.862529
 124.605918, 2270.862529
 124.607585, 2270.862529
 124.609252, 2270.862529
 124.610918, 2270.862529
 124.612585, 2270.862529
 124.614252, 2270.862529
 124.615918, 2270.862529
 124.617585, 2270.862529
 124.619252, 2270.862529
 124.620918, 2270.862529
 124.622585, 2270.862529
 124.624252, 2270.862529
 124.625918, 2270.862529
 124.627585, 2270.862529
 124.629252, 2270.862529
 124.630918, 2270.862529
 124.632585, 2270.862529
 124.634252, 2270.862529
 124.635918, 2270.862529
 124.637585, 2270.862529
 124.639252, 2270.862529
 124.640918, 2270.862529
 124.642585, 2270.862529
 124.644252, 2270.862529
 124.645918, 2270.862529
 124.647585, 2270.862529
 124.649252, 2270.862529
 124.650918, 2270.862529
 124.652585, 2270.862529
 124.654252, 2270.862529
 124.655918, 2270.862529
 124.657585, 2270.862529
 124.659252, 2270.862529
 124.660918, 2270.862529
 124.662585, 2270.862529
 124.664252, 2270.862529
 124.665918, 2270.862529
 124.667585, 2270.862529
 124.669252, 2270.862529
 124.670918, 2270.862529
 124.672585, 2270.862529
 124.674252, 2270.862529
 124.675918, 2270.862529
 124.677585, 2270.862529
 124.679252, 2270.862529
 124.680918, 2270.862529
 124.682585, 2270.862529
 124.684252, 2270.862529
 124.685918, 2270.862529
 124.687585, 2270.862529
 124.689252, 2270.862529
 124.690918, 2270.862529
 124.692585, 2270.862529
 124.694252, 2270.862529
 124.695918, 2270.862529
 124.697585, 2270.862529
 124.699252, 2270.862529
 124.700918, 2270.862529
 124.702585, 2270.862529
 124.704252, 2270.862529
 124.705918, 2270.862529
 124.707585, 2270.862529
 124.709252, 2270.862529
 124.710918, 2270.862529
 124.712585, 2270.862529
 124.714252, 2270.862529
 124.715918, 2270.862529
 124.717585, 2270.862529
 124.719252, 2270.862529
 124.720918, 2270.862529
 124.722585, 2270.862529
 124.724252, 2270.862529
 124.725918, 2270.862529
 124.727585, 2270.862529
 124.729252, 2270.862529
 124.730918, 2270.862529
 124.732585, 2270.862529
 124.734252, 2270.862529
 124.735918, 2270.862529
 124.737585, 2270.862529
 124.739252, 2270.862529
 124.740918, 2270.862529
 124.742585, 2270.862529
 124.744252, 2270.862529
 124.745918, 2270.862529
 124.747585, 2270.862529
 124.749252, 2270.862529
 124.750918, 2270.862529
 124.752585, 2270.862529
 124.754252, 2270.862529
 124.755918, 2270.862529
 124.757585, 2270.862529
 124.759252, 2270.862529
 124.760918, 2270.862529
 124.762585, 2270.862529
 124.764252, 2270.862529
 124.765918, 2270.862529
 124.767585, 2270.862529
 124.769252, 2270.862529
 124.770918, 2270.862529
 124.772585, 2270.862529
 124.774252, 2270.862529
 124.775918, 2270.862529
 124.777585, 2270.862529
 124.779252, 2270.862529
 124.780918, 2270.862529
 124.782585, 2270.862529
 124.784252, 2270.862529
 124.785918, 2270.862529
 124.787585, 2270.862529
 124.789252, 2270.862529
 124.790918, 2270.862529
 124.792585, 2270.862529
 124.794252, 2270.862529
 124.795918, 2270.862529
 124.797585, 2270.862529
 124.799252, 2270.862529
 124.800918, 2270.862529
 124.802585, 2270.862529
 124.804252, 2270.862529
 124.805918, 2270.862529
 124.807585, 2270.862529
 124.809252, 2270.862529
 124.810918, 2270.862529
 124.812585, 2270.862529
 124.814252, 2270.862529
 124.815918, 2270.862529
 124.817585, 2270.862529
 124.819252, 2270.862529
 124.820918, 2270.862529
 124.822585, 2270.862529
 124.824252, 2270.862529
 124.825918, 2270.862529
 124.827585, 2270.862529
 124.829252, 2270.862529
 124.830918, 2270.862529
 124.832585, 2270.862529
 124.834252, 2270.862529
 124.835918, 2270.862529
 124.837585, 2270.862529
 124.839252, 2270.862529
 124.840918, 2270.862529
 124.842585, 2270.862529
 124.844252, 2270.862529
 124.845918, 2270.862529
 124.847585, 2270.862529
 124.849252, 2270.862529
 124.850918, 2270.862529
 124.852585, 2270.862529
 124.854252, 2270.862529
 124.855918, 2270.862529
 124.857585, 2270.862529
 124.859252, 2270.862529
 124.860918, 2270.862529
 124.862585, 2270.862529
 124.864252, 2270.862529
 124.865918, 2270.862529
 124.867585, 2270.862529
 124.869252, 2270.862529
 124.870918, 2270.862529
 124.872585, 2270.862529
 124.874252, 2270.862529
 124.875918, 2270.862529
 124.877585, 2270.862529
 124.879252, 2270.862529
 124.880918, 2270.862529
 124.882585, 2270.862529
 124.884252, 2270.862529
 124.885918, 2270.862529
 124.887585, 2270.862529
 124.889252, 2270.862529
 124.890918, 2270.862529
 124.892585, 2270.862529
 124.894252, 2270.862529
 124.895918, 2270.862529
 124.897585, 2270.862529
 124.899252, 2270.862529
 124.900918, 2270.862529
 124.902585, 2270.862529
 124.904252, 2270.862529
 124.905918, 2270.862529
 124.907585, 2270.862529
 124.909252, 2270.862529
 124.910918, 2270.862529
 124.912585, 2270.862529
 124.914252, 2270.862529
 124.915918, 2270.862529
 124.917585, 2270.862529
 124.919252, 2270.862529
 124.920918, 2270.862529
 124.922585, 2270.862529
 124.924252, 2270.862529
 124.925918, 2270.862529
 124.927585, 2270.862529
 124.929252, 2270.862529
 124.930918, 2270.862529
 124.932585, 2270.862529
 124.934252, 2270.862529
 124.935918, 2270.862529
 124.937585, 2270.862529
 124.939252, 2270.862529
 124.940918, 2270.862529
 124.942585, 2270.862529
 124.944252, 2270.862529
 124.945918, 2270.862529
 124.947585, 2270.862529
 124.949252, 2270.862529
 124.950918, 2270.862529
 124.952585, 2270.862529
 124.954252, 2270.862529
 124.955918, 2270.862529
 124.957585, 2270.862529
 124.959252, 2270.862529
 124.960918, 2270.862529
 124.962585, 2270.862529
 124.964252, 2270.862529
 124.965918, 2270.862529
 124.967585, 2270.862529
 124.969252, 2270.862529
 124.970918, 2270.862529
 124.972585, 2270.862529
 124.974252, 2270.862529
 124.975918, 2270.862529
 124.977585, 2270.862529
 124.979252, 2270.862529
 124.980918, 2270.862529
 124.982585, 2270.862529
 124.984252, 2270.862529
 124.985918, 2270.862529
 124.987585, 2270.862529
 124.989252, 2270.862529
 124.990918, 2270.862529
 124.992585, 2270.862529
 124.994252, 2270.862529
 124.995918, 2270.862529
 124.997585, 2270.862529
 124.999252, 2270.862529
 125.000918, 2270.862529
 125.002585, 2270.862529
 125.004252, 2270.862529
 125.005918, 2270.862529
 125.007585, 2270.862529
 125.009252, 2270.862529
 125.010918, 2270.862529
 125.012585, 2270.862529
 125.014252, 2270.862529
 125.015918, 2270.862529
 125.017585, 2270.862529
 125.019252, 2270.862529
 125.020918, 2270.862529
 125.022585, 2270.862529
 125.024252, 2270.862529
 125.025918, 2270.862529
 125.027585, 2270.862529
 125.029252, 2270.862529
 125.030918, 2270.862529
 125.032585, 2270.862529
 125.034252, 2270.862529
 125.035918, 2270.862529
 125.037585, 2270.862529
 125.039252, 2270.862529
 125.040918, 2270.862529
 125.042585, 2270.862529
 125.044252, 2270.862529
 125.045918, 2270.862529
 125.047585, 2270.862529
 125.049252, 2270.862529
 125.050918, 2270.862529
 125.052585, 2270.862529
 125.054252, 2270.862529
 125.055918, 2270.862529
 125.057585, 2270.862529
 125.059252, 2270.862529
 125.060918, 2270.862529
 125.062585, 2270.862529
 125.064252, 2270.862529
 125.065918, 2270.862529
 125.067585, 2270.862529
 125.069252, 2270.862529
 125.070918, 2270.862529
 125.072585, 2270.862529
 125.074252, 2270.862529
 125.075918, 2270.862529
 125.077585, 2270.862529
 125.079252, 2270.862529
 125.080918, 2270.862529
 125.082585, 2270.862529
 125.084252, 2270.862529
 125.085918, 2270.862529
 125.087585, 2270.862529
 125.089252, 2270.862529
 125.090918, 2270.862529
 125.092585, 2270.862529
 125.094252, 2270.862529
 125.095918, 2270.862529
 125.097585, 2270.862529
 125.099252, 2270.862529
 125.100918, 2270.862529
 125.102585, 2270.862529
 125.104252, 2270.862529
 125.105918, 2270.862529
 125.107585, 2270.862529
 125.109252, 2270.862529
 125.110918, 2270.862529
 125.112585, 2270.862529
 125.114252, 2270.862529
 125.115918, 2270.862529
 125.117585, 2270.862529
 125.119252, 2270.862529
 125.120918, 2270.862529
 125.122585, 2270.862529
 125.124252, 2270.862529
 125.125918, 2270.862529
 125.127585, 2270.862529
 125.129252, 2270.862529
 125.130918, 2270.862529
 125.132585, 2270.862529
 125.134252, 2270.862529
 125.135918, 2270.862529
 125.137585, 2270.862529
 125.139252, 2270.862529
 125.140918, 2270.862529
 125.142585, 2270.862529
 125.144252, 2270.862529
 125.145918, 2270.862529
 125.147585, 2270.862529
 125.149252, 2270.862529
 125.150918, 2270.862529
 125.152585, 2270.862529
 125.154252, 2270.862529
 125.155918, 2270.862529
 125.157585, 2270.862529
 125.159252, 2270.862529
 125.160918, 2270.862529
 125.162585, 2270.862529
 125.164252, 2270.862529
 125.165918, 2270.862529
 125.167585, 2270.862529
 125.169252, 2270.862529
 125.170918, 2270.862529
 125.172585, 2270.862529
 125.174252, 2270.862529
 125.175918, 2270.862529
 125.177585, 2270.862529
 125.179252, 2270.862529
 125.180918, 2270.862529
 125.182585, 2270.862529
 125.184252, 2270.862529
 125.185918, 2270.862529
 125.187585, 2270.862529
 125.189252, 2270.862529
 125.190918, 2270.862529
 125.192585, 2270.862529
 125.194252, 2270.862529
 125.195918, 2270.862529
 125.197585, 2270.862529
 125.199252, 2270.862529
 125.200918, 2270.862529
 125.202585, 2270.862529
 125.204252, 2270.862529
 125.205918, 2270.862529
 125.207585, 2270.862529
 125.209252, 2270.862529
 125.210918, 2270.862529
 125.212585, 2270.862529
 125.214252, 2270.862529
 125.215918, 2270.862529
 125.217585, 2270.862529
 125.219252, 2270.862529
 125.220918, 2270.862529
 125.222585, 2270.862529
 125.224252, 2270.862529
 125.225918, 2270.862529
 125.227585, 2270.862529
 125.229252, 2270.862529
 125.230918, 2270.862529
 125.232585, 2270.862529
 125.234252, 2270.862529
 125.235918, 2270.862529
 125.237585, 2270.862529
 125.239252, 2270.862529
 125.240918, 2270.862529
 125.242585, 2270.862529
 125.244252, 2270.862529
 125.245918, 2270.862529
 125.247585, 2270.862529
 125.249252, 2270.862529
 125.250918, 2270.862529
 125.252585, 2270.862529
 125.254252, 2270.862529
 125.255918, 2270.862529
 125.257585, 2270.862529
 125.259252, 2270.862529
 125.260918, 2270.862529
 125.262585, 2270.862529
 125.264252, 2270.862529
 125.265918, 2270.862529
 125.267585, 2270.862529
 125.269252, 2270.862529
 125.270918, 2270.862529
 125.272585, 2270.862529
 125.274252, 2270.862529
 125.275918, 2270.862529
 125.277585, 2270.862529
 125.279252, 2270.862529
 125.280918, 2270.862529
 125.282585, 2270.862529
 125.284252, 2270.862529
 125.285918, 2270.862529
 125.287585, 2270.862529
 125.289252, 2270.862529
 125.290918, 2270.862529
 125.292585, 2270.862529
 125.294252, 2270.862529
 125.295918, 2270.862529
 125.297585, 2270.862529
 125.299252, 2270.862529
 125.300918, 2270.862529
 125.302585, 2270.862529
 125.304252, 2270.862529
 125.305918, 2270.862529
 125.307585, 2270.862529
 125.309252, 2270.862529
 125.310918, 2270.862529
 125.312585, 2270.862529
 125.314252, 2270.862529
 125.315918, 2270.862529
 125.317585, 2270.862529
 125.319252, 2270.862529
 125.320918, 2270.862529
 125.322585, 2270.862529
 125.324252, 2270.862529
 125.325918, 2270.862529
 125.327585, 2270.862529
 125.329252, 2270.862529
 125.330918, 2270.862529
 125.332585, 2270.862529
 125.334252, 2270.862529
 125.335918, 2270.862529
 125.337585, 2270.862529
 125.339252, 2270.862529
 125.340918, 2270.862529
 125.342585, 2270.862529
 125.344252, 2270.862529
 125.345918, 2270.862529
 125.347585, 2270.862529
 125.349252, 2270.862529
 125.350918, 2270.862529
 125.352585, 2270.862529
 125.354252, 2270.862529
 125.355918, 2270.862529
 125.357585, 2270.862529
 125.359252, 2270.862529
 125.360918, 2270.862529
 125.362585, 2270.862529
 125.364252, 2270.862529
 125.365918, 2270.862529
 125.367585, 2270.862529
 125.369252, 2270.862529
 125.370918, 2270.862529
 125.372585, 2270.862529
 125.374252, 2270.862529
 125.375918, 2270.862529
 125.377585, 2270.862529
 125.379252, 2270.862529
 125.380918, 2270.862529
 125.382585, 2270.862529
 125.384252, 2270.862529
 125.385918, 2270.862529
 125.387585, 2270.862529
 125.389252, 2270.862529
 125.390918, 2270.862529
 125.392585, 2270.862529
 125.394252, 2270.862529
 125.395918, 2270.862529
 125.397585, 2270.862529
 125.399252, 2270.862529
 125.400918, 2270.862529
 125.402585, 2270.862529
 125.404252, 2270.862529
 125.405918, 2270.862529
 125.407585, 2270.862529
 125.409252, 2270.862529
 125.410918, 2270.862529
 125.412585, 2270.862529
 125.414252, 2270.862529
 125.415918, 2270.862529
 125.417585, 2270.862529
 125.419252, 2270.862529
 125.420918, 2270.862529
 125.422585, 2270.862529
 125.424252, 2270.862529
 125.425918, 2270.862529
 125.427585, 2270.862529
 125.429252, 2270.862529
 125.430918, 2270.862529
 125.432585, 2270.862529
 125.434252, 2270.862529
 125.435918, 2270.862529
 125.437585, 2270.862529
 125.439252, 2270.862529
 125.440918, 2270.862529
 125.442585, 2270.862529
 125.444252, 2270.862529
 125.445918, 2270.862529
 125.447585, 2270.862529
 125.449252, 2270.862529
 125.450918, 2270.862529
 125.452585, 2270.862529
 125.454252, 2270.862529
 125.455918, 2270.862529
 125.457585, 2270.862529
 125.459252, 2270.862529
 125.460918, 2270.862529
 125.462585, 2270.862529
 125.464252, 2270.862529
 125.465918, 2270.862529
 125.467585, 2270.862529
 125.469252, 2270.862529
 125.470918, 2270.862529
 125.472585, 2270.862529
 125.474252, 2270.862529
 125.475918, 2270.862529
 125.477585, 2270.862529
 125.479252, 2270.862529
 125.480918, 2270.862529
 125.482585, 2270.862529
 125.484252, 2270.862529
 125.485918, 2270.862529
 125.487585, 2270.862529
 125.489252, 2270.862529
 125.490918, 2270.862529
 125.492585, 2270.862529
 125.494252, 2270.862529
 125.495918, 2270.862529
 125.497585, 2270.862529
 125.499252, 2270.862529
 125.500918, 2270.862529
 125.502585, 2270.862529
 125.504252, 2270.862529
 125.505918, 2270.862529
 125.507585, 2270.862529
 125.509252, 2270.862529
 125.510918, 2270.862529
 125.512585, 2270.862529
 125.514252, 2270.862529
 125.515918, 2270.862529
 125.517585, 2270.862529
 125.519252, 2270.862529
 125.520918, 2270.862529
 125.522585, 2270.862529
 125.524252, 2270.862529
 125.525918, 2270.862529
 125.527585, 2270.862529
 125.529252, 2270.862529
 125.530918, 2270.862529
 125.532585, 2270.862529
 125.534252, 2270.862529
 125.535918, 2270.862529
 125.537585, 2270.862529
 125.539252, 2270.862529
 125.540918, 2270.862529
 125.542585, 2270.862529
 125.544252, 2270.862529
 125.545918, 2270.862529
 125.547585, 2270.862529
 125.549252, 2270.862529
 125.550918, 2270.862529
 125.552585, 2270.862529
 125.554252, 2270.862529
 125.555918, 2270.862529
 125.557585, 2270.862529
 125.559252, 2270.862529
 125.560918, 2270.862529
 125.562585, 2270.862529
 125.564252, 2270.862529
 125.565918, 2270.862529
 125.567585, 2270.862529
 125.569252, 2270.862529
 125.570918, 2270.862529
 125.572585, 2270.862529
 125.574252, 2270.862529
 125.575918, 2270.862529
 125.577585, 2270.862529
 125.579252, 2270.862529
 125.580918, 2270.862529
 125.582585, 2270.862529
 125.584252, 2270.862529
 125.585918, 2270.862529
 125.587585, 2270.862529
 125.589252, 2270.862529
 125.590918, 2270.862529
 125.592585, 2270.862529
 125.594252, 2270.862529
 125.595918, 2270.862529
 125.597585, 2270.862529
 125.599252, 2270.862529
 125.600918, 2270.862529
 125.602585, 2270.862529
 125.604252, 2270.862529
 125.605918, 2270.862529
 125.607585, 2270.862529
 125.609252, 2270.862529
 125.610918, 2270.862529
 125.612585, 2270.862529
 125.614252, 2270.862529
 125.615918, 2270.862529
 125.617585, 2270.862529
 125.619252, 2270.862529
 125.620918, 2270.862529
 125.622585, 2270.862529
 125.624252, 2270.862529
 125.625918, 2270.862529
 125.627585, 2270.862529
 125.629252, 2270.862529
 125.630918, 2270.862529
 125.632585, 2270.862529
 125.634252, 2270.862529
 125.635918, 2270.862529
 125.637585, 2270.862529
 125.639252, 2270.862529
 125.640918, 2270.862529
 125.642585, 2270.862529
 125.644252, 2270.862529
 125.645918, 2270.862529
 125.647585, 2270.862529
 125.649252, 2270.862529
 125.650918, 2270.862529
 125.652585, 2270.862529
 125.654252, 2270.862529
 125.655918, 2270.862529
 125.657585, 2270.862529
 125.659252, 2270.862529
 125.660918, 2270.862529
 125.662585, 2270.862529
 125.664252, 2270.862529
 125.665918, 2270.862529
 125.667585, 2270.862529
 125.669252, 2270.862529
 125.670918, 2270.862529
 125.672585, 2270.862529
 125.674252, 2270.862529
 125.675918, 2270.862529
 125.677585, 2270.862529
 125.679252, 2270.862529
 125.680918, 2270.862529
 125.682585, 2270.862529
 125.684252, 2270.862529
 125.685918, 2270.862529
 125.687585, 2270.862529
 125.689252, 2270.862529
 125.690918, 2270.862529
 125.692585, 2270.862529
 125.694252, 2270.862529
 125.695918, 2270.862529
 125.697585, 2270.862529
 125.699252, 2270.862529
 125.700918, 2270.862529
 125.702585, 2270.862529
 125.704252, 2270.862529
 125.705918, 2270.862529
 125.707585, 2270.862529
 125.709252, 2270.862529
 125.710918, 2270.862529
 125.712585, 2270.862529
 125.714252, 2270.862529
 125.715918, 2270.862529
 125.717585, 2270.862529
 125.719252, 2270.862529
 125.720918, 2270.862529
 125.722585, 2270.862529
 125.724252, 2270.862529
 125.725918, 2270.862529
 125.727585, 2270.862529
 125.729252, 2270.862529
 125.730918, 2270.862529
 125.732585, 2270.862529
 125.734252, 2270.862529
 125.735918, 2270.862529
 125.737585, 2270.862529
 125.739252, 2270.862529
 125.740918, 2270.862529
 125.742585, 2270.862529
 125.744252, 2270.862529
 125.745918, 2270.862529
 125.747585, 2270.862529
 125.749252, 2270.862529
 125.750918, 2270.862529
 125.752585, 2270.862529
 125.754252, 2270.862529
 125.755918, 2270.862529
 125.757585, 2270.862529
 125.759252, 2270.862529
 125.760918, 2270.862529
 125.762585, 2270.862529
 125.764252, 2270.862529
 125.765918, 2270.862529
 125.767585, 2270.862529
 125.769252, 2270.862529
 125.770918, 2270.862529
 125.772585, 2270.862529
 125.774252, 2270.862529
 125.775918, 2270.862529
 125.777585, 2270.862529
 125.779252, 2270.862529
 125.780918, 2270.862529
 125.782585, 2270.862529
 125.784252, 2270.862529
 125.785918, 2270.862529
 125.787585, 2270.862529
 125.789252, 2270.862529
 125.790918, 2270.862529
 125.792585, 2270.862529
 125.794252, 2270.862529
 125.795918, 2270.862529
 125.797585, 2270.862529
 125.799252, 2270.862529
 125.800918, 2270.862529
 125.802585, 2270.862529
 125.804252, 2270.862529
 125.805918, 2270.862529
 125.807585, 2270.862529
 125.809252, 2270.862529
 125.810918, 2270.862529
 125.812585, 2270.862529
 125.814252, 2270.862529
 125.815918, 2270.862529
 125.817585, 2270.862529
 125.819252, 2270.862529
 125.820918, 2270.862529
 125.822585, 2270.862529
 125.824252, 2270.862529
 125.825918, 2270.862529
 125.827585, 2270.862529
 125.829252, 2270.862529
 125.830918, 2270.862529
 125.832585, 2270.862529
 125.834252, 2270.862529
 125.835918, 2270.862529
 125.837585, 2270.862529
 125.839252, 2270.862529
 125.840918, 2270.862529
 125.842585, 2270.862529
 125.844252, 2270.862529
 125.845918, 2270.862529
 125.847585, 2270.862529
 125.849252, 2270.862529
 125.850918, 2270.862529
 125.852585, 2270.862529
 125.854252, 2270.862529
 125.855918, 2270.862529
 125.857585, 2270.862529
 125.859252, 2270.862529
 125.860918, 2270.862529
 125.862585, 2270.862529
 125.864252, 2270.862529
 125.865918, 2270.862529
 125.867585, 2270.862529
 125.869252, 2270.862529
 125.870918, 2270.862529
 125.872585, 2270.862529
 125.874252, 2270.862529
 125.875918, 2270.862529
 125.877585, 2270.862529
 125.879252, 2270.862529
 125.880918, 2270.862529
 125.882585, 2270.862529
 125.884252, 2270.862529
 125.885918, 2270.862529
 125.887585, 2270.862529
 125.889252, 2270.862529
 125.890918, 2270.862529
 125.892585, 2270.862529
 125.894252, 2270.862529
 125.895918, 2270.862529
 125.897585, 2270.862529
 125.899252, 2270.862529
 125.900918, 2270.862529
 125.902585, 2270.862529
 125.904252, 2270.862529
 125.905918, 2270.862529
 125.907585, 2270.862529
 125.909252, 2270.862529
 125.910918, 2270.862529
 125.912585, 2270.862529
 125.914252, 2270.862529
 125.915918, 2270.862529
 125.917585, 2270.862529
 125.919252, 2270.862529
 125.920918, 2270.862529
 125.922585, 2270.862529
 125.924252, 2270.862529
 125.925918, 2270.862529
 125.927585, 2270.862529
 125.929252, 2270.862529
 125.930918, 2270.862529
 125.932585, 2270.862529
 125.934252, 2270.862529
 125.935918, 2270.862529
 125.937585, 2270.862529
 125.939252, 2270.862529
 125.940918, 2270.862529
 125.942585, 2270.862529
 125.944252, 2270.862529
 125.945918, 2270.862529
 125.947585, 2270.862529
 125.949252, 2270.862529
 125.950918, 2270.862529
 125.952585, 2270.862529
 125.954252, 2270.862529
 125.955918, 2270.862529
 125.957585, 2270.862529
 125.959252, 2270.862529
 125.960918, 2270.862529
 125.962585, 2270.862529
 125.964252, 2270.862529
 125.965918, 2270.862529
 125.967585, 2270.862529
 125.969252, 2270.862529
 125.970918, 2270.862529
 125.972585, 2270.862529
 125.974252, 2270.862529
 125.975918, 2270.862529
 125.977585, 2270.862529
 125.979252, 2270.862529
 125.980918, 2270.862529
 125.982585, 2270.862529
 125.984252, 2270.862529
 125.985918, 2270.862529
 125.987585, 2270.862529
 125.989252, 2270.862529
 125.990918, 2270.862529
 125.992585, 2270.862529
 125.994252, 2270.862529
 125.995918, 2270.862529
 125.997585, 2270.862529
 125.999252, 2270.862529
 126.000918, 2270.862529
 126.002585, 2270.862529
 126.004252, 2270.862529
 126.005918, 2270.862529
 126.007585, 2270.862529
 126.009252, 2270.862529
 126.010918, 2270.862529
 126.012585, 2270.862529
 126.014252, 2270.862529
 126.015918, 2270.862529
 126.017585, 2270.862529
 126.019252, 2270.862529
 126.020918, 2270.862529
 126.022585, 2270.862529
 126.024252, 2270.862529
 126.025918, 2270.862529
 126.027585, 2270.862529
 126.029252, 2270.862529
 126.030918, 2270.862529
 126.032585, 2270.862529
 126.034252, 2270.862529
 126.035918, 2270.862529
 126.037585, 2270.862529
 126.039252, 2270.862529
 126.040918, 2270.862529
 126.042585, 2270.862529
 126.044252, 2270.862529
 126.045918, 2270.862529
 126.047585, 2270.862529
 126.049252, 2270.862529
 126.050918, 2270.862529
 126.052585, 2270.862529
 126.054252, 2270.862529
 126.055918, 2270.862529
 126.057585, 2270.862529
 126.059252, 2270.862529
 126.060918, 2270.862529
 126.062585, 2270.862529
 126.064252, 2270.862529
 126.065918, 2270.862529
 126.067585, 2270.862529
 126.069252, 2270.862529
 126.070918, 2270.862529
 126.072585, 2270.862529
 126.074252, 2270.862529
 126.075918, 2270.862529
 126.077585, 2270.862529
 126.079252, 2270.862529
 126.080918, 2270.862529
 126.082585, 2270.862529
 126.084252, 2270.862529
 126.085918, 2270.862529
 126.087585, 2270.862529
 126.088545, 2270.862529
 126.090212, 1722.478443
 126.091879, 1174.094357
 126.093545,  625.710270
 126.095212,   77.326184
 126.096879, -471.057902
 126.098545, -1019.441989
 126.100212, -1567.826075
 126.101879, -1890.056860
 126.103545, -1892.629002
 126.105212, -1895.201143
 126.106879, -1897.773285
 126.108545, -1900.345426
 126.110212, -1902.917568
 126.111879, -1905.489709
 126.113545, -1908.061851
 126.115212, -1910.633993
 126.116879, -1913.206134
 126.118545, -1915.794369
 126.120212, -1918.405351
 126.121879, -1921.016333
 126.123545, -1923.627315
 126.125212, -1926.238297
 126.126879, -1928.849279
 126.128545, -1931.460261
 126.130212, -1934.071243
 126.131879, -1936.682226
 126.133545, -1939.293208
 126.135212, -1941.916281
 126.136879, -1944.556447
 126.138545, -1947.196612
 126.140212, -1949.836777
 126.141879, -1952.476942
 126.143110, -1954.428101
