Time, Forces
   0.000000, 15399.984721
   0.001667, 15384.730402
   0.003333, 15369.543004
   0.005000, 15354.365744
   0.006667, 15339.188484
   0.008333, 15324.011224
   0.010000, 15308.833965
   0.011667, 15293.656705
   0.013333, 15278.479445
   0.015000, 15263.302185
   0.016667, 15248.124925
   0.018333, 15232.947665
   0.020000, 15217.921727
   0.021667, 15202.914682
   0.023333, 15187.907638
   0.025000, 15172.900594
   0.026667, 15157.893550
   0.028333, 15142.886505
   0.030000, 15127.879461
   0.031667, 15112.872417
   0.033333, 15097.865373
   0.035000, 15082.858328
   0.036667, 15068.007666
   0.038333, 15053.176530
   0.040000, 15038.345394
   0.041667, 15023.514257
   0.043333, 15008.683121
   0.045000, 14993.851985
   0.046667, 14979.020849
   0.048333, 14964.189712
   0.050000, 14949.358576
   0.051667, 14934.527440
   0.053333, 14919.857450
   0.055000, 14905.207580
   0.056667, 14890.557711
   0.058333, 14875.907841
   0.060000, 14861.257972
   0.061667, 14846.608102
   0.063333, 14831.958233
   0.065000, 14817.308363
   0.066667, 14802.658494
   0.068333, 14788.008624
   0.070000, 14773.524365
   0.071667, 14759.060784
   0.073333, 14744.597203
   0.075000, 14730.133622
   0.076667, 14715.670040
   0.078333, 14701.206459
   0.080000, 14686.742878
   0.081667, 14672.279297
   0.083333, 14657.815716
   0.085000, 14643.352135
   0.086667, 14627.093070
   0.088333, 14610.609822
   0.090000, 14594.126575
   0.091667, 14577.643327
   0.093333, 14561.160079
   0.095000, 14544.676831
   0.096667, 14528.193583
   0.098333, 14511.710336
   0.100000, 14495.227088
   0.101667, 14478.743840
   0.103333, 14458.690315
   0.105000, 14438.191008
   0.106667, 14417.691701
   0.108333, 14397.192393
   0.110000, 14376.693086
   0.111667, 14356.193779
   0.113333, 14335.694471
   0.115000, 14315.195164
   0.116667, 14294.695856
   0.118333, 14274.196549
   0.120000, 14254.044028
   0.121667, 14233.934806
   0.123333, 14213.825585
   0.125000, 14193.716363
   0.126667, 14173.607141
   0.128333, 14153.497920
   0.130000, 14133.388698
   0.131667, 14113.279476
   0.133333, 14093.170255
   0.135000, 14073.061033
   0.136667, 14053.300234
   0.138333, 14033.582940
   0.140000, 14013.865645
   0.141667, 13994.148350
   0.143333, 13974.431055
   0.145000, 13954.713760
   0.146667, 13934.996466
   0.148333, 13915.279171
   0.150000, 13895.561876
   0.151667, 13875.844581
   0.153333, 13856.476833
   0.155000, 13837.152729
   0.156667, 13817.828626
   0.158333, 13798.504522
   0.160000, 13779.180418
   0.161667, 13759.856315
   0.163333, 13740.532211
   0.165000, 13721.208107
   0.166667, 13701.884004
   0.168333, 13682.559900
   0.170000, 13663.585972
   0.171667, 13644.655766
   0.173333, 13625.725561
   0.175000, 13606.795355
   0.176667, 13587.865150
   0.178333, 13568.934945
   0.180000, 13550.004739
   0.181667, 13531.074534
   0.183333, 13512.144328
   0.185000, 13493.214123
   0.186667, 13474.634245
   0.188333, 13456.098108
   0.190000, 13437.561972
   0.191667, 13419.025835
   0.193333, 13400.489699
   0.195000, 13381.953562
   0.196667, 13363.417426
   0.198333, 13344.881290
   0.200000, 13326.345153
   0.201667, 13307.809017
   0.203333, 13283.143777
   0.205000, 13257.713261
   0.206667, 13232.282745
   0.208333, 13206.852229
   0.210000, 13181.421712
   0.211667, 13155.991196
   0.213333, 13130.560680
   0.215000, 13105.130164
   0.216667, 13079.699648
   0.218333, 13054.269132
   0.220000, 13029.246589
   0.221667, 13004.274985
   0.223333, 12979.303381
   0.225000, 12954.331777
   0.226667, 12929.360173
   0.228333, 12904.388569
   0.230000, 12879.416964
   0.231667, 12854.445360
   0.233333, 12829.473756
   0.235000, 12804.502152
   0.236667, 12780.162842
   0.238333, 12755.902479
   0.240000, 12731.642116
   0.241667, 12707.381753
   0.243333, 12683.121390
   0.245000, 12658.861027
   0.246667, 12634.600665
   0.248333, 12610.340302
   0.250000, 12586.079939
   0.251667, 12561.819576
   0.253333, 12538.181860
   0.255000, 12514.621887
   0.256667, 12491.061915
   0.258333, 12467.501942
   0.260000, 12443.941969
   0.261667, 12420.381996
   0.263333, 12396.822024
   0.265000, 12373.262051
   0.266667, 12349.702078
   0.268333, 12326.142105
   0.270000, 12303.194688
   0.271667, 12280.323754
   0.273333, 12257.452819
   0.275000, 12234.581885
   0.276667, 12211.710951
   0.278333, 12188.840017
   0.280000, 12165.969083
   0.281667, 12143.098148
   0.283333, 12120.227214
   0.285000, 12097.356280
   0.286667, 12075.087414
   0.288333, 12052.893721
   0.290000, 12030.700029
   0.291667, 12008.506336
   0.293333, 11986.312644
   0.295000, 11964.118951
   0.296667, 11941.925259
   0.298333, 11919.731566
   0.300000, 11897.537874
   0.301667, 11875.344181
   0.303333, 11853.741721
   0.305000, 11832.213081
   0.306667, 11810.684441
   0.308333, 11789.155802
   0.310000, 11767.627162
   0.311667, 11746.098522
   0.313333, 11724.569883
   0.315000, 11703.041243
   0.316667, 11681.512604
   0.318333, 11659.983964
   0.320000, 11639.159169
   0.321667, 11618.422256
   0.323333, 11597.685342
   0.325000, 11576.948429
   0.326667, 11556.211516
   0.328333, 11535.474602
   0.330000, 11514.737689
   0.331667, 11494.000776
   0.333333, 11473.263862
   0.335000, 11452.526949
   0.336667, 11432.547739
   0.338333, 11412.663135
   0.340000, 11392.778531
   0.341667, 11372.893927
   0.343333, 11353.009323
   0.345000, 11333.124719
   0.346667, 11313.240115
   0.348333, 11293.355511
   0.350000, 11273.470907
   0.351667, 11253.586303
   0.353333, 11234.037978
   0.355000, 11214.531642
   0.355811, 11205.035992
   0.357478, 11185.831147
   0.359145, 11166.626301
   0.360811, 11147.421455
   0.362478, 11128.216610
   0.364145, 11109.011764
   0.365811, 11089.806918
   0.367478, 11070.602073
   0.369145, 11051.684018
   0.370811, 11033.242322
   0.372478, 11014.800626
   0.374145, 10996.358930
   0.375811, 10977.917235
   0.377478, 10959.475539
   0.379145, 10941.033843
   0.380811, 10922.592147
   0.382478, 10904.150451
   0.384145, 10885.708756
   0.385811, 10867.659137
   0.387478, 10850.260760
   0.389145, 10832.862383
   0.390811, 10815.464006
   0.392478, 10798.065629
   0.394145, 10780.667252
   0.395811, 10763.268875
   0.397478, 10745.870498
   0.399145, 10728.472121
   0.400811, 10711.073744
   0.402478, 10694.114113
   0.404145, 10677.883239
   0.405811, 10661.652365
   0.407478, 10645.421491
   0.409145, 10629.190618
   0.410811, 10612.959744
   0.412478, 10596.728870
   0.414145, 10580.497996
   0.415811, 10564.267122
   0.417478, 10548.036248
   0.418518, 10537.904907
   0.420185, 10529.184109
   0.421852, 10520.463310
   0.423518, 10511.742512
   0.425185, 10503.021713
   0.426852, 10494.300914
   0.428518, 10485.580116
   0.430185, 10476.859317
   0.431852, 10468.138519
   0.433518, 10459.417720
   0.435185, 10450.696921
   0.436852, 10447.341115
   0.438518, 10443.985309
   0.440185, 10440.629503
   0.441852, 10437.273697
   0.443518, 10433.917891
   0.445185, 10433.363964
   0.446852, 10432.810036
   0.448518, 10432.256109
   0.450185, 10431.702181
   0.451852, 10431.148254
   0.453518, 10433.459868
   0.455185, 10435.771482
   0.456852, 10438.083097
   0.458518, 10440.394711
   0.460185, 10442.706325
   0.460185, 7258.321578
   1.655097, 7056.527752
   2.874522, 6867.679053
   4.133302, 6600.086171
   5.482632, 6186.079638
   6.969219, 5802.152552
   8.614908, 5454.548955
  10.453102, 5120.511927
  12.542548, 4793.974496
  15.027550, 4422.048786
  15.027550, 3470.922413
  15.858972, 3470.136607
  16.690395, 3469.350930
  17.521817, 3468.565383
  18.353239, 3467.779965
  19.184662, 3466.994677
  20.016084, 3466.209519
  20.847506, 3465.424490
  21.678929, 3464.639591
  22.510351, 3463.854821
  23.341773, 3463.070181
  24.173196, 3462.285671
  25.004618, 3461.501290
  25.836040, 3460.717038
  26.667463, 3459.932917
  27.498885, 3459.148925
  28.330307, 3458.365062
  29.161730, 3457.581330
  29.993152, 3456.797726
  30.824574, 3456.014253
  31.655997, 3455.230909
  32.487419, 3454.447694
  33.318841, 3453.664609
  34.150264, 3452.881654
  34.981686, 3452.098829
  35.813108, 3451.316133
  36.644531, 3450.533566
  37.475953, 3449.751129
  38.307375, 3448.968822
  39.138798, 3448.186644
  39.138798, 1620.336427
  40.298666, 1533.089684
  41.461312, 1472.684507
  42.622520, 1402.628750
  43.778533, 1323.138734
  44.927113, 1236.825701
  46.063949, 1138.026519
  47.184952, 1025.776211
  48.302137,  941.334861
  49.411806,  845.204374
  49.411806, 7100.404410
  49.990878, 7002.643062
  50.575571, 6908.201372
  51.165723, 6817.212116
  51.764106, 6692.499116
  52.381498, 6481.747974
  53.027216, 6274.536230
  53.704269, 6071.008467
  54.414975, 5880.551943
  55.161144, 5699.600252
  55.161144, 2772.469352
  57.014269, 2770.048021
  58.868203, 2767.627623
  60.722949, 2765.208160
  62.578505, 2762.789635
  64.434873, 2760.372048
  66.292054, 2757.955401
  68.150049, 2755.539696
  70.008858, 2753.124934
  71.868482, 2750.711117
  71.868482, 1326.736840
  72.514813, 1350.531110
  73.150956, 1272.908730
  73.789636, 1245.642520
  74.430995, 1218.863130
  75.075175, 1192.617409
  75.721967, 1165.450350
  76.371231, 1137.642706
  77.022507, 1107.815939
  77.674878, 1073.977882
  77.674878, 2744.701701
  82.674878, 2738.319981
  87.674878, 2731.950727
  92.674878, 2725.654402
  97.674878, 2719.530714
 102.674878, 2713.418603
 107.674878, 2707.318056
 112.674878, 2701.229062
 117.674878, 2695.151608
 122.674878, 2689.085683
 122.674878, 3183.256836
 122.676545, 3183.256836
 122.678211, 3183.256836
 122.679878, 3183.256836
 122.681545, 3183.256836
 122.683211, 3183.256836
 122.684878, 3183.256836
 122.686545, 3183.256836
 122.688211, 3183.256836
 122.689878, 3183.256836
 122.691545, 3183.256836
 122.693211, 3183.256836
 122.694878, 3183.256836
 122.696545, 3183.256836
 122.698211, 3183.256836
 122.699878, 3183.256836
 122.701545, 3183.256836
 122.703211, 3183.256836
 122.704878, 3183.256836
 122.706545, 3183.256836
 122.708211, 3183.256836
 122.709878, 3183.256836
 122.711545, 3183.256836
 122.713211, 3183.256836
 122.714878, 3183.256836
 122.716545, 3183.256836
 122.718211, 3183.256836
 122.719878, 3183.256836
 122.721545, 3183.256836
 122.723211, 3183.256836
 122.724878, 3183.256836
 122.726545, 3183.256836
 122.728211, 3183.256836
 122.729878, 3183.256836
 122.731545, 3183.256836
 122.733211, 3183.256836
 122.734878, 3183.256836
 122.736545, 3183.256836
 122.738211, 3183.256836
 122.739878, 3183.256836
 122.741545, 3183.256836
 122.743211, 3183.256836
 122.744878, 3183.256836
 122.746545, 3183.256836
 122.748211, 3183.256836
 122.749878, 3183.256836
 122.751545, 3183.256836
 122.753211, 3183.256836
 122.754878, 3183.256836
 122.756545, 3183.256836
 122.758211, 3183.256836
 122.759878, 3183.256836
 122.761545, 3183.256836
 122.763211, 3183.256836
 122.764878, 3183.256836
 122.766545, 3183.256836
 122.768211, 3183.256836
 122.769878, 3183.256836
 122.771545, 3183.256836
 122.773211, 3183.256836
 122.774878, 3183.256836
 122.776545, 3183.256836
 122.778211, 3183.256836
 122.779878, 3183.256836
 122.781545, 3183.256836
 122.783211, 3183.256836
 122.784878, 3183.256836
 122.786545, 3183.256836
 122.788211, 3183.256836
 122.789878, 3183.256836
 122.791545, 3183.256836
 122.793211, 3183.256836
 122.794878, 3183.256836
 122.796545, 3183.256836
 122.798211, 3183.256836
 122.799878, 3183.256836
 122.801545, 3183.256836
 122.803211, 3183.256836
 122.804878, 3183.256836
 122.806545, 3183.256836
 122.808211, 3183.256836
 122.809878, 3183.256836
 122.811545, 3183.256836
 122.813211, 3183.256836
 122.814878, 3183.256836
 122.816545, 3183.256836
 122.818211, 3183.256836
 122.819878, 3183.256836
 122.821545, 3183.256836
 122.823211, 3183.256836
 122.824878, 3183.256836
 122.826545, 3183.256836
 122.828211, 3183.256836
 122.829878, 3183.256836
 122.831545, 3183.256836
 122.833211, 3183.256836
 122.834878, 3183.256836
 122.836545, 3183.256836
 122.838211, 3183.256836
 122.839878, 3183.256836
 122.841545, 3183.256836
 122.843211, 3183.256836
 122.844878, 3183.256836
 122.846545, 3183.256836
 122.848211, 3183.256836
 122.849878, 3183.256836
 122.851545, 3183.256836
 122.853211, 3183.256836
 122.854878, 3183.256836
 122.856545, 3183.256836
 122.858211, 3183.256836
 122.859878, 3183.256836
 122.861545, 3183.256836
 122.863211, 3183.256836
 122.864878, 3183.256836
 122.866545, 3183.256836
 122.868211, 3183.256836
 122.869878, 3183.256836
 122.871545, 3183.256836
 122.873211, 3183.256836
 122.874878, 3183.256836
 122.876545, 3183.256836
 122.878211, 3183.256836
 122.879878, 3183.256836
 122.881545, 3183.256836
 122.883211, 3183.256836
 122.884878, 3183.256836
 122.886545, 3183.256836
 122.888211, 3183.256836
 122.889878, 3183.256836
 122.891545, 3183.256836
 122.893211, 3183.256836
 122.894878, 3183.256836
 122.896545, 3183.256836
 122.898211, 3183.256836
 122.899878, 3183.256836
 122.901545, 3183.256836
 122.903211, 3183.256836
 122.904878, 3183.256836
 122.906545, 3183.256836
 122.908211, 3183.256836
 122.909878, 3183.256836
 122.911545, 3183.256836
 122.913211, 3183.256836
 122.914878, 3183.256836
 122.916545, 3183.256836
 122.918211, 3183.256836
 122.919878, 3183.256836
 122.921545, 3183.256836
 122.923211, 3183.256836
 122.924878, 3183.256836
 122.926545, 3183.256836
 122.928211, 3183.256836
 122.929878, 3183.256836
 122.931545, 3183.256836
 122.933211, 3183.256836
 122.934878, 3183.256836
 122.936545, 3183.256836
 122.938211, 3183.256836
 122.939878, 3183.256836
 122.941545, 3183.256836
 122.943211, 3183.256836
 122.944878, 3183.256836
 122.946545, 3183.256836
 122.948211, 3183.256836
 122.949878, 3183.256836
 122.951545, 3183.256836
 122.953211, 3183.256836
 122.954878, 3183.256836
 122.956545, 3183.256836
 122.958211, 3183.256836
 122.959878, 3183.256836
 122.961545, 3183.256836
 122.963211, 3183.256836
 122.964878, 3183.256836
 122.966545, 3183.256836
 122.968211, 3183.256836
 122.969878, 3183.256836
 122.971545, 3183.256836
 122.973211, 3183.256836
 122.974878, 3183.256836
 122.976545, 3183.256836
 122.978211, 3183.256836
 122.979878, 3183.256836
 122.981545, 3183.256836
 122.983211, 3183.256836
 122.984878, 3183.256836
 122.986545, 3183.256836
 122.988211, 3183.256836
 122.989878, 3183.256836
 122.991545, 3183.256836
 122.993211, 3183.256836
 122.994878, 3183.256836
 122.996545, 3183.256836
 122.998211, 3183.256836
 122.999878, 3183.256836
 123.001545, 3183.256836
 123.003211, 3183.256836
 123.004878, 3183.256836
 123.006545, 3183.256836
 123.008211, 3183.256836
 123.009878, 3183.256836
 123.011545, 3183.256836
 123.013211, 3183.256836
 123.014878, 3183.256836
 123.016545, 3183.256836
 123.018211, 3183.256836
 123.019878, 3183.256836
 123.021545, 3183.256836
 123.023211, 3183.256836
 123.024878, 3183.256836
 123.026545, 3183.256836
 123.028211, 3183.256836
 123.029878, 3183.256836
 123.031545, 3183.256836
 123.033211, 3183.256836
 123.034878, 3183.256836
 123.036545, 3183.256836
 123.038211, 3183.256836
 123.039878, 3183.256836
 123.041545, 3183.256836
 123.043211, 3183.256836
 123.044878, 3183.256836
 123.046545, 3183.256836
 123.048211, 3183.256836
 123.049878, 3183.256836
 123.051545, 3183.256836
 123.053211, 3183.256836
 123.054878, 3183.256836
 123.056545, 3183.256836
 123.058211, 3183.256836
 123.059878, 3183.256836
 123.061545, 3183.256836
 123.063211, 3183.256836
 123.064878, 3183.256836
 123.066545, 3183.256836
 123.068211, 3183.256836
 123.069878, 3183.256836
 123.071545, 3183.256836
 123.073211, 3183.256836
 123.074878, 3183.256836
 123.076545, 3183.256836
 123.078211, 3183.256836
 123.079878, 3183.256836
 123.081545, 3183.256836
 123.083211, 3183.256836
 123.084878, 3183.256836
 123.086545, 3183.256836
 123.088211, 3183.256836
 123.089878, 3183.256836
 123.091545, 3183.256836
 123.093211, 3183.256836
 123.094878, 3183.256836
 123.096545, 3183.256836
 123.098211, 3183.256836
 123.099878, 3183.256836
 123.101545, 3183.256836
 123.103211, 3183.256836
 123.104878, 3183.256836
 123.106545, 3183.256836
 123.108211, 3183.256836
 123.109878, 3183.256836
 123.111545, 3183.256836
 123.113211, 3183.256836
 123.114878, 3183.256836
 123.116545, 3183.256836
 123.118211, 3183.256836
 123.119878, 3183.256836
 123.121545, 3183.256836
 123.123211, 3183.256836
 123.124878, 3183.256836
 123.126545, 3183.256836
 123.128211, 3183.256836
 123.129878, 3183.256836
 123.131545, 3183.256836
 123.133211, 3183.256836
 123.134878, 3183.256836
 123.136545, 3183.256836
 123.138211, 3183.256836
 123.139878, 3183.256836
 123.141545, 3183.256836
 123.143211, 3183.256836
 123.144878, 3183.256836
 123.146545, 3183.256836
 123.148211, 3183.256836
 123.149878, 3183.256836
 123.151545, 3183.256836
 123.153211, 3183.256836
 123.154878, 3183.256836
 123.156545, 3183.256836
 123.158211, 3183.256836
 123.159878, 3183.256836
 123.161545, 3183.256836
 123.163211, 3183.256836
 123.164878, 3183.256836
 123.166545, 3183.256836
 123.168211, 3183.256836
 123.169878, 3183.256836
 123.171545, 3183.256836
 123.173211, 3183.256836
 123.174878, 3183.256836
 123.176545, 3183.256836
 123.178211, 3183.256836
 123.179878, 3183.256836
 123.181545, 3183.256836
 123.183211, 3183.256836
 123.184878, 3183.256836
 123.186545, 3183.256836
 123.188211, 3183.256836
 123.189878, 3183.256836
 123.191545, 3183.256836
 123.193211, 3183.256836
 123.194878, 3183.256836
 123.196545, 3183.256836
 123.198211, 3183.256836
 123.199878, 3183.256836
 123.201545, 3183.256836
 123.203211, 3183.256836
 123.204878, 3183.256836
 123.206545, 3183.256836
 123.208211, 3183.256836
 123.209878, 3183.256836
 123.211545, 3183.256836
 123.213211, 3183.256836
 123.214878, 3183.256836
 123.216545, 3183.256836
 123.218211, 3183.256836
 123.219878, 3183.256836
 123.221545, 3183.256836
 123.223211, 3183.256836
 123.224878, 3183.256836
 123.226545, 3183.256836
 123.228211, 3183.256836
 123.229878, 3183.256836
 123.231545, 3183.256836
 123.233211, 3183.256836
 123.234878, 3183.256836
 123.236545, 3183.256836
 123.238211, 3183.256836
 123.239878, 3183.256836
 123.241545, 3183.256836
 123.243211, 3183.256836
 123.244878, 3183.256836
 123.246545, 3183.256836
 123.248211, 3183.256836
 123.249878, 3183.256836
 123.251545, 3183.256836
 123.253211, 3183.256836
 123.254878, 3183.256836
 123.256545, 3183.256836
 123.258211, 3183.256836
 123.259878, 3183.256836
 123.261545, 3183.256836
 123.263211, 3183.256836
 123.264878, 3183.256836
 123.266545, 3183.256836
 123.268211, 3183.256836
 123.269878, 3183.256836
 123.271545, 3183.256836
 123.273211, 3183.256836
 123.274878, 3183.256836
 123.276545, 3183.256836
 123.278211, 3183.256836
 123.279878, 3183.256836
 123.281545, 3183.256836
 123.283211, 3183.256836
 123.284878, 3183.256836
 123.286545, 3183.256836
 123.288211, 3183.256836
 123.289878, 3183.256836
 123.291545, 3183.256836
 123.293211, 3183.256836
 123.294878, 3183.256836
 123.296545, 3183.256836
 123.298211, 3183.256836
 123.299878, 3183.256836
 123.301545, 3183.256836
 123.303211, 3183.256836
 123.304878, 3183.256836
 123.306545, 3183.256836
 123.308211, 3183.256836
 123.309878, 3183.256836
 123.311545, 3183.256836
 123.313211, 3183.256836
 123.314878, 3183.256836
 123.316545, 3183.256836
 123.318211, 3183.256836
 123.319878, 3183.256836
 123.321545, 3183.256836
 123.323211, 3183.256836
 123.324878, 3183.256836
 123.326545, 3183.256836
 123.328211, 3183.256836
 123.329878, 3183.256836
 123.331545, 3183.256836
 123.333211, 3183.256836
 123.334878, 3183.256836
 123.336545, 3183.256836
 123.338211, 3183.256836
 123.339878, 3183.256836
 123.341545, 3183.256836
 123.343211, 3183.256836
 123.344878, 3183.256836
 123.346545, 3183.256836
 123.348211, 3183.256836
 123.349878, 3183.256836
 123.351545, 3183.256836
 123.353211, 3183.256836
 123.354878, 3183.256836
 123.356545, 3183.256836
 123.358211, 3183.256836
 123.359878, 3183.256836
 123.361545, 3183.256836
 123.363211, 3183.256836
 123.364878, 3183.256836
 123.366545, 3183.256836
 123.368211, 3183.256836
 123.369878, 3183.256836
 123.371545, 3183.256836
 123.373211, 3183.256836
 123.374878, 3183.256836
 123.376545, 3183.256836
 123.378211, 3183.256836
 123.379878, 3183.256836
 123.381545, 3183.256836
 123.383211, 3183.256836
 123.384878, 3183.256836
 123.386545, 3183.256836
 123.388211, 3183.256836
 123.389878, 3183.256836
 123.391545, 3183.256836
 123.393211, 3183.256836
 123.394878, 3183.256836
 123.396545, 3183.256836
 123.398211, 3183.256836
 123.399878, 3183.256836
 123.401545, 3183.256836
 123.403211, 3183.256836
 123.404878, 3183.256836
 123.406545, 3183.256836
 123.408211, 3183.256836
 123.409878, 3183.256836
 123.411545, 3183.256836
 123.413211, 3183.256836
 123.414878, 3183.256836
 123.416545, 3183.256836
 123.418211, 3183.256836
 123.419878, 3183.256836
 123.421545, 3183.256836
 123.423211, 3183.256836
 123.424878, 3183.256836
 123.426545, 3183.256836
 123.428211, 3183.256836
 123.429878, 3183.256836
 123.431545, 3183.256836
 123.433211, 3183.256836
 123.434878, 3183.256836
 123.436545, 3183.256836
 123.438211, 3183.256836
 123.439878, 3183.256836
 123.441545, 3183.256836
 123.443211, 3183.256836
 123.444878, 3183.256836
 123.446545, 3183.256836
 123.448211, 3183.256836
 123.449878, 3183.256836
 123.451545, 3183.256836
 123.453211, 3183.256836
 123.454878, 3183.256836
 123.456545, 3183.256836
 123.458211, 3183.256836
 123.459878, 3183.256836
 123.461545, 3183.256836
 123.463211, 3183.256836
 123.464878, 3183.256836
 123.466545, 3183.256836
 123.468211, 3183.256836
 123.469878, 3183.256836
 123.471545, 3183.256836
 123.473211, 3183.256836
 123.474878, 3183.256836
 123.476545, 3183.256836
 123.478211, 3183.256836
 123.479878, 3183.256836
 123.481545, 3183.256836
 123.483211, 3183.256836
 123.484878, 3183.256836
 123.486545, 3183.256836
 123.488211, 3183.256836
 123.489878, 3183.256836
 123.491545, 3183.256836
 123.493211, 3183.256836
 123.494878, 3183.256836
 123.496545, 3183.256836
 123.498211, 3183.256836
 123.499878, 3183.256836
 123.501545, 3183.256836
 123.503211, 3183.256836
 123.504878, 3183.256836
 123.506545, 3183.256836
 123.508211, 3183.256836
 123.509878, 3183.256836
 123.511545, 3183.256836
 123.513211, 3183.256836
 123.514878, 3183.256836
 123.516545, 3183.256836
 123.518211, 3183.256836
 123.519878, 3183.256836
 123.521545, 3183.256836
 123.523211, 3183.256836
 123.524878, 3183.256836
 123.526545, 3183.256836
 123.528211, 3183.256836
 123.529878, 3183.256836
 123.531545, 3183.256836
 123.533211, 3183.256836
 123.534878, 3183.256836
 123.536545, 3183.256836
 123.538211, 3183.256836
 123.539878, 3183.256836
 123.541545, 3183.256836
 123.543211, 3183.256836
 123.544878, 3183.256836
 123.546545, 3183.256836
 123.548211, 3183.256836
 123.549878, 3183.256836
 123.551545, 3183.256836
 123.553211, 3183.256836
 123.554878, 3183.256836
 123.556545, 3183.256836
 123.558211, 3183.256836
 123.559878, 3183.256836
 123.561545, 3183.256836
 123.563211, 3183.256836
 123.564878, 3183.256836
 123.566545, 3183.256836
 123.568211, 3183.256836
 123.569878, 3183.256836
 123.571545, 3183.256836
 123.573211, 3183.256836
 123.574878, 3183.256836
 123.576545, 3183.256836
 123.578211, 3183.256836
 123.579878, 3183.256836
 123.581545, 3183.256836
 123.583211, 3183.256836
 123.584878, 3183.256836
 123.586545, 3183.256836
 123.588211, 3183.256836
 123.589878, 3183.256836
 123.591545, 3183.256836
 123.593211, 3183.256836
 123.594878, 3183.256836
 123.596545, 3183.256836
 123.598211, 3183.256836
 123.599878, 3183.256836
 123.601545, 3183.256836
 123.603211, 3183.256836
 123.604878, 3183.256836
 123.606545, 3183.256836
 123.608211, 3183.256836
 123.609878, 3183.256836
 123.611545, 3183.256836
 123.613211, 3183.256836
 123.614878, 3183.256836
 123.616545, 3183.256836
 123.618211, 3183.256836
 123.619878, 3183.256836
 123.621545, 3183.256836
 123.623211, 3183.256836
 123.624878, 3183.256836
 123.626545, 3183.256836
 123.628211, 3183.256836
 123.629878, 3183.256836
 123.631545, 3183.256836
 123.633211, 3183.256836
 123.634878, 3183.256836
 123.636545, 3183.256836
 123.638211, 3183.256836
 123.639878, 3183.256836
 123.641545, 3183.256836
 123.643211, 3183.256836
 123.644878, 3183.256836
 123.646545, 3183.256836
 123.648211, 3183.256836
 123.649878, 3183.256836
 123.651545, 3183.256836
 123.653211, 3183.256836
 123.654878, 3183.256836
 123.656545, 3183.256836
 123.658211, 3183.256836
 123.659878, 3183.256836
 123.661545, 3183.256836
 123.663211, 3183.256836
 123.664878, 3183.256836
 123.666545, 3183.256836
 123.668211, 3183.256836
 123.669878, 3183.256836
 123.671545, 3183.256836
 123.673211, 3183.256836
 123.674878, 3183.256836
 123.676545, 3183.256836
 123.678211, 3183.256836
 123.679878, 3183.256836
 123.681545, 3183.256836
 123.683211, 3183.256836
 123.684878, 3183.256836
 123.686545, 3183.256836
 123.688211, 3183.256836
 123.689878, 3183.256836
 123.691545, 3183.256836
 123.693211, 3183.256836
 123.694878, 3183.256836
 123.696545, 3183.256836
 123.698211, 3183.256836
 123.699878, 3183.256836
 123.701545, 3183.256836
 123.703211, 3183.256836
 123.704878, 3183.256836
 123.706545, 3183.256836
 123.708211, 3183.256836
 123.709878, 3183.256836
 123.711545, 3183.256836
 123.713211, 3183.256836
 123.714878, 3183.256836
 123.716545, 3183.256836
 123.718211, 3183.256836
 123.719878, 3183.256836
 123.721545, 3183.256836
 123.723211, 3183.256836
 123.724878, 3183.256836
 123.726545, 3183.256836
 123.728211, 3183.256836
 123.729878, 3183.256836
 123.731545, 3183.256836
 123.733211, 3183.256836
 123.734878, 3183.256836
 123.736545, 3183.256836
 123.738211, 3183.256836
 123.739878, 3183.256836
 123.741545, 3183.256836
 123.743211, 3183.256836
 123.744878, 3183.256836
 123.746545, 3183.256836
 123.748211, 3183.256836
 123.749878, 3183.256836
 123.751545, 3183.256836
 123.753211, 3183.256836
 123.754878, 3183.256836
 123.756545, 3183.256836
 123.758211, 3183.256836
 123.759878, 3183.256836
 123.761545, 3183.256836
 123.763211, 3183.256836
 123.764878, 3183.256836
 123.766545, 3183.256836
 123.768211, 3183.256836
 123.769878, 3183.256836
 123.771545, 3183.256836
 123.773211, 3183.256836
 123.774878, 3183.256836
 123.776545, 3183.256836
 123.778211, 3183.256836
 123.779878, 3183.256836
 123.781545, 3183.256836
 123.783211, 3183.256836
 123.784878, 3183.256836
 123.786545, 3183.256836
 123.788211, 3183.256836
 123.789878, 3183.256836
 123.791545, 3183.256836
 123.793211, 3183.256836
 123.794878, 3183.256836
 123.796545, 3183.256836
 123.798211, 3183.256836
 123.799878, 3183.256836
 123.801545, 3183.256836
 123.803211, 3183.256836
 123.804878, 3183.256836
 123.806545, 3183.256836
 123.808211, 3183.256836
 123.809878, 3183.256836
 123.811545, 3183.256836
 123.813211, 3183.256836
 123.814878, 3183.256836
 123.816545, 3183.256836
 123.818211, 3183.256836
 123.819878, 3183.256836
 123.821545, 3183.256836
 123.823211, 3183.256836
 123.824878, 3183.256836
 123.826545, 3183.256836
 123.828211, 3183.256836
 123.829878, 3183.256836
 123.831545, 3183.256836
 123.833211, 3183.256836
 123.834878, 3183.256836
 123.836545, 3183.256836
 123.838211, 3183.256836
 123.839878, 3183.256836
 123.841545, 3183.256836
 123.843211, 3183.256836
 123.844878, 3183.256836
 123.846545, 3183.256836
 123.848211, 3183.256836
 123.849878, 3183.256836
 123.851545, 3183.256836
 123.853211, 3183.256836
 123.854878, 3183.256836
 123.856545, 3183.256836
 123.858211, 3183.256836
 123.859878, 3183.256836
 123.861545, 3183.256836
 123.863211, 3183.256836
 123.864878, 3183.256836
 123.866545, 3183.256836
 123.868211, 3183.256836
 123.869878, 3183.256836
 123.871545, 3183.256836
 123.873211, 3183.256836
 123.874878, 3183.256836
 123.876545, 3183.256836
 123.878211, 3183.256836
 123.879878, 3183.256836
 123.881545, 3183.256836
 123.883211, 3183.256836
 123.884878, 3183.256836
 123.886545, 3183.256836
 123.888211, 3183.256836
 123.889878, 3183.256836
 123.891545, 3183.256836
 123.893211, 3183.256836
 123.894878, 3183.256836
 123.896545, 3183.256836
 123.898211, 3183.256836
 123.899878, 3183.256836
 123.901545, 3183.256836
 123.903211, 3183.256836
 123.904878, 3183.256836
 123.906545, 3183.256836
 123.908211, 3183.256836
 123.909878, 3183.256836
 123.911545, 3183.256836
 123.913211, 3183.256836
 123.914878, 3183.256836
 123.916545, 3183.256836
 123.918211, 3183.256836
 123.919878, 3183.256836
 123.921545, 3183.256836
 123.923211, 3183.256836
 123.924878, 3183.256836
 123.926545, 3183.256836
 123.928211, 3183.256836
 123.929878, 3183.256836
 123.931545, 3183.256836
 123.933211, 3183.256836
 123.934878, 3183.256836
 123.936545, 3183.256836
 123.938211, 3183.256836
 123.939878, 3183.256836
 123.941545, 3183.256836
 123.943211, 3183.256836
 123.944878, 3183.256836
 123.946545, 3183.256836
 123.948211, 3183.256836
 123.949878, 3183.256836
 123.951545, 3183.256836
 123.953211, 3183.256836
 123.954878, 3183.256836
 123.956545, 3183.256836
 123.958211, 3183.256836
 123.959878, 3183.256836
 123.961545, 3183.256836
 123.963211, 3183.256836
 123.964878, 3183.256836
 123.966545, 3183.256836
 123.968211, 3183.256836
 123.969878, 3183.256836
 123.971545, 3183.256836
 123.973211, 3183.256836
 123.974878, 3183.256836
 123.976545, 3183.256836
 123.978211, 3183.256836
 123.979878, 3183.256836
 123.981545, 3183.256836
 123.983211, 3183.256836
 123.984878, 3183.256836
 123.986545, 3183.256836
 123.988211, 3183.256836
 123.989878, 3183.256836
 123.991545, 3183.256836
 123.993211, 3183.256836
 123.994878, 3183.256836
 123.996545, 3183.256836
 123.998211, 3183.256836
 123.999878, 3183.256836
 124.001545, 3183.256836
 124.003211, 3183.256836
 124.004878, 3183.256836
 124.006545, 3183.256836
 124.008211, 3183.256836
 124.009878, 3183.256836
 124.011545, 3183.256836
 124.013211, 3183.256836
 124.014878, 3183.256836
 124.016545, 3183.256836
 124.018211, 3183.256836
 124.019878, 3183.256836
 124.021545, 3183.256836
 124.023211, 3183.256836
 124.024878, 3183.256836
 124.026545, 3183.256836
 124.028211, 3183.256836
 124.029878, 3183.256836
 124.031545, 3183.256836
 124.033211, 3183.256836
 124.034878, 3183.256836
 124.036545, 3183.256836
 124.038211, 3183.256836
 124.039878, 3183.256836
 124.041545, 3183.256836
 124.043211, 3183.256836
 124.044878, 3183.256836
 124.046545, 3183.256836
 124.048211, 3183.256836
 124.049878, 3183.256836
 124.051545, 3183.256836
 124.053211, 3183.256836
 124.054878, 3183.256836
 124.056545, 3183.256836
 124.058211, 3183.256836
 124.059878, 3183.256836
 124.061545, 3183.256836
 124.063211, 3183.256836
 124.064878, 3183.256836
 124.066545, 3183.256836
 124.068211, 3183.256836
 124.069878, 3183.256836
 124.071545, 3183.256836
 124.073211, 3183.256836
 124.074878, 3183.256836
 124.076545, 3183.256836
 124.078211, 3183.256836
 124.079878, 3183.256836
 124.081545, 3183.256836
 124.083211, 3183.256836
 124.084878, 3183.256836
 124.086545, 3183.256836
 124.088211, 3183.256836
 124.089878, 3183.256836
 124.091545, 3183.256836
 124.093211, 3183.256836
 124.094878, 3183.256836
 124.096545, 3183.256836
 124.098211, 3183.256836
 124.099809, 3183.256836
 124.101475, 2007.344707
 124.103142,  831.432579
 124.104809, -344.479550
 124.106475, -1466.507328
 124.108142, -1468.442024
 124.109809, -1470.376721
 124.111475, -1472.311418
 124.113142, -1474.246115
 124.114809, -1476.180811
 124.116475, -1478.115508
 124.118142, -1480.050205
 124.119809, -1481.984902
 124.121475, -1483.919598
 124.123142, -1485.853533
 124.124809, -1487.771614
 124.126472, -1489.685999
 124.128139, -1754.039549
 124.129806, -2018.393099
 124.131472, -2282.746649
 124.133139, -2547.100198
 124.134806, -2811.453748
 124.136472, -3075.807298
 124.138139, -3340.160848
 124.139806, -3604.514397
 124.141472, -3868.867947
 124.143139, -4133.221497
 124.144806, -4397.575047
 124.144883, -4409.825135
 124.146549, -5758.859926
 124.148216, -7107.894718
 124.149883, -8456.929509
 124.151549, -9805.964300
 124.153216, -11154.999091
 124.154883, -12504.033882
 124.156549, -13720.253499
 124.158216, -13598.664192
 124.159883, -13477.074885
 124.161549, -13355.485578
 124.163216, -13233.896271
 124.164883, -13112.306964
 124.166549, -12990.717657
 124.168216, -12869.128350
 124.169883, -12747.539043
 124.171549, -12625.949736
 124.173216, -12503.854191
 124.174883, -12376.659447
 124.176549, -12249.464704
 124.178216, -12122.269960
 124.179883, -11995.075217
 124.181549, -11867.880474
 124.183216, -11740.685730
 124.184883, -11613.490987
 124.186549, -11486.296243
 124.188216, -11359.101500
 124.189883, -11231.746845
 124.191549, -11102.781452
 124.193216, -10973.816059
 124.194883, -10844.850666
 124.196549, -10715.885273
 124.198216, -10586.919880
 124.199883, -10457.954486
 124.201549, -10328.989093
 124.203216, -10200.023700
 124.204883, -10071.058307
 124.206549, -9942.891941
 124.208216, -9822.773951
 124.209883, -9702.655960
 124.211549, -9582.537969
 124.213216, -9462.419978
 124.214883, -9342.301987
 124.216549, -9222.183996
 124.218216, -9102.066005
 124.219883, -8981.948015
 124.221549, -8861.830024
 124.223216, -8742.449339
 124.224883, -8630.495330
 124.226549, -8518.541321
 124.228216, -8406.587312
 124.229883, -8294.633302
 124.231549, -8182.679293
 124.233216, -8070.725284
 124.234883, -7958.771275
 124.236549, -7846.817265
 124.238216, -7734.863256
 124.239883, -7622.917588
 124.241549, -7511.055933
 124.243216, -7399.194278
 124.244883, -7287.332623
 124.246549, -7175.470968
 124.248216, -7063.609313
 124.249883, -6951.747659
 124.251549, -6839.886004
 124.253216, -6728.024349
 124.254883, -6616.162694
 124.256549, -6504.362591
 124.258216, -6393.182477
 124.259883, -6282.002363
 124.261549, -6170.822250
 124.263216, -6059.642136
 124.264883, -5948.462023
 124.266549, -5837.281909
 124.268216, -5726.101796
 124.269883, -5614.921682
 124.271549, -5503.741568
 124.273216, -5392.674927
 124.274883, -5282.751256
 124.276549, -5172.827586
 124.278216, -5062.903915
 124.279883, -4952.980245
 124.281549, -4843.056574
 124.283216, -4733.132904
 124.284883, -4623.209233
 124.286549, -4513.285563
 124.288216, -4403.361892
 124.289883, -4293.601267
 124.291549, -4185.482948
 124.293216, -4077.364629
 124.294883, -3969.246310
 124.296549, -3861.127991
 124.298216, -3753.009672
 124.299883, -3644.891353
 124.301549, -3536.773034
 124.303216, -3428.654715
 124.304883, -3320.536396
 124.306549, -3214.928319
 124.308216, -3134.605185
 124.309883, -3054.282051
 124.311549, -2973.958916
 124.313216, -2893.635782
 124.314883, -2813.312647
 124.316549, -2732.989513
 124.318216, -2652.666379
 124.319883, -2572.343244
 124.321549, -2492.020110
 124.323216, -2414.071906
 124.324883, -2360.045693
 124.326549, -2306.019480
 124.328216, -2251.993268
 124.329883, -2197.967055
 124.331549, -2143.940842
 124.333216, -2089.914629
 124.334883, -2035.888416
 124.336549, -1981.862203
 124.338216, -1927.835990
 124.339883, -1873.831624
 124.341549, -1820.047313
 124.343216, -1766.263002
 124.344883, -1712.478691
 124.346549, -1658.694380
 124.348216, -1604.910069
 124.349883, -1551.125758
 124.351549, -1497.341447
 124.353216, -1443.557136
 124.354883, -1389.772825
 124.356549, -1336.034284
 124.358216, -1282.756777
 124.359883, -1229.479271
 124.361549, -1176.201764
 124.363216, -1122.924257
 124.364883, -1069.646750
 124.366549, -1016.369243
 124.368216, -963.091736
 124.369883, -909.814229
 124.371549, -856.536722
 124.373216, -803.328010
 124.374883, -750.812244
 124.376549, -698.296477
 124.378216, -645.780711
 124.379883, -593.264945
 124.381549, -540.749178
 124.383216, -488.233412
 124.384883, -435.717646
 124.386549, -383.201879
 124.388216, -330.686113
 124.389883, -278.260836
 124.391549, -226.747034
 124.393216, -175.233231
 124.394883, -123.719429
 124.396549,  -72.205626
 124.398216,  -20.691824
 124.399883,   30.821978
 124.401549,   82.335781
 124.403216,  133.849583
 124.404883,  185.363386
 124.406549,  229.963551
 124.408216,  204.924649
 124.409883,  179.885746
 124.411549,  154.846843
 124.413216,  129.807940
 124.414883,  104.769038
 124.416549,   79.730135
 124.418216,   54.691232
 124.419883,   29.652330
 124.421549,    4.613427
 124.421857,    0.000000
