Time, Angles
   0.000100,    0.000000
   0.000632,    0.000000
   0.002218,    0.000000
   0.007077,    0.000000
   0.016932,    0.000000
   0.033662,    0.000000
   0.058512,    0.000000
   0.087458,    0.000000
   0.116303,    0.000000
   0.145366,    0.000000
   0.174441,    0.000000
   0.203588,    0.000000
   0.232909,    0.000000
   0.262299,    0.000000
   0.291871,    0.000000
   0.321316,    0.000000
   0.351004,    0.000000
   0.380597,    0.000000
   0.410762,    0.000000
   0.440644,    0.000000
   0.471076,    0.000000
   0.501615,    0.000000
   0.532006,    0.000000
   0.562763,    0.000000
   0.593681,    0.000000
   0.624600,    0.000000
   0.656013,    0.000000
   0.687658,    0.000000
   0.719786,    0.000000
   0.751814,    0.000000
   0.784227,    0.000000
   0.816741,    0.000000
   0.849643,    0.000000
   0.882412,    0.000000
   0.915618,    0.000000
   0.949000,    0.000000
   0.982734,    0.000000
   1.016581,    0.000000
   1.050738,    0.000000
   1.085043,    0.000000
   1.119784,    0.000000
   1.154759,    0.000000
   1.190225,    0.000000
   1.226161,    0.000000
   1.262379,    0.000000
   1.298572,    0.000000
   1.334699,    0.000000
   1.371762,    0.000000
   1.408680,    0.000000
   1.445733,    0.000000
   1.482969,    0.000000
   1.520248,    0.000000
   1.557873,    0.000000
   1.596460,    0.000000
   1.635326,    0.000000
   1.673656,    0.000000
   1.712445,    0.000000
   1.751185,    0.000000
   1.790480,    0.000000
   1.830122,    0.000000
   1.870346,    0.000000
   1.910553,    0.000000
   1.951079,    0.000000
   1.992188,    0.000000
   2.033930,    0.000000
   2.075686,    0.000000
   2.117167,    0.000000
   2.159066,    0.000000
   2.201369,    0.000000
   2.243683,    0.000000
   2.286842,    0.000000
   2.329881,    0.000000
   2.373328,    0.000000
   2.417343,    0.000000
   2.461260,    0.000000
   2.505257,    0.000000
   2.549760,    0.000000
   2.594599,    0.000000
   2.639517,    0.000000
   2.684373,    0.000000
   2.730016,    0.000000
   2.775929,    0.000000
   2.821576,    0.000000
   2.867938,    0.000000
   2.914524,    0.000000
   2.961161,    0.000000
   3.007760,    0.000000
   3.054346,    0.000000
   3.101862,    0.000000
   3.149295,    0.000000
   3.196986,    0.000000
   3.245242,    0.000000
   3.293617,    0.000000
   3.342336,    0.000000
   3.391454,    0.000000
   3.440379,    0.000000
   3.489363,    0.000000
   3.538787,    0.000000
   3.588350,    0.000000
   3.638050,    0.000000
   3.688589,    0.000000
   3.739293,    0.000000
   3.789874,    0.000000
   3.841149,    0.000000
   3.892142,    0.000000
   3.943302,    0.000000
   3.994663,    0.000000
   4.046067,    0.000000
   4.098274,    0.000000
   4.150657,    0.000000
   4.202913,    0.000000
   4.255790,    0.000000
   4.308740,    0.000000
   4.362333,    0.000000
   4.364484,    0.000000
   4.364869,    0.000000
   4.365322,    0.000000
   4.365847,    0.000000
   4.365953,    0.000000
   4.366125,    0.000000
   4.366145,    0.000000
   4.366166,    0.000000
   4.366185,    0.000000
   4.366376,    0.000000
   4.367803,    0.000000
   4.374519,    0.000000
   4.396405,    0.000000
   4.441382,    0.000000
   4.490729,    0.000000
   4.540319,    0.000000
   4.590063,    0.000000
   4.639970,    0.000000
   4.689936,    0.000000
   4.740244,    0.000000
   4.790663,    0.000000
   4.841315,    0.000000
   4.892000,    0.000000
   4.943181,    0.000000
   4.994401,    0.000000
   5.045824,    0.000000
   5.097109,    0.000000
   5.148344,    0.000000
   5.200012,    0.000000
   5.251978,    0.000000
   5.304411,    0.000000
   5.356924,    0.000000
   5.409358,    0.000000
   5.461929,    0.000000
   5.514730,    0.000000
   5.568069,    0.000000
   5.621442,    0.000000
   5.674481,    0.000000
   5.727951,    0.000000
   5.782095,    0.000000
   5.836095,    0.000000
   5.890245,    0.000000
   5.944498,    0.000000
   5.999100,    0.000000
   6.053986,    0.000000
   6.108635,    0.000000
   6.163799,    0.000000
   6.218899,    0.000000
   6.274055,    0.000000
   6.329569,    0.000000
   6.385452,    0.000000
   6.441373,    0.000000
   6.497327,    0.000000
   6.553451,    0.000000
   6.609855,    0.000000
   6.666761,    0.000000
   6.723169,    0.000000
   6.780033,    0.000000
   6.837017,    0.000000
   6.893892,    0.000000
   6.951029,    0.000000
   7.008534,    0.000000
   7.066398,    0.000000
   7.124275,    0.000000
   7.182399,    0.000000
   7.240490,    0.000000
   7.298703,    0.000000
   7.357130,    0.000000
   7.415748,    0.000000
   7.474744,    0.000000
   7.533600,    0.000000
   7.592540,    0.000000
   7.652043,    0.000000
   7.711576,    0.000000
   7.771108,    0.000000
   7.831182,    0.000000
   7.890883,    0.000000
   7.950833,    0.000000
   8.011051,    0.000000
   8.071419,    0.000000
   8.132021,    0.000000
   8.192433,    0.000000
   8.253376,    0.000000
   8.314123,    0.000000
   8.375301,    0.000000
   8.436530,    0.000000
   8.497769,    0.000000
   8.558925,    0.000000
   8.620532,    0.000000
   8.682220,    0.000000
   8.744135,    0.000000
   8.806265,    0.000000
   8.868658,    0.000000
   8.931284,    0.000000
   8.943810,    0.000000
   8.952451,    0.000000
   8.959285,    0.000000
   8.983431,    0.000000
   8.983938,    0.000000
   8.984508,    0.000000
   8.984628,    0.000000
   8.984837,    0.000000
   8.984898,    0.000000
   8.985010,    0.000000
   8.985036,    0.000000
   8.985050,    0.000000
   8.985056,    0.000000
   8.985062,    0.000000
   8.985120,    0.000000
   8.985587,    0.000000
   8.988133,    0.000000
   8.997849,    0.000000
   9.030135,    0.000000
   9.085668,    0.000000
   9.143015,    0.000000
   9.200356,    0.000000
   9.257994,    0.000000
   9.315591,    0.000000
   9.373540,    0.000000
   9.431503,    0.000000
   9.489503,    0.000000
   9.547358,    0.000000
   9.605610,    0.000000
   9.663919,    0.000000
   9.722408,    0.000000
   9.780720,    0.000000
   9.839438,    0.000000
   9.898322,    0.000000
   9.957245,    0.000000
  10.016390,    0.000000
  10.075705,    0.000000
  10.135223,    0.000000
  10.194830,    0.000000
  10.254330,    0.000000
  10.314054,    0.000000
  10.373988,    0.000000
  10.434182,    0.000000
  10.494340,    0.000000
  10.554496,    0.000000
  10.614852,    0.000000
  10.675502,    0.000000
  10.735977,    0.000000
  10.796382,    0.000000
  10.857327,    0.000000
  10.918219,    0.000000
  10.979244,    0.000000
  11.040275,    0.000000
  11.101573,    0.000000
  11.162791,    0.000000
  11.224604,    0.000000
  11.286345,    0.000000
  11.347999,    0.000000
  11.409934,    0.000000
  11.471914,    0.000000
  11.534058,    0.000000
  11.596522,    0.000000
  11.658699,    0.000000
  11.721046,    0.000000
  11.783485,    0.000000
  11.846054,    0.000000
  11.908838,    0.000000
  11.971772,    0.000000
  12.034635,    0.000000
  12.097630,    0.000000
  12.160739,    0.000000
  12.224052,    0.000000
  12.287535,    0.000000
  12.351098,    0.000000
  12.414670,    0.000000
  12.478586,    0.000000
  12.542516,    0.000000
  12.606529,    0.000000
  12.670728,    0.000000
  12.735065,    0.000000
  12.799409,    0.000000
  12.863739,    0.000000
  12.928110,    0.000000
  12.992762,    0.000000
  13.057461,    0.000000
  13.122301,    0.000000
  13.187081,    0.000000
  13.252015,    0.000000
  13.316954,    0.000000
  13.382107,    0.000000
  13.447404,    0.000000
  13.512813,    0.000000
  13.578512,    0.000000
  13.644017,    0.000000
  13.709788,    0.000000
  13.775731,    0.000000
  13.841639,    0.000000
  13.907742,    0.000000
  13.974067,    0.000000
  13.987331,    0.000000
  13.997606,    0.000000
  14.004429,    0.000000
  14.009633,    0.000000
  14.010523,    0.000000
  14.010743,    0.000000
  14.011097,    0.000000
  14.011187,    0.000000
  14.011368,    0.000000
  14.011427,    0.000000
  14.011433,    0.000000
  14.011439,    0.000000
  14.011495,    0.000000
  14.012037,    0.000000
  14.016046,    0.000000
  14.038658,    0.000000
  14.098070,    0.000000
  14.157592,    0.000000
  14.217218,    0.000000
  14.276867,    0.000000
  14.336595,    0.000000
  14.396356,    0.000000
  14.456385,    0.000000
  14.516434,    0.000000
  14.576499,    0.000000
  14.636655,    0.000000
  14.696908,    0.000000
  14.757185,    0.000000
  14.817507,    0.000000
  14.878023,    0.000000
  14.938506,    0.000000
  14.999281,    0.000000
  15.060239,    0.000000
  15.121200,    0.000000
  15.182024,    0.000000
  15.243050,    0.000000
  15.304132,    0.000000
  15.365234,    0.000000
  15.426481,    0.000000
  15.487876,    0.000000
  15.549356,    0.000000
  15.610866,    0.000000
  15.672419,    0.000000
  15.734225,    0.000000
  15.796102,    0.000000
  15.858178,    0.000000
  15.920204,    0.000000
  15.982294,    0.000000
  16.044409,    0.000000
  16.106669,    0.000000
  16.169061,    0.000000
  16.231560,    0.000000
  16.294076,    0.000000
  16.356717,    0.000000
  16.419446,    0.000000
  16.482399,    0.000000
  16.545419,    0.000000
  16.608300,    0.000000
  16.671297,    0.000000
  16.734333,    0.000000
  16.797583,    0.000000
  16.860971,    0.000000
  16.924275,    0.000000
  16.987921,    0.000000
  17.051577,    0.000000
  17.115187,    0.000000
  17.178917,    0.000000
  17.242619,    0.000000
  17.306469,    0.000000
  17.370501,    0.000000
  17.434520,    0.000000
  17.498597,    0.000000
  17.562712,    0.000000
  17.626985,    0.000000
  17.691450,    0.000000
  17.755942,    0.000000
  17.820405,    0.000000
  17.885264,    0.000000
  17.949991,    0.000000
  18.014923,    0.000000
  18.079837,    0.000000
  18.144838,    0.000000
  18.209886,    0.000000
  18.275034,    0.000000
  18.340328,    0.000000
  18.405683,    0.000000
  18.471125,    0.000000
  18.536555,    0.000000
  18.602220,    0.000000
  18.667702,    0.000000
  18.733370,    0.000000
  18.799165,    0.000000
  18.865063,    0.000000
  18.930923,    0.000000
  18.996927,    0.000000
  19.063127,    0.000000
  19.129225,    0.000000
  19.195513,    0.000000
  19.261800,    0.000000
  19.328185,    0.000000
  19.394669,    0.000000
  19.461150,    0.000000
  19.527920,    0.000000
  19.594693,    0.000000
  19.661644,    0.000000
  19.675033,    0.000000
  19.685567,    0.000000
  19.694118,    0.000000
  19.701645,    0.000000
  19.708033,    0.000000
  19.713601,    0.000000
  19.714517,    0.000000
  19.715569,    0.000000
  19.717235,    0.000000
  19.717388,    0.000000
  19.717455,    0.000000
  19.717517,    0.000000
  19.718133,    0.000000
  19.722664,    0.000000
  19.767969,    0.000000
  19.834747,    0.000000
  19.901660,    0.000000
  19.968625,    0.000000
  20.035574,    0.000000
  20.102680,    0.000000
  20.169782,    0.000000
  20.236975,    0.000000
  20.304287,    0.000000
  20.371670,    0.000000
  20.439175,    0.000000
  20.506853,    0.000000
  20.574441,    0.000000
  20.642270,    0.000000
  20.710028,    0.000000
  20.777905,    0.000000
  20.845864,    0.000000
  20.913955,    0.000000
  20.982124,    0.000000
  21.050265,    0.000000
  21.118651,    0.000000
  21.187101,    0.000000
  21.255519,    0.000000
  21.324087,    0.000000
  21.392662,    0.000000
  21.461353,    0.000000
  21.530044,    0.000000
  21.599018,    0.000000
  21.667922,    0.000000
  21.737006,    0.000000
  21.806117,    0.000000
  21.875216,    0.000000
  21.944363,    0.000000
  22.013598,    0.000000
  22.083019,    0.000000
  22.152482,    0.000000
  22.221901,    0.000000
  22.291615,    0.000000
  22.361376,    0.000000
  22.431150,    0.000000
  22.501065,    0.000000
  22.570933,    0.000000
  22.640903,    0.000000
  22.711127,    0.000000
  22.781286,    0.000000
  22.851601,    0.000000
  22.921880,    0.000000
  22.992335,    0.000000
  23.062919,    0.000000
  23.133447,    0.000000
  23.204171,    0.000000
  23.275003,    0.000000
  23.345759,    0.000000
  23.416597,    0.000000
  23.487569,    0.000000
  23.558475,    0.000000
  23.629604,    0.000000
  23.700689,    0.000000
  23.771974,    0.000000
  23.843304,    0.000000
  23.914799,    0.000000
  23.986327,    0.000000
  24.057858,    0.000000
  24.129555,    0.000000
  24.201342,    0.000000
  24.273097,    0.000000
  24.345049,    0.000000
  24.416914,    0.000000
  24.489031,    0.000000
  24.561103,    0.000000
  24.633332,    0.000000
  24.705493,    0.000000
  24.777789,    0.000000
  24.850255,    0.000000
  24.922755,    0.000000
  24.995338,    0.000000
  25.059089,    0.000000
  25.067965,    0.000000
  25.140524,    0.026626
  25.213319,    0.244073
  25.286233,    0.460325
  25.359232,    0.675040
  25.432201,    0.888123
  25.505311,    1.099253
  25.578432,    1.308941
  25.651549,    1.516816
  25.724781,    1.722861
  25.798200,    1.927416
  25.871590,    2.130690
  25.945076,    2.332096
  26.018770,    2.531989
  26.092399,    2.730681
  26.166060,    2.927441
  26.239795,    3.122546
  26.313596,    3.316124
  26.387375,    3.508158
  26.461231,    3.698436
  26.476009,    3.887225
  26.487506,    3.924667
  26.497390,    3.953742
  26.505296,    3.978706
  26.507231,    3.998650
  26.510645,    4.003526
  26.511259,    4.012127
  26.512147,    4.013672
  26.512400,    4.015910
  26.512452,    4.016546
  26.512484,    4.016677
  26.512513,    4.016758
  26.512809,    4.016833
  26.515281,    4.017577
  26.527420,    4.023802
  26.598668,    4.054356
  26.675234,    4.233437
  26.751797,    4.424237
  26.828228,    4.613278
  26.904737,    4.800260
  26.981399,    4.985716
  27.057991,    5.169837
  27.134579,    5.352097
  27.211281,    5.532671
  27.287928,    5.711854
  27.364502,    5.889259
  27.441011,    6.064865
  27.517733,    6.238710
  27.594581,    6.411438
  27.671263,    6.582858
  27.747885,    6.752329
  27.824699,    6.920110
  27.901283,    7.086765
  27.907207,    7.251389
  27.913139,    7.264005
  27.919040,    7.276631
  27.924975,    7.289181
  27.930914,    7.301795
  27.936838,    7.314408
  27.942771,    7.326980
  27.948687,    7.339563
  27.954624,    7.352101
  27.960582,    7.364673
  27.966547,    7.377282
  27.972513,    7.389896
  27.978491,    7.402504
  27.984464,    7.415127
  27.990437,    7.427732
  27.996407,    7.440327
  28.002355,    7.452906
  28.008352,    7.465430
  28.014331,    7.478050
  28.020332,    7.490621
  28.026332,    7.503231
  28.032332,    7.515828
  28.038353,    7.528415
  28.044365,    7.541040
  28.050392,    7.553636
  28.056421,    7.566253
  28.062451,    7.578867
  28.068463,    7.591471
  28.074507,    7.604031
  28.080561,    7.616649
  28.086580,    7.629277
  28.092641,    7.641823
  28.098711,    7.654449
  28.104776,    7.667082
  28.110808,    7.679698
  28.116879,    7.692236
  28.122973,    7.704845
  28.129069,    7.717491
  28.135135,    7.730133
  28.141251,    7.742706
  28.147339,    7.755372
  28.153462,    7.767968
  28.159598,    7.780630
  28.165732,    7.793310
  28.171868,    7.805974
  28.178018,    7.818635
  28.184145,    7.831315
  28.190292,    7.843938
  28.196450,    7.856593
  28.202560,    7.869262
  28.208729,    7.881822
  28.214872,    7.894494
  28.221036,    7.907104
  28.227252,    7.919747
  28.233438,    7.932487
  28.239658,    7.945158
  28.245886,    7.957886
  28.252110,    7.970623
  28.258312,    7.983343
  28.264541,    7.996006
  28.270750,    8.008717
  28.276981,    8.021377
  28.283233,    8.034071
  28.289482,    8.046800
  28.295767,    8.059512
  28.302061,    8.072290
  28.308368,    8.085074
  28.314637,    8.097877
  28.320932,    8.110592
  28.327219,    8.123349
  28.333513,    8.136082
  28.339834,    8.148819
  28.346177,    8.161601
  28.352500,    8.174417
  28.358827,    8.187184
  28.365160,    8.199949
  28.371523,    8.212717
  28.377876,    8.225536
  28.384218,    8.238323
  28.390581,    8.251080
  28.396984,    8.263869
  28.403387,    8.276728
  28.409784,    8.289578
  28.416171,    8.302405
  28.422606,    8.315202
  28.429034,    8.328086
  28.435498,    8.340947
  28.441940,    8.353869
  28.448402,    8.366737
  28.454911,    8.379636
  28.461394,    8.392617
  28.467890,    8.405536
  28.474395,    8.418473
  28.480931,    8.418473
  28.487497,    8.418473
  28.494048,    8.418473
  28.500574,    8.418473
  28.507138,    8.418473
  28.513695,    8.418473
  28.520234,    8.418473
  28.526793,    8.418473
  28.533372,    8.418473
  28.539962,    8.418473
  28.546573,    8.418473
  28.553177,    8.418473
  28.559758,    8.418473
  28.566407,    8.418473
  28.573063,    8.418473
  28.579717,    8.418473
  28.586359,    8.418473
  28.593002,    8.418473
  28.599672,    8.418473
  28.606344,    8.418473
  28.613062,    8.418473
  28.619783,    8.418473
  28.626472,    8.418473
  28.633165,    8.418473
  28.639928,    8.418473
  28.646664,    8.418473
  28.653419,    8.418473
  28.660193,    8.418473
  28.666998,    8.418473
  28.673746,    8.418473
  28.680546,    8.418473
  28.687312,    8.418473
  28.694129,    8.418473
  28.700952,    8.418473
  28.707783,    8.418473
  28.714624,    8.418473
  28.721490,    8.418473
  28.728369,    8.418473
  28.735237,    8.418473
  28.742134,    8.418473
  28.749035,    8.418473
  28.755970,    8.418473
  28.762896,    8.418473
  28.769814,    8.418473
  28.776746,    8.418473
  28.783674,    8.418473
  28.790581,    8.418473
  28.797546,    8.418473
  28.804519,    8.418473
  28.811526,    8.418473
  28.818534,    8.418473
  28.825505,    8.418473
  28.832544,    8.418473
  28.839537,    8.418473
  28.846522,    8.418473
  28.853603,    8.418473
  28.860666,    8.418473
  28.867708,    8.418473
  28.874818,    8.418473
  28.881917,    8.418473
  28.889017,    8.418473
  28.896168,    8.418473
  28.903315,    8.418473
  28.910483,    8.418473
  28.917621,    8.418473
  28.924779,    8.418473
  28.932013,    8.418473
  28.939232,    8.418473
  28.946450,    8.418473
  28.953696,    8.418473
  28.960906,    8.418473
  28.968135,    8.418473
  28.974395,    8.418473
  28.975380,    8.418473
  28.982639,    8.418473
  28.989942,    8.418473
  28.997289,    8.418473
  29.004625,    8.418473
  29.011936,    8.418473
  29.019294,    8.418473
  29.026623,    8.418473
  29.034040,    8.418473
  29.041439,    8.418473
  29.048874,    8.418473
  29.056306,    8.418473
  29.063755,    8.418473
  29.071222,    8.418473
  29.078698,    8.418473
  29.086219,    8.418473
  29.093739,    8.418473
  29.101309,    8.418473
  29.108809,    8.418473
  29.116356,    8.418473
  29.123906,    8.418473
  29.131468,    8.418473
  29.139025,    8.418473
  29.146609,    8.418473
  29.154223,    8.418473
  29.161839,    8.418473
  29.169510,    8.418473
  29.177229,    8.418473
  29.184891,    8.418473
  29.192587,    8.418473
  29.200272,    8.418473
  29.207993,    8.418473
  29.215694,    8.418473
  29.223438,    8.418473
  29.231254,    8.418473
  29.239047,    8.418473
  29.246871,    8.418473
  29.254666,    8.418473
  29.262500,    8.418473
  29.270322,    8.418473
  29.278147,    8.418473
  29.285988,    8.418473
  29.293877,    8.418473
  29.301811,    8.418473
  29.309764,    8.418473
  29.317730,    8.418473
  29.325695,    8.418473
  29.333649,    8.418473
  29.341590,    8.418473
  29.349583,    8.418473
  29.357594,    8.418473
  29.365623,    8.418473
  29.373673,    8.418473
  29.381712,    8.418473
  29.389770,    8.418473
  29.397888,    8.418473
  29.405995,    8.418473
  29.414106,    8.418473
  29.422312,    8.418473
  29.430490,    8.418473
  29.438713,    8.418473
  29.446860,    8.418473
  29.455059,    8.418473
  29.463242,    8.418473
  29.471444,    8.418473
  29.479718,    8.418473
  29.487990,    8.418473
  29.496253,    8.418473
  29.504526,    8.418473
  29.512786,    8.418473
  29.521093,    8.418473
  29.529463,    8.418473
  29.537835,    8.418473
  29.546306,    8.418473
  29.554674,    8.418473
  29.563085,    8.418473
  29.571555,    8.418473
  29.579988,    8.418473
  29.588516,    8.418473
  29.597043,    8.418473
  29.605538,    8.418473
  29.613994,    8.418473
  29.622449,    8.418473
  29.631044,    8.418473
  29.639652,    8.418473
  29.648193,    8.418473
  29.656817,    8.418473
  29.665396,    8.418473
  29.674054,    8.418473
  29.682771,    8.418473
  29.691527,    8.418473
  29.700197,    8.418473
  29.708850,    8.418473
  29.717559,    8.418473
  29.726339,    8.418473
  29.735152,    8.418473
  29.743942,    8.418473
  29.752814,    8.418473
  29.761584,    8.418473
  29.770382,    8.418473
  29.779283,    8.418473
  29.788183,    8.418473
  29.796943,    8.418473
  29.805867,    8.418473
  29.814761,    8.418473
  29.823756,    8.418473
  29.832661,    8.418473
  29.841622,    8.418473
  29.850626,    8.418473
  29.859562,    8.418473
  29.868483,    8.418473
  29.877550,    8.418473
  29.886628,    8.418473
  29.895718,    8.418473
  29.904815,    8.418473
  29.913935,    8.418473
  29.922969,    8.418473
  29.932058,    8.418473
  29.941289,    8.418473
  29.950354,    8.418473
  29.959575,    8.418473
  29.968842,    8.418473
  29.978064,    8.418473
  29.987332,    8.418473
  29.996534,    8.418473
  30.005829,    8.418473
  30.015158,    8.418473
  30.024481,    8.418473
  30.033766,    8.418473
  30.043057,    8.418473
  30.052511,    8.418473
  30.061830,    8.418473
  30.071169,    8.418473
  30.080486,    8.418473
  30.089971,    8.418473
  30.099386,    8.418473
  30.108779,    8.418473
  30.118183,    8.418473
  30.127607,    8.418473
  30.137065,    8.418473
  30.146582,    8.418473
  30.156166,    8.418473
  30.165685,    8.418473
  30.175273,    8.418473
  30.184821,    8.418473
  30.194414,    8.418473
  30.203936,    8.418473
  30.213503,    8.418473
  30.223194,    8.418473
  30.232878,    8.418473
  30.242505,    8.418473
  30.252127,    8.418473
  30.261727,    8.418473
  30.271437,    8.418473
  30.281296,    8.418473
  30.291000,    8.418473
  30.300751,    8.418473
  30.310426,    8.418473
  30.320194,    8.418473
  30.329922,    8.418473
  30.339688,    8.418473
  30.349477,    8.418473
  30.359241,    8.418473
  30.369245,    8.418473
  30.379041,    8.418473
  30.388895,    8.418473
  30.398844,    8.418473
  30.408686,    8.418473
  30.418545,    8.418473
  30.428450,    8.418473
  30.438407,    8.418473
  30.448271,    8.418473
  30.458184,    8.418473
  30.468130,    8.418473
  30.478101,    8.418473
  30.488134,    8.418473
  30.498069,    8.418473
  30.508073,    8.418473
  30.518168,    8.418473
  30.528128,    8.418473
  30.538111,    8.418473
  30.548163,    8.418473
  30.558249,    8.418473
  30.568362,    8.418473
  30.578444,    8.418473
  30.588564,    8.418473
  30.598717,    8.418473
  30.609006,    8.418473
  30.619202,    8.418473
  30.629383,    8.418473
  30.639417,    8.418473
  30.649534,    8.418473
  30.659765,    8.418473
  30.670121,    8.418473
  30.680221,    8.418473
  30.690368,    8.418473
  30.700629,    8.418473
  30.710796,    8.418473
  30.721100,    8.418473
  30.731393,    8.418473
  30.741638,    8.418473
  30.751945,    8.418473
  30.762202,    8.418473
  30.772558,    8.418473
  30.782886,    8.418473
  30.793173,    8.418473
  30.803498,    8.418473
  30.813836,    8.418473
  30.824110,    8.418473
  30.834435,    8.418473
  30.844868,    8.418473
  30.855275,    8.418473
  30.865729,    8.418473
  30.876110,    8.418473
  30.886487,    8.418473
  30.897020,    8.418473
  30.907490,    8.418473
  30.917966,    8.418473
  30.928450,    8.418473
  30.939008,    8.418473
  30.949500,    8.418473
  30.959966,    8.418473
  30.970416,    8.418473
  30.980897,    8.418473
  30.991428,    8.418473
  31.001984,    8.418473
  31.012555,    8.418473
  31.023231,    8.418473
  31.033805,    8.418473
  31.044378,    8.418473
  31.054893,    8.418473
  31.065512,    8.418473
  31.076056,    8.418473
  31.086750,    8.418473
  31.097362,    8.418473
  31.107965,    8.418473
  31.118620,    8.418473
  31.129266,    8.418473
  31.139858,    8.418473
  31.150587,    8.418473
  31.161312,    8.418473
  31.171962,    8.418473
  31.182692,    8.418473
  31.193348,    8.418473
  31.204016,    8.418473
  31.214716,    8.418473
  31.225415,    8.418473
  31.236126,    8.418473
  31.246958,    8.418473
  31.257734,    8.418473
  31.268533,    8.418473
  31.279260,    8.418473
  31.289972,    8.418473
  31.300751,    8.418473
  31.311467,    8.418473
  31.322177,    8.418473
  31.333002,    8.418473
  31.343847,    8.418473
  31.354776,    8.418473
  31.365729,    8.418473
  31.376603,    8.418473
  31.387475,    8.418473
  31.398427,    8.418473
  31.409401,    8.418473
  31.420199,    8.418473
  31.431072,    8.418473
  31.441751,    8.418473
  31.452620,    8.418473
  31.463522,    8.418473
  31.474506,    8.418473
  31.485323,    8.418473
  31.496246,    8.418473
  31.507285,    8.418473
  31.518247,    8.418473
  31.524268,    8.418473
