Time, Angles
   0.000100,    0.000000
   0.000632,    0.000000
   0.002218,    0.000000
   0.007077,    0.000000
   0.016932,    0.000000
   0.033662,    0.000000
   0.058512,    0.000000
   0.087458,    0.000000
   0.116303,    0.000000
   0.145366,    0.000000
   0.174441,    0.000000
   0.203588,    0.000000
   0.232909,    0.000000
   0.262299,    0.000000
   0.291871,    0.000000
   0.321316,    0.000000
   0.351004,    0.000000
   0.380597,    0.000000
   0.410762,    0.000000
   0.440644,    0.000000
   0.471076,    0.000000
   0.501615,    0.000000
   0.532006,    0.000000
   0.562763,    0.000000
   0.593681,    0.000000
   0.624600,    0.000000
   0.656013,    0.000000
   0.687658,    0.000000
   0.719786,    0.000000
   0.751814,    0.000000
   0.784227,    0.000000
   0.816741,    0.000000
   0.849643,    0.000000
   0.882412,    0.000000
   0.915618,    0.000000
   0.949000,    0.000000
   0.982734,    0.000000
   1.016581,    0.000000
   1.050738,    0.000000
   1.085043,    0.000000
   1.119784,    0.000000
   1.154759,    0.000000
   1.190225,    0.000000
   1.226161,    0.000000
   1.262379,    0.000000
   1.298572,    0.000000
   1.334699,    0.000000
   1.371762,    0.000000
   1.408680,    0.000000
   1.445733,    0.000000
   1.482969,    0.000000
   1.520248,    0.000000
   1.557873,    0.000000
   1.596460,    0.000000
   1.635326,    0.000000
   1.673656,    0.000000
   1.712445,    0.000000
   1.751185,    0.000000
   1.790480,    0.000000
   1.830122,    0.000000
   1.870346,    0.000000
   1.910553,    0.000000
   1.951079,    0.000000
   1.992188,    0.000000
   2.033930,    0.000000
   2.075686,    0.000000
   2.117167,    0.000000
   2.159066,    0.000000
   2.201369,    0.000000
   2.243683,    0.000000
   2.286842,    0.000000
   2.329881,    0.000000
   2.373328,    0.000000
   2.417343,    0.000000
   2.461260,    0.000000
   2.505257,    0.000000
   2.549760,    0.000000
   2.594599,    0.000000
   2.639517,    0.000000
   2.684373,    0.000000
   2.730016,    0.000000
   2.775929,    0.000000
   2.821576,    0.000000
   2.867938,    0.000000
   2.914524,    0.000000
   2.961161,    0.000000
   3.007760,    0.000000
   3.054346,    0.000000
   3.101862,    0.000000
   3.149295,    0.000000
   3.196986,    0.000000
   3.245242,    0.000000
   3.293617,    0.000000
   3.342336,    0.000000
   3.391454,    0.000000
   3.440379,    0.000000
   3.489363,    0.000000
   3.538787,    0.000000
   3.588350,    0.000000
   3.638050,    0.000000
   3.688589,    0.000000
   3.739293,    0.000000
   3.789874,    0.000000
   3.841149,    0.000000
   3.892142,    0.000000
   3.943302,    0.000000
   3.994663,    0.000000
   4.046067,    0.000000
   4.098274,    0.000000
   4.150657,    0.000000
   4.202913,    0.000000
   4.255790,    0.000000
   4.308740,    0.000000
   4.362333,    0.000000
   4.364484,    0.000000
   4.364869,    0.000000
   4.365322,    0.000000
   4.365847,    0.000000
   4.365953,    0.000000
   4.366125,    0.000000
   4.366145,    0.000000
   4.366166,    0.000000
   4.366185,    0.000000
   4.366376,    0.000000
   4.367803,    0.000000
   4.374519,    0.000000
   4.396405,    0.000000
   4.441382,    0.000000
   4.490729,    0.000000
   4.540319,    0.000000
   4.590063,    0.000000
   4.639970,    0.000000
   4.689936,    0.000000
   4.740244,    0.000000
   4.790663,    0.000000
   4.841315,    0.000000
   4.892000,    0.000000
   4.943181,    0.000000
   4.994401,    0.000000
   5.045824,    0.000000
   5.097109,    0.000000
   5.148344,    0.000000
   5.200012,    0.000000
   5.251978,    0.000000
   5.304411,    0.000000
   5.356924,    0.000000
   5.409358,    0.000000
   5.461929,    0.000000
   5.514730,    0.000000
   5.568069,    0.000000
   5.621442,    0.000000
   5.674481,    0.000000
   5.727951,    0.000000
   5.782095,    0.000000
   5.836095,    0.000000
   5.890245,    0.000000
   5.944498,    0.000000
   5.999100,    0.000000
   6.053986,    0.000000
   6.108635,    0.000000
   6.163799,    0.000000
   6.218899,    0.000000
   6.274055,    0.000000
   6.329569,    0.000000
   6.385452,    0.000000
   6.441373,    0.000000
   6.497327,    0.000000
   6.553451,    0.000000
   6.609855,    0.000000
   6.666761,    0.000000
   6.723169,    0.000000
   6.780033,    0.000000
   6.837017,    0.000000
   6.893892,    0.000000
   6.951029,    0.000000
   7.008534,    0.000000
   7.066398,    0.000000
   7.124275,    0.000000
   7.182399,    0.000000
   7.240490,    0.000000
   7.298703,    0.000000
   7.357130,    0.000000
   7.415748,    0.000000
   7.474744,    0.000000
   7.533600,    0.000000
   7.592540,    0.000000
   7.652043,    0.000000
   7.711576,    0.000000
   7.771108,    0.000000
   7.831182,    0.000000
   7.890883,    0.000000
   7.950833,    0.000000
   8.011051,    0.000000
   8.071419,    0.000000
   8.132021,    0.000000
   8.192433,    0.000000
   8.253376,    0.000000
   8.314123,    0.000000
   8.375301,    0.000000
   8.436530,    0.000000
   8.497769,    0.000000
   8.558925,    0.000000
   8.620532,    0.000000
   8.682220,    0.000000
   8.744135,    0.000000
   8.806265,    0.000000
   8.868658,    0.000000
   8.931284,    0.000000
   8.943810,    0.000000
   8.952451,    0.000000
   8.959285,    0.000000
   8.983431,    0.000000
   8.983938,    0.000000
   8.984508,    0.000000
   8.984628,    0.000000
   8.984837,    0.000000
   8.984898,    0.000000
   8.985010,    0.000000
   8.985036,    0.000000
   8.985050,    0.000000
   8.985056,    0.000000
   8.985062,    0.000000
   8.985120,    0.000000
   8.985587,    0.000000
   8.988133,    0.000000
   8.997849,    0.000000
   9.030135,    0.000000
   9.085668,    0.000000
   9.143015,    0.000000
   9.200356,    0.000000
   9.257994,    0.000000
   9.315591,    0.000000
   9.373540,    0.000000
   9.431503,    0.000000
   9.489503,    0.000000
   9.547358,    0.000000
   9.605610,    0.000000
   9.663919,    0.000000
   9.722408,    0.000000
   9.780720,    0.000000
   9.839438,    0.000000
   9.898322,    0.000000
   9.957245,    0.000000
  10.016390,    0.000000
  10.075705,    0.000000
  10.135223,    0.000000
  10.194830,    0.000000
  10.254330,    0.000000
  10.314054,    0.000000
  10.373988,    0.000000
  10.434182,    0.000000
  10.494340,    0.000000
  10.554496,    0.000000
  10.614852,    0.000000
  10.675502,    0.000000
  10.735977,    0.000000
  10.796382,    0.000000
  10.857327,    0.000000
  10.918219,    0.000000
  10.979244,    0.000000
  11.040275,    0.000000
  11.101573,    0.000000
  11.162791,    0.000000
  11.224604,    0.000000
  11.286345,    0.000000
  11.347999,    0.000000
  11.409934,    0.000000
  11.471914,    0.000000
  11.534058,    0.000000
  11.596522,    0.000000
  11.658699,    0.000000
  11.721046,    0.000000
  11.783485,    0.000000
  11.846054,    0.000000
  11.908838,    0.000000
  11.971772,    0.000000
  12.034635,    0.000000
  12.097630,    0.000000
  12.160739,    0.000000
  12.224052,    0.000000
  12.287535,    0.000000
  12.351098,    0.000000
  12.414670,    0.000000
  12.478586,    0.000000
  12.542516,    0.000000
  12.606529,    0.000000
  12.670728,    0.000000
  12.735065,    0.000000
  12.799409,    0.000000
  12.863739,    0.000000
  12.928110,    0.000000
  12.992762,    0.000000
  13.057461,    0.000000
  13.122301,    0.000000
  13.187081,    0.000000
  13.252015,    0.000000
  13.316954,    0.000000
  13.382107,    0.000000
  13.447404,    0.000000
  13.512813,    0.000000
  13.578512,    0.000000
  13.644017,    0.000000
  13.709788,    0.000000
  13.775731,    0.000000
  13.841639,    0.000000
  13.907742,    0.000000
  13.974067,    0.000000
  13.987331,    0.000000
  13.997606,    0.000000
  14.004429,    0.000000
  14.009633,    0.000000
  14.010523,    0.000000
  14.010743,    0.000000
  14.011097,    0.000000
  14.011187,    0.000000
  14.011368,    0.000000
  14.011427,    0.000000
  14.011433,    0.000000
  14.011439,    0.000000
  14.011495,    0.000000
  14.012037,    0.000000
  14.016046,    0.000000
  14.038658,    0.000000
  14.098070,    0.000000
  14.157592,    0.000000
  14.217218,    0.000000
  14.276867,    0.000000
  14.336595,    0.000000
  14.396356,    0.000000
  14.456385,    0.000000
  14.516434,    0.000000
  14.576499,    0.000000
  14.636655,    0.000000
  14.696908,    0.000000
  14.757185,    0.000000
  14.817507,    0.000000
  14.878023,    0.000000
  14.938506,    0.000000
  14.999281,    0.000000
  15.060239,    0.000000
  15.121200,    0.000000
  15.182024,    0.000000
  15.243050,    0.000000
  15.304132,    0.000000
  15.365234,    0.000000
  15.426481,    0.000000
  15.487876,    0.000000
  15.549356,    0.000000
  15.610866,    0.000000
  15.672419,    0.000000
  15.734225,    0.000000
  15.796102,    0.000000
  15.858178,    0.000000
  15.920204,    0.000000
  15.982294,    0.000000
  16.044409,    0.000000
  16.106669,    0.000000
  16.169061,    0.000000
  16.231560,    0.000000
  16.294076,    0.000000
  16.356717,    0.000000
  16.419446,    0.000000
  16.482399,    0.000000
  16.545419,    0.000000
  16.608300,    0.000000
  16.671297,    0.000000
  16.734333,    0.000000
  16.797583,    0.000000
  16.860971,    0.000000
  16.924275,    0.000000
  16.987921,    0.000000
  17.051577,    0.000000
  17.115187,    0.000000
  17.178917,    0.000000
  17.242619,    0.000000
  17.306469,    0.000000
  17.370501,    0.000000
  17.434520,    0.000000
  17.498597,    0.000000
  17.562712,    0.000000
  17.626985,    0.000000
  17.691450,    0.000000
  17.755942,    0.000000
  17.820405,    0.000000
  17.885264,    0.000000
  17.949991,    0.000000
  18.014923,    0.000000
  18.079837,    0.000000
  18.144838,    0.000000
  18.209886,    0.000000
  18.275034,    0.000000
  18.340328,    0.000000
  18.405683,    0.000000
  18.471125,    0.000000
  18.536555,    0.000000
  18.602220,    0.000000
  18.667702,    0.000000
  18.733370,    0.000000
  18.799165,    0.000000
  18.865063,    0.000000
  18.930923,    0.000000
  18.996927,    0.000000
  19.063127,    0.000000
  19.129225,    0.000000
  19.195513,    0.000000
  19.261800,    0.000000
  19.328185,    0.000000
  19.394669,    0.000000
  19.461150,    0.000000
  19.527920,    0.000000
  19.594693,    0.000000
  19.661644,    0.000000
  19.675033,    0.000000
  19.685567,    0.000000
  19.694118,    0.000000
  19.701645,    0.000000
  19.708033,    0.000000
  19.713601,    0.000000
  19.714517,    0.000000
  19.715569,    0.000000
  19.717235,    0.000000
  19.717388,    0.000000
  19.717455,    0.000000
  19.717517,    0.000000
  19.718133,    0.000000
  19.722664,    0.000000
  19.767969,    0.000000
  19.834747,    0.000000
  19.901660,    0.000000
  19.968625,    0.000000
  20.035574,    0.000000
  20.102680,    0.000000
  20.169782,    0.000000
  20.236975,    0.000000
  20.304287,    0.000000
  20.371670,    0.000000
  20.439175,    0.000000
  20.506853,    0.000000
  20.574441,    0.000000
  20.642270,    0.000000
  20.710028,    0.000000
  20.777905,    0.000000
  20.845864,    0.000000
  20.913955,    0.000000
  20.982124,    0.000000
  21.050265,    0.000000
  21.118651,    0.000000
  21.187101,    0.000000
  21.255519,    0.000000
  21.324087,    0.000000
  21.392662,    0.000000
  21.461353,    0.000000
  21.530044,    0.000000
  21.599018,    0.000000
  21.667922,    0.000000
  21.737006,    0.000000
  21.806117,    0.000000
  21.875216,    0.000000
  21.944363,    0.000000
  22.013598,    0.000000
  22.083019,    0.000000
  22.152482,    0.000000
  22.221901,    0.000000
  22.291615,    0.000000
  22.361376,    0.000000
  22.431150,    0.000000
  22.501065,    0.000000
  22.570933,    0.000000
  22.640903,    0.000000
  22.711127,    0.000000
  22.781286,    0.000000
  22.851601,    0.000000
  22.921880,    0.000000
  22.992335,    0.000000
  23.062919,    0.000000
  23.133447,    0.000000
  23.204171,    0.000000
  23.275003,    0.000000
  23.345759,    0.000000
  23.416597,    0.000000
  23.487569,    0.000000
  23.558475,    0.000000
  23.629604,    0.000000
  23.700689,    0.000000
  23.771974,    0.000000
  23.843304,    0.000000
  23.914799,    0.000000
  23.986327,    0.000000
  24.057858,    0.000000
  24.129555,    0.000000
  24.201342,    0.000000
  24.273097,    0.000000
  24.345049,    0.000000
  24.416914,    0.000000
  24.489031,    0.000000
  24.561103,    0.000000
  24.633332,    0.000000
  24.705493,    0.000000
  24.777789,    0.000000
  24.850255,    0.000000
  24.922755,    0.000000
  24.995338,    0.000000
  25.059089,    0.000000
  25.067965,    0.000000
  25.140524,    0.000000
  25.213319,    0.000000
  25.286233,    0.000000
  25.359232,    0.000000
  25.432201,    0.000000
  25.505311,    0.000000
  25.578432,    0.000000
  25.651549,    0.000000
  25.724781,    0.000000
  25.798200,    0.000000
  25.871590,    0.000000
  25.945076,    0.000000
  26.018770,    0.000000
  26.092399,    0.000000
  26.166060,    0.000000
  26.239795,    0.000000
  26.313596,    0.000000
  26.387375,    0.000000
  26.461231,    0.000000
  26.476009,    0.000000
  26.487506,    0.000000
  26.497390,    0.000000
  26.505296,    0.000000
  26.507231,    0.000000
  26.510645,    0.000000
  26.511259,    0.000000
  26.512147,    0.000000
  26.512400,    0.000000
  26.512452,    0.000000
  26.512484,    0.000000
  26.512513,    0.000000
  26.512809,    0.000000
  26.515281,    0.000000
  26.527420,    0.000000
  26.598668,    0.000000
  26.675234,    0.000000
  26.751797,    0.000000
  26.828228,    0.000000
  26.904737,    0.000000
  26.981399,    0.000000
  27.057991,    0.000000
  27.134579,    0.000000
  27.211281,    0.000000
  27.287928,    0.000000
  27.364502,    0.000000
  27.441011,    0.000000
  27.517733,    0.000000
  27.594581,    0.000000
  27.671263,    0.000000
  27.747885,    0.000000
  27.824699,    0.000000
  27.901283,    0.000000
  27.907207,    0.002822
  27.913139,    0.005704
  27.919040,    0.008629
  27.924975,    0.011627
  27.930914,    0.014684
  27.936838,    0.017790
  27.942771,    0.020958
  27.948687,    0.024174
  27.954624,    0.027457
  27.960582,    0.030810
  27.966547,    0.034224
  27.972513,    0.037696
  27.978491,    0.041232
  27.984464,    0.044823
  27.990437,    0.048472
  27.996407,    0.052175
  28.002355,    0.055922
  28.008352,    0.059758
  28.014331,    0.063640
  28.020332,    0.067594
  28.026332,    0.071604
  28.032332,    0.075672
  28.038353,    0.079813
  28.044365,    0.084005
  28.050392,    0.088266
  28.056421,    0.092586
  28.062451,    0.096965
  28.068463,    0.101389
  28.074507,    0.105895
  28.080561,    0.110465
  28.086580,    0.115068
  28.092641,    0.119761
  28.098711,    0.124519
  28.104776,    0.129333
  28.110808,    0.134178
  28.116879,    0.139113
  28.122973,    0.144124
  28.129069,    0.149196
  28.135135,    0.154303
  28.141251,    0.159510
  28.147339,    0.164752
  28.153462,    0.170083
  28.159598,    0.175485
  28.165732,    0.180944
  28.171868,    0.186465
  28.178018,    0.192058
  28.184145,    0.197689
  28.190292,    0.203399
  28.196450,    0.209177
  28.202560,    0.214970
  28.208729,    0.220878
  28.214872,    0.226821
  28.221036,    0.232843
  28.227252,    0.238976
  28.233438,    0.245141
  28.239658,    0.251398
  28.245886,    0.257725
  28.252110,    0.264108
  28.258312,    0.270528
  28.264541,    0.277038
  28.270750,    0.283587
  28.276981,    0.290218
  28.283233,    0.296934
  28.289482,    0.303706
  28.295767,    0.310579
  28.302061,    0.317523
  28.308368,    0.324543
  28.314637,    0.331582
  28.320932,    0.338711
  28.327219,    0.345893
  28.333513,    0.353143
  28.339834,    0.360487
  28.346177,    0.367918
  28.352500,    0.375388
  28.358827,    0.382923
  28.365160,    0.390528
  28.371523,    0.398232
  28.377876,    0.405984
  28.384218,    0.413786
  28.390581,    0.421676
  28.396984,    0.429677
  28.403387,    0.437741
  28.409784,    0.445861
  28.416171,    0.454030
  28.422606,    0.462323
  28.429034,    0.470672
  28.435498,    0.479130
  28.441940,    0.487623
  28.448402,    0.496206
  28.454911,    0.504915
  28.461394,    0.513653
  28.467890,    0.522474
  28.474395,    0.531371
  28.480931,    0.540327
  28.487497,    0.549340
  28.494048,    0.558352
  28.500574,    0.567344
  28.507138,    0.576406
  28.513695,    0.585477
  28.520234,    0.594538
  28.526793,    0.603645
  28.533372,    0.612796
  28.539962,    0.621978
  28.546573,    0.631207
  28.553177,    0.640445
  28.559758,    0.649667
  28.566407,    0.659000
  28.573063,    0.668362
  28.579717,    0.677738
  28.586359,    0.687112
  28.593002,    0.696507
  28.599672,    0.705956
  28.606344,    0.715427
  28.613062,    0.724979
  28.619783,    0.734552
  28.626472,    0.744097
  28.633165,    0.753665
  28.639928,    0.763352
  28.646664,    0.773016
  28.653419,    0.782726
  28.660193,    0.792479
  28.666998,    0.802295
  28.673746,    0.812047
  28.680546,    0.821890
  28.687312,    0.831702
  28.694129,    0.841606
  28.700952,    0.851535
  28.707783,    0.861494
  28.714624,    0.871485
  28.721490,    0.881530
  28.728369,    0.891612
  28.735237,    0.901696
  28.742134,    0.911840
  28.749035,    0.922007
  28.755970,    0.932242
  28.762896,    0.942482
  28.769814,    0.952728
  28.776746,    0.963013
  28.783674,    0.973309
  28.790581,    0.983591
  28.797546,    0.993977
  28.804519,    1.004395
  28.811526,    1.014880
  28.818534,    1.025384
  28.825505,    1.035852
  28.832544,    1.046439
  28.839537,    1.056975
  28.846522,    1.067517
  28.853603,    1.078221
  28.860666,    1.088917
  28.867708,    1.099598
  28.874818,    1.110401
  28.881917,    1.121206
  28.889017,    1.132030
  28.896168,    1.142950
  28.903315,    1.153883
  28.910483,    1.164865
  28.917621,    1.175821
  28.924779,    1.186825
  28.932013,    1.197965
  28.939232,    1.209099
  28.946450,    1.220251
  28.953696,    1.231465
  28.960906,    1.242641
  28.968135,    1.253865
  28.974395,    1.263601
  28.975380,    1.265133
  28.982639,    1.276440
  28.989942,    1.287836
  28.997289,    1.299318
  29.004625,    1.310802
  29.011936,    1.322265
  29.019294,    1.333822
  29.026623,    1.345351
  29.034040,    1.357038
  29.041439,    1.368714
  29.048874,    1.380467
  29.056306,    1.392236
  29.063755,    1.404048
  29.071222,    1.415909
  29.078698,    1.427803
  29.086219,    1.439788
  29.093739,    1.451791
  29.101309,    1.463894
  29.108809,    1.475903
  29.116356,    1.488007
  29.123906,    1.500135
  29.131468,    1.512302
  29.139025,    1.524478
  29.146609,    1.536719
  29.154223,    1.549028
  29.161839,    1.561358
  29.169510,    1.573798
  29.177229,    1.586335
  29.184891,    1.598799
  29.192587,    1.611337
  29.200272,    1.623878
  29.207993,    1.636498
  29.215694,    1.649103
  29.223438,    1.661800
  29.231254,    1.674633
  29.239047,    1.687449
  29.246871,    1.700337
  29.254666,    1.713196
  29.262500,    1.726139
  29.270322,    1.739081
  29.278147,    1.752050
  29.285988,    1.765064
  29.293877,    1.778178
  29.301811,    1.791387
  29.309764,    1.804648
  29.317730,    1.817952
  29.325695,    1.831272
  29.333649,    1.844596
  29.341590,    1.857918
  29.349583,    1.871346
  29.357594,    1.884825
  29.365623,    1.898355
  29.373673,    1.911942
  29.381712,    1.925529
  29.389770,    1.939168
  29.397888,    1.952931
  29.405995,    1.966694
  29.414106,    1.980485
  29.422312,    1.994458
  29.430490,    2.008404
  29.438713,    2.022447
  29.446860,    2.036382
  29.455059,    2.050425
  29.463242,    2.064464
  29.471444,    2.078554
  29.479718,    2.092788
  29.487990,    2.107040
  29.496253,    2.121297
  29.504526,    2.135592
  29.512786,    2.149885
  29.521093,    2.164280
  29.529463,    2.178805
  29.537835,    2.193355
  29.546306,    2.208097
  29.554674,    2.222683
  29.563085,    2.237362
  29.571555,    2.252167
  29.579988,    2.266928
  29.588516,    2.281877
  29.597043,    2.296844
  29.605538,    2.311777
  29.613994,    2.326662
  29.622449,    2.341567
  29.631044,    2.356739
  29.639652,    2.371956
  29.648193,    2.387075
  29.656817,    2.402364
  29.665396,    2.417593
  29.674054,    2.432983
  29.682771,    2.448500
  29.691527,    2.464108
  29.700197,    2.479584
  29.708850,    2.495050
  29.717559,    2.510639
  29.726339,    2.526377
  29.735152,    2.542194
  29.743942,    2.557993
  29.752814,    2.573960
  29.761584,    2.589765
  29.770382,    2.605643
  29.779283,    2.621728
  29.788183,    2.637832
  29.796943,    2.653705
  29.805867,    2.669896
  29.814761,    2.686054
  29.823756,    2.702417
  29.832661,    2.718640
  29.841622,    2.734984
  29.850626,    2.751430
  29.859562,    2.767773
  29.868483,    2.784110
  29.877550,    2.800735
  29.886628,    2.817402
  29.895718,    2.834113
  29.904815,    2.850860
  29.913935,    2.867670
  29.922969,    2.884344
  29.932058,    2.901139
  29.941289,    2.918219
  29.950354,    2.935014
  29.959575,    2.952121
  29.968842,    2.969334
  29.978064,    2.986484
  29.987332,    3.003744
  29.996534,    3.020901
  30.005829,    3.038255
  30.015158,    3.055692
  30.024481,    3.073142
  30.033766,    3.090541
  30.043057,    3.107973
  30.052511,    3.125732
  30.061830,    3.143262
  30.071169,    3.160849
  30.080486,    3.178416
  30.089971,    3.196323
  30.099386,    3.214118
  30.108779,    3.231894
  30.118183,    3.249712
  30.127607,    3.267590
  30.137065,    3.285553
  30.146582,    3.303651
  30.156166,    3.321896
  30.165685,    3.340041
  30.175273,    3.358340
  30.184821,    3.376582
  30.194414,    3.394932
  30.203936,    3.413169
  30.213503,    3.431512
  30.223194,    3.450115
  30.232878,    3.468726
  30.242505,    3.487249
  30.252127,    3.505785
  30.261727,    3.524298
  30.271437,    3.543045
  30.281296,    3.562102
  30.291000,    3.580882
  30.300751,    3.599772
  30.310426,    3.618536
  30.320194,    3.637504
  30.329922,    3.656412
  30.339688,    3.675416
  30.349477,    3.694488
  30.359241,    3.713529
  30.369245,    3.733063
  30.379041,    3.752210
  30.388895,    3.771492
  30.398844,    3.790981
  30.408686,    3.810281
  30.418545,    3.829636
  30.428450,    3.849100
  30.438407,    3.868689
  30.448271,    3.888115
  30.458184,    3.907659
  30.468130,    3.927289
  30.478101,    3.946987
  30.488134,    3.966830
  30.498069,    3.986497
  30.508073,    4.006323
  30.518168,    4.026350
  30.528128,    4.046130
  30.538111,    4.065974
  30.548163,    4.085977
  30.558249,    4.106067
  30.568362,    4.126231
  30.578444,    4.146356
  30.588564,    4.166574
  30.598717,    4.186879
  30.609006,    4.207477
  30.619202,    4.227907
  30.629383,    4.248330
  30.639417,    4.268475
  30.649534,    4.288808
  30.659765,    4.309389
  30.670121,    4.330242
  30.680221,    4.350598
  30.690368,    4.371070
  30.700629,    4.391790
  30.710796,    4.412339
  30.721100,    4.433185
  30.731393,    4.454028
  30.741638,    4.474793
  30.751945,    4.495704
  30.762202,    4.516531
  30.772558,    4.537579
  30.782886,    4.558587
  30.793173,    4.579534
  30.803498,    4.600575
  30.813836,    4.621661
  30.824110,    4.642636
  30.834435,    4.663731
  30.844868,    4.685068
  30.855275,    4.706370
  30.865729,    4.727786
  30.876110,    4.749072
  30.886487,    4.770365
  30.897020,    4.792000
  30.907490,    4.813522
  30.917966,    4.835074
  30.928450,    4.856661
  30.939008,    4.878419
  30.949500,    4.900058
  30.959966,    4.921663
  30.970416,    4.943250
  30.980897,    4.964919
  30.991428,    4.986710
  31.001984,    5.008569
  31.012555,    5.030477
  31.023231,    5.052619
  31.033805,    5.074567
  31.044378,    5.096532
  31.054893,    5.118392
  31.065512,    5.140484
  31.076056,    5.162437
  31.086750,    5.184721
  31.097362,    5.206849
  31.107965,    5.228976
  31.118620,    5.251228
  31.129266,    5.273476
  31.139858,    5.295627
  31.150587,    5.318082
  31.161312,    5.340545
  31.171962,    5.362868
  31.182692,    5.385373
  31.193348,    5.407737
  31.204016,    5.430143
  31.214716,    5.452633
  31.225415,    5.475137
  31.236126,    5.497679
  31.246958,    5.520492
  31.257734,    5.543204
  31.268533,    5.565977
  31.279260,    5.588616
  31.289972,    5.611236
  31.300751,    5.634014
  31.311467,    5.656672
  31.322177,    5.679331
  31.333002,    5.702250
  31.343847,    5.725223
  31.354776,    5.748391
  31.365729,    5.771623
  31.376603,    5.794702
  31.387475,    5.817791
  31.398427,    5.841066
  31.409401,    5.864398
  31.420199,    5.887371
  31.431072,    5.910519
  31.441751,    5.933266
  31.452620,    5.956430
  31.463522,    5.979679
  31.474506,    6.003114
  31.485323,    6.026206
  31.496246,    6.049538
  31.507285,    6.073131
  31.518247,    6.096572
  31.524268,    6.109452
