Time, Angles
   0.000100,    0.000000
   0.000739,    0.000000
   0.003192,    0.000000
   0.010823,    0.000000
   0.024250,    0.000000
   0.044979,    0.000000
   0.074596,    0.000000
   0.104330,    0.000000
   0.134065,    0.000000
   0.163869,    0.000000
   0.193707,    0.000000
   0.223662,    0.000000
   0.253643,    0.000000
   0.283578,    0.000000
   0.313608,    0.000000
   0.343852,    0.000000
   0.374432,    0.000000
   0.404940,    0.000000
   0.435592,    0.000000
   0.466691,    0.000000
   0.497414,    0.000000
   0.529078,    0.000000
   0.560516,    0.000000
   0.592142,    0.000000
   0.624137,    0.000000
   0.655967,    0.000000
   0.688174,    0.000000
   0.720414,    0.000000
   0.753287,    0.000000
   0.786414,    0.000000
   0.819995,    0.000000
   0.853135,    0.000000
   0.886634,    0.000000
   0.920841,    0.000000
   0.954798,    0.000000
   0.989673,    0.000000
   1.024534,    0.000000
   1.059484,    0.000000
   1.094625,    0.000000
   1.130411,    0.000000
   1.165938,    0.000000
   1.201923,    0.000000
   1.238205,    0.000000
   1.275068,    0.000000
   1.311728,    0.000000
   1.348703,    0.000000
   1.386149,    0.000000
   1.424187,    0.000000
   1.461956,    0.000000
   1.500069,    0.000000
   1.538712,    0.000000
   1.577467,    0.000000
   1.616273,    0.000000
   1.655379,    0.000000
   1.694971,    0.000000
   1.734403,    0.000000
   1.774730,    0.000000
   1.815592,    0.000000
   1.856419,    0.000000
   1.897659,    0.000000
   1.939041,    0.000000
   1.980834,    0.000000
   2.022645,    0.000000
   2.064926,    0.000000
   2.106899,    0.000000
   2.149625,    0.000000
   2.193047,    0.000000
   2.236232,    0.000000
   2.279402,    0.000000
   2.322643,    0.000000
   2.366789,    0.000000
   2.411165,    0.000000
   2.456015,    0.000000
   2.501098,    0.000000
   2.546355,    0.000000
   2.591792,    0.000000
   2.637439,    0.000000
   2.684018,    0.000000
   2.730133,    0.000000
   2.776082,    0.000000
   2.823102,    0.000000
   2.870268,    0.000000
   2.917732,    0.000000
   2.965183,    0.000000
   3.013174,    0.000000
   3.061135,    0.000000
   3.109731,    0.000000
   3.158504,    0.000000
   3.207347,    0.000000
   3.256583,    0.000000
   3.305757,    0.000000
   3.355815,    0.000000
   3.405625,    0.000000
   3.455790,    0.000000
   3.506213,    0.000000
   3.557356,    0.000000
   3.608053,    0.000000
   3.659440,    0.000000
   3.711312,    0.000000
   3.762869,    0.000000
   3.814583,    0.000000
   3.867039,    0.000000
   3.919497,    0.000000
   3.972588,    0.000000
   4.025604,    0.000000
   4.078972,    0.000000
   4.132362,    0.000000
   4.185896,    0.000000
   4.239578,    0.000000
   4.293863,    0.000000
   4.348175,    0.000000
   4.402931,    0.000000
   4.457796,    0.000000
   4.468696,    0.000000
   4.496557,    0.000000
   4.508012,    0.000000
   4.509220,    0.000000
   4.510310,    0.000000
   4.510506,    0.000000
   4.510756,    0.000000
   4.510834,    0.000000
   4.510865,    0.000000
   4.510923,    0.000000
   4.510975,    0.000000
   4.511391,    0.000000
   4.514157,    0.000000
   4.524471,    0.000000
   4.555916,    0.000000
   4.605748,    0.000000
   4.656405,    0.000000
   4.707250,    0.000000
   4.758623,    0.000000
   4.809774,    0.000000
   4.861251,    0.000000
   4.913371,    0.000000
   4.965261,    0.000000
   5.017644,    0.000000
   5.069824,    0.000000
   5.122355,    0.000000
   5.175074,    0.000000
   5.228246,    0.000000
   5.281518,    0.000000
   5.335039,    0.000000
   5.388215,    0.000000
   5.441821,    0.000000
   5.495693,    0.000000
   5.549678,    0.000000
   5.603959,    0.000000
   5.658515,    0.000000
   5.713207,    0.000000
   5.768044,    0.000000
   5.823043,    0.000000
   5.878092,    0.000000
   5.933668,    0.000000
   5.989215,    0.000000
   6.045085,    0.000000
   6.101050,    0.000000
   6.156999,    0.000000
   6.213502,    0.000000
   6.269654,    0.000000
   6.325922,    0.000000
   6.383068,    0.000000
   6.439848,    0.000000
   6.496596,    0.000000
   6.553449,    0.000000
   6.611126,    0.000000
   6.668936,    0.000000
   6.726692,    0.000000
   6.784484,    0.000000
   6.842519,    0.000000
   6.900806,    0.000000
   6.959133,    0.000000
   7.017999,    0.000000
   7.076878,    0.000000
   7.135810,    0.000000
   7.195003,    0.000000
   7.254191,    0.000000
   7.313764,    0.000000
   7.373505,    0.000000
   7.433077,    0.000000
   7.493001,    0.000000
   7.553127,    0.000000
   7.613492,    0.000000
   7.673910,    0.000000
   7.734608,    0.000000
   7.795320,    0.000000
   7.856409,    0.000000
   7.917519,    0.000000
   7.978831,    0.000000
   8.040451,    0.000000
   8.101960,    0.000000
   8.163769,    0.000000
   8.225548,    0.000000
   8.287654,    0.000000
   8.349751,    0.000000
   8.411896,    0.000000
   8.474337,    0.000000
   8.537248,    0.000000
   8.600186,    0.000000
   8.663153,    0.000000
   8.726096,    0.000000
   8.789266,    0.000000
   8.852834,    0.000000
   8.916386,    0.000000
   8.980208,    0.000000
   9.044045,    0.000000
   9.108006,    0.000000
   9.172268,    0.000000
   9.236911,    0.000000
   9.249870,    0.000000
   9.265511,    0.000000
   9.277010,    0.000000
   9.278818,    0.000000
   9.280724,    0.000000
   9.282348,    0.000000
   9.282704,    0.000000
   9.283137,    0.000000
   9.283653,    0.000000
   9.283774,    0.000000
   9.283782,    0.000000
   9.283790,    0.000000
   9.283864,    0.000000
   9.284509,    0.000000
   9.288256,    0.000000
   9.307371,    0.000000
   9.363057,    0.000000
   9.422298,    0.000000
   9.481505,    0.000000
   9.540633,    0.000000
   9.600077,    0.000000
   9.659647,    0.000000
   9.719624,    0.000000
   9.779516,    0.000000
   9.839362,    0.000000
   9.899473,    0.000000
   9.959487,    0.000000
  10.019705,    0.000000
  10.080113,    0.000000
  10.140655,    0.000000
  10.201390,    0.000000
  10.262201,    0.000000
  10.323268,    0.000000
  10.384243,    0.000000
  10.445349,    0.000000
  10.506763,    0.000000
  10.568376,    0.000000
  10.629953,    0.000000
  10.691696,    0.000000
  10.753431,    0.000000
  10.815267,    0.000000
  10.877362,    0.000000
  10.939382,    0.000000
  11.001731,    0.000000
  11.064139,    0.000000
  11.126811,    0.000000
  11.189399,    0.000000
  11.252238,    0.000000
  11.315359,    0.000000
  11.378302,    0.000000
  11.441609,    0.000000
  11.504788,    0.000000
  11.568209,    0.000000
  11.631504,    0.000000
  11.695111,    0.000000
  11.758820,    0.000000
  11.822557,    0.000000
  11.886602,    0.000000
  11.950778,    0.000000
  12.014773,    0.000000
  12.079125,    0.000000
  12.143633,    0.000000
  12.208314,    0.000000
  12.272901,    0.000000
  12.337696,    0.000000
  12.402519,    0.000000
  12.467787,    0.000000
  12.533070,    0.000000
  12.598294,    0.000000
  12.663551,    0.000000
  12.728981,    0.000000
  12.794388,    0.000000
  12.860095,    0.000000
  12.925961,    0.000000
  12.991897,    0.000000
  13.058068,    0.000000
  13.124488,    0.000000
  13.190474,    0.000000
  13.256712,    0.000000
  13.323212,    0.000000
  13.389439,    0.000000
  13.456111,    0.000000
  13.522940,    0.000000
  13.589825,    0.000000
  13.656840,    0.000000
  13.723915,    0.000000
  13.791368,    0.000000
  13.858631,    0.000000
  13.926211,    0.000000
  13.993640,    0.000000
  14.061210,    0.000000
  14.129172,    0.000000
  14.196735,    0.000000
  14.264687,    0.000000
  14.332756,    0.000000
  14.401015,    0.000000
  14.469410,    0.000000
  14.472152,    0.000000
  14.474755,    0.000000
  14.477556,    0.000000
  14.478069,    0.000000
  14.478653,    0.000000
  14.478839,    0.000000
  14.479116,    0.000000
  14.479256,    0.000000
  14.479313,    0.000000
  14.479333,    0.000000
  14.479343,    0.000000
  14.479359,    0.000000
  14.479373,    0.000000
  14.479520,    0.000000
  14.480843,    0.000000
  14.487932,    0.000000
  14.516597,    0.000000
  14.578121,    0.000000
  14.639312,    0.000000
  14.700765,    0.000000
  14.762494,    0.000000
  14.824222,    0.000000
  14.885858,    0.000000
  14.947570,    0.000000
  15.009573,    0.000000
  15.071507,    0.000000
  15.133456,    0.000000
  15.195598,    0.000000
  15.257749,    0.000000
  15.320171,    0.000000
  15.382701,    0.000000
  15.445211,    0.000000
  15.507791,    0.000000
  15.570479,    0.000000
  15.633369,    0.000000
  15.696463,    0.000000
  15.759475,    0.000000
  15.822432,    0.000000
  15.885562,    0.000000
  15.948654,    0.000000
  16.012014,    0.000000
  16.075440,    0.000000
  16.138817,    0.000000
  16.202289,    0.000000
  16.265978,    0.000000
  16.329778,    0.000000
  16.393513,    0.000000
  16.457513,    0.000000
  16.521607,    0.000000
  16.585775,    0.000000
  16.650009,    0.000000
  16.714333,    0.000000
  16.778693,    0.000000
  16.843218,    0.000000
  16.907712,    0.000000
  16.972429,    0.000000
  17.037082,    0.000000
  17.101812,    0.000000
  17.166835,    0.000000
  17.231997,    0.000000
  17.297105,    0.000000
  17.362169,    0.000000
  17.427373,    0.000000
  17.492619,    0.000000
  17.557983,    0.000000
  17.623576,    0.000000
  17.689245,    0.000000
  17.754891,    0.000000
  17.820694,    0.000000
  17.886553,    0.000000
  17.952506,    0.000000
  18.018581,    0.000000
  18.084705,    0.000000
  18.151062,    0.000000
  18.217245,    0.000000
  18.283555,    0.000000
  18.349984,    0.000000
  18.416614,    0.000000
  18.483392,    0.000000
  18.550324,    0.000000
  18.617287,    0.000000
  18.684148,    0.000000
  18.751244,    0.000000
  18.818336,    0.000000
  18.885524,    0.000000
  18.952729,    0.000000
  19.020056,    0.000000
  19.087540,    0.000000
  19.155050,    0.000000
  19.222587,    0.000000
  19.290356,    0.000000
  19.358093,    0.000000
  19.425921,    0.000000
  19.493812,    0.000000
  19.561860,    0.000000
  19.629932,    0.000000
  19.698168,    0.000000
  19.766496,    0.000000
  19.834876,    0.000000
  19.903302,    0.000000
  19.971820,    0.000000
  20.040470,    0.000000
  20.109302,    0.000000
  20.178113,    0.000000
  20.246961,    0.000000
  20.315764,    0.000000
  20.329607,    0.000000
  20.378716,    0.000000
  20.379269,    0.000000
  20.380151,    0.000000
  20.380294,    0.000000
  20.380382,    0.000000
  20.380417,    0.000000
  20.380452,    0.000000
  20.380801,    0.000000
  20.384003,    0.000000
  20.399918,    0.000000
  20.460659,    0.000000
  20.529468,    0.000000
  20.598515,    0.000000
  20.667406,    0.000000
  20.736640,    0.000000
  20.805793,    0.000000
  20.875130,    0.000000
  20.944509,    0.000000
  21.014028,    0.000000
  21.083573,    0.000000
  21.153259,    0.000000
  21.222942,    0.000000
  21.292877,    0.000000
  21.362872,    0.000000
  21.432864,    0.000000
  21.502998,    0.000000
  21.573212,    0.000000
  21.643393,    0.000000
  21.713690,    0.000000
  21.784048,    0.000000
  21.854552,    0.000000
  21.925141,    0.000000
  21.995868,    0.000000
  22.066473,    0.000000
  22.137251,    0.000000
  22.208077,    0.000000
  22.279047,    0.000000
  22.349989,    0.000000
  22.421073,    0.000000
  22.492261,    0.000000
  22.563536,    0.000000
  22.634903,    0.000000
  22.706269,    0.000000
  22.777783,    0.000000
  22.849410,    0.000000
  22.921139,    0.000000
  22.992914,    0.000000
  23.064842,    0.000000
  23.136757,    0.000000
  23.208783,    0.000000
  23.280891,    0.000000
  23.352968,    0.000000
  23.425355,    0.000000
  23.497683,    0.000000
  23.570041,    0.000000
  23.642485,    0.000000
  23.715007,    0.000000
  23.787591,    0.000000
  23.860399,    0.000000
  23.933266,    0.000000
  24.006153,    0.000000
  24.079121,    0.000000
  24.152098,    0.000000
  24.225333,    0.000000
  24.298444,    0.000000
  24.371753,    0.000000
  24.445105,    0.000000
  24.518631,    0.000000
  24.592077,    0.000000
  24.665704,    0.000000
  24.739413,    0.000000
  24.813266,    0.000000
  24.887275,    0.000000
  24.961232,    0.000000
  25.035253,    0.000000
  25.109496,    0.000000
  25.183619,    0.000000
  25.257915,    0.000000
  25.332409,    0.000000
  25.406849,    0.000000
  25.481378,    0.000000
  25.556013,    0.000000
  25.630621,    0.000000
  25.705344,    0.000000
  25.780175,    0.000000
  25.855083,    0.000000
  25.930100,    0.000000
  26.005213,    0.000000
  26.080313,    0.000000
  26.155560,    0.000000
  26.230803,    0.000000
  26.306198,    0.000000
  26.381754,    0.000000
  26.441786,    0.000000
  26.457361,    0.000000
  26.533023,    0.046726
  26.608785,    0.273286
  26.684568,    0.498089
  26.760377,    0.720909
  26.836405,    0.941777
  26.912328,    1.161269
  26.988387,    1.378459
  27.064596,    1.594054
  27.140675,    1.808103
  27.216868,    2.019832
  27.293195,    2.229945
  27.369674,    2.438501
  27.384960,    2.645558
  27.399588,    2.686565
  27.411806,    2.725731
  27.412193,    2.758391
  27.412210,    2.759423
  27.412227,    2.759468
  27.412394,    2.759513
  27.413805,    2.759958
  27.422600,    2.763724
  27.456725,    2.787192
  27.534498,    2.878153
  27.613696,    3.084613
  27.692963,    3.292890
  27.772229,    3.499369
  27.851585,    3.703883
  27.930891,    3.906678
  28.010203,    4.107418
  28.089467,    4.306262
  28.168885,    4.503095
  28.248265,    4.698434
  28.327715,    4.891817
  28.407204,    5.083529
  28.486787,    5.273505
  28.566394,    5.461892
  28.646011,    5.648538
  28.725560,    5.833422
  28.805032,    6.016385
  28.884658,    6.197424
  28.964182,    6.377085
  29.043774,    6.554801
  29.123383,    6.730972
  29.202976,    6.905498
  29.282694,    7.078320
  29.362325,    7.249762
  29.368358,    7.422417
  29.374384,    7.438234
  29.380396,    7.454077
  29.386433,    7.469950
  29.392467,    7.485923
  29.398498,    7.501935
  29.404560,    7.518006
  29.410618,    7.534187
  29.416653,    7.550392
  29.422726,    7.566622
  29.428775,    7.582963
  29.434848,    7.599316
  29.440899,    7.615755
  29.446967,    7.632204
  29.453055,    7.648750
  29.459151,    7.665390
  29.465236,    7.682087
  29.471347,    7.698827
  29.477438,    7.715656
  29.483551,    7.732506
  29.489675,    7.749459
  29.495808,    7.766489
  29.501946,    7.783588
  29.508042,    7.800718
  29.514092,    7.817774
  29.520243,    7.834856
  29.526372,    7.852180
  29.532514,    7.869516
  29.538674,    7.886941
  29.544823,    7.904442
  29.551000,    7.921991
  29.557175,    7.939647
  29.563341,    7.957340
  29.569540,    7.975089
  29.575698,    7.992921
  29.581902,    8.010757
  29.588119,    8.028747
  29.594314,    8.046794
  29.600501,    8.064837
  29.606672,    8.082898
  29.612839,    8.100973
  29.619083,    8.119156
  29.625325,    8.137544
  29.631577,    8.155985
  29.637822,    8.174491
  29.644053,    8.193019
  29.650331,    8.211612
  29.656611,    8.230353
  29.662902,    8.249158
  29.669197,    8.268040
  29.675453,    8.286941
  29.681735,    8.305838
  29.688045,    8.324864
  29.694375,    8.344019
  29.700699,    8.363257
  29.707027,    8.382540
  29.713335,    8.401859
  29.719670,    8.421216
  29.726007,    8.440678
  29.732384,    8.460239
  29.738736,    8.479905
  29.745096,    8.499579
  29.751469,    8.519334
  29.757842,    8.539166
  29.764253,    8.559090
  29.770662,    8.579141
  29.777036,    8.599198
  29.783427,    8.619256
  29.789875,    8.639463
  29.796300,    8.659812
  29.802724,    8.680163
  29.809207,    8.700631
  29.815632,    8.721203
  29.822129,    8.741796
  29.828647,    8.762610
  29.835080,    8.783415
  29.841555,    8.804153
  29.848039,    8.825037
  29.854534,    8.846005
  29.860974,    8.866978
  29.867491,    8.875137
  29.874030,    8.883339
  29.880620,    8.891622
  29.887192,    8.899897
  29.893753,    8.908175
  29.900258,    8.916398
  29.906862,    8.924761
  29.913428,    8.933094
  29.920033,    8.941491
  29.926595,    8.949850
  29.933218,    8.958303
  29.939842,    8.966772
  29.946483,    8.975280
  29.953099,    8.983771
  29.959722,    8.992288
  29.966373,    9.000857
  29.973044,    9.009468
  29.979673,    9.018041
  29.986351,    9.026692
  29.993073,    9.035418
  29.999802,    9.044169
  30.006476,    9.052865
  30.013168,    9.061600
  30.019879,    9.070376
  30.026624,    9.079212
  30.033365,    9.088061
  30.040065,    9.096871
  30.046817,    9.105767
  30.053591,    9.114707
  30.060309,    9.123590
  30.067074,    9.132551
  30.073874,    9.141574
  30.080652,    9.150586
  30.087489,    9.159693
  30.094279,    9.168752
  30.101128,    9.177907
  30.107965,    9.187063
  30.114803,    9.196236
  30.121666,    9.205459
  30.128522,    9.214690
  30.135393,    9.223957
  30.142262,    9.233239
  30.149131,    9.242536
  30.156032,    9.251895
  30.162974,    9.261324
  30.169862,    9.270697
  30.176823,    9.280187
  30.183773,    9.289677
  30.190744,    9.299214
  30.197712,    9.308764
  30.204699,    9.318355
  30.211678,    9.327953
  30.218723,    9.337659
  30.225730,    9.347329
  30.232697,    9.356961
  30.239727,    9.366697
  30.246794,    9.376501
  30.253882,    9.386351
  30.260895,    9.396114
  30.267996,    9.406016
  30.275064,    9.415890
  30.282188,    9.425858
  30.289317,    9.435851
  30.296447,    9.445863
  30.303588,    9.455906
  30.310756,    9.466006
  30.317932,    9.476134
  30.325099,    9.486266
  30.332215,    9.496343
  30.339382,    9.506510
  30.346591,    9.516753
  30.353825,    9.527049
  30.360974,    9.537241
  30.361066,    9.537373
  30.368312,    9.547665
  30.375571,    9.553685
  30.382781,    9.559626
  30.390083,    9.565726
  30.397403,    9.571799
  30.404688,    9.577809
  30.411975,    9.583844
  30.419312,    9.589947
  30.426686,    9.596074
  30.434079,    9.602206
  30.441441,    9.608280
  30.448839,    9.614425
  30.456264,    9.620585
  30.463680,    9.626717
  30.471081,    9.632831
  30.478507,    9.638990
  30.485943,    9.645147
  30.493416,    9.651351
  30.500934,    9.657595
  30.508424,    9.663773
  30.515917,    9.669970
  30.523409,    9.676163
  30.530957,    9.682435
  30.538460,    9.688609
  30.545990,    9.694848
  30.553474,    9.701003
  30.561019,    9.707272
  30.568570,    9.713512
  30.576142,    9.719777
  30.583680,    9.725980
  30.591291,    9.732306
  30.598908,    9.738596
  30.606556,    9.744925
  30.614239,    9.751283
  30.621920,    9.757617
  30.629618,    9.763974
  30.637313,    9.770316
  30.645050,    9.776717
  30.652786,    9.783091
  30.660539,    9.789487
  30.668275,    9.795848
  30.676049,    9.802270
  30.683813,    9.808655
  30.691626,    9.815112
  30.699427,    9.821523
  30.707265,    9.827991
  30.715022,    9.834318
  30.722910,    9.840879
  30.730807,    9.847373
  30.738705,    9.853860
  30.746623,    9.860373
  30.754479,    9.866783
  30.762367,    9.873274
  30.770298,    9.879805
  30.778207,    9.886276
  30.786191,    9.892864
  30.794122,    9.899330
  30.802068,    9.905846
  30.810082,    9.912447
  30.818119,    9.919038
  30.826187,    9.925655
  30.834239,    9.932230
  30.842311,    9.938838
  30.850421,    9.945486
  30.858420,    9.951952
  30.866533,    9.958642
  30.874669,    9.965293
  30.882749,    9.971848
  30.890913,    9.978552
  30.899063,    9.985184
  30.907179,    9.991773
  30.915404,    9.998532
  30.923684,   10.005300
  30.931922,   10.011974
  30.940150,   10.018654
  30.948413,   10.025387
  30.956690,   10.032114
  30.964962,   10.038823
  30.973220,   10.045510
  30.981532,   10.052279
  30.989902,   10.059093
  30.998267,   10.065862
  31.006657,   10.072665
  31.015014,   10.079403
  31.023424,   10.086230
  31.031878,   10.093084
  31.040306,   10.099870
  31.048788,   10.106745
  31.057274,   10.113587
  31.065700,   10.120338
  31.074183,   10.127202
  31.082725,   10.134108
  31.091261,   10.140968
  31.099718,   10.147715
  31.108174,   10.154502
  31.116715,   10.161406
  31.125369,   10.168411
  31.133922,   10.175204
  31.142606,   10.182233
  31.151232,   10.189100
  31.159840,   10.195970
  31.168544,   10.202979
  31.177216,   10.209882
  31.185898,   10.216813
  31.194640,   10.223815
  31.203309,   10.230674
  31.212040,   10.237659
  31.220743,   10.244560
  31.229413,   10.251427
  31.238170,   10.258429
  31.246933,   10.265383
  31.255702,   10.272334
  31.264558,   10.279397
  31.273418,   10.286408
  31.282213,   10.293320
  31.291050,   10.300322
  31.299934,   10.307359
  31.308796,   10.314329
  31.317707,   10.321376
  31.326610,   10.328375
  31.335590,   10.335478
  31.344561,   10.342518
  31.353557,   10.349588
  31.362500,   10.356566
  31.371496,   10.363641
  31.380519,   10.370714
  31.389498,   10.377703
  31.398542,   10.384801
  31.407577,   10.391841
  31.416721,   10.399028
  31.425884,   10.406169
  31.435027,   10.413265
  31.444134,   10.420314
  31.453267,   10.427412
  31.462348,   10.434417
  31.471486,   10.441522
  31.480615,   10.448574
  31.489798,   10.455698
  31.499062,   10.462891
  31.508369,   10.470086
  31.517668,   10.477238
  31.526998,   10.484427
  31.536359,   10.491631
  31.545701,   10.498784
  31.555050,   10.505945
  31.564416,   10.513121
  31.573783,   10.520276
  31.583144,   10.527414
  31.592564,   10.534627
  31.601992,   10.541807
  31.611391,   10.548933
  31.620829,   10.556120
  31.630330,   10.563359
  31.639799,   10.570509
  31.649334,   10.577756
  31.658849,   10.584927
  31.668359,   10.592095
  31.677902,   10.599299
  31.687461,   10.606495
  31.697096,   10.613775
  31.706731,   10.620998
  31.716389,   10.628241
  31.726100,   10.635533
  31.735760,   10.642713
  31.745374,   10.649851
  31.755067,   10.657112
  31.764710,   10.664247
  31.774473,   10.671563
  31.784162,   10.678696
  31.793952,   10.685998
  31.803672,   10.693135
  31.813466,   10.700401
  31.823285,   10.707645
  31.833071,   10.714816
  31.842923,   10.722086
  31.852806,   10.729345
  31.862595,   10.736447
  31.872485,   10.743729
  31.882357,   10.750915
  31.892202,   10.758063
  31.902184,   10.765397
  31.912051,   10.772482
  31.921924,   10.779634
  31.931970,   10.786998
  31.941918,   10.794115
  31.951938,   10.801374
  31.962034,   10.808676
  31.972060,   10.815828
  31.982038,   10.822944
  31.992170,   10.830280
  32.002316,   10.837527
  32.012541,   10.844856
  32.022611,   10.851920
  32.032719,   10.859114
  32.042838,   10.866284
  32.053052,   10.873560
  32.063199,   10.880675
  32.073439,   10.887938
  32.083668,   10.895116
  32.093967,   10.902377
  32.104151,   10.909432
  32.114414,   10.916645
  32.124783,   10.923933
  32.135085,   10.931054
  32.145433,   10.938260
  32.155689,   10.945303
  32.166132,   10.952630
  32.176424,   10.959632
  32.186927,   10.966981
  32.197272,   10.973985
  32.207763,   10.981256
  32.218327,   10.988516
  32.228752,   10.995537
  32.239194,   11.002647
  32.249721,   11.009840
  32.260205,   11.016910
  32.270729,   11.024040
  32.281188,   11.031046
  32.291726,   11.038176
  32.302296,   11.045280
  32.312892,   11.052383
  32.323675,   11.059688
  32.334354,   11.066733
  32.345069,   11.073866
  32.355780,   11.080956
  32.366429,   11.087951
  32.377022,   11.094895
  32.387797,   11.102084
  32.398477,   11.109025
  32.409190,   11.116047
  32.419818,   11.122923
  32.430596,   11.130021
  32.441407,   11.137050
  32.452251,   11.144081
  32.463012,   11.150970
  32.473831,   11.157961
  32.484676,   11.164932
  32.495634,   11.172006
  32.506522,   11.178907
  32.517614,   11.186082
  32.528492,   11.192849
  32.539470,   11.199847
  32.550354,   11.206650
  32.561282,   11.213543
  32.572246,   11.220433
  32.583234,   11.227311
  32.594316,   11.234268
  32.605237,   11.240949
  32.616342,   11.247933
  32.627388,   11.254712
  32.638576,   11.261678
  32.649688,   11.268443
  32.660770,   11.275197
  32.671936,   11.282049
  32.683117,   11.288846
  32.694334,   11.295655
  32.705621,   11.302502
  32.716847,   11.309213
  32.727993,   11.315842
  32.739338,   11.322734
  32.750511,   11.329276
  32.761652,   11.335862
  32.772812,   11.342468
  32.784125,   11.349219
  32.795310,   11.355704
  32.806623,   11.362393
  32.818049,   11.369117
  32.829537,   11.375821
  32.841005,   11.382438
  32.852540,   11.389123
  32.864044,   11.395705
  32.875414,   11.402125
  32.886855,   11.408682
  32.898356,   11.415241
  32.909888,   11.421776
  32.921505,   11.428366
  32.933004,   11.434741
  32.944545,   11.441210
  32.955989,   11.447515
  32.967598,   11.454043
  32.979147,   11.460377
  32.990802,   11.466843
  33.002506,   11.473274
  33.014197,   11.479635
  33.025928,   11.486020
  33.037639,   11.492333
  33.049324,   11.498599
  33.061152,   11.505017
  33.073047,   11.511396
  33.084737,   11.517474
  33.096359,   11.523572
  33.108231,   11.529962
  33.120024,   11.536088
  33.131769,   11.542177
  33.143610,   11.548374
  33.155564,   11.554611
  33.167419,   11.560640
  33.179275,   11.566701
  33.191337,   11.572959
  33.203256,   11.578906
  33.215210,   11.584948
  33.227077,   11.590841
  33.239037,   11.596861
  33.251005,   11.602803
  33.263009,   11.608748
  33.275081,   11.614717
  33.279532,   11.612315
