Time, Climb Angle
   0.000000,    0.000000
   0.001667,    0.000000
   0.003333,    0.000000
   0.005000,    0.000000
   0.006667,    0.000000
   0.008333,    0.000000
   0.010000,    0.000000
   0.011667,    0.000000
   0.013333,    0.000000
   0.015000,    0.000000
   0.016667,    0.000000
   0.018333,    0.000000
   0.020000,    0.000000
   0.021667,    0.000000
   0.023333,    0.000000
   0.025000,    0.000000
   0.026667,    0.000000
   0.028333,    0.000000
   0.030000,    0.000000
   0.031667,    0.000000
   0.033333,    0.000000
   0.035000,    0.000000
   0.036667,    0.000000
   0.038333,    0.000000
   0.040000,    0.000000
   0.041667,    0.000000
   0.043333,    0.000000
   0.045000,    0.000000
   0.046667,    0.000000
   0.048333,    0.000000
   0.050000,    0.000000
   0.051667,    0.000000
   0.053333,    0.000000
   0.055000,    0.000000
   0.056667,    0.000000
   0.058333,    0.000000
   0.060000,    0.000000
   0.061667,    0.000000
   0.063333,    0.000000
   0.065000,    0.000000
   0.066667,    0.000000
   0.068333,    0.000000
   0.070000,    0.000000
   0.071667,    0.000000
   0.073333,    0.000000
   0.075000,    0.000000
   0.076667,    0.000000
   0.078333,    0.000000
   0.080000,    0.000000
   0.081667,    0.000000
   0.083333,    0.000000
   0.085000,    0.000000
   0.086667,    0.000000
   0.088333,    0.000000
   0.090000,    0.000000
   0.091667,    0.000000
   0.093333,    0.000000
   0.095000,    0.000000
   0.096667,    0.000000
   0.098333,    0.000000
   0.100000,    0.000000
   0.101667,    0.000000
   0.103333,    0.000000
   0.105000,    0.000000
   0.106667,    0.000000
   0.108333,    0.000000
   0.110000,    0.000000
   0.111667,    0.000000
   0.113333,    0.000000
   0.115000,    0.000000
   0.116667,    0.000000
   0.118333,    0.000000
   0.120000,    0.000000
   0.121667,    0.000000
   0.123333,    0.000000
   0.125000,    0.000000
   0.126667,    0.000000
   0.128333,    0.000000
   0.130000,    0.000000
   0.131667,    0.000000
   0.133333,    0.000000
   0.135000,    0.000000
   0.136667,    0.000000
   0.138333,    0.000000
   0.140000,    0.000000
   0.141667,    0.000000
   0.143333,    0.000000
   0.145000,    0.000000
   0.146667,    0.000000
   0.148333,    0.000000
   0.150000,    0.000000
   0.151667,    0.000000
   0.153333,    0.000000
   0.155000,    0.000000
   0.156667,    0.000000
   0.158333,    0.000000
   0.160000,    0.000000
   0.161667,    0.000000
   0.163333,    0.000000
   0.165000,    0.000000
   0.166667,    0.000000
   0.168333,    0.000000
   0.170000,    0.000000
   0.171667,    0.000000
   0.173333,    0.000000
   0.175000,    0.000000
   0.176667,    0.000000
   0.178333,    0.000000
   0.180000,    0.000000
   0.181667,    0.000000
   0.183333,    0.000000
   0.185000,    0.000000
   0.186667,    0.000000
   0.188333,    0.000000
   0.190000,    0.000000
   0.191667,    0.000000
   0.193333,    0.000000
   0.195000,    0.000000
   0.196667,    0.000000
   0.198333,    0.000000
   0.200000,    0.000000
   0.201667,    0.000000
   0.203333,    0.000000
   0.205000,    0.000000
   0.206667,    0.000000
   0.208333,    0.000000
   0.210000,    0.000000
   0.211667,    0.000000
   0.213333,    0.000000
   0.215000,    0.000000
   0.216667,    0.000000
   0.218333,    0.000000
   0.220000,    0.000000
   0.221667,    0.000000
   0.223333,    0.000000
   0.225000,    0.000000
   0.226667,    0.000000
   0.228333,    0.000000
   0.230000,    0.000000
   0.231667,    0.000000
   0.233333,    0.000000
   0.235000,    0.000000
   0.236667,    0.000000
   0.238333,    0.000000
   0.240000,    0.000000
   0.241667,    0.000000
   0.243333,    0.000000
   0.245000,    0.000000
   0.246667,    0.000000
   0.248333,    0.000000
   0.250000,    0.000000
   0.251667,    0.000000
   0.253333,    0.000000
   0.255000,    0.000000
   0.256667,    0.000000
   0.258333,    0.000000
   0.260000,    0.000000
   0.261667,    0.000000
   0.263333,    0.000000
   0.265000,    0.000000
   0.266667,    0.000000
   0.268333,    0.000000
   0.270000,    0.000000
   0.271667,    0.000000
   0.273333,    0.000000
   0.275000,    0.000000
   0.276667,    0.000000
   0.278333,    0.000000
   0.280000,    0.000000
   0.281667,    0.000000
   0.283333,    0.000000
   0.285000,    0.000000
   0.286667,    0.000000
   0.288333,    0.000000
   0.290000,    0.000000
   0.291667,    0.000000
   0.293333,    0.000000
   0.295000,    0.000000
   0.296667,    0.000000
   0.298333,    0.000000
   0.300000,    0.000000
   0.301667,    0.000000
   0.303333,    0.000000
   0.305000,    0.000000
   0.306667,    0.000000
   0.308333,    0.000000
   0.310000,    0.000000
   0.311667,    0.000000
   0.312369,    0.000000
   0.314036,    0.000000
   0.315703,    0.000000
   0.317369,    0.000000
   0.319036,    0.000000
   0.320703,    0.000000
   0.322369,    0.000000
   0.324036,    0.000000
   0.325703,    0.000000
   0.327369,    0.000000
   0.329036,    0.000000
   0.330703,    0.000000
   0.332369,    0.000000
   0.334036,    0.000000
   0.335703,    0.000000
   0.337369,    0.000000
   0.339036,    0.000000
   0.340703,    0.000000
   0.342369,    0.000000
   0.344036,    0.000000
   0.345703,    0.000000
   0.347369,    0.000000
   0.349036,    0.000000
   0.350703,    0.000000
   0.352369,    0.000000
   0.354036,    0.000000
   0.355703,    0.000000
   0.357369,    0.000000
   0.359036,    0.000000
   0.360703,    0.000000
   0.362369,    0.000000
   0.364036,    0.000000
   0.365703,    0.000000
   0.367369,    0.000000
   0.368518,    0.000000
   0.370185,    0.299299
   0.371852,    0.598598
   0.373518,    0.897897
   0.375185,    1.197196
   0.376852,    1.496495
   0.378518,    1.795794
   0.380185,    2.095093
   0.381852,    2.394393
   0.383518,    2.693692
   0.385185,    2.992991
   0.386852,    3.315525
   0.388518,    3.638060
   0.390185,    3.960595
   0.391852,    4.283130
   0.393518,    4.605665
   0.395185,    4.937361
   0.396852,    5.269057
   0.398518,    5.600753
   0.400185,    5.932449
   0.401852,    6.264146
   0.403518,    6.600901
   0.405185,    6.937656
   0.406852,    7.274411
   0.408518,    7.611167
   0.410185,    7.947922
   0.410185,    5.313266
   1.604481,    5.060069
   2.823272,    4.823196
   4.081386,    4.487703
   5.429985,    3.968931
   6.915721,    3.488156
   8.560390,    3.053068
  10.397371,    2.635130
  12.485334,    2.226708
  14.968358,    1.761660
  14.968358,    0.000000
  15.830802,    0.000000
  16.693245,    0.000000
  17.555688,    0.000000
  18.418132,    0.000000
  19.280575,    0.000000
  20.143018,    0.000000
  21.005461,    0.000000
  21.867905,    0.000000
  22.730348,    0.000000
  23.592791,    0.000000
  24.455235,    0.000000
  25.317678,    0.000000
  26.180121,    0.000000
  27.042565,    0.000000
  27.905008,    0.000000
  28.767451,    0.000000
  29.629895,    0.000000
  30.492338,    0.000000
  31.354781,    0.000000
  32.217225,    0.000000
  33.079668,    0.000000
  33.942111,    0.000000
  34.804555,    0.000000
  35.666998,    0.000000
  36.529441,    0.000000
  37.391885,    0.000000
  38.254328,    0.000000
  39.116771,    0.000000
  39.979215,    0.000000
  39.979215,   -2.904213
  41.139143,   -3.017058
  42.301874,   -3.095107
  43.463193,   -3.185595
  44.619342,   -3.288258
  45.768081,   -3.399783
  46.905098,   -3.527418
  48.026307,   -3.672419
  49.143709,   -3.781830
  50.253604,   -3.906357
  50.253604,    5.340452
  50.833005,    5.214190
  51.418049,    5.092230
  52.008556,    4.974753
  52.607292,    4.813782
  53.225054,    4.541833
  53.871173,    4.274544
  54.548638,    4.012276
  55.259779,    3.766603
  56.006440,    3.533407
  56.006440,    0.000000
  57.858634,    0.000000
  59.711637,    0.000000
  61.565449,    0.000000
  63.420072,    0.000000
  65.275506,    0.000000
  67.131752,    0.000000
  68.988810,    0.000000
  70.846682,    0.000000
  72.705368,    0.000000
  72.705368,   -3.310068
  73.351774,   -3.278945
  73.988012,   -3.380699
  74.626788,   -3.416745
  75.268241,   -3.452133
  75.912514,   -3.486845
  76.559398,   -3.522775
  77.208755,   -3.559558
  77.860123,   -3.598997
  78.512585,   -3.643695
  78.512585,    0.000000
  83.512585,    0.000000
  88.512585,    0.000000
  93.512585,    0.000000
  98.512585,    0.000000
 103.512585,    0.000000
 108.512585,    0.000000
 113.512585,    0.000000
 118.512585,    0.000000
 123.512585,    0.000000
 123.512585,   -3.000000
 123.514252,   -2.999911
 123.515918,   -2.999804
 123.517585,   -2.999696
 123.519252,   -2.999421
 123.520918,   -2.999114
 123.522585,   -2.998806
 123.524252,   -2.998498
 123.525918,   -2.998191
 123.527585,   -2.997883
 123.529252,   -2.997576
 123.530918,   -2.997268
 123.532585,   -2.996961
 123.534252,   -2.996653
 123.535918,   -2.996456
 123.537585,   -2.996280
 123.539252,   -2.996104
 123.540918,   -2.995928
 123.542585,   -2.995752
 123.544252,   -2.995576
 123.545918,   -2.995400
 123.547585,   -2.995224
 123.549252,   -2.995048
 123.550918,   -2.994872
 123.552585,   -2.994763
 123.554252,   -2.994667
 123.555918,   -2.994571
 123.557585,   -2.994474
 123.559252,   -2.994378
 123.560918,   -2.994282
 123.562585,   -2.994186
 123.564252,   -2.994089
 123.565918,   -2.993993
 123.567585,   -2.993897
 123.569252,   -2.993528
 123.570918,   -2.993106
 123.572585,   -2.992685
 123.574252,   -2.992263
 123.575918,   -2.991841
 123.577585,   -2.991420
 123.579252,   -2.990998
 123.580918,   -2.990576
 123.582585,   -2.990155
 123.584252,   -2.989733
 123.585918,   -2.989843
 123.587585,   -2.990055
 123.589252,   -2.990268
 123.590918,   -2.990480
 123.592585,   -2.990693
 123.594252,   -2.990905
 123.595918,   -2.991118
 123.597585,   -2.991330
 123.599252,   -2.991543
 123.600918,   -2.991755
 123.602585,   -2.991654
 123.604252,   -2.991493
 123.605918,   -2.991332
 123.607585,   -2.991171
 123.609252,   -2.991010
 123.610918,   -2.990849
 123.612585,   -2.990688
 123.614252,   -2.990527
 123.615918,   -2.990366
 123.617585,   -2.990205
 123.619252,   -2.990182
 123.620918,   -2.990186
 123.622585,   -2.990190
 123.624252,   -2.990194
 123.625918,   -2.990198
 123.627585,   -2.990202
 123.629252,   -2.990206
 123.630918,   -2.990210
 123.632585,   -2.990214
 123.634252,   -2.990219
 123.635918,   -2.990329
 123.637585,   -2.990461
 123.639252,   -2.990593
 123.640918,   -2.990724
 123.642585,   -2.990856
 123.644252,   -2.990987
 123.645918,   -2.991119
 123.647585,   -2.991251
 123.649252,   -2.991382
 123.650918,   -2.991514
 123.652585,   -2.991376
 123.654252,   -2.991186
 123.655918,   -2.990995
 123.657585,   -2.990805
 123.659252,   -2.990615
 123.660918,   -2.990425
 123.662585,   -2.990235
 123.664252,   -2.990045
 123.665918,   -2.989855
 123.667585,   -2.989664
 123.669252,   -2.989555
 123.670918,   -2.989460
 123.672585,   -2.989366
 123.674252,   -2.989272
 123.675918,   -2.989177
 123.677585,   -2.989083
 123.679252,   -2.988989
 123.680918,   -2.988894
 123.682585,   -2.988800
 123.684252,   -2.988706
 123.685918,   -2.988350
 123.687585,   -2.987945
 123.689252,   -2.987540
 123.690918,   -2.987134
 123.692585,   -2.986729
 123.694252,   -2.986323
 123.695918,   -2.985918
 123.697585,   -2.985513
 123.699252,   -2.985107
 123.700918,   -2.984702
 123.702585,   -2.984423
 123.704252,   -2.984168
 123.705918,   -2.983913
 123.707585,   -2.983658
 123.709252,   -2.983403
 123.710918,   -2.983148
 123.712585,   -2.982893
 123.714252,   -2.982639
 123.715918,   -2.982384
 123.717585,   -2.982129
 123.719252,   -2.982047
 123.720918,   -2.981998
 123.722585,   -2.981949
 123.724252,   -2.981900
 123.725918,   -2.981851
 123.727585,   -2.981802
 123.729252,   -2.981753
 123.730918,   -2.981705
 123.732585,   -2.981656
 123.734252,   -2.981607
 123.735918,   -2.981700
 123.737585,   -2.981821
 123.739252,   -2.981942
 123.740918,   -2.982063
 123.742585,   -2.982184
 123.744252,   -2.982305
 123.745918,   -2.982426
 123.747585,   -2.982547
 123.749252,   -2.982668
 123.750918,   -2.982789
 123.752585,   -2.982629
 123.754252,   -2.982415
 123.755918,   -2.982200
 123.757585,   -2.981986
 123.759252,   -2.981772
 123.760918,   -2.981557
 123.762585,   -2.981343
 123.764252,   -2.981128
 123.765918,   -2.980914
 123.767585,   -2.980700
 123.769252,   -2.980658
 123.770918,   -2.980650
 123.772585,   -2.980642
 123.774252,   -2.980634
 123.775918,   -2.980626
 123.777585,   -2.980618
 123.779252,   -2.980610
 123.780918,   -2.980602
 123.782585,   -2.980594
 123.784252,   -2.980586
 123.785918,   -2.980718
 123.787585,   -2.980878
 123.789252,   -2.981037
 123.790918,   -2.981197
 123.792585,   -2.981356
 123.794252,   -2.981516
 123.795918,   -2.981675
 123.797585,   -2.981835
 123.799252,   -2.981994
 123.800918,   -2.982154
 123.802585,   -2.982028
 123.804252,   -2.981847
 123.805918,   -2.981667
 123.807585,   -2.981486
 123.809252,   -2.981305
 123.810918,   -2.981124
 123.812585,   -2.980943
 123.814252,   -2.980763
 123.815918,   -2.980582
 123.817585,   -2.980401
 123.819252,   -2.980388
 123.820918,   -2.980407
 123.822585,   -2.980426
 123.824252,   -2.980445
 123.825918,   -2.980464
 123.827585,   -2.980483
 123.829252,   -2.980502
 123.830918,   -2.980521
 123.832585,   -2.980540
 123.834252,   -2.980559
 123.835918,   -2.980712
 123.837585,   -2.980891
 123.839252,   -2.981070
 123.840918,   -2.981249
 123.842585,   -2.981427
 123.844252,   -2.981606
 123.845918,   -2.981785
 123.847585,   -2.981964
 123.849252,   -2.982143
 123.850918,   -2.982322
 123.852585,   -2.982208
 123.854252,   -2.982037
 123.855918,   -2.981867
 123.857585,   -2.981696
 123.859252,   -2.981525
 123.860918,   -2.981355
 123.862585,   -2.981184
 123.864252,   -2.981014
 123.865918,   -2.980843
 123.867585,   -2.980672
 123.869252,   -2.980662
 123.870918,   -2.980682
 123.872585,   -2.980703
 123.874252,   -2.980723
 123.875918,   -2.980743
 123.877585,   -2.980764
 123.879252,   -2.980784
 123.880918,   -2.980805
 123.882585,   -2.980825
 123.884252,   -2.980845
 123.885918,   -2.980992
 123.887585,   -2.981164
 123.889252,   -2.981336
 123.890918,   -2.981507
 123.892585,   -2.981679
 123.894252,   -2.981851
 123.895918,   -2.982022
 123.897585,   -2.982194
 123.899252,   -2.982365
 123.900918,   -2.982537
 123.902585,   -2.982409
 123.904252,   -2.982223
 123.905918,   -2.982037
 123.907585,   -2.981851
 123.909252,   -2.981664
 123.910918,   -2.981478
 123.912585,   -2.981292
 123.914252,   -2.981106
 123.915918,   -2.980920
 123.917585,   -2.980734
 123.919252,   -2.980703
 123.920918,   -2.980701
 123.922585,   -2.980700
 123.924252,   -2.980699
 123.925918,   -2.980697
 123.927585,   -2.980696
 123.929252,   -2.980694
 123.930918,   -2.980693
 123.932585,   -2.980691
 123.934252,   -2.980690
 123.935918,   -2.980811
 123.937585,   -2.980956
 123.939252,   -2.981101
 123.940918,   -2.981246
 123.942585,   -2.981391
 123.944252,   -2.981536
 123.945918,   -2.981681
 123.947585,   -2.981826
 123.949252,   -2.981971
 123.950918,   -2.982116
 123.952585,   -2.981958
 123.954252,   -2.981742
 123.955918,   -2.981525
 123.957585,   -2.981309
 123.959252,   -2.981093
 123.960918,   -2.980877
 123.962585,   -2.980661
 123.964252,   -2.980445
 123.965918,   -2.980228
 123.967585,   -2.980012
 123.969252,   -2.979950
 123.970918,   -2.979918
 123.972585,   -2.979885
 123.974252,   -2.979853
 123.975918,   -2.979820
 123.977585,   -2.979788
 123.979252,   -2.979755
 123.980918,   -2.979723
 123.982585,   -2.979691
 123.984252,   -2.979658
 123.985918,   -2.979749
 123.987585,   -2.979864
 123.989252,   -2.979979
 123.990918,   -2.980094
 123.992585,   -2.980209
 123.994252,   -2.980324
 123.995918,   -2.980439
 123.997585,   -2.980554
 123.999252,   -2.980669
 124.000918,   -2.980784
 124.002585,   -2.980598
 124.004252,   -2.980354
 124.005918,   -2.980110
 124.007585,   -2.979866
 124.009252,   -2.979623
 124.010918,   -2.979379
 124.012585,   -2.979135
 124.014252,   -2.978891
 124.015918,   -2.978647
 124.017585,   -2.978403
 124.019252,   -2.978873
 124.020918,   -2.979480
 124.022585,   -2.980088
 124.024252,   -2.980695
 124.025918,   -2.981302
 124.027585,   -2.981910
 124.029252,   -2.982517
 124.030918,   -2.983124
 124.032585,   -2.983731
 124.034252,   -2.984339
 124.035918,   -2.984459
 124.037585,   -2.984486
 124.039252,   -2.984512
 124.040918,   -2.984539
 124.042585,   -2.984566
 124.044252,   -2.984592
 124.045918,   -2.984619
 124.047585,   -2.984645
 124.049252,   -2.984672
 124.050918,   -2.984699
 124.052585,   -2.984447
 124.054252,   -2.984141
 124.055918,   -2.983836
 124.057585,   -2.983531
 124.059252,   -2.983225
 124.060918,   -2.982920
 124.062585,   -2.982614
 124.064252,   -2.982309
 124.065918,   -2.982003
 124.067585,   -2.981698
 124.069252,   -2.981473
 124.070918,   -2.981263
 124.072585,   -2.981054
 124.074252,   -2.980845
 124.075918,   -2.980635
 124.077585,   -2.980426
 124.079252,   -2.980216
 124.080918,   -2.980007
 124.082585,   -2.979797
 124.084252,   -2.979588
 124.085918,   -2.979520
 124.087585,   -2.979480
 124.089252,   -2.979439
 124.090918,   -2.979399
 124.092585,   -2.979359
 124.094252,   -2.979318
 124.095918,   -2.979278
 124.097585,   -2.979238
 124.099252,   -2.979197
 124.100918,   -2.979157
 124.102585,   -2.979229
 124.104252,   -2.979323
 124.105918,   -2.979416
 124.107585,   -2.979510
 124.109252,   -2.979603
 124.110918,   -2.979697
 124.112585,   -2.979790
 124.114252,   -2.979884
 124.115918,   -2.979978
 124.117585,   -2.980071
 124.119252,   -2.979899
 124.120918,   -2.979675
 124.122585,   -2.979452
 124.124252,   -2.979228
 124.125918,   -2.979004
 124.127585,   -2.978781
 124.129252,   -2.978557
 124.130918,   -2.978334
 124.132585,   -2.978110
 124.134252,   -2.977886
 124.135918,   -2.977751
 124.137585,   -2.977633
 124.139252,   -2.977515
 124.140918,   -2.977397
 124.142585,   -2.977279
 124.144252,   -2.977161
 124.145918,   -2.977043
 124.147585,   -2.976925
 124.149252,   -2.976807
 124.150918,   -2.976689
 124.152585,   -2.976317
 124.154252,   -2.975895
 124.155918,   -2.975473
 124.157585,   -2.975051
 124.159252,   -2.974630
 124.160918,   -2.974208
 124.162585,   -2.973786
 124.164252,   -2.973364
 124.165918,   -2.972943
 124.167585,   -2.972521
 124.169252,   -2.972235
 124.170918,   -2.971975
 124.172585,   -2.971716
 124.174252,   -2.971456
 124.175918,   -2.971196
 124.177585,   -2.970936
 124.179252,   -2.970677
 124.180918,   -2.970417
 124.182585,   -2.970157
 124.184252,   -2.969898
 124.185918,   -2.969821
 124.187585,   -2.969779
 124.189252,   -2.969737
 124.190918,   -2.969695
 124.192585,   -2.969653
 124.194252,   -2.969611
 124.195918,   -2.969569
 124.197585,   -2.969527
 124.199252,   -2.969485
 124.200918,   -2.969443
 124.202585,   -2.969553
 124.204252,   -2.969691
 124.205918,   -2.969830
 124.207585,   -2.969968
 124.209252,   -2.970107
 124.210918,   -2.970245
 124.212585,   -2.970384
 124.214252,   -2.970522
 124.215918,   -2.970661
 124.217585,   -2.970799
 124.219252,   -2.970660
 124.220918,   -2.970468
 124.222585,   -2.970276
 124.224252,   -2.970084
 124.225918,   -2.969892
 124.227585,   -2.969699
 124.229252,   -2.969507
 124.230918,   -2.969315
 124.232585,   -2.969123
 124.234252,   -2.968931
 124.235918,   -2.968918
 124.237585,   -2.968939
 124.239252,   -2.968961
 124.240918,   -2.968983
 124.242585,   -2.969004
 124.244252,   -2.969026
 124.245918,   -2.969048
 124.247585,   -2.969069
 124.249252,   -2.969091
 124.250918,   -2.969113
 124.252585,   -2.969279
 124.254252,   -2.969474
 124.255918,   -2.969668
 124.257585,   -2.969862
 124.259252,   -2.970057
 124.260918,   -2.970251
 124.262585,   -2.970446
 124.264252,   -2.970640
 124.265918,   -2.970834
 124.267585,   -2.971029
 124.269252,   -2.970937
 124.270918,   -2.970789
 124.272585,   -2.970642
 124.274252,   -2.970494
 124.275918,   -2.970347
 124.277585,   -2.970199
 124.279252,   -2.970052
 124.280918,   -2.969904
 124.282585,   -2.969757
 124.284252,   -2.969609
 124.285918,   -2.969230
 124.287585,   -2.968806
 124.289252,   -2.968381
 124.290918,   -2.967957
 124.292585,   -2.967532
 124.294252,   -2.967108
 124.295918,   -2.966684
 124.297585,   -2.966259
 124.299252,   -2.965835
 124.300918,   -2.965411
 124.302585,   -2.965145
 124.304252,   -2.964909
 124.305918,   -2.964674
 124.307585,   -2.964439
 124.309252,   -2.964203
 124.310918,   -2.963968
 124.312585,   -2.963733
 124.314252,   -2.963497
 124.315918,   -2.963262
 124.317585,   -2.963026
 124.319252,   -2.962994
 124.320918,   -2.963001
 124.322585,   -2.963007
 124.324252,   -2.963014
 124.325918,   -2.963021
 124.327585,   -2.963028
 124.329252,   -2.963034
 124.330918,   -2.963041
 124.332585,   -2.963048
 124.334252,   -2.963055
 124.335918,   -2.963229
 124.337585,   -2.963437
 124.339252,   -2.963644
 124.340918,   -2.963851
 124.342585,   -2.964059
 124.344252,   -2.964266
 124.345918,   -2.964473
 124.347585,   -2.964681
 124.349252,   -2.964888
 124.350918,   -2.965095
 124.352585,   -2.965037
 124.354252,   -2.964927
 124.355918,   -2.964818
 124.357585,   -2.964708
 124.359252,   -2.964599
 124.360918,   -2.964489
 124.362585,   -2.964380
 124.364252,   -2.964270
 124.365918,   -2.964161
 124.367585,   -2.964051
 124.369252,   -2.964344
 124.370918,   -2.964715
 124.372585,   -2.965085
 124.374252,   -2.965456
 124.375918,   -2.965826
 124.377585,   -2.966197
 124.379252,   -2.966567
 124.380918,   -2.966938
 124.382585,   -2.967308
 124.384252,   -2.967679
 124.385918,   -2.967538
 124.387585,   -2.967298
 124.389252,   -2.967059
 124.390918,   -2.966819
 124.392585,   -2.966580
 124.394252,   -2.966340
 124.395918,   -2.966101
 124.397585,   -2.965861
 124.399252,   -2.965622
 124.400918,   -2.965382
 124.402585,   -2.965325
 124.404252,   -2.965303
 124.405918,   -2.965281
 124.407585,   -2.965259
 124.409252,   -2.965237
 124.410918,   -2.965215
 124.412585,   -2.965193
 124.414252,   -2.965171
 124.415918,   -2.965149
 124.417585,   -2.965126
 124.419252,   -2.965254
 124.420918,   -2.965411
 124.422585,   -2.965568
 124.424252,   -2.965724
 124.425918,   -2.965881
 124.427585,   -2.966038
 124.429252,   -2.966194
 124.430918,   -2.966351
 124.432585,   -2.966507
 124.434252,   -2.966664
 124.435918,   -2.966540
 124.437585,   -2.966361
 124.439252,   -2.966182
 124.440918,   -2.966004
 124.442585,   -2.965825
 124.444252,   -2.965647
 124.445918,   -2.965468
 124.447585,   -2.965289
 124.449252,   -2.965111
 124.450918,   -2.964932
 124.452585,   -2.964930
 124.454252,   -2.964962
 124.455918,   -2.964994
 124.457585,   -2.965026
 124.459252,   -2.965057
 124.460918,   -2.965089
 124.462585,   -2.965121
 124.464252,   -2.965153
 124.465918,   -2.965185
 124.467585,   -2.965217
 124.469252,   -2.965390
 124.470918,   -2.965591
 124.472585,   -2.965792
 124.474252,   -2.965993
 124.475918,   -2.966194
 124.477585,   -2.966394
 124.479252,   -2.966595
 124.480918,   -2.966796
 124.482585,   -2.966997
 124.484252,   -2.967198
 124.485918,   -2.967107
 124.487585,   -2.966960
 124.489252,   -2.966812
 124.490918,   -2.966665
 124.492585,   -2.966518
 124.494252,   -2.966371
 124.495918,   -2.966224
 124.497585,   -2.966077
 124.499252,   -2.965930
 124.500918,   -2.965782
 124.502585,   -2.965399
 124.504252,   -2.964969
 124.505918,   -2.964539
 124.507585,   -2.964110
 124.509252,   -2.963680
 124.510918,   -2.963250
 124.512585,   -2.962820
 124.514252,   -2.962391
 124.515918,   -2.961961
 124.517585,   -2.961531
 124.519252,   -2.961257
 124.520918,   -2.961013
 124.522585,   -2.960769
 124.524252,   -2.960525
 124.525918,   -2.960281
 124.527585,   -2.960037
 124.529252,   -2.959793
 124.530918,   -2.959549
 124.532585,   -2.959305
 124.534252,   -2.959061
 124.535918,   -2.959017
 124.537585,   -2.959013
 124.539252,   -2.959008
 124.540918,   -2.959004
 124.542585,   -2.958999
 124.544252,   -2.958994
 124.545918,   -2.958990
 124.547585,   -2.958985
 124.549252,   -2.958981
 124.550918,   -2.958976
 124.552585,   -2.959138
 124.554252,   -2.959332
 124.555918,   -2.959526
 124.557585,   -2.959721
 124.559252,   -2.959915
 124.560918,   -2.960109
 124.562585,   -2.960303
 124.564252,   -2.960497
 124.565918,   -2.960691
 124.567585,   -2.960885
 124.569252,   -2.960812
 124.570918,   -2.960686
 124.572585,   -2.960560
 124.574252,   -2.960435
 124.575918,   -2.960309
 124.577585,   -2.960184
 124.579252,   -2.960058
 124.580918,   -2.959933
 124.582585,   -2.959807
 124.584252,   -2.959681
 124.585918,   -2.959959
 124.587585,   -2.960315
 124.589252,   -2.960671
 124.590918,   -2.961026
 124.592585,   -2.961382
 124.594252,   -2.961737
 124.595918,   -2.962093
 124.597585,   -2.962449
 124.599252,   -2.962804
 124.600918,   -2.963160
 124.602585,   -2.963003
 124.604252,   -2.962746
 124.605918,   -2.962490
 124.607585,   -2.962234
 124.609252,   -2.961978
 124.610918,   -2.961721
 124.612585,   -2.961465
 124.614252,   -2.961209
 124.615918,   -2.960953
 124.617585,   -2.960696
 124.619252,   -2.960624
 124.620918,   -2.960588
 124.622585,   -2.960551
 124.624252,   -2.960515
 124.625918,   -2.960478
 124.627585,   -2.960442
 124.629252,   -2.960405
 124.630918,   -2.960369
 124.632585,   -2.960332
 124.634252,   -2.960296
 124.635918,   -2.960412
 124.637585,   -2.960558
 124.639252,   -2.960704
 124.640918,   -2.960850
 124.642585,   -2.960996
 124.644252,   -2.961141
 124.645918,   -2.961287
 124.647585,   -2.961433
 124.649252,   -2.961579
 124.650918,   -2.961725
 124.652585,   -2.961592
 124.654252,   -2.961405
 124.655918,   -2.961218
 124.657585,   -2.961031
 124.659252,   -2.960844
 124.660918,   -2.960657
 124.662585,   -2.960470
 124.664252,   -2.960283
 124.665918,   -2.960096
 124.667585,   -2.959909
 124.669252,   -2.959903
 124.670918,   -2.959932
 124.672585,   -2.959961
 124.674252,   -2.959990
 124.675918,   -2.960018
 124.677585,   -2.960047
 124.679252,   -2.960076
 124.680918,   -2.960105
 124.682585,   -2.960134
 124.684252,   -2.960162
 124.685918,   -2.960338
 124.687585,   -2.960541
 124.689252,   -2.960745
 124.690918,   -2.960948
 124.692585,   -2.961152
 124.694252,   -2.961355
 124.695918,   -2.961559
 124.697585,   -2.961763
 124.699252,   -2.961966
 124.700918,   -2.962170
 124.702585,   -2.962085
 124.704252,   -2.961944
 124.705918,   -2.961803
 124.707585,   -2.961663
 124.709252,   -2.961522
 124.710918,   -2.961382
 124.712585,   -2.961241
 124.714252,   -2.961101
 124.715918,   -2.960960
 124.717585,   -2.960819
 124.719252,   -2.960445
 124.720918,   -2.960025
 124.722585,   -2.959605
 124.724252,   -2.959185
 124.725918,   -2.958765
 124.727585,   -2.958345
 124.729252,   -2.957925
 124.730918,   -2.957505
 124.732585,   -2.957085
 124.734252,   -2.956665
 124.735918,   -2.956405
 124.737585,   -2.956176
 124.739252,   -2.955946
 124.740918,   -2.955716
 124.742585,   -2.955487
 124.744252,   -2.955257
 124.745918,   -2.955028
 124.747585,   -2.954798
 124.749252,   -2.954569
 124.750918,   -2.954339
 124.752585,   -2.954314
 124.754252,   -2.954328
 124.755918,   -2.954342
 124.757585,   -2.954357
 124.759252,   -2.954371
 124.760918,   -2.954385
 124.762585,   -2.954399
 124.764252,   -2.954414
 124.765918,   -2.954428
 124.767585,   -2.954442
 124.769252,   -2.954626
 124.770918,   -2.954843
 124.772585,   -2.955059
 124.774252,   -2.955276
 124.775918,   -2.955492
 124.777585,   -2.955709
 124.779252,   -2.955926
 124.780918,   -2.956142
 124.782585,   -2.956359
 124.784252,   -2.956575
 124.785918,   -2.956524
 124.787585,   -2.956422
 124.789252,   -2.956319
 124.790918,   -2.956217
 124.792585,   -2.956114
 124.794252,   -2.956011
 124.795918,   -2.955909
 124.797585,   -2.955806
 124.799252,   -2.955703
 124.800918,   -2.955601
 124.802585,   -2.955904
 124.804252,   -2.956285
 124.805918,   -2.956665
 124.807585,   -2.957046
 124.809252,   -2.957427
 124.810918,   -2.957808
 124.812585,   -2.958189
 124.814252,   -2.958570
 124.815918,   -2.958951
 124.817585,   -2.959332
 124.819252,   -2.959198
 124.820918,   -2.958964
 124.822585,   -2.958731
 124.824252,   -2.958497
 124.825918,   -2.958263
 124.827585,   -2.958030
 124.829252,   -2.957796
 124.830918,   -2.957563
 124.832585,   -2.957329
 124.834252,   -2.957095
 124.835918,   -2.957045
 124.837585,   -2.957030
 124.839252,   -2.957015
 124.840918,   -2.957000
 124.842585,   -2.956985
 124.844252,   -2.956970
 124.845918,   -2.956955
 124.847585,   -2.956940
 124.849252,   -2.956925
 124.850918,   -2.956910
 124.852585,   -2.957046
 124.854252,   -2.957211
 124.855918,   -2.957376
 124.857585,   -2.957541
 124.859252,   -2.957706
 124.860918,   -2.957871
 124.862585,   -2.958036
 124.864252,   -2.958201
 124.865918,   -2.958366
 124.867585,   -2.958532
 124.869252,   -2.958413
 124.870918,   -2.958240
 124.872585,   -2.958067
 124.874252,   -2.957894
 124.875918,   -2.957721
 124.877585,   -2.957548
 124.879252,   -2.957375
 124.880918,   -2.957202
 124.882585,   -2.957029
 124.884252,   -2.956856
 124.885918,   -2.956860
 124.887585,   -2.956899
 124.889252,   -2.956937
 124.890918,   -2.956976
 124.892585,   -2.957015
 124.894252,   -2.957054
 124.895918,   -2.957092
 124.897585,   -2.957131
 124.899252,   -2.957170
 124.900918,   -2.957208
 124.902585,   -2.957390
 124.904252,   -2.957599
 124.905918,   -2.957808
 124.907585,   -2.958017
 124.909252,   -2.958226
 124.910918,   -2.958435
 124.912585,   -2.958644
 124.914252,   -2.958853
 124.915918,   -2.959062
 124.917585,   -2.959271
 124.919252,   -2.959186
 124.920918,   -2.959044
 124.922585,   -2.958902
 124.924252,   -2.958760
 124.925918,   -2.958619
 124.927585,   -2.958477
 124.929252,   -2.958335
 124.930918,   -2.958193
 124.932585,   -2.958052
 124.934252,   -2.957910
 124.935918,   -2.957529
 124.937585,   -2.957102
 124.939252,   -2.956675
 124.940918,   -2.956248
 124.942585,   -2.955821
 124.944252,   -2.955393
 124.945918,   -2.954966
 124.947585,   -2.954539
 124.949252,   -2.954112
 124.950918,   -2.953685
 124.952585,   -2.953414
 124.954252,   -2.953174
 124.955918,   -2.952933
 124.957585,   -2.952693
 124.959252,   -2.952452
 124.960918,   -2.952212
 124.962585,   -2.951972
 124.964252,   -2.951731
 124.965918,   -2.951491
 124.967585,   -2.951250
 124.969252,   -2.951212
 124.970918,   -2.951212
 124.972585,   -2.951213
 124.974252,   -2.951214
 124.975918,   -2.951214
 124.977585,   -2.951215
 124.979252,   -2.951216
 124.980918,   -2.951216
 124.982585,   -2.951217
 124.984252,   -2.951218
 124.985918,   -2.951386
 124.987585,   -2.951588
 124.989252,   -2.951789
 124.990918,   -2.951990
 124.992585,   -2.952191
 124.994252,   -2.952392
 124.995918,   -2.952594
 124.997585,   -2.952795
 124.999252,   -2.952996
 125.000918,   -2.953197
 125.002585,   -2.953128
 125.004252,   -2.953008
 125.005918,   -2.952887
 125.007585,   -2.952766
 125.009252,   -2.952645
 125.010918,   -2.952524
 125.012585,   -2.952404
 125.014252,   -2.952283
 125.015918,   -2.952162
 125.017585,   -2.952041
 125.019252,   -2.952327
 125.020918,   -2.952691
 125.022585,   -2.953056
 125.024252,   -2.953420
 125.025918,   -2.953784
 125.027585,   -2.954149
 125.029252,   -2.954513
 125.030918,   -2.954877
 125.032585,   -2.955242
 125.034252,   -2.955606
 125.035918,   -2.955454
 125.037585,   -2.955202
 125.039252,   -2.954950
 125.040918,   -2.954698
 125.042585,   -2.954446
 125.044252,   -2.954194
 125.045918,   -2.953942
 125.047585,   -2.953691
 125.049252,   -2.953439
 125.050918,   -2.953187
 125.052585,   -2.953120
 125.054252,   -2.953090
 125.055918,   -2.953059
 125.057585,   -2.953029
 125.059252,   -2.952998
 125.060918,   -2.952968
 125.062585,   -2.952937
 125.064252,   -2.952906
 125.065918,   -2.952876
 125.067585,   -2.952845
 125.069252,   -2.952969
 125.070918,   -2.953121
 125.072585,   -2.953274
 125.074252,   -2.953427
 125.075918,   -2.953580
 125.077585,   -2.953733
 125.079252,   -2.953886
 125.080918,   -2.954039
 125.082585,   -2.954192
 125.084252,   -2.954345
 125.085918,   -2.954216
 125.087585,   -2.954033
 125.089252,   -2.953849
 125.090918,   -2.953666
 125.092585,   -2.953483
 125.094252,   -2.953300
 125.095918,   -2.953117
 125.097585,   -2.952933
 125.099252,   -2.952750
 125.100918,   -2.952567
 125.102585,   -2.952565
 125.104252,   -2.952598
 125.105918,   -2.952632
 125.107585,   -2.952665
 125.109252,   -2.952698
 125.110918,   -2.952731
 125.112585,   -2.952764
 125.114252,   -2.952798
 125.115918,   -2.952831
 125.117585,   -2.952864
 125.119252,   -2.953044
 125.120918,   -2.953252
 125.122585,   -2.953460
 125.124252,   -2.953668
 125.125918,   -2.953876
 125.127585,   -2.954084
 125.129252,   -2.954292
 125.130918,   -2.954500
 125.132585,   -2.954708
 125.134252,   -2.954917
 125.135918,   -2.954833
 125.137585,   -2.954693
 125.139252,   -2.954553
 125.140918,   -2.954413
 125.142585,   -2.954272
 125.144252,   -2.954132
 125.145918,   -2.953992
 125.147585,   -2.953852
 125.149252,   -2.953712
 125.150918,   -2.953572
 125.152585,   -2.953195
 125.154252,   -2.952772
 125.155918,   -2.952349
 125.157585,   -2.951926
 125.159252,   -2.951503
 125.160918,   -2.951080
 125.162585,   -2.950657
 125.164252,   -2.950234
 125.165918,   -2.949811
 125.167585,   -2.949388
 125.169252,   -2.949125
 125.170918,   -2.948892
 125.172585,   -2.948660
 125.174252,   -2.948427
 125.175918,   -2.948194
 125.177585,   -2.947962
 125.179252,   -2.947729
 125.180918,   -2.947497
 125.182585,   -2.947264
 125.184252,   -2.947032
 125.185918,   -2.947004
 125.187585,   -2.947016
 125.189252,   -2.947028
 125.190918,   -2.947039
 125.192585,   -2.947051
 125.194252,   -2.947063
 125.195918,   -2.947075
 125.197585,   -2.947087
 125.199252,   -2.947099
 125.200918,   -2.947111
 125.202585,   -2.947293
 125.204252,   -2.947507
 125.205918,   -2.947722
 125.207585,   -2.947937
 125.209252,   -2.948152
 125.210918,   -2.948366
 125.212585,   -2.948581
 125.214252,   -2.948796
 125.215918,   -2.949011
 125.217585,   -2.949225
 125.219252,   -2.949170
 125.220918,   -2.949062
 125.222585,   -2.948954
 125.224252,   -2.948846
 125.225918,   -2.948739
 125.227585,   -2.948631
 125.229252,   -2.948523
 125.230918,   -2.948415
 125.232585,   -2.948307
 125.234252,   -2.948200
 125.235918,   -2.948500
 125.237585,   -2.948879
 125.239252,   -2.949258
 125.240918,   -2.949637
 125.242585,   -2.950016
 125.244252,   -2.950395
 125.245918,   -2.950774
 125.247585,   -2.951153
 125.249252,   -2.951532
 125.250918,   -2.951911
 125.252585,   -2.951771
 125.254252,   -2.951531
 125.255918,   -2.951290
 125.257585,   -2.951050
 125.259252,   -2.950809
 125.260918,   -2.950569
 125.262585,   -2.950328
 125.264252,   -2.950088
 125.265918,   -2.949847
 125.267585,   -2.949607
 125.269252,   -2.949551
 125.270918,   -2.949531
 125.272585,   -2.949511
 125.274252,   -2.949491
 125.275918,   -2.949471
 125.277585,   -2.949451
 125.279252,   -2.949431
 125.280918,   -2.949411
 125.282585,   -2.949391
 125.284252,   -2.949371
 125.285918,   -2.949503
 125.287585,   -2.949665
 125.289252,   -2.949827
 125.290918,   -2.949989
 125.292585,   -2.950151
 125.294252,   -2.950313
 125.295918,   -2.950474
 125.297585,   -2.950636
 125.299252,   -2.950798
 125.300918,   -2.950960
 125.302585,   -2.950837
 125.304252,   -2.950658
 125.305918,   -2.950480
 125.307585,   -2.950302
 125.309252,   -2.950124
 125.310918,   -2.949946
 125.312585,   -2.949767
 125.314252,   -2.949589
 125.315918,   -2.949411
 125.317585,   -2.949233
 125.319252,   -2.949234
 125.320918,   -2.949270
 125.322585,   -2.949306
 125.324252,   -2.949342
 125.325918,   -2.949378
 125.327585,   -2.949414
 125.329252,   -2.949450
 125.330918,   -2.949486
 125.332585,   -2.949522
 125.334252,   -2.949558
 125.335918,   -2.949739
 125.337585,   -2.949948
 125.339252,   -2.950156
 125.340918,   -2.950365
 125.342585,   -2.950574
 125.344252,   -2.950782
 125.345918,   -2.950991
 125.347585,   -2.951199
 125.349252,   -2.951408
 125.350918,   -2.951617
 125.352585,   -2.951530
 125.354252,   -2.951386
 125.355918,   -2.951243
 125.357585,   -2.951099
 125.359252,   -2.950955
 125.360918,   -2.950811
 125.362585,   -2.950668
 125.364252,   -2.950524
 125.365918,   -2.950380
 125.367585,   -2.950237
 125.369252,   -2.949853
 125.370918,   -2.949422
 125.372585,   -2.948992
 125.374252,   -2.948562
 125.375918,   -2.948132
 125.377585,   -2.947701
 125.379252,   -2.947271
 125.380918,   -2.946841
 125.382585,   -2.946410
 125.384252,   -2.945980
 125.385918,   -2.945708
 125.387585,   -2.945467
 125.389252,   -2.945226
 125.390918,   -2.944985
 125.392585,   -2.944744
 125.394252,   -2.944502
 125.395918,   -2.944261
 125.397585,   -2.944020
 125.399252,   -2.943779
 125.400918,   -2.943537
 125.402585,   -2.943501
 125.404252,   -2.943503
 125.405918,   -2.943506
 125.407585,   -2.943508
 125.409252,   -2.943511
 125.410918,   -2.943514
 125.412585,   -2.943516
 125.414252,   -2.943519
 125.415918,   -2.943522
 125.417585,   -2.943524
 125.419252,   -2.943697
 125.420918,   -2.943902
 125.422585,   -2.944108
 125.424252,   -2.944313
 125.425918,   -2.944518
 125.427585,   -2.944724
 125.429252,   -2.944929
 125.430918,   -2.945135
 125.432585,   -2.945340
 125.434252,   -2.945545
 125.435918,   -2.945479
 125.437585,   -2.945361
 125.439252,   -2.945242
 125.440918,   -2.945123
 125.442585,   -2.945005
 125.444252,   -2.944886
 125.445918,   -2.944768
 125.447585,   -2.944649
 125.449252,   -2.944531
 125.450918,   -2.944412
 125.452585,   -2.944703
 125.454252,   -2.945074
 125.455918,   -2.945444
 125.457585,   -2.945815
 125.459252,   -2.946186
 125.460918,   -2.946556
 125.462585,   -2.946927
 125.464252,   -2.947297
 125.465918,   -2.947668
 125.467585,   -2.948038
 125.469252,   -2.947888
 125.470918,   -2.947638
 125.472585,   -2.947388
 125.474252,   -2.947137
 125.475918,   -2.946887
 125.477585,   -2.946637
 125.479252,   -2.946386
 125.480918,   -2.946136
 125.482585,   -2.945885
 125.484252,   -2.945635
 125.485918,   -2.945571
 125.487585,   -2.945544
 125.489252,   -2.945516
 125.490918,   -2.945489
 125.492585,   -2.945461
 125.494252,   -2.945434
 125.495918,   -2.945406
 125.497585,   -2.945379
 125.499252,   -2.945351
 125.500918,   -2.945324
 125.502585,   -2.945451
 125.504252,   -2.945608
 125.505918,   -2.945765
 125.507585,   -2.945922
 125.509252,   -2.946079
 125.510918,   -2.946235
 125.512585,   -2.946392
 125.514252,   -2.946549
 125.515918,   -2.946706
 125.517585,   -2.946863
 125.519252,   -2.946736
 125.520918,   -2.946554
 125.522585,   -2.946371
 125.524252,   -2.946189
 125.525918,   -2.946007
 125.527585,   -2.945824
 125.529252,   -2.945642
 125.530918,   -2.945460
 125.532585,   -2.945277
 125.534252,   -2.945095
 125.535918,   -2.945095
 125.537585,   -2.945130
 125.539252,   -2.945165
 125.540918,   -2.945200
 125.542585,   -2.945235
 125.544252,   -2.945270
 125.545918,   -2.945306
 125.547585,   -2.945341
 125.549252,   -2.945376
 125.550918,   -2.945411
 125.552585,   -2.945593
 125.554252,   -2.945804
 125.555918,   -2.946014
 125.557585,   -2.946225
 125.559252,   -2.946435
 125.560918,   -2.946646
 125.562585,   -2.946856
 125.564252,   -2.947067
 125.565918,   -2.947278
 125.567585,   -2.947488
 125.569252,   -2.947404
 125.570918,   -2.947263
 125.572585,   -2.947122
 125.574252,   -2.946981
 125.575918,   -2.946840
 125.577585,   -2.946699
 125.579252,   -2.946558
 125.580918,   -2.946416
 125.582585,   -2.946275
 125.584252,   -2.946134
 125.585918,   -2.945754
 125.587585,   -2.945327
 125.589252,   -2.944900
 125.590918,   -2.944473
 125.592585,   -2.944046
 125.594252,   -2.943619
 125.595918,   -2.943192
 125.597585,   -2.942765
 125.599252,   -2.942338
 125.600918,   -2.941911
 125.602585,   -2.941644
 125.604252,   -2.941408
 125.605918,   -2.941172
 125.607585,   -2.940937
 125.609252,   -2.940701
 125.610918,   -2.940465
 125.612585,   -2.940229
 125.614252,   -2.939993
 125.615918,   -2.939757
 125.617585,   -2.939521
 125.619252,   -2.939492
 125.620918,   -2.939501
 125.622585,   -2.939511
 125.624252,   -2.939521
 125.625918,   -2.939531
 125.627585,   -2.939541
 125.629252,   -2.939551
 125.630918,   -2.939561
 125.632585,   -2.939570
 125.634252,   -2.939580
 125.635918,   -2.939761
 125.637585,   -2.939975
 125.639252,   -2.940189
 125.640918,   -2.940403
 125.642585,   -2.940617
 125.644252,   -2.940830
 125.645918,   -2.941044
 125.647585,   -2.941258
 125.649252,   -2.941472
 125.650918,   -2.941686
 125.652585,   -2.941627
 125.654252,   -2.941516
 125.655918,   -2.941404
 125.657585,   -2.941293
 125.659252,   -2.941181
 125.660918,   -2.941070
 125.662585,   -2.940958
 125.664252,   -2.940847
 125.665918,   -2.940735
 125.667585,   -2.940624
 125.669252,   -2.940923
 125.670918,   -2.941302
 125.672585,   -2.941681
 125.674252,   -2.942060
 125.675918,   -2.942439
 125.677585,   -2.942819
 125.679252,   -2.943198
 125.680918,   -2.943577
 125.682585,   -2.943956
 125.684252,   -2.944335
 125.685918,   -2.944190
 125.687585,   -2.943945
 125.689252,   -2.943700
 125.690918,   -2.943455
 125.692585,   -2.943209
 125.694252,   -2.942964
 125.695918,   -2.942719
 125.697585,   -2.942474
 125.699252,   -2.942228
 125.700918,   -2.941983
 125.702585,   -2.941924
 125.704252,   -2.941901
 125.705918,   -2.941879
 125.707585,   -2.941856
 125.709252,   -2.941833
 125.710918,   -2.941810
 125.712585,   -2.941787
 125.714252,   -2.941764
 125.715918,   -2.941741
 125.717585,   -2.941719
 125.719252,   -2.941850
 125.720918,   -2.942011
 125.722585,   -2.942171
 125.724252,   -2.942332
 125.725918,   -2.942493
 125.727585,   -2.942654
 125.729252,   -2.942815
 125.730918,   -2.942976
 125.732585,   -2.943136
 125.734252,   -2.943297
 125.735918,   -2.943171
 125.737585,   -2.942990
 125.739252,   -2.942808
 125.740918,   -2.942627
 125.742585,   -2.942446
 125.744252,   -2.942264
 125.745918,   -2.942083
 125.747585,   -2.941901
 125.749252,   -2.941720
 125.750918,   -2.941538
 125.752585,   -2.941539
 125.754252,   -2.941574
 125.755918,   -2.941609
 125.757585,   -2.941644
 125.759252,   -2.941679
 125.760918,   -2.941714
 125.762585,   -2.941749
 125.764252,   -2.941784
 125.765918,   -2.941819
 125.767585,   -2.941855
 125.769252,   -2.942036
 125.770918,   -2.942246
 125.772585,   -2.942455
 125.774252,   -2.942665
 125.775918,   -2.942875
 125.777585,   -2.943084
 125.779252,   -2.943294
 125.780918,   -2.943504
 125.782585,   -2.943713
 125.784252,   -2.943923
 125.785918,   -2.943836
 125.787585,   -2.943691
 125.789252,   -2.943546
 125.790918,   -2.943401
 125.792585,   -2.943256
 125.794252,   -2.943111
 125.795918,   -2.942967
 125.797585,   -2.942822
 125.799252,   -2.942677
 125.800918,   -2.942532
 125.802585,   -2.942146
 125.804252,   -2.941713
 125.805918,   -2.941280
 125.807585,   -2.940847
 125.809252,   -2.940414
 125.810918,   -2.939981
 125.812585,   -2.939548
 125.814252,   -2.939115
 125.815918,   -2.938682
 125.817585,   -2.938249
 125.819252,   -2.937976
 125.820918,   -2.937734
 125.822585,   -2.937492
 125.824252,   -2.937249
 125.825918,   -2.937007
 125.827585,   -2.936765
 125.829252,   -2.936523
 125.830918,   -2.936281
 125.832585,   -2.936039
 125.834252,   -2.935797
 125.835918,   -2.935761
 125.837585,   -2.935765
 125.839252,   -2.935770
 125.840918,   -2.935774
 125.842585,   -2.935778
 125.844252,   -2.935782
 125.845918,   -2.935786
 125.847585,   -2.935790
 125.849252,   -2.935794
 125.850918,   -2.935798
 125.852585,   -2.935974
 125.854252,   -2.936182
 125.855918,   -2.936391
 125.857585,   -2.936600
 125.859252,   -2.936808
 125.860918,   -2.937017
 125.862585,   -2.937226
 125.864252,   -2.937434
 125.865918,   -2.937643
 125.867585,   -2.937852
 125.869252,   -2.937787
 125.870918,   -2.937669
 125.872585,   -2.937552
 125.874252,   -2.937434
 125.875918,   -2.937316
 125.877585,   -2.937199
 125.879252,   -2.937081
 125.880918,   -2.936963
 125.882585,   -2.936846
 125.884252,   -2.936728
 125.885918,   -2.937023
 125.887585,   -2.937399
 125.889252,   -2.937774
 125.890918,   -2.938149
 125.892585,   -2.938525
 125.894252,   -2.938900
 125.895918,   -2.939275
 125.897585,   -2.939650
 125.899252,   -2.940026
 125.900918,   -2.940401
 125.902585,   -2.940252
 125.904252,   -2.940001
 125.905918,   -2.939751
 125.907585,   -2.939500
 125.909252,   -2.939250
 125.910918,   -2.938999
 125.912585,   -2.938748
 125.914252,   -2.938498
 125.915918,   -2.938247
 125.917585,   -2.937997
 125.919252,   -2.937934
 125.920918,   -2.937908
 125.922585,   -2.937882
 125.924252,   -2.937856
 125.925918,   -2.937829
 125.927585,   -2.937803
 125.929252,   -2.937777
 125.930918,   -2.937751
 125.932585,   -2.937725
 125.934252,   -2.937698
 125.935918,   -2.937828
 125.937585,   -2.937987
 125.939252,   -2.938147
 125.940918,   -2.938306
 125.942585,   -2.938465
 125.944252,   -2.938625
 125.945918,   -2.938784
 125.947585,   -2.938944
 125.949252,   -2.939103
 125.950918,   -2.939263
 125.952585,   -2.939135
 125.954252,   -2.938952
 125.955918,   -2.938769
 125.957585,   -2.938587
 125.959252,   -2.938404
 125.960918,   -2.938221
 125.962585,   -2.938038
 125.964252,   -2.937855
 125.965918,   -2.937672
 125.967585,   -2.937489
 125.969252,   -2.937490
 125.970918,   -2.937526
 125.972585,   -2.937561
 125.974252,   -2.937597
 125.975918,   -2.937633
 125.977585,   -2.937669
 125.979252,   -2.937704
 125.980918,   -2.937740
 125.982585,   -2.937776
 125.984252,   -2.937812
 125.985918,   -2.937995
 125.987585,   -2.938208
 125.989252,   -2.938420
 125.990918,   -2.938632
 125.992585,   -2.938844
 125.994252,   -2.939057
 125.995918,   -2.939269
 125.997585,   -2.939481
 125.999252,   -2.939693
 126.000918,   -2.939905
 126.002585,   -2.939820
 126.004252,   -2.939678
 126.005918,   -2.939535
 126.007585,   -2.939392
 126.009252,   -2.939250
 126.010918,   -2.939107
 126.012585,   -2.938965
 126.014252,   -2.938822
 126.015918,   -2.938679
 126.017585,   -2.938537
 126.019252,   -2.938152
 126.020918,   -2.937721
 126.022585,   -2.937290
 126.024252,   -2.936859
 126.025918,   -2.936428
 126.027585,   -2.935997
 126.029252,   -2.935565
 126.030918,   -2.935134
 126.032585,   -2.934703
 126.034252,   -2.934272
 126.035918,   -2.934002
 126.037585,   -2.933763
 126.039252,   -2.933524
 126.040918,   -2.933285
 126.042585,   -2.933046
 126.044252,   -2.932807
 126.045918,   -2.932568
 126.047585,   -2.932329
 126.049252,   -2.932091
 126.050918,   -2.931852
 126.052585,   -2.931820
 126.054252,   -2.931828
 126.055918,   -2.931837
 126.057585,   -2.931845
 126.059252,   -2.931854
 126.060918,   -2.931862
 126.062585,   -2.931870
 126.064252,   -2.931879
 126.065918,   -2.931887
 126.067585,   -2.931896
 126.069252,   -2.932076
 126.070918,   -2.932290
 126.072585,   -2.932504
 126.074252,   -2.932718
 126.075918,   -2.932931
 126.077585,   -2.933145
 126.079252,   -2.933359
 126.080918,   -2.933573
 126.082585,   -2.933787
 126.084252,   -2.934000
 126.085918,   -2.934042
 126.087585,   -2.934050
 126.088545,   -2.934055
 126.090212,   -2.933902
 126.091879,   -2.933749
 126.093545,   -2.933596
 126.095212,   -2.933443
 126.096879,   -2.933289
 126.098545,   -2.933136
 126.100212,   -2.932983
 126.101879,   -2.933054
 126.103545,   -2.933442
 126.105212,   -2.933830
 126.106879,   -2.934218
 126.108545,   -2.934606
 126.110212,   -2.934994
 126.111879,   -2.935382
 126.113545,   -2.935770
 126.115212,   -2.936158
 126.116879,   -2.936546
 126.118545,   -2.936461
 126.120212,   -2.935709
 126.121879,   -2.934957
 126.123545,   -2.934204
 126.125212,   -2.933452
 126.126879,   -2.932700
 126.128545,   -2.931948
 126.130212,   -2.931196
 126.131879,   -2.930443
 126.133545,   -2.929691
 126.135212,   -2.929201
 126.136879,   -2.929080
 126.138545,   -2.928959
 126.140212,   -2.928838
 126.141879,   -2.928717
 126.143110,   -2.928627
