 # GRANDEZZE ADIMENSIONALI
 
 # Cl        -> adim. risp. a Q e Sw
 # dT e T    -> adim. risp. a Q e Sw/2
 # dM e M    -> adim. risp. a Q , Sw/2 e b/2
 
 # Taglio totale adim  =        1.153413
 # Momento totale adim =    4.406122E-01
 
 #    eta          c[m]          Cl           cCl  dT           T            dM           
    1.00000      1.05000      0.00000      0.00000      0.00000      1.15341      0.00000      0.00000
    0.99495      1.06402      0.10954      0.11655      0.00009      0.00009      0.00000      0.00000
    0.98485      1.09205      0.16138      0.17623      0.00047      0.00056      0.00000      0.00000
    0.97475      1.12008      0.19701      0.22067      0.00064      0.00120      0.00001      0.00001
    0.96465      1.14811      0.22097      0.25370      0.00076      0.00197      0.00002      0.00003
    0.95455      1.23082      0.35301      0.43449      0.00111      0.00307      0.00003      0.00005
    0.94444      1.30444      0.40496      0.52824      0.00155      0.00462      0.00004      0.00009
    0.93434      1.33251      0.44183      0.58874      0.00180      0.00642      0.00006      0.00015
    0.92424      1.36058      0.47240      0.64273      0.00198      0.00840      0.00007      0.00022
    0.91414      1.38865      0.50015      0.69453      0.00215      0.01055      0.00010      0.00032
    0.90404      1.41672      0.52650      0.74590      0.00232      0.01287      0.00012      0.00044
    0.89394      1.44479      0.55222      0.79784      0.00248      0.01535      0.00014      0.00058
    0.88384      1.47286      0.57783      0.85107      0.00265      0.01801      0.00017      0.00075
    0.87374      1.50093      0.60372      0.90613      0.00283      0.02083      0.00020      0.00094
    0.86364      1.52900      0.63018      0.96354      0.00301      0.02384      0.00023      0.00117
    0.85354      1.55707      0.65749      1.02376      0.00320      0.02704      0.00026      0.00143
    0.84343      1.58514      0.68590      1.08725      0.00340      0.03043      0.00029      0.00172
    0.83333      1.61321      0.71566      1.15451      0.00361      0.03404      0.00033      0.00204
    0.82323      1.64128      0.74702      1.22606      0.00383      0.03787      0.00036      0.00241
    0.81313      1.66935      0.78023      1.30248      0.00407      0.04194      0.00040      0.00281
    0.80303      1.69742      0.81557      1.38436      0.00432      0.04626      0.00045      0.00325
    0.79293      1.72549      0.85326      1.47230      0.00460      0.05086      0.00049      0.00375
    0.78283      1.75356      0.89337      1.56657      0.00489      0.05575      0.00054      0.00428
    0.77273      1.78163      0.93522      1.66622      0.00520      0.06095      0.00059      0.00487
    0.76263      1.80970      0.97443      1.76343      0.00552      0.06647      0.00064      0.00552
    0.75253      1.97397      0.89695      1.77056      0.00569      0.07215      0.00070      0.00622
    0.74242      2.04745      1.11745      2.28793      0.00653      0.07868      0.00076      0.00698
    0.73232      2.07550      1.23098      2.55489      0.00779      0.08647      0.00083      0.00781
    0.72222      2.10363      1.31009      2.75596      0.00854      0.09502      0.00092      0.00873
    0.71212      2.13173      1.37088      2.92234      0.00914      0.10415      0.00101      0.00974
    0.70202      2.15982      1.41954      3.06595      0.00963      0.11379      0.00110      0.01084
    0.69192      2.18791      1.45939      3.19301      0.01007      0.12386      0.00120      0.01204
    0.68182      2.21601      1.49250      3.30739      0.01046      0.13431      0.00130      0.01334
    0.67172      2.24410      1.52029      3.41167      0.01081      0.14512      0.00141      0.01475
    0.66162      2.27219      1.54377      3.50775      0.01113      0.15626      0.00152      0.01627
    0.65152      2.30029      1.56372      3.59701      0.01143      0.16769      0.00164      0.01791
    0.64141      2.32838      1.58074      3.68055      0.01171      0.17939      0.00175      0.01966
    0.63131      2.35647      1.59527      3.75921      0.01197      0.19136      0.00187      0.02153
    0.62121      2.38457      1.60770      3.83366      0.01222      0.20358      0.00199      0.02353
    0.61111      2.41266      1.61831      3.90443      0.01245      0.21603      0.00212      0.02565
    0.60101      2.44075      1.62735      3.97197      0.01267      0.22870      0.00225      0.02789
    0.59091      2.46885      1.63503      4.03663      0.01288      0.24159      0.00238      0.03027
    0.58081      2.49694      1.64149      4.09870      0.01309      0.25467      0.00251      0.03278
    0.57071      2.52503      1.64687      4.15840      0.01328      0.26796      0.00264      0.03542
    0.56061      2.55330      1.65113      4.21583      0.01347      0.28143      0.00277      0.03819
    0.55051      2.58138      1.65481      4.27171      0.01366      0.29509      0.00291      0.04110
    0.54040      2.60945      1.65768      4.32563      0.01383      0.30892      0.00305      0.04415
    0.53030      2.63751      1.65983      4.37782      0.01400      0.32292      0.00319      0.04734
    0.52020      2.66558      1.66132      4.42839      0.01417      0.33709      0.00333      0.05068
    0.51010      2.69364      1.66222      4.47742      0.01433      0.35142      0.00348      0.05415
    0.50000      2.72171      1.66255      4.52496      0.01448      0.36590      0.00362      0.05778
    0.48990      2.74977      1.66235      4.57108      0.01463      0.38053      0.00377      0.06155
    0.47980      2.77784      1.66166      4.61581      0.01478      0.39531      0.00392      0.06547
    0.46970      2.80591      1.66049      4.65917      0.01492      0.41024      0.00407      0.06953
    0.45960      2.83397      1.65887      4.70118      0.01506      0.42530      0.00422      0.07375
    0.44949      2.86204      1.65680      4.74183      0.01519      0.44049      0.00437      0.07813
    0.43939      2.89010      1.65431      4.78112      0.01532      0.45581      0.00453      0.08265
    0.42929      2.91817      1.65139      4.81903      0.01545      0.47125      0.00468      0.08734
    0.41919      2.94623      1.64806      4.85556      0.01556      0.48682      0.00484      0.09217
    0.40909      2.97430      1.64437      4.89086      0.01568      0.50250      0.00500      0.09717
    0.39899      2.97759      1.65488      4.92754      0.01580      0.51829      0.00516      0.10233
    0.38889      2.97522      1.66115      4.94229      0.01588      0.53417      0.00532      0.10764
    0.37879      3.06815      1.62078      4.97280      0.01595      0.55013      0.00548      0.11312
    0.36869      3.16108      1.58376      5.00638      0.01605      0.56618      0.00564      0.11876
    0.35859      3.25401      1.54865      5.03933      0.01616      0.58234      0.00580      0.12456
    0.34848      3.34694      1.51401      5.06730      0.01626      0.59860      0.00596      0.13052
    0.33838      3.45603      1.47907      5.11172      0.01638      0.61498      0.00613      0.13665
    0.32828      3.63279      1.43069      5.19740      0.01659      0.63156      0.00630      0.14295
    0.31818      3.72568      1.40927      5.25050      0.01681      0.64837      0.00646      0.14941
    0.30808      3.81857      1.38664      5.29498      0.01697      0.66534      0.00663      0.15605
    0.29798      3.91146      1.36371      5.33408      0.01710      0.68244      0.00681      0.16285
    0.28788      4.00435      1.34072      5.36872      0.01722      0.69966      0.00698      0.16983
    0.27778      4.09724      1.31775      5.39915      0.01732      0.71698      0.00715      0.17699
    0.26768      4.19014      1.29480      5.42537      0.01741      0.73440      0.00733      0.18432
    0.25758      4.28303      1.27182      5.44725      0.01749      0.75189      0.00751      0.19182
    0.24747      4.37592      1.24879      5.46458      0.01756      0.76945      0.00768      0.19951
    0.23737      4.46881      1.22563      5.47709      0.01760      0.78705      0.00786      0.20737
    0.22727      4.56170      1.20228      5.48442      0.01764      0.80468      0.00804      0.21541
    0.21717      4.65459      1.17866      5.48618      0.01765      0.82233      0.00822      0.22362
    0.20707      4.74748      1.15469      5.48187      0.01765      0.83998      0.00840      0.23202
    0.19697      4.84037      1.13026      5.47090      0.01762      0.85760      0.00857      0.24059
    0.18687      4.93326      1.10525      5.45251      0.01757      0.87518      0.00875      0.24935
    0.17677      5.02615      1.07951      5.42576      0.01750      0.89268      0.00893      0.25827
    0.16667      5.11904      1.05281      5.38939      0.01740      0.91008      0.00910      0.26738
    0.15657      5.21193      1.02489      5.34165      0.01726      0.92734      0.00928      0.27666
    0.14646      5.30482      0.99531      5.27995      0.01709      0.94443      0.00945      0.28611
    0.13636      5.39771      0.96337      5.19998      0.01686      0.96129      0.00962      0.29574
    0.12626      5.49060      0.92758      5.09298      0.01656      0.97785      0.00979      0.30553
    0.11616      5.48275      0.89869      4.92730      0.01612      0.99397      0.00996      0.31549
    0.10606      5.41424      0.87052      4.71319      0.01551      1.00948      0.01012      0.32561
    0.09596      5.50717      0.83325      4.58888      0.01497      1.02445      0.01027      0.33588
    0.08586      5.60010      0.80303      4.49703      0.01462      1.03906      0.01042      0.34630
    0.07576      5.69303      0.77731      4.42527      0.01435      1.05342      0.01057      0.35687
    0.06566      5.78596      0.75495      4.36811      0.01415      1.06757      0.01071      0.36758
    0.05556      5.87889      0.73526      4.32249      0.01398      1.08155      0.01085      0.37844
    0.04545      5.97182      0.71779      4.28649      0.01385      1.09540      0.01099      0.38943
    0.03535      6.06475      0.70223      4.25883      0.01375      1.10915      0.01113      0.40056
    0.02525      6.15768      0.68835      4.23865      0.01367      1.12282      0.01127      0.41184
    0.01515      6.25061      0.67600      4.22540      0.01362      1.13643      0.01141      0.42325
    0.00505      6.34353      0.66505      4.21877      0.01359      1.15002      0.01155      0.43480
    0.00000      6.39000      0.00000      0.00000      0.00339      1.15341      0.00582      0.44061
