Time, Climb Gradient
   0.000000,    0.000000
   0.001667,    0.000000
   0.003333,    0.000000
   0.005000,    0.000000
   0.006667,    0.000000
   0.008333,    0.000000
   0.010000,    0.000000
   0.011667,    0.000000
   0.013333,    0.000000
   0.015000,    0.000000
   0.016667,    0.000000
   0.018333,    0.000000
   0.020000,    0.000000
   0.021667,    0.000000
   0.023333,    0.000000
   0.025000,    0.000000
   0.026667,    0.000000
   0.028333,    0.000000
   0.030000,    0.000000
   0.031667,    0.000000
   0.033333,    0.000000
   0.035000,    0.000000
   0.036667,    0.000000
   0.038333,    0.000000
   0.040000,    0.000000
   0.041667,    0.000000
   0.043333,    0.000000
   0.045000,    0.000000
   0.046667,    0.000000
   0.048333,    0.000000
   0.050000,    0.000000
   0.051667,    0.000000
   0.053333,    0.000000
   0.055000,    0.000000
   0.056667,    0.000000
   0.058333,    0.000000
   0.060000,    0.000000
   0.061667,    0.000000
   0.063333,    0.000000
   0.065000,    0.000000
   0.066667,    0.000000
   0.068333,    0.000000
   0.070000,    0.000000
   0.071667,    0.000000
   0.073333,    0.000000
   0.075000,    0.000000
   0.076667,    0.000000
   0.078333,    0.000000
   0.080000,    0.000000
   0.081667,    0.000000
   0.083333,    0.000000
   0.085000,    0.000000
   0.086667,    0.000000
   0.088333,    0.000000
   0.090000,    0.000000
   0.091667,    0.000000
   0.093333,    0.000000
   0.095000,    0.000000
   0.096667,    0.000000
   0.098333,    0.000000
   0.100000,    0.000000
   0.101667,    0.000000
   0.103333,    0.000000
   0.105000,    0.000000
   0.106667,    0.000000
   0.108333,    0.000000
   0.110000,    0.000000
   0.111667,    0.000000
   0.113333,    0.000000
   0.115000,    0.000000
   0.116667,    0.000000
   0.118333,    0.000000
   0.120000,    0.000000
   0.121667,    0.000000
   0.123333,    0.000000
   0.125000,    0.000000
   0.126667,    0.000000
   0.128333,    0.000000
   0.130000,    0.000000
   0.131667,    0.000000
   0.133333,    0.000000
   0.135000,    0.000000
   0.136667,    0.000000
   0.138333,    0.000000
   0.140000,    0.000000
   0.141667,    0.000000
   0.143333,    0.000000
   0.145000,    0.000000
   0.146667,    0.000000
   0.148333,    0.000000
   0.150000,    0.000000
   0.151667,    0.000000
   0.153333,    0.000000
   0.155000,    0.000000
   0.156667,    0.000000
   0.158333,    0.000000
   0.160000,    0.000000
   0.161667,    0.000000
   0.163333,    0.000000
   0.165000,    0.000000
   0.166667,    0.000000
   0.168333,    0.000000
   0.170000,    0.000000
   0.171667,    0.000000
   0.173333,    0.000000
   0.175000,    0.000000
   0.176667,    0.000000
   0.178333,    0.000000
   0.180000,    0.000000
   0.181667,    0.000000
   0.183333,    0.000000
   0.185000,    0.000000
   0.186667,    0.000000
   0.188333,    0.000000
   0.190000,    0.000000
   0.191667,    0.000000
   0.193333,    0.000000
   0.195000,    0.000000
   0.196667,    0.000000
   0.198333,    0.000000
   0.200000,    0.000000
   0.201667,    0.000000
   0.203333,    0.000000
   0.205000,    0.000000
   0.206667,    0.000000
   0.208333,    0.000000
   0.210000,    0.000000
   0.211667,    0.000000
   0.213333,    0.000000
   0.215000,    0.000000
   0.216667,    0.000000
   0.218333,    0.000000
   0.220000,    0.000000
   0.221667,    0.000000
   0.223333,    0.000000
   0.225000,    0.000000
   0.226667,    0.000000
   0.228333,    0.000000
   0.230000,    0.000000
   0.231667,    0.000000
   0.233333,    0.000000
   0.235000,    0.000000
   0.236667,    0.000000
   0.238333,    0.000000
   0.240000,    0.000000
   0.241667,    0.000000
   0.243333,    0.000000
   0.245000,    0.000000
   0.246667,    0.000000
   0.248333,    0.000000
   0.250000,    0.000000
   0.251667,    0.000000
   0.253333,    0.000000
   0.255000,    0.000000
   0.256667,    0.000000
   0.258333,    0.000000
   0.260000,    0.000000
   0.261667,    0.000000
   0.263333,    0.000000
   0.265000,    0.000000
   0.266667,    0.000000
   0.268333,    0.000000
   0.270000,    0.000000
   0.271667,    0.000000
   0.273333,    0.000000
   0.275000,    0.000000
   0.276667,    0.000000
   0.278333,    0.000000
   0.280000,    0.000000
   0.281667,    0.000000
   0.283333,    0.000000
   0.285000,    0.000000
   0.286667,    0.000000
   0.288333,    0.000000
   0.290000,    0.000000
   0.291667,    0.000000
   0.293333,    0.000000
   0.295000,    0.000000
   0.296667,    0.000000
   0.298333,    0.000000
   0.300000,    0.000000
   0.301667,    0.000000
   0.303333,    0.000000
   0.305000,    0.000000
   0.306667,    0.000000
   0.308333,    0.000000
   0.310000,    0.000000
   0.311667,    0.000000
   0.312369,    0.000000
   0.314036,    0.000000
   0.315703,    0.000000
   0.317369,    0.000000
   0.319036,    0.000000
   0.320703,    0.000000
   0.322369,    0.000000
   0.324036,    0.000000
   0.325703,    0.000000
   0.327369,    0.000000
   0.329036,    0.000000
   0.330703,    0.000000
   0.332369,    0.000000
   0.334036,    0.000000
   0.335703,    0.000000
   0.337369,    0.000000
   0.339036,    0.000000
   0.340703,    0.000000
   0.342369,    0.000000
   0.344036,    0.000000
   0.345703,    0.000000
   0.347369,    0.000000
   0.349036,    0.000000
   0.350703,    0.000000
   0.352369,    0.000000
   0.354036,    0.000000
   0.355703,    0.000000
   0.357369,    0.000000
   0.359036,    0.000000
   0.360703,    0.000000
   0.362369,    0.000000
   0.364036,    0.000000
   0.365703,    0.000000
   0.367369,    0.000000
   0.368518,    0.000000
   0.370185,    0.522375
   0.371852,    1.044751
   0.373518,    1.567126
   0.375185,    2.089502
   0.376852,    2.611877
   0.378518,    3.134252
   0.380185,    3.656628
   0.381852,    4.179003
   0.383518,    4.701379
   0.385185,    5.223754
   0.386852,    5.786684
   0.388518,    6.349613
   0.390185,    6.912542
   0.391852,    7.475472
   0.393518,    8.038401
   0.395185,    8.617320
   0.396852,    9.196239
   0.398518,    9.775158
   0.400185,   10.354077
   0.401852,   10.932997
   0.403518,   11.520745
   0.405185,   12.108494
   0.406852,   12.696243
   0.408518,   13.283992
   0.410185,   13.871741
   0.410185,    9.273398
   1.604481,    8.831487
   2.823272,    8.418066
   4.081386,    7.832520
   5.429985,    6.927092
   6.915721,    6.087981
   8.560390,    5.328608
  10.397371,    4.599169
  12.485334,    3.886338
  14.968358,    3.074676
  14.968358,    0.000000
  15.830802,    0.000000
  16.693245,    0.000000
  17.555688,    0.000000
  18.418132,    0.000000
  19.280575,    0.000000
  20.143018,    0.000000
  21.005461,    0.000000
  21.867905,    0.000000
  22.730348,    0.000000
  23.592791,    0.000000
  24.455235,    0.000000
  25.317678,    0.000000
  26.180121,    0.000000
  27.042565,    0.000000
  27.905008,    0.000000
  28.767451,    0.000000
  29.629895,    0.000000
  30.492338,    0.000000
  31.354781,    0.000000
  32.217225,    0.000000
  33.079668,    0.000000
  33.942111,    0.000000
  34.804555,    0.000000
  35.666998,    0.000000
  36.529441,    0.000000
  37.391885,    0.000000
  38.254328,    0.000000
  39.116771,    0.000000
  39.979215,    0.000000
  39.979215,   -5.068808
  41.139143,   -5.265759
  42.301874,   -5.401980
  43.463193,   -5.559913
  44.619342,   -5.739093
  45.768081,   -5.933740
  46.905098,   -6.156505
  48.026307,   -6.409580
  49.143709,   -6.600538
  50.253604,   -6.817880
  50.253604,    9.320847
  50.833005,    9.100478
  51.418049,    8.887617
  52.008556,    8.682581
  52.607292,    8.401634
  53.225054,    7.926994
  53.871173,    7.460487
  54.548638,    7.002742
  55.259779,    6.573962
  56.006440,    6.166958
  56.006440,    0.000000
  57.858634,    0.000000
  59.711637,    0.000000
  61.565449,    0.000000
  63.420072,    0.000000
  65.275506,    0.000000
  67.131752,    0.000000
  68.988810,    0.000000
  70.846682,    0.000000
  72.705368,    0.000000
  72.705368,   -5.777159
  73.351774,   -5.722838
  73.988012,   -5.900434
  74.626788,   -5.963346
  75.268241,   -6.025110
  75.912514,   -6.085692
  76.559398,   -6.148402
  77.208755,   -6.212601
  77.860123,   -6.281436
  78.512585,   -6.359447
  78.512585,    0.000000
  83.512585,    0.000000
  88.512585,    0.000000
  93.512585,    0.000000
  98.512585,    0.000000
 103.512585,    0.000000
 108.512585,    0.000000
 113.512585,    0.000000
 118.512585,    0.000000
 123.512585,    0.000000
 123.512585,   -5.235988
 123.514252,   -5.235833
 123.515918,   -5.235645
 123.517585,   -5.235458
 123.519252,   -5.234977
 123.520918,   -5.234441
 123.522585,   -5.233904
 123.524252,   -5.233367
 123.525918,   -5.232830
 123.527585,   -5.232293
 123.529252,   -5.231757
 123.530918,   -5.231220
 123.532585,   -5.230683
 123.534252,   -5.230146
 123.535918,   -5.229802
 123.537585,   -5.229495
 123.539252,   -5.229188
 123.540918,   -5.228881
 123.542585,   -5.228574
 123.544252,   -5.228266
 123.545918,   -5.227959
 123.547585,   -5.227652
 123.549252,   -5.227345
 123.550918,   -5.227038
 123.552585,   -5.226848
 123.554252,   -5.226680
 123.555918,   -5.226512
 123.557585,   -5.226344
 123.559252,   -5.226176
 123.560918,   -5.226008
 123.562585,   -5.225840
 123.564252,   -5.225672
 123.565918,   -5.225504
 123.567585,   -5.225336
 123.569252,   -5.224692
 123.570918,   -5.223956
 123.572585,   -5.223220
 123.574252,   -5.222484
 123.575918,   -5.221748
 123.577585,   -5.221012
 123.579252,   -5.220276
 123.580918,   -5.219540
 123.582585,   -5.218804
 123.584252,   -5.218069
 123.585918,   -5.218260
 123.587585,   -5.218631
 123.589252,   -5.219002
 123.590918,   -5.219373
 123.592585,   -5.219744
 123.594252,   -5.220114
 123.595918,   -5.220485
 123.597585,   -5.220856
 123.599252,   -5.221227
 123.600918,   -5.221597
 123.602585,   -5.221422
 123.604252,   -5.221141
 123.605918,   -5.220860
 123.607585,   -5.220578
 123.609252,   -5.220297
 123.610918,   -5.220016
 123.612585,   -5.219735
 123.614252,   -5.219454
 123.615918,   -5.219173
 123.617585,   -5.218892
 123.619252,   -5.218852
 123.620918,   -5.218859
 123.622585,   -5.218866
 123.624252,   -5.218873
 123.625918,   -5.218880
 123.627585,   -5.218888
 123.629252,   -5.218895
 123.630918,   -5.218902
 123.632585,   -5.218909
 123.634252,   -5.218916
 123.635918,   -5.219110
 123.637585,   -5.219339
 123.639252,   -5.219569
 123.640918,   -5.219799
 123.642585,   -5.220028
 123.644252,   -5.220258
 123.645918,   -5.220488
 123.647585,   -5.220717
 123.649252,   -5.220947
 123.650918,   -5.221177
 123.652585,   -5.220936
 123.654252,   -5.220604
 123.655918,   -5.220272
 123.657585,   -5.219940
 123.659252,   -5.219608
 123.660918,   -5.219276
 123.662585,   -5.218944
 123.664252,   -5.218613
 123.665918,   -5.218281
 123.667585,   -5.217949
 123.669252,   -5.217757
 123.670918,   -5.217592
 123.672585,   -5.217428
 123.674252,   -5.217263
 123.675918,   -5.217098
 123.677585,   -5.216934
 123.679252,   -5.216769
 123.680918,   -5.216604
 123.682585,   -5.216440
 123.684252,   -5.216275
 123.685918,   -5.215655
 123.687585,   -5.214948
 123.689252,   -5.214240
 123.690918,   -5.213533
 123.692585,   -5.212825
 123.694252,   -5.212118
 123.695918,   -5.211410
 123.697585,   -5.210703
 123.699252,   -5.209995
 123.700918,   -5.209288
 123.702585,   -5.208800
 123.704252,   -5.208355
 123.705918,   -5.207911
 123.707585,   -5.207466
 123.709252,   -5.207021
 123.710918,   -5.206576
 123.712585,   -5.206131
 123.714252,   -5.205686
 123.715918,   -5.205242
 123.717585,   -5.204797
 123.719252,   -5.204653
 123.720918,   -5.204568
 123.722585,   -5.204483
 123.724252,   -5.204397
 123.725918,   -5.204312
 123.727585,   -5.204227
 123.729252,   -5.204142
 123.730918,   -5.204056
 123.732585,   -5.203971
 123.734252,   -5.203886
 123.735918,   -5.204049
 123.737585,   -5.204260
 123.739252,   -5.204471
 123.740918,   -5.204682
 123.742585,   -5.204893
 123.744252,   -5.205105
 123.745918,   -5.205316
 123.747585,   -5.205527
 123.749252,   -5.205738
 123.750918,   -5.205949
 123.752585,   -5.205670
 123.754252,   -5.205296
 123.755918,   -5.204921
 123.757585,   -5.204547
 123.759252,   -5.204173
 123.760918,   -5.203799
 123.762585,   -5.203425
 123.764252,   -5.203051
 123.765918,   -5.202677
 123.767585,   -5.202302
 123.769252,   -5.202230
 123.770918,   -5.202216
 123.772585,   -5.202202
 123.774252,   -5.202188
 123.775918,   -5.202174
 123.777585,   -5.202160
 123.779252,   -5.202146
 123.780918,   -5.202132
 123.782585,   -5.202118
 123.784252,   -5.202103
 123.785918,   -5.202335
 123.787585,   -5.202613
 123.789252,   -5.202891
 123.790918,   -5.203170
 123.792585,   -5.203448
 123.794252,   -5.203727
 123.795918,   -5.204005
 123.797585,   -5.204284
 123.799252,   -5.204562
 123.800918,   -5.204841
 123.802585,   -5.204621
 123.804252,   -5.204305
 123.805918,   -5.203990
 123.807585,   -5.203674
 123.809252,   -5.203359
 123.810918,   -5.203043
 123.812585,   -5.202728
 123.814252,   -5.202412
 123.815918,   -5.202096
 123.817585,   -5.201781
 123.819252,   -5.201758
 123.820918,   -5.201791
 123.822585,   -5.201824
 123.824252,   -5.201857
 123.825918,   -5.201891
 123.827585,   -5.201924
 123.829252,   -5.201957
 123.830918,   -5.201990
 123.832585,   -5.202024
 123.834252,   -5.202057
 123.835918,   -5.202324
 123.837585,   -5.202636
 123.839252,   -5.202948
 123.840918,   -5.203260
 123.842585,   -5.203573
 123.844252,   -5.203885
 123.845918,   -5.204197
 123.847585,   -5.204509
 123.849252,   -5.204821
 123.850918,   -5.205133
 123.852585,   -5.204934
 123.854252,   -5.204637
 123.855918,   -5.204339
 123.857585,   -5.204041
 123.859252,   -5.203743
 123.860918,   -5.203446
 123.862585,   -5.203148
 123.864252,   -5.202850
 123.865918,   -5.202552
 123.867585,   -5.202255
 123.869252,   -5.202236
 123.870918,   -5.202272
 123.872585,   -5.202307
 123.874252,   -5.202343
 123.875918,   -5.202379
 123.877585,   -5.202414
 123.879252,   -5.202450
 123.880918,   -5.202485
 123.882585,   -5.202521
 123.884252,   -5.202557
 123.885918,   -5.202813
 123.887585,   -5.203113
 123.889252,   -5.203412
 123.890918,   -5.203712
 123.892585,   -5.204011
 123.894252,   -5.204311
 123.895918,   -5.204611
 123.897585,   -5.204910
 123.899252,   -5.205210
 123.900918,   -5.205509
 123.902585,   -5.205285
 123.904252,   -5.204961
 123.905918,   -5.204636
 123.907585,   -5.204311
 123.909252,   -5.203986
 123.910918,   -5.203661
 123.912585,   -5.203337
 123.914252,   -5.203012
 123.915918,   -5.202687
 123.917585,   -5.202362
 123.919252,   -5.202308
 123.920918,   -5.202305
 123.922585,   -5.202303
 123.924252,   -5.202300
 123.925918,   -5.202298
 123.927585,   -5.202295
 123.929252,   -5.202293
 123.930918,   -5.202290
 123.932585,   -5.202288
 123.934252,   -5.202285
 123.935918,   -5.202497
 123.937585,   -5.202750
 123.939252,   -5.203003
 123.940918,   -5.203256
 123.942585,   -5.203509
 123.944252,   -5.203762
 123.945918,   -5.204015
 123.947585,   -5.204268
 123.949252,   -5.204521
 123.950918,   -5.204774
 123.952585,   -5.204498
 123.954252,   -5.204121
 123.955918,   -5.203744
 123.957585,   -5.203366
 123.959252,   -5.202989
 123.960918,   -5.202612
 123.962585,   -5.202235
 123.964252,   -5.201857
 123.965918,   -5.201480
 123.967585,   -5.201103
 123.969252,   -5.200994
 123.970918,   -5.200938
 123.972585,   -5.200881
 123.974252,   -5.200824
 123.975918,   -5.200768
 123.977585,   -5.200711
 123.979252,   -5.200654
 123.980918,   -5.200598
 123.982585,   -5.200541
 123.984252,   -5.200484
 123.985918,   -5.200643
 123.987585,   -5.200844
 123.989252,   -5.201045
 123.990918,   -5.201245
 123.992585,   -5.201446
 123.994252,   -5.201646
 123.995918,   -5.201847
 123.997585,   -5.202048
 123.999252,   -5.202248
 124.000918,   -5.202449
 124.002585,   -5.202124
 124.004252,   -5.201699
 124.005918,   -5.201273
 124.007585,   -5.200848
 124.009252,   -5.200422
 124.010918,   -5.199997
 124.012585,   -5.199571
 124.014252,   -5.199146
 124.015918,   -5.198720
 124.017585,   -5.198295
 124.019252,   -5.199114
 124.020918,   -5.200174
 124.022585,   -5.201234
 124.024252,   -5.202294
 124.025918,   -5.203354
 124.027585,   -5.204414
 124.029252,   -5.205474
 124.030918,   -5.206534
 124.032585,   -5.207594
 124.034252,   -5.208654
 124.035918,   -5.208864
 124.037585,   -5.208910
 124.039252,   -5.208957
 124.040918,   -5.209003
 124.042585,   -5.209050
 124.044252,   -5.209096
 124.045918,   -5.209143
 124.047585,   -5.209189
 124.049252,   -5.209235
 124.050918,   -5.209282
 124.052585,   -5.208842
 124.054252,   -5.208309
 124.055918,   -5.207776
 124.057585,   -5.207243
 124.059252,   -5.206710
 124.060918,   -5.206177
 124.062585,   -5.205644
 124.064252,   -5.205111
 124.065918,   -5.204578
 124.067585,   -5.204045
 124.069252,   -5.203652
 124.070918,   -5.203286
 124.072585,   -5.202921
 124.074252,   -5.202555
 124.075918,   -5.202190
 124.077585,   -5.201824
 124.079252,   -5.201458
 124.080918,   -5.201093
 124.082585,   -5.200727
 124.084252,   -5.200362
 124.085918,   -5.200243
 124.087585,   -5.200173
 124.089252,   -5.200103
 124.090918,   -5.200032
 124.092585,   -5.199962
 124.094252,   -5.199892
 124.095918,   -5.199821
 124.097585,   -5.199751
 124.099252,   -5.199680
 124.100918,   -5.199610
 124.102585,   -5.199736
 124.104252,   -5.199899
 124.105918,   -5.200062
 124.107585,   -5.200225
 124.109252,   -5.200389
 124.110918,   -5.200552
 124.112585,   -5.200715
 124.114252,   -5.200879
 124.115918,   -5.201042
 124.117585,   -5.201205
 124.119252,   -5.200905
 124.120918,   -5.200514
 124.122585,   -5.200124
 124.124252,   -5.199734
 124.125918,   -5.199343
 124.127585,   -5.198953
 124.129252,   -5.198563
 124.130918,   -5.198173
 124.132585,   -5.197782
 124.134252,   -5.197392
 124.135918,   -5.197156
 124.137585,   -5.196950
 124.139252,   -5.196745
 124.140918,   -5.196539
 124.142585,   -5.196333
 124.144252,   -5.196127
 124.145918,   -5.195921
 124.147585,   -5.195715
 124.149252,   -5.195509
 124.150918,   -5.195303
 124.152585,   -5.194653
 124.154252,   -5.193917
 124.155918,   -5.193181
 124.157585,   -5.192444
 124.159252,   -5.191708
 124.160918,   -5.190972
 124.162585,   -5.190236
 124.164252,   -5.189500
 124.165918,   -5.188764
 124.167585,   -5.188027
 124.169252,   -5.187528
 124.170918,   -5.187075
 124.172585,   -5.186622
 124.174252,   -5.186169
 124.175918,   -5.185716
 124.177585,   -5.185262
 124.179252,   -5.184809
 124.180918,   -5.184356
 124.182585,   -5.183903
 124.184252,   -5.183449
 124.185918,   -5.183315
 124.187585,   -5.183242
 124.189252,   -5.183168
 124.190918,   -5.183095
 124.192585,   -5.183022
 124.194252,   -5.182949
 124.195918,   -5.182876
 124.197585,   -5.182803
 124.199252,   -5.182730
 124.200918,   -5.182656
 124.202585,   -5.182847
 124.204252,   -5.183089
 124.205918,   -5.183331
 124.207585,   -5.183572
 124.209252,   -5.183814
 124.210918,   -5.184056
 124.212585,   -5.184297
 124.214252,   -5.184539
 124.215918,   -5.184781
 124.217585,   -5.185022
 124.219252,   -5.184780
 124.220918,   -5.184445
 124.222585,   -5.184110
 124.224252,   -5.183774
 124.225918,   -5.183439
 124.227585,   -5.183103
 124.229252,   -5.182768
 124.230918,   -5.182433
 124.232585,   -5.182097
 124.234252,   -5.181762
 124.235918,   -5.181739
 124.237585,   -5.181777
 124.239252,   -5.181815
 124.240918,   -5.181852
 124.242585,   -5.181890
 124.244252,   -5.181928
 124.245918,   -5.181966
 124.247585,   -5.182004
 124.249252,   -5.182041
 124.250918,   -5.182079
 124.252585,   -5.182370
 124.254252,   -5.182709
 124.255918,   -5.183048
 124.257585,   -5.183388
 124.259252,   -5.183727
 124.260918,   -5.184066
 124.262585,   -5.184406
 124.264252,   -5.184745
 124.265918,   -5.185084
 124.267585,   -5.185424
 124.269252,   -5.185263
 124.270918,   -5.185005
 124.272585,   -5.184748
 124.274252,   -5.184491
 124.275918,   -5.184233
 124.277585,   -5.183976
 124.279252,   -5.183718
 124.280918,   -5.183461
 124.282585,   -5.183204
 124.284252,   -5.182946
 124.285918,   -5.182284
 124.287585,   -5.181543
 124.289252,   -5.180802
 124.290918,   -5.180062
 124.292585,   -5.179321
 124.294252,   -5.178580
 124.295918,   -5.177840
 124.297585,   -5.177099
 124.299252,   -5.176358
 124.300918,   -5.175618
 124.302585,   -5.175154
 124.304252,   -5.174743
 124.305918,   -5.174332
 124.307585,   -5.173921
 124.309252,   -5.173511
 124.310918,   -5.173100
 124.312585,   -5.172689
 124.314252,   -5.172278
 124.315918,   -5.171868
 124.317585,   -5.171457
 124.319252,   -5.171400
 124.320918,   -5.171412
 124.322585,   -5.171424
 124.324252,   -5.171435
 124.325918,   -5.171447
 124.327585,   -5.171459
 124.329252,   -5.171471
 124.330918,   -5.171482
 124.332585,   -5.171494
 124.334252,   -5.171506
 124.335918,   -5.171811
 124.337585,   -5.172173
 124.339252,   -5.172535
 124.340918,   -5.172897
 124.342585,   -5.173258
 124.344252,   -5.173620
 124.345918,   -5.173982
 124.347585,   -5.174344
 124.349252,   -5.174706
 124.350918,   -5.175067
 124.352585,   -5.174966
 124.354252,   -5.174775
 124.355918,   -5.174584
 124.357585,   -5.174392
 124.359252,   -5.174201
 124.360918,   -5.174010
 124.362585,   -5.173819
 124.364252,   -5.173628
 124.365918,   -5.173437
 124.367585,   -5.173246
 124.369252,   -5.173757
 124.370918,   -5.174403
 124.372585,   -5.175050
 124.374252,   -5.175697
 124.375918,   -5.176343
 124.377585,   -5.176990
 124.379252,   -5.177637
 124.380918,   -5.178283
 124.382585,   -5.178930
 124.384252,   -5.179576
 124.385918,   -5.179331
 124.387585,   -5.178913
 124.389252,   -5.178495
 124.390918,   -5.178077
 124.392585,   -5.177659
 124.394252,   -5.177241
 124.395918,   -5.176823
 124.397585,   -5.176405
 124.399252,   -5.175987
 124.400918,   -5.175569
 124.402585,   -5.175469
 124.404252,   -5.175430
 124.405918,   -5.175392
 124.407585,   -5.175353
 124.409252,   -5.175315
 124.410918,   -5.175276
 124.412585,   -5.175238
 124.414252,   -5.175199
 124.415918,   -5.175161
 124.417585,   -5.175122
 124.419252,   -5.175345
 124.420918,   -5.175618
 124.422585,   -5.175892
 124.424252,   -5.176165
 124.425918,   -5.176439
 124.427585,   -5.176712
 124.429252,   -5.176985
 124.430918,   -5.177259
 124.432585,   -5.177532
 124.434252,   -5.177806
 124.435918,   -5.177589
 124.437585,   -5.177277
 124.439252,   -5.176965
 124.440918,   -5.176653
 124.442585,   -5.176341
 124.444252,   -5.176030
 124.445918,   -5.175718
 124.447585,   -5.175406
 124.449252,   -5.175094
 124.450918,   -5.174782
 124.452585,   -5.174779
 124.454252,   -5.174834
 124.455918,   -5.174890
 124.457585,   -5.174946
 124.459252,   -5.175001
 124.460918,   -5.175057
 124.462585,   -5.175113
 124.464252,   -5.175168
 124.465918,   -5.175224
 124.467585,   -5.175280
 124.469252,   -5.175583
 124.470918,   -5.175933
 124.472585,   -5.176283
 124.474252,   -5.176634
 124.475918,   -5.176984
 124.477585,   -5.177335
 124.479252,   -5.177685
 124.480918,   -5.178036
 124.482585,   -5.178386
 124.484252,   -5.178737
 124.485918,   -5.178578
 124.487585,   -5.178321
 124.489252,   -5.178064
 124.490918,   -5.177808
 124.492585,   -5.177551
 124.494252,   -5.177294
 124.495918,   -5.177037
 124.497585,   -5.176781
 124.499252,   -5.176524
 124.500918,   -5.176267
 124.502585,   -5.175597
 124.504252,   -5.174847
 124.505918,   -5.174097
 124.507585,   -5.173347
 124.509252,   -5.172597
 124.510918,   -5.171847
 124.512585,   -5.171097
 124.514252,   -5.170347
 124.515918,   -5.169597
 124.517585,   -5.168848
 124.519252,   -5.168369
 124.520918,   -5.167943
 124.522585,   -5.167517
 124.524252,   -5.167091
 124.525918,   -5.166665
 124.527585,   -5.166239
 124.529252,   -5.165813
 124.530918,   -5.165387
 124.532585,   -5.164961
 124.534252,   -5.164535
 124.535918,   -5.164459
 124.537585,   -5.164451
 124.539252,   -5.164443
 124.540918,   -5.164435
 124.542585,   -5.164427
 124.544252,   -5.164420
 124.545918,   -5.164412
 124.547585,   -5.164404
 124.549252,   -5.164396
 124.550918,   -5.164388
 124.552585,   -5.164670
 124.554252,   -5.165009
 124.555918,   -5.165348
 124.557585,   -5.165687
 124.559252,   -5.166026
 124.560918,   -5.166365
 124.562585,   -5.166703
 124.564252,   -5.167042
 124.565918,   -5.167381
 124.567585,   -5.167720
 124.569252,   -5.167591
 124.570918,   -5.167372
 124.572585,   -5.167153
 124.574252,   -5.166934
 124.575918,   -5.166714
 124.577585,   -5.166495
 124.579252,   -5.166276
 124.580918,   -5.166057
 124.582585,   -5.165838
 124.584252,   -5.165619
 124.585918,   -5.166103
 124.587585,   -5.166724
 124.589252,   -5.167345
 124.590918,   -5.167966
 124.592585,   -5.168586
 124.594252,   -5.169207
 124.595918,   -5.169828
 124.597585,   -5.170448
 124.599252,   -5.171069
 124.600918,   -5.171690
 124.602585,   -5.171415
 124.604252,   -5.170968
 124.605918,   -5.170521
 124.607585,   -5.170074
 124.609252,   -5.169626
 124.610918,   -5.169179
 124.612585,   -5.168732
 124.614252,   -5.168284
 124.615918,   -5.167837
 124.617585,   -5.167390
 124.619252,   -5.167264
 124.620918,   -5.167200
 124.622585,   -5.167137
 124.624252,   -5.167073
 124.625918,   -5.167009
 124.627585,   -5.166946
 124.629252,   -5.166882
 124.630918,   -5.166818
 124.632585,   -5.166754
 124.634252,   -5.166691
 124.635918,   -5.166894
 124.637585,   -5.167148
 124.639252,   -5.167403
 124.640918,   -5.167658
 124.642585,   -5.167912
 124.644252,   -5.168167
 124.645918,   -5.168421
 124.647585,   -5.168676
 124.649252,   -5.168931
 124.650918,   -5.169185
 124.652585,   -5.168953
 124.654252,   -5.168627
 124.655918,   -5.168300
 124.657585,   -5.167974
 124.659252,   -5.167648
 124.660918,   -5.167322
 124.662585,   -5.166995
 124.664252,   -5.166669
 124.665918,   -5.166343
 124.667585,   -5.166016
 124.669252,   -5.166006
 124.670918,   -5.166056
 124.672585,   -5.166106
 124.674252,   -5.166157
 124.675918,   -5.166207
 124.677585,   -5.166257
 124.679252,   -5.166307
 124.680918,   -5.166358
 124.682585,   -5.166408
 124.684252,   -5.166458
 124.685918,   -5.166764
 124.687585,   -5.167119
 124.689252,   -5.167475
 124.690918,   -5.167830
 124.692585,   -5.168185
 124.694252,   -5.168540
 124.695918,   -5.168896
 124.697585,   -5.169251
 124.699252,   -5.169606
 124.700918,   -5.169961
 124.702585,   -5.169813
 124.704252,   -5.169568
 124.705918,   -5.169322
 124.707585,   -5.169077
 124.709252,   -5.168831
 124.710918,   -5.168586
 124.712585,   -5.168341
 124.714252,   -5.168095
 124.715918,   -5.167850
 124.717585,   -5.167605
 124.719252,   -5.166951
 124.720918,   -5.166218
 124.722585,   -5.165485
 124.724252,   -5.164752
 124.725918,   -5.164019
 124.727585,   -5.163286
 124.729252,   -5.162553
 124.730918,   -5.161821
 124.732585,   -5.161088
 124.734252,   -5.160355
 124.735918,   -5.159900
 124.737585,   -5.159500
 124.739252,   -5.159099
 124.740918,   -5.158698
 124.742585,   -5.158298
 124.744252,   -5.157897
 124.745918,   -5.157496
 124.747585,   -5.157096
 124.749252,   -5.156695
 124.750918,   -5.156294
 124.752585,   -5.156250
 124.754252,   -5.156275
 124.755918,   -5.156300
 124.757585,   -5.156325
 124.759252,   -5.156350
 124.760918,   -5.156375
 124.762585,   -5.156400
 124.764252,   -5.156424
 124.765918,   -5.156449
 124.767585,   -5.156474
 124.769252,   -5.156795
 124.770918,   -5.157173
 124.772585,   -5.157551
 124.774252,   -5.157929
 124.775918,   -5.158307
 124.777585,   -5.158685
 124.779252,   -5.159063
 124.780918,   -5.159442
 124.782585,   -5.159820
 124.784252,   -5.160198
 124.785918,   -5.160109
 124.787585,   -5.159930
 124.789252,   -5.159750
 124.790918,   -5.159571
 124.792585,   -5.159392
 124.794252,   -5.159213
 124.795918,   -5.159034
 124.797585,   -5.158855
 124.799252,   -5.158676
 124.800918,   -5.158497
 124.802585,   -5.159025
 124.804252,   -5.159690
 124.805918,   -5.160355
 124.807585,   -5.161020
 124.809252,   -5.161685
 124.810918,   -5.162349
 124.812585,   -5.163014
 124.814252,   -5.163679
 124.815918,   -5.164344
 124.817585,   -5.165009
 124.819252,   -5.164775
 124.820918,   -5.164367
 124.822585,   -5.163959
 124.824252,   -5.163552
 124.825918,   -5.163144
 124.827585,   -5.162736
 124.829252,   -5.162328
 124.830918,   -5.161920
 124.832585,   -5.161513
 124.834252,   -5.161105
 124.835918,   -5.161017
 124.837585,   -5.160991
 124.839252,   -5.160965
 124.840918,   -5.160939
 124.842585,   -5.160912
 124.844252,   -5.160886
 124.845918,   -5.160860
 124.847585,   -5.160834
 124.849252,   -5.160808
 124.850918,   -5.160782
 124.852585,   -5.161019
 124.854252,   -5.161307
 124.855918,   -5.161595
 124.857585,   -5.161883
 124.859252,   -5.162171
 124.860918,   -5.162459
 124.862585,   -5.162747
 124.864252,   -5.163035
 124.865918,   -5.163324
 124.867585,   -5.163612
 124.869252,   -5.163405
 124.870918,   -5.163103
 124.872585,   -5.162801
 124.874252,   -5.162499
 124.875918,   -5.162197
 124.877585,   -5.161895
 124.879252,   -5.161593
 124.880918,   -5.161291
 124.882585,   -5.160989
 124.884252,   -5.160686
 124.885918,   -5.160694
 124.887585,   -5.160762
 124.889252,   -5.160829
 124.890918,   -5.160897
 124.892585,   -5.160965
 124.894252,   -5.161032
 124.895918,   -5.161100
 124.897585,   -5.161167
 124.899252,   -5.161235
 124.900918,   -5.161302
 124.902585,   -5.161619
 124.904252,   -5.161984
 124.905918,   -5.162348
 124.907585,   -5.162713
 124.909252,   -5.163078
 124.910918,   -5.163443
 124.912585,   -5.163807
 124.914252,   -5.164172
 124.915918,   -5.164537
 124.917585,   -5.164902
 124.919252,   -5.164753
 124.920918,   -5.164506
 124.922585,   -5.164258
 124.924252,   -5.164011
 124.925918,   -5.163764
 124.927585,   -5.163516
 124.929252,   -5.163269
 124.930918,   -5.163022
 124.932585,   -5.162774
 124.934252,   -5.162527
 124.935918,   -5.161862
 124.937585,   -5.161116
 124.939252,   -5.160371
 124.940918,   -5.159626
 124.942585,   -5.158880
 124.944252,   -5.158135
 124.945918,   -5.157389
 124.947585,   -5.156644
 124.949252,   -5.155898
 124.950918,   -5.155153
 124.952585,   -5.154681
 124.954252,   -5.154261
 124.955918,   -5.153841
 124.957585,   -5.153421
 124.959252,   -5.153002
 124.960918,   -5.152582
 124.962585,   -5.152162
 124.964252,   -5.151742
 124.965918,   -5.151323
 124.967585,   -5.150903
 124.969252,   -5.150836
 124.970918,   -5.150837
 124.972585,   -5.150838
 124.974252,   -5.150840
 124.975918,   -5.150841
 124.977585,   -5.150842
 124.979252,   -5.150843
 124.980918,   -5.150844
 124.982585,   -5.150845
 124.984252,   -5.150846
 124.985918,   -5.151141
 124.987585,   -5.151492
 124.989252,   -5.151843
 124.990918,   -5.152194
 124.992585,   -5.152546
 124.994252,   -5.152897
 124.995918,   -5.153248
 124.997585,   -5.153599
 124.999252,   -5.153950
 125.000918,   -5.154301
 125.002585,   -5.154181
 125.004252,   -5.153970
 125.005918,   -5.153760
 125.007585,   -5.153549
 125.009252,   -5.153338
 125.010918,   -5.153127
 125.012585,   -5.152916
 125.014252,   -5.152705
 125.015918,   -5.152495
 125.017585,   -5.152284
 125.019252,   -5.152783
 125.020918,   -5.153419
 125.022585,   -5.154054
 125.024252,   -5.154690
 125.025918,   -5.155326
 125.027585,   -5.155962
 125.029252,   -5.156598
 125.030918,   -5.157234
 125.032585,   -5.157870
 125.034252,   -5.158505
 125.035918,   -5.158240
 125.037585,   -5.157800
 125.039252,   -5.157361
 125.040918,   -5.156921
 125.042585,   -5.156481
 125.044252,   -5.156042
 125.045918,   -5.155602
 125.047585,   -5.155163
 125.049252,   -5.154723
 125.050918,   -5.154283
 125.052585,   -5.154168
 125.054252,   -5.154114
 125.055918,   -5.154061
 125.057585,   -5.154007
 125.059252,   -5.153954
 125.060918,   -5.153901
 125.062585,   -5.153847
 125.064252,   -5.153794
 125.065918,   -5.153741
 125.067585,   -5.153687
 125.069252,   -5.153902
 125.070918,   -5.154169
 125.072585,   -5.154436
 125.074252,   -5.154703
 125.075918,   -5.154970
 125.077585,   -5.155237
 125.079252,   -5.155503
 125.080918,   -5.155770
 125.082585,   -5.156037
 125.084252,   -5.156304
 125.085918,   -5.156079
 125.087585,   -5.155759
 125.089252,   -5.155440
 125.090918,   -5.155120
 125.092585,   -5.154800
 125.094252,   -5.154480
 125.095918,   -5.154161
 125.097585,   -5.153841
 125.099252,   -5.153521
 125.100918,   -5.153201
 125.102585,   -5.153198
 125.104252,   -5.153256
 125.105918,   -5.153314
 125.107585,   -5.153372
 125.109252,   -5.153430
 125.110918,   -5.153488
 125.112585,   -5.153546
 125.114252,   -5.153604
 125.115918,   -5.153662
 125.117585,   -5.153720
 125.119252,   -5.154034
 125.120918,   -5.154397
 125.122585,   -5.154760
 125.124252,   -5.155123
 125.125918,   -5.155486
 125.127585,   -5.155849
 125.129252,   -5.156213
 125.130918,   -5.156576
 125.132585,   -5.156939
 125.134252,   -5.157302
 125.135918,   -5.157156
 125.137585,   -5.156912
 125.139252,   -5.156667
 125.140918,   -5.156423
 125.142585,   -5.156178
 125.144252,   -5.155934
 125.145918,   -5.155689
 125.147585,   -5.155445
 125.149252,   -5.155200
 125.150918,   -5.154956
 125.152585,   -5.154297
 125.154252,   -5.153559
 125.155918,   -5.152821
 125.157585,   -5.152083
 125.159252,   -5.151345
 125.160918,   -5.150606
 125.162585,   -5.149868
 125.164252,   -5.149130
 125.165918,   -5.148392
 125.167585,   -5.147653
 125.169252,   -5.147194
 125.170918,   -5.146788
 125.172585,   -5.146382
 125.174252,   -5.145976
 125.175918,   -5.145570
 125.177585,   -5.145164
 125.179252,   -5.144758
 125.180918,   -5.144352
 125.182585,   -5.143946
 125.184252,   -5.143540
 125.185918,   -5.143492
 125.187585,   -5.143513
 125.189252,   -5.143534
 125.190918,   -5.143554
 125.192585,   -5.143575
 125.194252,   -5.143596
 125.195918,   -5.143616
 125.197585,   -5.143637
 125.199252,   -5.143658
 125.200918,   -5.143678
 125.202585,   -5.143996
 125.204252,   -5.144371
 125.205918,   -5.144746
 125.207585,   -5.145120
 125.209252,   -5.145495
 125.210918,   -5.145870
 125.212585,   -5.146245
 125.214252,   -5.146620
 125.215918,   -5.146994
 125.217585,   -5.147369
 125.219252,   -5.147272
 125.220918,   -5.147084
 125.222585,   -5.146896
 125.224252,   -5.146708
 125.225918,   -5.146520
 125.227585,   -5.146331
 125.229252,   -5.146143
 125.230918,   -5.145955
 125.232585,   -5.145767
 125.234252,   -5.145579
 125.235918,   -5.146103
 125.237585,   -5.146765
 125.239252,   -5.147426
 125.240918,   -5.148088
 125.242585,   -5.148749
 125.244252,   -5.149411
 125.245918,   -5.150073
 125.247585,   -5.150734
 125.249252,   -5.151396
 125.250918,   -5.152057
 125.252585,   -5.151813
 125.254252,   -5.151393
 125.255918,   -5.150973
 125.257585,   -5.150553
 125.259252,   -5.150134
 125.260918,   -5.149714
 125.262585,   -5.149294
 125.264252,   -5.148874
 125.265918,   -5.148455
 125.267585,   -5.148035
 125.269252,   -5.147938
 125.270918,   -5.147903
 125.272585,   -5.147868
 125.274252,   -5.147833
 125.275918,   -5.147798
 125.277585,   -5.147763
 125.279252,   -5.147728
 125.280918,   -5.147693
 125.282585,   -5.147658
 125.284252,   -5.147623
 125.285918,   -5.147854
 125.287585,   -5.148137
 125.289252,   -5.148419
 125.290918,   -5.148702
 125.292585,   -5.148984
 125.294252,   -5.149267
 125.295918,   -5.149549
 125.297585,   -5.149832
 125.299252,   -5.150114
 125.300918,   -5.150397
 125.302585,   -5.150182
 125.304252,   -5.149871
 125.305918,   -5.149559
 125.307585,   -5.149248
 125.309252,   -5.148937
 125.310918,   -5.148626
 125.312585,   -5.148315
 125.314252,   -5.148004
 125.315918,   -5.147693
 125.317585,   -5.147382
 125.319252,   -5.147384
 125.320918,   -5.147447
 125.322585,   -5.147510
 125.324252,   -5.147573
 125.325918,   -5.147636
 125.327585,   -5.147699
 125.329252,   -5.147762
 125.330918,   -5.147825
 125.332585,   -5.147887
 125.334252,   -5.147950
 125.335918,   -5.148266
 125.337585,   -5.148630
 125.339252,   -5.148994
 125.340918,   -5.149358
 125.342585,   -5.149722
 125.344252,   -5.150086
 125.345918,   -5.150451
 125.347585,   -5.150815
 125.349252,   -5.151179
 125.350918,   -5.151543
 125.352585,   -5.151392
 125.354252,   -5.151141
 125.355918,   -5.150890
 125.357585,   -5.150639
 125.359252,   -5.150388
 125.360918,   -5.150137
 125.362585,   -5.149887
 125.364252,   -5.149636
 125.365918,   -5.149385
 125.367585,   -5.149134
 125.369252,   -5.148464
 125.370918,   -5.147713
 125.372585,   -5.146962
 125.374252,   -5.146211
 125.375918,   -5.145460
 125.377585,   -5.144709
 125.379252,   -5.143958
 125.380918,   -5.143207
 125.382585,   -5.142456
 125.384252,   -5.141705
 125.385918,   -5.141231
 125.387585,   -5.140810
 125.389252,   -5.140389
 125.390918,   -5.139968
 125.392585,   -5.139547
 125.394252,   -5.139126
 125.395918,   -5.138705
 125.397585,   -5.138284
 125.399252,   -5.137863
 125.400918,   -5.137442
 125.402585,   -5.137378
 125.404252,   -5.137382
 125.405918,   -5.137387
 125.407585,   -5.137391
 125.409252,   -5.137396
 125.410918,   -5.137401
 125.412585,   -5.137405
 125.414252,   -5.137410
 125.415918,   -5.137414
 125.417585,   -5.137419
 125.419252,   -5.137720
 125.420918,   -5.138079
 125.422585,   -5.138437
 125.424252,   -5.138796
 125.425918,   -5.139154
 125.427585,   -5.139513
 125.429252,   -5.139871
 125.430918,   -5.140230
 125.432585,   -5.140588
 125.434252,   -5.140947
 125.435918,   -5.140831
 125.437585,   -5.140624
 125.439252,   -5.140417
 125.440918,   -5.140210
 125.442585,   -5.140003
 125.444252,   -5.139796
 125.445918,   -5.139589
 125.447585,   -5.139382
 125.449252,   -5.139175
 125.450918,   -5.138968
 125.452585,   -5.139477
 125.454252,   -5.140124
 125.455918,   -5.140770
 125.457585,   -5.141417
 125.459252,   -5.142064
 125.460918,   -5.142711
 125.462585,   -5.143357
 125.464252,   -5.144004
 125.465918,   -5.144651
 125.467585,   -5.145298
 125.469252,   -5.145036
 125.470918,   -5.144599
 125.472585,   -5.144162
 125.474252,   -5.143725
 125.475918,   -5.143288
 125.477585,   -5.142851
 125.479252,   -5.142414
 125.480918,   -5.141977
 125.482585,   -5.141540
 125.484252,   -5.141103
 125.485918,   -5.140992
 125.487585,   -5.140944
 125.489252,   -5.140896
 125.490918,   -5.140848
 125.492585,   -5.140800
 125.494252,   -5.140752
 125.495918,   -5.140704
 125.497585,   -5.140656
 125.499252,   -5.140607
 125.500918,   -5.140559
 125.502585,   -5.140781
 125.504252,   -5.141055
 125.505918,   -5.141329
 125.507585,   -5.141603
 125.509252,   -5.141877
 125.510918,   -5.142151
 125.512585,   -5.142425
 125.514252,   -5.142699
 125.515918,   -5.142973
 125.517585,   -5.143247
 125.519252,   -5.143024
 125.520918,   -5.142706
 125.522585,   -5.142388
 125.524252,   -5.142070
 125.525918,   -5.141752
 125.527585,   -5.141433
 125.529252,   -5.141115
 125.530918,   -5.140797
 125.532585,   -5.140479
 125.534252,   -5.140161
 125.535918,   -5.140161
 125.537585,   -5.140222
 125.539252,   -5.140283
 125.540918,   -5.140344
 125.542585,   -5.140405
 125.544252,   -5.140467
 125.545918,   -5.140528
 125.547585,   -5.140589
 125.549252,   -5.140650
 125.550918,   -5.140712
 125.552585,   -5.141030
 125.554252,   -5.141397
 125.555918,   -5.141765
 125.557585,   -5.142132
 125.559252,   -5.142500
 125.560918,   -5.142867
 125.562585,   -5.143235
 125.564252,   -5.143602
 125.565918,   -5.143970
 125.567585,   -5.144337
 125.569252,   -5.144190
 125.570918,   -5.143944
 125.572585,   -5.143698
 125.574252,   -5.143452
 125.575918,   -5.143206
 125.577585,   -5.142959
 125.579252,   -5.142713
 125.580918,   -5.142467
 125.582585,   -5.142221
 125.584252,   -5.141974
 125.585918,   -5.141310
 125.587585,   -5.140565
 125.589252,   -5.139820
 125.590918,   -5.139074
 125.592585,   -5.138329
 125.594252,   -5.137584
 125.595918,   -5.136839
 125.597585,   -5.136093
 125.599252,   -5.135348
 125.600918,   -5.134603
 125.602585,   -5.134137
 125.604252,   -5.133726
 125.605918,   -5.133314
 125.607585,   -5.132903
 125.609252,   -5.132491
 125.610918,   -5.132079
 125.612585,   -5.131668
 125.614252,   -5.131256
 125.615918,   -5.130844
 125.617585,   -5.130433
 125.619252,   -5.130381
 125.620918,   -5.130398
 125.622585,   -5.130415
 125.624252,   -5.130432
 125.625918,   -5.130449
 125.627585,   -5.130467
 125.629252,   -5.130484
 125.630918,   -5.130501
 125.632585,   -5.130518
 125.634252,   -5.130535
 125.635918,   -5.130851
 125.637585,   -5.131224
 125.639252,   -5.131598
 125.640918,   -5.131971
 125.642585,   -5.132344
 125.644252,   -5.132717
 125.645918,   -5.133091
 125.647585,   -5.133464
 125.649252,   -5.133837
 125.650918,   -5.134210
 125.652585,   -5.134108
 125.654252,   -5.133913
 125.655918,   -5.133718
 125.657585,   -5.133524
 125.659252,   -5.133329
 125.660918,   -5.133135
 125.662585,   -5.132940
 125.664252,   -5.132746
 125.665918,   -5.132551
 125.667585,   -5.132357
 125.669252,   -5.132880
 125.670918,   -5.133541
 125.672585,   -5.134203
 125.674252,   -5.134864
 125.675918,   -5.135526
 125.677585,   -5.136187
 125.679252,   -5.136849
 125.680918,   -5.137510
 125.682585,   -5.138172
 125.684252,   -5.138833
 125.685918,   -5.138582
 125.687585,   -5.138154
 125.689252,   -5.137726
 125.690918,   -5.137297
 125.692585,   -5.136869
 125.694252,   -5.136441
 125.695918,   -5.136013
 125.697585,   -5.135585
 125.699252,   -5.135157
 125.700918,   -5.134729
 125.702585,   -5.134627
 125.704252,   -5.134587
 125.705918,   -5.134547
 125.707585,   -5.134507
 125.709252,   -5.134467
 125.710918,   -5.134427
 125.712585,   -5.134387
 125.714252,   -5.134347
 125.715918,   -5.134307
 125.717585,   -5.134268
 125.719252,   -5.134496
 125.720918,   -5.134777
 125.722585,   -5.135058
 125.724252,   -5.135339
 125.725918,   -5.135619
 125.727585,   -5.135900
 125.729252,   -5.136181
 125.730918,   -5.136461
 125.732585,   -5.136742
 125.734252,   -5.137023
 125.735918,   -5.136803
 125.737585,   -5.136486
 125.739252,   -5.136170
 125.740918,   -5.135853
 125.742585,   -5.135536
 125.744252,   -5.135220
 125.745918,   -5.134903
 125.747585,   -5.134586
 125.749252,   -5.134270
 125.750918,   -5.133953
 125.752585,   -5.133953
 125.754252,   -5.134015
 125.755918,   -5.134076
 125.757585,   -5.134137
 125.759252,   -5.134198
 125.760918,   -5.134260
 125.762585,   -5.134321
 125.764252,   -5.134382
 125.765918,   -5.134443
 125.767585,   -5.134505
 125.769252,   -5.134821
 125.770918,   -5.135187
 125.772585,   -5.135553
 125.774252,   -5.135919
 125.775918,   -5.136285
 125.777585,   -5.136651
 125.779252,   -5.137017
 125.780918,   -5.137383
 125.782585,   -5.137749
 125.784252,   -5.138115
 125.785918,   -5.137962
 125.787585,   -5.137710
 125.789252,   -5.137457
 125.790918,   -5.137204
 125.792585,   -5.136951
 125.794252,   -5.136699
 125.795918,   -5.136446
 125.797585,   -5.136193
 125.799252,   -5.135940
 125.800918,   -5.135688
 125.802585,   -5.135013
 125.804252,   -5.134257
 125.805918,   -5.133502
 125.807585,   -5.132746
 125.809252,   -5.131990
 125.810918,   -5.131234
 125.812585,   -5.130479
 125.814252,   -5.129723
 125.815918,   -5.128967
 125.817585,   -5.128211
 125.819252,   -5.127735
 125.820918,   -5.127312
 125.822585,   -5.126890
 125.824252,   -5.126467
 125.825918,   -5.126045
 125.827585,   -5.125623
 125.829252,   -5.125200
 125.830918,   -5.124778
 125.832585,   -5.124355
 125.834252,   -5.123933
 125.835918,   -5.123870
 125.837585,   -5.123877
 125.839252,   -5.123884
 125.840918,   -5.123892
 125.842585,   -5.123899
 125.844252,   -5.123906
 125.845918,   -5.123913
 125.847585,   -5.123920
 125.849252,   -5.123927
 125.850918,   -5.123934
 125.852585,   -5.124241
 125.854252,   -5.124605
 125.855918,   -5.124969
 125.857585,   -5.125333
 125.859252,   -5.125698
 125.860918,   -5.126062
 125.862585,   -5.126426
 125.864252,   -5.126790
 125.865918,   -5.127155
 125.867585,   -5.127519
 125.869252,   -5.127406
 125.870918,   -5.127200
 125.872585,   -5.126995
 125.874252,   -5.126789
 125.875918,   -5.126584
 125.877585,   -5.126379
 125.879252,   -5.126173
 125.880918,   -5.125968
 125.882585,   -5.125762
 125.884252,   -5.125557
 125.885918,   -5.126073
 125.887585,   -5.126728
 125.889252,   -5.127383
 125.890918,   -5.128038
 125.892585,   -5.128693
 125.894252,   -5.129348
 125.895918,   -5.130003
 125.897585,   -5.130658
 125.899252,   -5.131313
 125.900918,   -5.131968
 125.902585,   -5.131707
 125.904252,   -5.131270
 125.905918,   -5.130833
 125.907585,   -5.130396
 125.909252,   -5.129958
 125.910918,   -5.129521
 125.912585,   -5.129084
 125.914252,   -5.128646
 125.915918,   -5.128209
 125.917585,   -5.127772
 125.919252,   -5.127663
 125.920918,   -5.127617
 125.922585,   -5.127571
 125.924252,   -5.127525
 125.925918,   -5.127480
 125.927585,   -5.127434
 125.929252,   -5.127388
 125.930918,   -5.127342
 125.932585,   -5.127297
 125.934252,   -5.127251
 125.935918,   -5.127477
 125.937585,   -5.127755
 125.939252,   -5.128033
 125.940918,   -5.128312
 125.942585,   -5.128590
 125.944252,   -5.128868
 125.945918,   -5.129146
 125.947585,   -5.129424
 125.949252,   -5.129703
 125.950918,   -5.129981
 125.952585,   -5.129758
 125.954252,   -5.129439
 125.955918,   -5.129120
 125.957585,   -5.128801
 125.959252,   -5.128482
 125.960918,   -5.128163
 125.962585,   -5.127844
 125.964252,   -5.127524
 125.965918,   -5.127205
 125.967585,   -5.126886
 125.969252,   -5.126887
 125.970918,   -5.126949
 125.972585,   -5.127012
 125.974252,   -5.127074
 125.975918,   -5.127137
 125.977585,   -5.127199
 125.979252,   -5.127262
 125.980918,   -5.127324
 125.982585,   -5.127386
 125.984252,   -5.127449
 125.985918,   -5.127769
 125.987585,   -5.128140
 125.989252,   -5.128510
 125.990918,   -5.128881
 125.992585,   -5.129251
 125.994252,   -5.129621
 125.995918,   -5.129992
 125.997585,   -5.130362
 125.999252,   -5.130733
 126.000918,   -5.131103
 126.002585,   -5.130954
 126.004252,   -5.130705
 126.005918,   -5.130457
 126.007585,   -5.130208
 126.009252,   -5.129959
 126.010918,   -5.129710
 126.012585,   -5.129461
 126.014252,   -5.129212
 126.015918,   -5.128963
 126.017585,   -5.128714
 126.019252,   -5.128043
 126.020918,   -5.127291
 126.022585,   -5.126538
 126.024252,   -5.125786
 126.025918,   -5.125033
 126.027585,   -5.124281
 126.029252,   -5.123528
 126.030918,   -5.122776
 126.032585,   -5.122023
 126.034252,   -5.121271
 126.035918,   -5.120799
 126.037585,   -5.120382
 126.039252,   -5.119965
 126.040918,   -5.119548
 126.042585,   -5.119131
 126.044252,   -5.118714
 126.045918,   -5.118297
 126.047585,   -5.117880
 126.049252,   -5.117463
 126.050918,   -5.117046
 126.052585,   -5.116991
 126.054252,   -5.117006
 126.055918,   -5.117020
 126.057585,   -5.117035
 126.059252,   -5.117050
 126.060918,   -5.117064
 126.062585,   -5.117079
 126.064252,   -5.117094
 126.065918,   -5.117108
 126.067585,   -5.117123
 126.069252,   -5.117438
 126.070918,   -5.117811
 126.072585,   -5.118185
 126.074252,   -5.118558
 126.075918,   -5.118931
 126.077585,   -5.119304
 126.079252,   -5.119677
 126.080918,   -5.120050
 126.082585,   -5.120424
 126.084252,   -5.120797
 126.085918,   -5.120869
 126.087585,   -5.120884
 126.088545,   -5.120892
 126.090212,   -5.120625
 126.091879,   -5.120357
 126.093545,   -5.120090
 126.095212,   -5.119823
 126.096879,   -5.119556
 126.098545,   -5.119289
 126.100212,   -5.119021
 126.101879,   -5.119145
 126.103545,   -5.119822
 126.105212,   -5.120500
 126.106879,   -5.121177
 126.108545,   -5.121854
 126.110212,   -5.122531
 126.111879,   -5.123208
 126.113545,   -5.123885
 126.115212,   -5.124562
 126.116879,   -5.125239
 126.118545,   -5.125091
 126.120212,   -5.123779
 126.121879,   -5.122466
 126.123545,   -5.121153
 126.125212,   -5.119840
 126.126879,   -5.118527
 126.128545,   -5.117214
 126.130212,   -5.115901
 126.131879,   -5.114589
 126.133545,   -5.113276
 126.135212,   -5.112419
 126.136879,   -5.112208
 126.138545,   -5.111997
 126.140212,   -5.111786
 126.141879,   -5.111575
 126.143110,   -5.111419
