Time, Acceleration
   0.000100, 31393.945575
   0.000739, 31393.764837
   0.003192, 31393.070894
   0.010823, 31390.911398
   0.024250, 31387.110237
   0.044979, 31381.238979
   0.074596, 31372.842733
   0.104330, 31364.404576
   0.134065, 31355.957751
   0.163869, 31347.482674
   0.193707, 31338.989186
   0.223662, 31330.453905
   0.253643, 31321.902270
   0.283578, 31313.355501
   0.313608, 31304.772734
   0.343852, 31296.119955
   0.374432, 31287.362083
   0.404940, 31278.616114
   0.435592, 31269.819616
   0.466691, 31260.885812
   0.497414, 31252.050966
   0.529078, 31242.936047
   0.560516, 31233.876776
   0.592142, 31224.753808
   0.624137, 31215.514588
   0.655967, 31206.313521
   0.688174, 31196.993674
   0.720414, 31187.654548
   0.753287, 31178.121879
   0.786414, 31168.505169
   0.819995, 31158.746160
   0.853135, 31149.104778
   0.886634, 31139.348594
   0.920841, 31129.375480
   0.954798, 31119.464265
   0.989673, 31109.273760
   1.024534, 31099.076206
   1.059484, 31088.841280
   1.094625, 31078.538837
   1.130411, 31068.035356
   1.165938, 31057.596398
   1.201923, 31047.011033
   1.238205, 31036.325752
   1.275068, 31025.457316
   1.311728, 31014.636169
   1.348703, 31003.709611
   1.386149, 30992.630875
   1.424187, 30981.364184
   1.461956, 30970.163693
   1.500069, 30958.848396
   1.538712, 30947.361920
   1.577467, 30935.828566
   1.616273, 30924.266261
   1.655379, 30912.600944
   1.694971, 30900.776421
   1.734403, 30888.985648
   1.774730, 30876.912854
   1.815592, 30864.664829
   1.856419, 30852.412583
   1.897659, 30840.020964
   1.939041, 30827.571518
   1.980834, 30814.982972
   2.022645, 30802.373154
   2.064926, 30789.606228
   2.106899, 30776.916175
   2.149625, 30763.982553
   2.193047, 30750.822093
   2.236232, 30737.716578
   2.279402, 30724.599361
   2.322643, 30711.444072
   2.366789, 30697.996647
   2.411165, 30684.462105
   2.456015, 30670.765278
   2.501098, 30656.979963
   2.546355, 30643.123468
   2.591792, 30629.194278
   2.637439, 30615.182420
   2.684018, 30600.866043
   2.730133, 30586.674097
   2.776082, 30572.515092
   2.823102, 30558.007116
   2.870268, 30543.435304
   2.917732, 30528.752127
   2.965183, 30514.054045
   3.013174, 30499.169288
   3.061135, 30484.273991
   3.109731, 30469.162237
   3.158504, 30453.974987
   3.207347, 30438.746421
   3.256583, 30423.374778
   3.305757, 30408.002290
   3.355815, 30392.332972
   3.405625, 30376.720384
   3.455790, 30360.976096
   3.506213, 30345.129611
   3.557356, 30329.035596
   3.608053, 30313.060588
   3.659440, 30296.846840
   3.711312, 30280.458088
   3.762869, 30264.146948
   3.814583, 30247.764832
   3.867039, 30231.125271
   3.919497, 30214.462786
   3.972588, 30197.576824
   4.025604, 30180.692159
   4.078972, 30163.672573
   4.132362, 30146.623441
   4.185896, 30129.505196
   4.239578, 30112.317140
   4.293863, 30094.912657
   4.348175, 30077.476266
   4.402931, 30059.873694
   4.457796, 30042.212573
   4.468696, 30038.701131
   4.496557, 30029.721321
   4.508012, 30026.027677
   4.509220, 30025.637974
   4.510310, 30025.286380
   4.510506, 30025.223122
   4.510756, 30025.142378
   4.510834, 30025.117276
   4.510865, 30025.107297
   4.510923, 30025.083982
   4.510975, 30025.062650
   4.511391, 30024.894027
   4.514157, 30023.772133
   4.524471, 30019.587841
   4.555916, 30006.827395
   4.605748, 29986.594171
   4.656405, 29966.010927
   4.707250, 29945.337066
   4.758623, 29924.433059
   4.809774, 29903.605301
   4.861251, 29882.629413
   4.913371, 29861.376560
   4.965261, 29840.202383
   5.017644, 29818.812307
   5.069824, 29797.489954
   5.122355, 29776.008792
   5.175074, 29754.435948
   5.228246, 29732.662360
   5.281518, 29710.832769
   5.335039, 29688.885645
   5.388215, 29667.064868
   5.441821, 29645.052104
   5.495693, 29622.915125
   5.549678, 29600.716741
   5.603959, 29578.380893
   5.658515, 29555.916312
   5.713207, 29533.380485
   5.768044, 29510.769573
   5.823043, 29488.076635
   5.878092, 29465.347290
   5.933668, 29442.385281
   5.989215, 29419.419332
   6.045085, 29396.304522
   6.101050, 29373.134746
   6.156999, 29349.956138
   6.213502, 29326.532681
   6.269654, 29303.238825
   6.325922, 29279.882048
   6.383068, 29256.144962
   6.439848, 29232.544646
   6.496596, 29208.941979
   6.553449, 29185.280788
   6.611126, 29161.260672
   6.668936, 29137.170057
   6.726692, 29113.086190
   6.784484, 29088.972019
   6.842519, 29064.740912
   6.900806, 29040.389376
   6.959133, 29016.005827
   7.017999, 28991.381390
   7.076878, 28966.735863
   7.135810, 28942.053156
   7.195003, 28917.245465
   7.254191, 28892.424924
   7.313764, 28867.427362
   7.373505, 28842.344302
   7.433077, 28817.316520
   7.493001, 28792.126235
   7.553127, 28766.835360
   7.613492, 28741.428938
   7.673910, 28715.984987
   7.734608, 28690.408414
   7.795320, 28664.810449
   7.856409, 28639.038742
   7.917519, 28613.242856
   7.978831, 28587.346895
   8.040451, 28561.305880
   8.101960, 28535.296781
   8.163769, 28509.146080
   8.225548, 28482.993186
   8.287654, 28456.687061
   8.349751, 28430.370574
   8.411896, 28404.018638
   8.474337, 28377.527149
   8.537248, 28350.821021
   8.600186, 28324.089270
   8.663153, 28297.330868
   8.726096, 28270.567978
   8.789266, 28243.694730
   8.852834, 28216.637468
   8.916386, 28189.572972
   8.980208, 28162.379530
   9.044045, 28135.165404
   9.108006, 28107.884716
   9.172268, 28080.461393
   9.236911, 28052.861646
   9.249870, 28047.327187
   9.265511, 28040.645973
   9.277010, 28035.733956
   9.278818, 28034.961817
   9.280724, 28034.147618
   9.282348, 28033.453427
   9.282704, 28033.301426
   9.283137, 28033.116699
   9.283653, 28032.896309
   9.283774, 28032.844284
   9.283782, 28032.840703
   9.283790, 28032.836822
   9.283864, 28032.798014
   9.284509, 28032.460239
   9.288256, 28030.497743
   9.307371, 28020.488101
   9.363057, 27991.326509
   9.422298, 27960.303816
   9.481505, 27929.299063
   9.540633, 27898.335776
   9.600077, 27867.207311
   9.659647, 27836.013580
   9.719624, 27804.607445
   9.779516, 27773.246375
   9.839362, 27741.910450
   9.899473, 27710.436637
   9.959487, 27679.014805
  10.019705, 27647.487400
  10.080113, 27615.861574
  10.140655, 27584.167439
  10.201390, 27552.373410
  10.262201, 27520.541912
  10.323268, 27488.578002
  10.384243, 27456.664078
  10.445349, 27424.683565
  10.506763, 27392.544497
  10.568376, 27360.303417
  10.629953, 27328.084062
  10.691696, 27295.780444
  10.753431, 27263.483510
  10.815267, 27231.136594
  10.877362, 27198.657104
  10.939382, 27166.220270
  11.001731, 27133.615001
  11.064139, 27100.981732
  11.126811, 27068.214532
  11.189399, 27035.494736
  11.252238, 27002.647166
  11.315359, 26969.656983
  11.378302, 26936.763483
  11.441609, 26903.683997
  11.504788, 26870.676275
  11.568209, 26837.546698
  11.631504, 26804.487140
  11.695111, 26771.269925
  11.758820, 26738.004037
  11.822557, 26704.729195
  11.886602, 26671.298518
  11.950778, 26637.805077
  12.014773, 26604.412098
  12.079125, 26570.838175
  12.143633, 26537.188509
  12.208314, 26503.455167
  12.272901, 26469.776677
  12.337696, 26435.996345
  12.402519, 26402.207972
  12.467787, 26368.194724
  12.533070, 26334.180011
  12.598294, 26300.203382
  12.663551, 26266.216725
  12.728981, 26232.146733
  12.794388, 26198.096697
  12.860095, 26163.898133
  12.925961, 26129.624294
  12.991897, 26095.322293
  13.058068, 26060.906433
  13.124488, 26026.369054
  13.190474, 25992.065939
  13.256712, 25957.640242
  13.323212, 25923.087065
  13.389439, 25888.685148
  13.456111, 25854.060354
  13.522940, 25819.363890
  13.589825, 25784.647833
  13.656840, 25749.873678
  13.723915, 25715.078438
  13.791368, 25680.097055
  13.858631, 25645.224127
  13.926211, 25610.197103
  13.993640, 25575.259460
  14.061210, 25540.258588
  14.129172, 25505.066212
  14.196735, 25470.090662
  14.264687, 25434.925613
  14.332756, 25399.710744
  14.401015, 25364.409199
  14.469410, 25329.049332
  14.472152, 25327.632046
  14.474755, 25326.286441
  14.477556, 25324.838552
  14.478069, 25324.573392
  14.478653, 25324.271630
  14.478839, 25324.175529
  14.479116, 25324.032284
  14.479256, 25323.959877
  14.479313, 25323.930617
  14.479333, 25323.920245
  14.479343, 25323.915336
  14.479359, 25323.905104
  14.479373, 25323.895699
  14.479520, 25323.801652
  14.480843, 25322.955353
  14.487932, 25318.418755
  14.516597, 25300.080577
  14.578121, 25260.743448
  14.639312, 25221.650325
  14.700765, 25182.420622
  14.762494, 25143.046180
  14.824222, 25103.703999
  14.885858, 25064.451756
  14.947570, 25025.183107
  15.009573, 24985.761197
  15.071507, 24946.415182
  15.133456, 24907.091760
  15.195598, 24867.678443
  15.257749, 24828.291887
  15.320171, 24788.766740
  15.382701, 24749.205944
  15.445211, 24709.691459
  15.507791, 24670.166010
  15.570479, 24630.605908
  15.633369, 24590.952286
  15.696463, 24551.204405
  15.759475, 24511.542224
  15.822432, 24471.948693
  15.885562, 24432.281237
  15.948654, 24392.672361
  16.012014, 24352.930091
  16.075440, 24313.181280
  16.138817, 24273.499019
  16.202289, 24233.791874
  16.265978, 24193.984862
  16.329778, 24154.144225
  16.393513, 24114.380762
  16.457513, 24074.487573
  16.521607, 24034.572256
  16.585775, 23994.647715
  16.650009, 23954.719439
  16.714333, 23914.771762
  16.778693, 23874.838729
  16.843218, 23834.840714
  16.907712, 23794.899771
  16.972429, 23754.857962
  17.037082, 23714.894189
  17.101812, 23674.920607
  17.166835, 23634.804262
  17.231997, 23594.641070
  17.297105, 23554.550001
  17.362169, 23514.524312
  17.427373, 23474.452310
  17.492619, 23434.393056
  17.557983, 23394.300603
  17.623576, 23354.107130
  17.689245, 23313.907295
  17.754891, 23273.761532
  17.820694, 23233.560135
  17.886553, 23193.364649
  17.952506, 23153.152331
  18.018581, 23112.906336
  18.084705, 23072.671874
  18.151062, 23032.336492
  18.217245, 22992.147953
  18.283555, 22951.923863
  18.349984, 22911.669485
  18.416614, 22871.334525
  18.483392, 22830.952912
  18.550324, 22790.520396
  18.617287, 22750.111837
  18.684148, 22709.807331
  18.751244, 22669.403718
  18.818336, 22629.046339
  18.885524, 22588.673649
  18.952729, 22548.334575
  19.020056, 22507.965754
  19.087540, 22467.546556
  19.155050, 22427.155729
  19.222587, 22386.792844
  19.290356, 22346.335610
  19.358093, 22305.942061
  19.425921, 22265.539089
  19.493812, 22225.143121
  19.561860, 22184.698977
  19.629932, 22144.285750
  19.698168, 22103.820590
  19.766496, 22063.346330
  19.834876, 22022.887108
  19.903302, 21982.447314
  19.971820, 21941.998566
  20.040470, 21901.518422
  20.109302, 21860.977891
  20.178113, 21820.496822
  20.246961, 21780.040106
  20.315764, 21739.657700
  20.329607, 21731.538149
  20.378716, 21702.749888
  20.379269, 21702.425955
  20.380151, 21701.909016
  20.380294, 21701.825235
  20.380382, 21701.773515
  20.380417, 21701.752956
  20.380452, 21701.732324
  20.380801, 21701.525999
  20.384003, 21699.633566
  20.399918, 21690.228769
  20.460659, 21654.358100
  20.529468, 21613.768070
  20.598515, 21573.086786
  20.667406, 21532.545903
  20.736640, 21491.852205
  20.805793, 21451.255666
  20.875130, 21410.600810
  20.944509, 21369.970242
  21.014028, 21329.308105
  21.083573, 21288.680515
  21.153259, 21248.020727
  21.222942, 21207.413162
  21.292877, 21166.709604
  21.362872, 21126.021853
  21.432864, 21085.386978
  21.502998, 21044.720699
  21.573212, 21004.059280
  21.643393, 20963.468376
  21.713690, 20922.861932
  21.784048, 20882.272380
  21.854552, 20841.649895
  21.925141, 20801.031294
  21.995868, 20760.385616
  22.066473, 20719.862194
  22.137251, 20679.292858
  22.208077, 20638.748288
  22.279047, 20598.174158
  22.349989, 20557.669086
  22.421073, 20517.136532
  22.492261, 20476.598108
  22.563536, 20436.064045
  22.634903, 20395.531413
  22.706269, 20355.053285
  22.777783, 20314.545289
  22.849410, 20274.027909
  22.921139, 20233.507605
  22.992914, 20193.015989
  23.064842, 20152.492867
  23.136757, 20112.032520
  23.208783, 20071.565318
  23.280891, 20031.107062
  23.352968, 19990.721637
  23.425355, 19950.218355
  23.497683, 19909.804399
  23.570041, 19869.429784
  23.642485, 19829.063166
  23.715007, 19788.709571
  23.787591, 19748.378307
  23.860399, 19707.979413
  23.933266, 19667.604489
  24.006153, 19627.275522
  24.079121, 19586.959648
  24.152098, 19546.695718
  24.225333, 19506.347153
  24.298444, 19466.124392
  24.371753, 19425.851063
  24.445105, 19385.612009
  24.518631, 19345.336014
  24.592077, 19305.162219
  24.665704, 19264.947856
  24.739413, 19224.747577
  24.813266, 19184.528045
  24.887275, 19144.282896
  24.961232, 19104.125191
  25.035253, 19063.991823
  25.109496, 19023.798210
  25.183619, 18983.729399
  25.257915, 18943.626753
  25.332409, 18903.478000
  25.406849, 18863.418326
  25.481378, 18823.370923
  25.556013, 18783.327675
  25.630621, 18743.358995
  25.705344, 18703.389897
  25.780175, 18663.424221
  25.855083, 18623.478589
  25.930100, 18583.536182
  26.005213, 18543.604254
  26.080313, 18503.740423
  26.155560, 18463.860580
  26.230803, 18424.045296
  26.306198, 18384.211096
  26.381754, 18344.354226
  26.441786, 18312.731508
  26.457361, 18304.533346
  26.533023, 18265.286071
  26.608785, 18226.841915
  26.684568, 18187.438810
  26.760377, 18147.095527
  26.836405, 18105.288346
  26.912328, 18063.134722
  26.988387, 18019.101028
  27.064596, 17974.729238
  27.140675, 17928.980619
  27.216868, 17882.500972
  27.293195, 17835.188212
  27.369674, 17786.486385
  27.384960, 17769.146911
  27.399588, 17759.542866
  27.411806, 17751.094333
  27.412193, 17749.099061
  27.412210, 17749.033741
  27.412227, 17749.023142
  27.412394, 17748.939252
  27.413805, 17748.226545
  27.422600, 17743.729915
  27.456725, 17725.798564
  27.534498, 17682.855157
  27.613696, 17632.583011
  27.692963, 17580.951627
  27.772229, 17528.423190
  27.851585, 17475.529301
  27.930891, 17421.036284
  28.010203, 17366.419848
  28.089467, 17310.765919
  28.168885, 17254.272882
  28.248265, 17197.659377
  28.327715, 17139.354221
  28.407204, 17080.937766
  28.486787, 17021.835235
  28.566394, 16961.640928
  28.646011, 16901.390480
  28.725560, 16840.123472
  28.805032, 16778.357712
  28.884658, 16716.525623
  28.964182, 16653.359863
  29.043774, 16590.009873
  29.123383, 16526.609359
  29.202976, 16461.771680
  29.282694, 16396.910974
  29.362325, 16331.955134
  29.368358, 16294.456549
  29.374384, 16283.260394
  29.380396, 16271.976495
  29.386433, 16260.546524
  29.392467, 16248.999730
  29.398498, 16237.346343
  29.404560, 16225.533219
  29.410618, 16213.603565
  29.416653, 16201.598318
  29.422726, 16189.427114
  29.428775, 16177.169706
  29.434848, 16164.767043
  29.440899, 16152.281360
  29.446967, 16139.661805
  29.453055, 16126.888967
  29.459151, 16113.982526
  29.465236, 16100.978721
  29.471347, 16087.819283
  29.477438, 16074.573051
  29.483551, 16061.180445
  29.489675, 16047.644203
  29.495808, 16033.975980
  29.501946, 16020.179020
  29.508042, 16006.347033
  29.514092, 15992.506112
  29.520243, 15978.373628
  29.526372, 15964.069555
  29.532514, 15949.589038
  29.538674, 15934.953417
  29.544823, 15920.220624
  29.551000, 15905.319420
  29.557175, 15890.295545
  29.563341, 15875.177986
  29.569540, 15859.880940
  29.575698, 15844.541679
  29.581902, 15829.005770
  29.588119, 15813.310420
  29.594314, 15797.541630
  29.600501, 15781.685486
  29.606672, 15765.750961
  29.612839, 15749.718159
  29.619083, 15733.400962
  29.625325, 15716.944663
  29.631577, 15700.349915
  29.637822, 15683.650677
  29.644053, 15666.871254
  29.650331, 15649.870155
  29.656611, 15632.732385
  29.662902, 15615.448656
  29.669197, 15598.035496
  29.675453, 15580.597078
  29.681735, 15562.996867
  29.688045, 15545.198993
  29.694375, 15527.227187
  29.700699, 15509.141371
  29.707027, 15490.932915
  29.713335, 15472.653805
  29.719670, 15454.199104
  29.726007, 15435.610866
  29.732384, 15416.799162
  29.738736, 15397.920105
  29.745096, 15378.912021
  29.751469, 15359.746762
  29.757842, 15340.461159
  29.764253, 15320.953403
  29.770662, 15301.318496
  29.777036, 15281.562937
  29.783427, 15261.640354
  29.789875, 15241.435563
  29.796300, 15221.150590
  29.802724, 15200.761502
  29.809207, 15180.085832
  29.815632, 15159.429759
  29.822129, 15138.471257
  29.828647, 15117.305165
  29.835080, 15096.253325
  29.841555, 15074.992556
  29.848039, 15053.570797
  29.854534, 15031.991538
  29.860974, 15010.450580
  29.867491, 14991.182944
  29.874030, 14971.823483
  29.880620, 14952.282088
  29.887192, 14932.767221
  29.893753, 14913.257340
  29.900258, 14893.884298
  29.906862, 14874.189978
  29.913428, 14854.577628
  29.920033, 14834.821473
  29.926595, 14815.166372
  29.933218, 14795.298625
  29.939842, 14775.400799
  29.946483, 14755.421623
  29.953099, 14735.490941
  29.959722, 14715.510150
  29.966373, 14695.415917
  29.973044, 14675.229575
  29.979673, 14655.145718
  29.986351, 14634.884443
  29.993073, 14614.460217
  29.999802, 14593.983684
  30.006476, 14573.647723
  30.013168, 14553.229207
  30.019879, 14532.722815
  30.026624, 14512.084503
  30.033365, 14491.427446
  30.040065, 14470.868753
  30.046817, 14450.120734
  30.053591, 14429.277688
  30.060309, 14408.578586
  30.067074, 14387.704037
  30.073874, 14366.695818
  30.080652, 14345.722632
  30.087489, 14324.539147
  30.094279, 14303.474651
  30.101128, 14282.195709
  30.107965, 14260.924511
  30.114803, 14239.623769
  30.121666, 14218.215182
  30.128522, 14196.797521
  30.135393, 14175.306162
  30.142262, 14153.790227
  30.149131, 14132.247038
  30.156032, 14110.571942
  30.162974, 14088.742234
  30.169862, 14067.050382
  30.176823, 14045.098996
  30.183773, 14023.156166
  30.190744, 14001.115208
  30.197712, 13979.054388
  30.204699, 13956.905532
  30.211678, 13934.752031
  30.218723, 13912.357537
  30.225730, 13890.056277
  30.232697, 13867.852944
  30.239727, 13845.417622
  30.246794, 13822.836546
  30.253882, 13800.158836
  30.260895, 13777.691199
  30.267996, 13754.912250
  30.275064, 13732.206478
  30.282188, 13709.296130
  30.289317, 13686.337030
  30.296447, 13663.344635
  30.303588, 13640.288177
  30.310756, 13617.113455
  30.317932, 13593.884043
  30.325099, 13570.652162
  30.332215, 13547.559735
  30.339382, 13524.268999
  30.346591, 13500.812977
  30.353825, 13477.247002
  30.360974, 13453.926592
  30.361066, 13453.626128
  30.368312, 13429.970759
  30.375571, 13407.127272
  30.382781, 13384.450922
  30.390083, 13361.476407
  30.397403, 13338.456122
  30.404688, 13315.559581
  30.411975, 13292.656641
  30.419312, 13269.598775
  30.426686, 13246.430486
  30.434079, 13223.209567
  30.441441, 13200.099787
  30.448839, 13176.874606
  30.456264, 13153.572325
  30.463680, 13130.307119
  30.471081, 13107.099154
  30.478507, 13083.811031
  30.485943, 13060.503056
  30.493416, 13037.078420
  30.500934, 13013.523007
  30.508424, 12990.067230
  30.515917, 12966.606523
  30.523409, 12943.155713
  30.530957, 12919.532217
  30.538460, 12896.067880
  30.545990, 12872.516295
  30.553474, 12849.125979
  30.561019, 12825.538711
  30.568570, 12801.948470
  30.576142, 12778.296588
  30.583680, 12754.764672
  30.591291, 12731.000505
  30.598908, 12707.234788
  30.606556, 12683.376601
  30.614239, 12659.418117
  30.621920, 12635.475768
  30.629618, 12611.489296
  30.637313, 12587.522727
  30.645050, 12563.428354
  30.652786, 12539.350317
  30.660539, 12515.226253
  30.668275, 12491.157956
  30.676049, 12466.943038
  30.683813, 12442.771948
  30.691626, 12418.453479
  30.699427, 12394.185267
  30.707265, 12369.807562
  30.715022, 12345.707045
  30.722910, 12321.183323
  30.730807, 12296.653333
  30.738705, 12272.132956
  30.746623, 12247.559287
  30.754479, 12223.197204
  30.762367, 12198.735641
  30.770298, 12174.146979
  30.778207, 12149.646633
  30.786191, 12124.915180
  30.794122, 12100.370005
  30.802068, 12075.783313
  30.810082, 12050.991451
  30.818119, 12026.143588
  30.826187, 12001.212626
  30.834239, 11976.344213
  30.842311, 11951.424810
  30.850421, 11926.397355
  30.858420, 11901.739514
  30.866533, 11876.717356
  30.874669, 11851.646370
  30.882749, 11826.769248
  30.890913, 11801.631169
  30.899063, 11776.558368
  30.907179, 11751.603737
  30.915404, 11726.311873
  30.923684, 11700.871616
  30.931922, 11675.581104
  30.940150, 11650.333005
  30.948413, 11624.985076
  30.956690, 11599.610436
  30.964962, 11574.266000
  30.973220, 11548.980889
  30.981532, 11523.536592
  30.989902, 11497.927064
  30.998267, 11472.354328
  31.006657, 11446.715585
  31.015014, 11421.199455
  31.023424, 11395.526301
  31.031878, 11369.735401
  31.040306, 11344.046273
  31.048788, 11318.197987
  31.057274, 11292.359679
  31.065700, 11266.726262
  31.074183, 11240.921280
  31.082725, 11214.954482
  31.091261, 11189.026258
  31.099718, 11163.362403
  31.108174, 11137.711242
  31.116715, 11111.805190
  31.125369, 11085.572822
  31.133922, 11059.684262
  31.142606, 11033.392500
  31.151232, 11007.311051
  31.159840, 10981.300002
  31.168544, 10955.004162
  31.177216, 10928.834217
  31.185898, 10902.646075
  31.194640, 10876.292624
  31.203309, 10850.191008
  31.212040, 10823.902282
  31.220743, 10797.730278
  31.229413, 10771.675056
  31.238170, 10745.362534
  31.246933, 10719.059402
  31.255702, 10692.758170
  31.264558, 10666.204795
  31.273418, 10639.668396
  31.282213, 10613.353733
  31.291050, 10586.921792
  31.299934, 10560.367357
  31.308796, 10533.908636
  31.317707, 10507.311865
  31.326610, 10480.766748
  31.335590, 10454.005762
  31.344561, 10427.298427
  31.353557, 10400.537471
  31.362500, 10373.960844
  31.371496, 10347.236152
  31.380519, 10320.456293
  31.389498, 10293.836586
  31.398542, 10267.032906
  31.407577, 10240.286286
  31.416721, 10213.227260
  31.425884, 10186.144145
  31.435027, 10159.144244
  31.444134, 10132.277971
  31.453267, 10105.351391
  31.462348, 10078.607233
  31.471486, 10051.710375
  31.480615, 10024.867067
  31.489798, 9997.879673
  31.499062, 9970.679189
  31.508369, 9943.379975
  31.517668, 9916.110465
  31.526998, 9888.740967
  31.536359, 9861.309109
  31.545701, 9833.958410
  31.555050, 9806.614793
  31.564416, 9779.240278
  31.573783, 9751.894357
  31.583144, 9724.590892
  31.592564, 9697.135269
  31.601992, 9669.686535
  31.611391, 9642.352672
  31.620829, 9614.924917
  31.630330, 9587.340981
  31.639799, 9559.882825
  31.649334, 9532.253355
  31.658849, 9504.718932
  31.668359, 9477.220954
  31.677902, 9449.655190
  31.687461, 9422.071584
  31.697096, 9394.290239
  31.706731, 9366.546245
  31.716389, 9338.764958
  31.726100, 9310.854466
  31.735760, 9283.130903
  31.745374, 9255.569244
  31.755067, 9227.797674
  31.764710, 9200.214208
  31.774473, 9172.297876
  31.784162, 9144.644050
  31.793952, 9116.712885
  31.803672, 9089.031597
  31.813466, 9061.153972
  31.823285, 9033.241909
  31.833071, 9005.464076
  31.842923, 8977.516595
  31.852806, 8949.518399
  31.862595, 8921.834009
  31.872485, 8893.874710
  31.882357, 8866.010119
  31.892202, 8838.255649
  31.902184, 8810.129202
  31.912051, 8782.390645
  31.921924, 8754.653480
  31.931970, 8726.444865
  31.941918, 8698.575789
  31.951938, 8670.519876
  31.962034, 8642.289060
  31.972060, 8614.301889
  31.982038, 8586.482364
  31.992170, 8558.243925
  32.002316, 8530.021155
  32.012541, 8501.607479
  32.022611, 8473.686023
  32.032719, 8445.672876
  32.042838, 8417.671713
  32.053052, 8389.431692
  32.063199, 8361.434250
  32.073439, 8333.199907
  32.083668, 8305.044882
  32.093967, 8276.726391
  32.104151, 8248.781989
  32.114414, 8220.637996
  32.124783, 8192.237849
  32.135085, 8164.081076
  32.145433, 8135.825627
  32.155689, 8107.876411
  32.166132, 8079.425135
  32.176424, 8051.462875
  32.186927, 8022.929614
  32.197272, 7994.904226
  32.207763, 7966.490587
  32.218327, 7937.930386
  32.228752, 7909.810431
  32.239194, 7881.669563
  32.249721, 7853.334213
  32.260205, 7825.169308
  32.270729, 7796.932683
  32.281188, 7768.923474
  32.291726, 7740.727928
  32.302296, 7712.498231
  32.312892, 7684.241596
  32.323675, 7655.514344
  32.334354, 7627.138482
  32.345069, 7598.700794
  32.355780, 7570.319504
  32.366429, 7542.124086
  32.377022, 7514.092448
  32.387797, 7485.601067
  32.398477, 7457.434604
  32.409190, 7429.213321
  32.419818, 7401.276227
  32.430596, 7372.964024
  32.441407, 7344.625552
  32.452251, 7316.247707
  32.463012, 7288.148116
  32.473831, 7259.930736
  32.484676, 7231.694166
  32.495634, 7203.206858
  32.506522, 7174.965915
  32.517614, 7146.218765
  32.528492, 7118.119463
  32.539470, 7089.780826
  32.550354, 7061.753379
  32.561282, 7033.647409
  32.572246, 7005.502273
  32.583234, 6977.344810
  32.594316, 6948.991943
  32.605237, 6921.130730
  32.616342, 6892.814573
  32.627388, 6864.724191
  32.638576, 6836.306518
  32.649688, 6808.158588
  32.660770, 6780.134410
  32.671936, 6751.938367
  32.683117, 6723.766005
  32.694334, 6695.555003
  32.705621, 6667.222610
  32.716847, 6639.109281
  32.727993, 6611.253659
  32.739338, 6582.926830
  32.750511, 6555.125671
  32.761652, 6527.443122
  32.772812, 6499.761641
  32.784125, 6471.746236
  32.795310, 6444.130717
  32.806623, 6416.231621
  32.818049, 6388.111431
  32.829537, 6359.901773
  32.841005, 6331.812690
  32.852540, 6303.607960
  32.864044, 6275.549506
  32.875414, 6247.886111
  32.886855, 6220.090281
  32.898356, 6192.210877
  32.909888, 6164.318683
  32.921505, 6136.275788
  32.933004, 6108.600528
  32.944545, 6080.869865
  32.955989, 6053.447364
  32.967598, 6025.665730
  32.979147, 5998.111292
  32.990802, 5970.348542
  33.002506, 5942.541040
  33.014197, 5914.832151
  33.025928, 5887.091289
  33.037639, 5859.465112
  33.049324, 5831.966244
  33.061152, 5804.179515
  33.073047, 5776.310602
  33.084737, 5749.016089
  33.096359, 5721.928500
  33.108231, 5694.296242
  33.120024, 5666.944914
  33.131769, 5639.768060
  33.143610, 5612.422629
  33.155564, 5584.882347
  33.167419, 5557.660696
  33.179275, 5530.494091
  33.191337, 5502.906347
  33.203256, 5475.748216
  33.215210, 5448.519069
  33.227077, 5421.545837
  33.239037, 5394.411444
  33.251005, 5367.338119
  33.263009, 5340.253349
  33.275081, 5313.080155
  33.279532, 5303.809848
