Time, Acceleration
   0.000100, 32432.258286
   0.000632, 32432.098207
   0.002218, 32431.620871
   0.007077, 32430.158273
   0.016932, 32427.190808
   0.033662, 32422.150819
   0.058512, 32414.659577
   0.087458, 32405.924819
   0.116303, 32397.212015
   0.145366, 32388.423994
   0.174441, 32379.623679
   0.203588, 32370.792147
   0.232909, 32361.898995
   0.262299, 32352.975699
   0.291871, 32343.988010
   0.321316, 32335.029832
   0.351004, 32325.988094
   0.380597, 32316.966289
   0.410762, 32307.760566
   0.440644, 32298.631621
   0.471076, 32289.325193
   0.501615, 32279.976188
   0.532006, 32270.662539
   0.562763, 32261.227164
   0.593681, 32251.732317
   0.624600, 32242.227090
   0.656013, 32232.560070
   0.687658, 32222.811082
   0.719786, 32212.902448
   0.751814, 32203.014350
   0.784227, 32192.996316
   0.816741, 32182.936068
   0.849643, 32172.744968
   0.882412, 32162.583730
   0.915618, 32152.275618
   0.949000, 32141.901783
   0.982734, 32131.406623
   1.016581, 32120.864607
   1.050738, 32110.214330
   1.085043, 32099.505744
   1.119784, 32088.648832
   1.154759, 32077.706335
   1.190225, 32066.597435
   1.226161, 32055.328417
   1.262379, 32043.957705
   1.298572, 32032.581502
   1.334699, 32021.212958
   1.371762, 32009.536303
   1.408680, 31997.891409
   1.445733, 31986.190167
   1.482969, 31974.417087
   1.520248, 31962.616801
   1.557873, 31950.692849
   1.596460, 31938.449133
   1.635326, 31926.102166
   1.673656, 31913.910824
   1.712445, 31901.558336
   1.751185, 31889.206745
   1.790480, 31876.662958
   1.830122, 31863.993180
   1.870346, 31851.121602
   1.910553, 31838.239268
   1.951079, 31825.238916
   1.992188, 31812.035136
   2.033930, 31798.611171
   2.075686, 31785.165496
   2.117167, 31771.791698
   2.159066, 31758.266367
   2.201369, 31744.593052
   2.243683, 31730.899061
   2.286842, 31716.914050
   2.329881, 31702.949853
   2.373328, 31688.835302
   2.417343, 31674.517657
   2.461260, 31660.213342
   2.505257, 31645.864844
   2.549760, 31631.332629
   2.594599, 31616.671393
   2.639517, 31601.965550
   2.684373, 31587.260761
   2.730016, 31572.278712
   2.775929, 31557.187942
   2.821576, 31542.165367
   2.867938, 31526.887552
   2.914524, 31511.515610
   2.961161, 31496.106574
   3.007760, 31480.689720
   3.054346, 31465.257404
   3.101862, 31449.496082
   3.149295, 31433.741865
   3.196986, 31417.880824
   3.245242, 31401.810799
   3.293617, 31385.679837
   3.342336, 31369.412665
   3.391454, 31352.990317
   3.440379, 31336.610679
   3.489363, 31320.189535
   3.538787, 31303.599067
   3.588350, 31286.940100
   3.638050, 31270.212654
   3.688589, 31253.180158
   3.739293, 31236.069421
   3.789874, 31218.977125
   3.841149, 31201.627319
   3.892142, 31184.349691
   3.943302, 31166.992751
   3.994663, 31149.544188
   4.046067, 31132.058021
   4.098274, 31114.275090
   4.150657, 31096.408491
   4.202913, 31078.561248
   4.255790, 31060.477688
   4.308740, 31042.345302
   4.362333, 31023.968038
   4.364484, 31023.230053
   4.364869, 31023.097886
   4.365322, 31022.942441
   4.365847, 31022.762077
   4.365953, 31022.725786
   4.366125, 31022.666843
   4.366145, 31022.660073
   4.366166, 31022.650987
   4.366185, 31022.642646
   4.366376, 31022.560387
   4.367803, 31021.944477
   4.374519, 31019.045453
   4.396405, 31009.597193
   4.441382, 30990.170612
   4.490729, 30968.841729
   4.540319, 30947.392453
   4.590063, 30925.861037
   4.639970, 30904.243759
   4.689936, 30882.585132
   4.740244, 30860.762934
   4.790663, 30838.876917
   4.841315, 30816.874235
   4.892000, 30794.841764
   4.943181, 30772.577433
   4.994401, 30750.280697
   5.045824, 30727.879320
   5.097109, 30705.522972
   5.148344, 30683.172375
   5.200012, 30660.617494
   5.251978, 30637.916552
   5.304411, 30614.995669
   5.356924, 30592.023883
   5.409358, 30569.071139
   5.461929, 30546.042097
   5.514730, 30522.896213
   5.568069, 30499.498933
   5.621442, 30476.070337
   5.674481, 30452.772605
   5.727951, 30429.269878
   5.782095, 30405.454565
   5.836095, 30381.686626
   5.890245, 30357.836310
   5.944498, 30333.924789
   5.999100, 30309.843192
   6.053986, 30285.620313
   6.108635, 30261.485864
   6.163799, 30237.107592
   6.218899, 30212.741965
   6.274055, 30188.335574
   6.329569, 30163.754431
   6.385452, 30138.994049
   6.441373, 30114.200376
   6.497327, 30089.376358
   6.553451, 30064.460585
   6.609855, 30039.404442
   6.666761, 30014.109446
   6.723169, 29989.019485
   6.780033, 29963.710987
   6.837017, 29938.332772
   6.893892, 29912.987679
   6.951029, 29887.509749
   7.008534, 29861.851808
   7.066398, 29836.017885
   7.124275, 29810.161987
   7.182399, 29784.179896
   7.240490, 29758.196618
   7.298703, 29732.143315
   7.357130, 29705.978092
   7.415748, 29679.711638
   7.474744, 29653.260278
   7.533600, 29626.855707
   7.592540, 29600.398392
   7.652043, 29573.672080
   7.711576, 29546.917069
   7.771108, 29520.146739
   7.831182, 29493.116882
   7.890883, 29466.239400
   7.950833, 29439.234799
   8.011051, 29412.094296
   8.071419, 29384.870339
   8.132021, 29357.525804
   8.192433, 29330.251944
   8.253376, 29302.722883
   8.314123, 29275.267561
   8.375301, 29247.602153
   8.436530, 29219.899101
   8.497769, 29192.176264
   8.558925, 29164.476295
   8.620532, 29136.557253
   8.682220, 29108.587161
   8.744135, 29080.499195
   8.806265, 29052.299587
   8.868658, 29023.965245
   8.931284, 28995.511113
   8.943810, 28989.818186
   8.952451, 28985.890667
   8.959285, 28982.784276
   8.983431, 28971.806887
   8.983938, 28971.576330
   8.984508, 28971.317361
   8.984628, 28971.262469
   8.984837, 28971.167711
   8.984898, 28971.139835
   8.985010, 28971.088959
   8.985036, 28971.077247
   8.985050, 28971.071001
   8.985056, 28971.067859
   8.985062, 28971.064593
   8.985120, 28971.031937
   8.985587, 28970.771686
   8.988133, 28969.352958
   8.997849, 28963.938297
   9.030135, 28945.944884
   9.085668, 28914.995226
   9.143015, 28883.034649
   9.200356, 28851.077455
   9.257994, 28818.955219
   9.315591, 28786.856132
   9.373540, 28754.560936
   9.431503, 28722.258612
   9.489503, 28689.936708
   9.547358, 28657.696339
   9.605610, 28625.235315
   9.663919, 28592.743832
   9.722408, 28560.153189
   9.780720, 28527.662776
   9.839438, 28494.947554
   9.898322, 28462.141170
   9.957245, 28429.314762
  10.016390, 28396.366551
  10.075705, 28363.325528
  10.135223, 28330.173485
  10.194830, 28296.974661
  10.254330, 28263.837357
  10.314054, 28230.577934
  10.373988, 28197.203956
  10.434182, 28163.688278
  10.494340, 28130.195086
  10.554496, 28096.706584
  10.614852, 28063.110079
  10.675502, 28029.352947
  10.735977, 27995.696314
  10.796382, 27962.082704
  10.857327, 27928.172711
  10.918219, 27894.295925
  10.979244, 27860.348615
  11.040275, 27826.402918
  11.101573, 27792.312428
  11.162791, 27758.271566
  11.224604, 27723.903952
  11.286345, 27689.581475
  11.347999, 27655.312172
  11.409934, 27620.891893
  11.471914, 27586.452293
  11.534058, 27551.926289
  11.596522, 27517.228245
  11.658699, 27482.695930
  11.721046, 27448.074280
  11.783485, 27413.408163
  11.846054, 27378.676095
  11.908838, 27343.830706
  11.971772, 27308.908594
  12.034635, 27274.032300
  12.097630, 27239.090201
  12.160739, 27204.091533
  12.224052, 27168.986984
  12.287535, 27133.795529
  12.351098, 27098.567191
  12.414670, 27063.341262
  12.478586, 27027.932582
  12.542516, 26992.524180
  12.606529, 26957.078648
  12.670728, 26921.537622
  12.735065, 26885.929092
  12.799409, 26850.325386
  12.863739, 26814.738510
  12.928110, 26779.137420
  12.992762, 26743.390395
  13.057461, 26707.626776
  13.122301, 26671.794302
  13.187081, 26636.005208
  13.252015, 26600.140371
  13.316954, 26564.283024
  13.382107, 26528.317539
  13.447404, 26492.283324
  13.512813, 26456.197307
  13.578512, 26419.962569
  13.644017, 26383.845468
  13.709788, 26347.592667
  13.775731, 26311.256966
  13.841639, 26274.951125
  13.907742, 26238.550088
  13.974067, 26202.038515
  13.987331, 26194.738153
  13.997606, 26189.083699
  14.004429, 26185.328427
  14.009633, 26182.464824
  14.010523, 26181.974822
  14.010743, 26181.854118
  14.011097, 26181.659144
  14.011187, 26181.609413
  14.011368, 26181.509950
  14.011427, 26181.477621
  14.011433, 26181.473670
  14.011439, 26181.469813
  14.011495, 26181.431239
  14.012037, 26181.062481
  14.016046, 26178.330701
  14.038658, 26162.928378
  14.098070, 26122.481094
  14.157592, 26081.990463
  14.217218, 26041.460993
  14.276867, 26000.947624
  14.336595, 25960.413103
  14.396356, 25919.888391
  14.456385, 25879.215064
  14.516434, 25838.560876
  14.576499, 25797.928492
  14.636655, 25757.267973
  14.696908, 25716.575047
  14.757185, 25675.899351
  14.817507, 25635.227428
  14.878023, 25594.457979
  14.938506, 25553.745499
  14.999281, 25512.870562
  15.060239, 25471.907081
  15.121200, 25430.975811
  15.182024, 25390.172147
  15.243050, 25349.267690
  15.304132, 25308.361028
  15.365234, 25267.476059
  15.426481, 25226.530473
  15.487876, 25185.520763
  15.549356, 25144.491136
  15.610866, 25103.476845
  15.672419, 25062.471206
  15.734225, 25021.332618
  15.796102, 24980.184308
  15.858178, 24938.941111
  15.920204, 24897.767954
  15.982294, 24856.589929
  16.044409, 24815.432271
  16.106669, 24774.216922
  16.169061, 24732.952529
  16.231560, 24691.655297
  16.294076, 24650.385073
  16.356717, 24609.071060
  16.419446, 24567.737780
  16.482399, 24526.295759
  16.545419, 24484.849454
  16.608300, 24443.534062
  16.671297, 24402.181460
  16.734333, 24360.843167
  16.797583, 24319.404922
  16.860971, 24277.916074
  16.924275, 24236.522177
  16.987921, 24194.945502
  17.051577, 24153.403458
  17.115187, 24111.932461
  17.178917, 24070.424545
  17.242619, 24028.975411
  17.306469, 23987.472063
  17.370501, 23945.891698
  17.434520, 23904.361551
  17.498597, 23862.836310
  17.562712, 23821.328292
  17.626985, 23779.760650
  17.691450, 23738.111609
  17.755942, 23696.487642
  17.820405, 23654.925869
  17.885264, 23613.151522
  17.949991, 23571.506233
  18.014923, 23529.772898
  18.079837, 23488.094918
  18.144838, 23446.405004
  18.209886, 23404.729851
  18.275034, 23363.034418
  18.340328, 23321.290470
  18.405683, 23279.551876
  18.471125, 23237.803618
  18.536555, 23196.107561
  18.602220, 23154.307786
  18.667702, 23112.669732
  18.733370, 23070.958662
  18.799165, 23029.213843
  18.865063, 22987.448750
  18.930923, 22945.754902
  18.996927, 22904.016102
  19.063127, 22862.199444
  19.129225, 22820.495237
  19.195513, 22778.717595
  19.261800, 22736.987327
  19.328185, 22695.243644
  19.394669, 22653.484892
  19.461150, 22611.775745
  19.527920, 22569.933858
  19.594693, 22528.137777
  19.661644, 22486.279093
  19.675033, 22477.913983
  19.685567, 22471.333930
  19.694118, 22465.993565
  19.701645, 22461.292964
  19.708033, 22457.304654
  19.713601, 22453.828497
  19.714517, 22453.256220
  19.715569, 22452.599456
  19.717235, 22451.559858
  19.717388, 22451.464480
  19.717455, 22451.421790
  19.717517, 22451.383000
  19.718133, 22450.995104
  19.722664, 22448.142413
  19.767969, 22419.628130
  19.834747, 22377.641413
  19.901660, 22335.620083
  19.968625, 22293.616141
  20.035574, 22251.672433
  20.102680, 22209.681230
  20.169782, 22167.743553
  20.236975, 22125.799447
  20.304287, 22083.832154
  20.371670, 22041.872399
  20.439175, 21999.887837
  20.506853, 21957.847726
  20.574441, 21915.915255
  20.642270, 21873.885370
  20.710028, 21831.951923
  20.777905, 21789.997331
  20.845864, 21748.044702
  20.913955, 21706.063793
  20.982124, 21664.087771
  21.050265, 21622.181609
  21.118651, 21580.178540
  21.187101, 21538.189814
  21.255519, 21496.274946
  21.324087, 21454.321733
  21.392662, 21412.418525
  21.461353, 21370.498678
  21.530044, 21328.633245
  21.599018, 21286.649899
  21.667922, 21244.764527
  21.737006, 21202.824754
  21.806117, 21160.923885
  21.875216, 21119.085347
  21.944363, 21077.273630
  22.013598, 21035.463827
  22.083019, 20993.597961
  22.152482, 20951.763294
  22.221901, 20910.010281
  22.291615, 20868.136976
  22.361376, 20826.292340
  22.431150, 20784.496715
  22.501065, 20742.673402
  22.570933, 20700.935126
  22.640903, 20659.193561
  22.711127, 20617.358393
  22.781286, 20575.619145
  22.851601, 20533.845302
  22.921880, 20492.151242
  22.992335, 20450.410605
  23.062919, 20408.652077
  23.133447, 20366.985114
  23.204171, 20325.261266
  23.275003, 20283.533307
  23.345759, 20241.908818
  23.416597, 20200.294806
  23.487569, 20158.662336
  23.558475, 20117.127666
  23.629604, 20075.522432
  23.700689, 20034.002483
  23.771974, 19992.425618
  23.843304, 19950.883275
  23.914799, 19909.304954
  23.986327, 19867.768367
  24.057858, 19826.290654
  24.129555, 19784.777524
  24.201342, 19743.274217
  24.273097, 19701.850203
  24.345049, 19660.373993
  24.416914, 19619.009370
  24.489031, 19577.561271
  24.561103, 19536.201791
  24.633332, 19494.813488
  24.705493, 19453.526661
  24.777789, 19412.225442
  24.850255, 19370.888980
  24.922755, 19329.596293
  24.995338, 19288.318960
  25.059089, 19252.116632
  25.067965, 19247.080393
  25.140524, 19206.252212
  25.213319, 19166.531152
  25.286233, 19125.662052
  25.359232, 19084.179661
  25.432201, 19041.090402
  25.505311, 18997.655569
  25.578432, 18952.707237
  25.651549, 18907.159567
  25.724781, 18860.779401
  25.798200, 18813.013666
  25.871590, 18765.035651
  25.945076, 18715.467129
  26.018770, 18665.348305
  26.092399, 18614.567597
  26.166060, 18562.542187
  26.239795, 18510.312355
  26.313596, 18456.765434
  26.387375, 18402.660190
  26.461231, 18348.263696
  26.476009, 18324.891052
  26.487506, 18315.499471
  26.497390, 18307.671743
  26.505296, 18301.266100
  26.507231, 18298.559993
  26.510645, 18296.277170
  26.511259, 18295.230486
  26.512147, 18294.613452
  26.512400, 18294.289851
  26.512452, 18294.208747
  26.512484, 18294.181063
  26.512513, 18294.158960
  26.512809, 18293.998723
  26.515281, 18292.649323
  26.527420, 18285.812736
  26.598668, 18246.201755
  26.675234, 18191.072569
  26.751797, 18133.506659
  26.828228, 18075.909527
  26.904737, 18017.368315
  26.981399, 17957.956364
  27.057991, 17898.469878
  27.134579, 17837.717650
  27.211281, 17776.563856
  27.287928, 17715.362434
  27.364502, 17652.690065
  27.441011, 17590.043798
  27.517733, 17527.131060
  27.594581, 17462.766779
  27.671263, 17398.447559
  27.747885, 17334.005799
  27.824699, 17268.269669
  27.901283, 17202.609716
  27.907207, 17167.278503
  27.913139, 17156.326925
  27.919040, 17145.305430
  27.924975, 17134.131717
  27.930914, 17122.826245
  27.936838, 17111.429427
  27.942771, 17099.910873
  27.948687, 17088.302318
  27.954624, 17076.555458
  27.960582, 17064.653152
  27.966547, 17052.618045
  27.972513, 17040.463653
  27.978491, 17028.176581
  27.984464, 17015.778236
  27.990437, 17003.267842
  27.996407, 16990.650138
  28.002355, 16977.959034
  28.008352, 16965.074344
  28.014331, 16952.091003
  28.020332, 16938.959596
  28.026332, 16925.708440
  28.032332, 16912.344631
  28.038353, 16898.825259
  28.044365, 16885.200981
  28.050392, 16871.437672
  28.056421, 16857.548954
  28.062451, 16843.544720
  28.068463, 16829.459428
  28.074507, 16815.202235
  28.080561, 16800.800277
  28.086580, 16786.350136
  28.092641, 16771.711195
  28.098711, 16756.925039
  28.104776, 16742.028541
  28.110808, 16727.088077
  28.116879, 16711.963344
  28.122973, 16696.661384
  28.129069, 16681.229270
  28.135135, 16665.744014
  28.141251, 16650.039907
  28.147339, 16634.160640
  28.153462, 16618.096591
  28.159598, 16601.871615
  28.165732, 16585.531393
  28.171868, 16569.069529
  28.178018, 16552.457419
  28.184145, 16535.777388
  28.190292, 16518.941441
  28.196450, 16501.955093
  28.202560, 16484.963146
  28.208729, 16467.732009
  28.214872, 16450.423889
  28.221036, 16432.957620
  28.227252, 16415.239021
  28.233438, 16397.454577
  28.239658, 16379.481380
  28.245886, 16361.353890
  28.252110, 16343.114809
  28.258312, 16324.817524
  28.264541, 16306.338028
  28.270750, 16287.782815
  28.276981, 16269.061318
  28.283233, 16250.155416
  28.289482, 16231.132307
  28.295767, 16211.892418
  28.302061, 16192.496689
  28.308368, 16172.939473
  28.314637, 16153.362217
  28.320932, 16133.610258
  28.327219, 16113.748779
  28.333513, 16093.751779
  28.339834, 16073.555477
  28.346177, 16053.166536
  28.352500, 16032.704388
  28.358827, 16012.118374
  28.365160, 15991.392861
  28.371523, 15970.456067
  28.377876, 15949.418352
  28.384218, 15928.293059
  28.390581, 15906.974544
  28.396984, 15885.310577
  28.403387, 15863.507115
  28.409784, 15841.599837
  28.416171, 15819.604901
  28.422606, 15797.344649
  28.429034, 15774.961521
  28.435498, 15752.347634
  28.441940, 15729.663814
  28.448402, 15706.802788
  28.454911, 15683.662462
  28.461394, 15660.462101
  28.467890, 15637.102600
  28.474395, 15613.586964
  28.480931, 15592.517594
  28.487497, 15571.322919
  28.494048, 15550.143087
  28.500574, 15529.017731
  28.507138, 15507.738828
  28.513695, 15486.448864
  28.520234, 15465.190313
  28.526793, 15443.835997
  28.533372, 15422.387696
  28.539962, 15400.875491
  28.546573, 15379.261967
  28.553177, 15357.640000
  28.559758, 15336.064318
  28.566407, 15314.236344
  28.573063, 15292.352708
  28.579717, 15270.447221
  28.586359, 15248.553531
  28.593002, 15226.621775
  28.599672, 15204.574422
  28.606344, 15182.486483
  28.613062, 15160.217310
  28.619783, 15137.910190
  28.626472, 15115.678081
  28.633165, 15093.401579
  28.639928, 15070.858145
  28.646664, 15048.377952
  28.653419, 15025.802718
  28.660193, 15003.134592
  28.666998, 14980.332800
  28.673746, 14957.688185
  28.680546, 14934.842480
  28.687312, 14912.076615
  28.694129, 14889.110363
  28.700952, 14866.094768
  28.707783, 14843.020506
  28.714624, 14819.881562
  28.721490, 14796.627702
  28.728369, 14773.297789
  28.735237, 14749.972937
  28.742134, 14726.519344
  28.749035, 14703.023142
  28.755970, 14679.381313
  28.762896, 14655.735989
  28.769814, 14632.088214
  28.776746, 14608.360863
  28.783674, 14584.618444
  28.790581, 14560.916554
  28.797546, 14536.984868
  28.804519, 14512.991055
  28.811526, 14488.854088
  28.818534, 14464.680677
  28.825505, 14440.602659
  28.832544, 14416.261476
  28.839537, 14392.046279
  28.846522, 14367.827222
  28.853603, 14343.246871
  28.860666, 14318.695750
  28.867708, 14294.188021
  28.874818, 14269.411242
  28.881917, 14244.640886
  28.889017, 14219.836845
  28.896168, 14194.822937
  28.903315, 14169.791066
  28.910483, 14144.654645
  28.917621, 14119.589911
  28.924779, 14094.427218
  28.932013, 14068.961376
  28.939232, 14043.521472
  28.946450, 14018.049537
  28.953696, 13992.448510
  28.960906, 13966.943095
  28.968135, 13941.339117
  28.974395, 13919.139487
  28.975380, 13915.644722
  28.982639, 13889.873015
  28.989942, 13863.910080
  28.997289, 13837.759216
  29.004625, 13811.616891
  29.011936, 13785.530370
  29.019294, 13759.243468
  29.026623, 13733.029374
  29.034040, 13706.467238
  29.041439, 13679.940021
  29.048874, 13653.249523
  29.056306, 13626.535001
  29.063755, 13599.731495
  29.071222, 13572.828678
  29.078698, 13545.861223
  29.086219, 13518.698964
  29.093739, 13491.507983
  29.101309, 13464.100701
  29.108809, 13436.916727
  29.116356, 13409.529695
  29.123906, 13382.098897
  29.131468, 13354.592725
  29.139025, 13327.074648
  29.146609, 13299.422244
  29.154223, 13271.627441
  29.161839, 13243.794961
  29.169510, 13215.727097
  29.177229, 13187.449903
  29.184891, 13159.349678
  29.192587, 13131.093356
  29.200272, 13102.843983
  29.207993, 13074.426328
  29.215694, 13046.053555
  29.223438, 13017.484953
  29.231254, 12988.621874
  29.239047, 12959.807612
  29.246871, 12930.845316
  29.254666, 12901.958692
  29.262500, 12872.893718
  29.270322, 12843.844051
  29.278147, 12814.746085
  29.285988, 12785.556002
  29.293877, 12756.154013
  29.301811, 12726.553156
  29.309764, 12696.845052
  29.317730, 12667.054206
  29.325695, 12637.238127
  29.333649, 12607.425754
  29.341590, 12577.628245
  29.349583, 12547.606506
  29.357594, 12517.481879
  29.365623, 12487.254570
  29.373673, 12456.914322
  29.381712, 12426.584383
  29.389770, 12396.151420
  29.397888, 12365.452162
  29.405995, 12334.765000
  29.414106, 12304.027798
  29.422312, 12272.898141
  29.430490, 12241.840120
  29.438713, 12210.578731
  29.446860, 12179.570358
  29.455059, 12148.332862
  29.463242, 12117.118360
  29.471444, 12085.801364
  29.479718, 12054.174907
  29.487990, 12022.524424
  29.496253, 11990.871733
  29.504526, 11959.148494
  29.512786, 11927.441791
  29.521093, 11895.523273
  29.529463, 11863.326756
  29.537835, 11831.088365
  29.546306, 11798.434898
  29.554674, 11766.143040
  29.563085, 11733.656279
  29.571555, 11700.903293
  29.579988, 11668.259923
  29.588516, 11635.214907
  29.597043, 11602.142677
  29.605538, 11569.157186
  29.613994, 11536.291931
  29.622449, 11503.395972
  29.631044, 11469.921981
  29.639652, 11436.362085
  29.648193, 11403.031332
  29.656817, 11369.339215
  29.665396, 11335.792475
  29.674054, 11301.903273
  29.682771, 11267.747319
  29.691527, 11233.406827
  29.700197, 11199.367253
  29.708850, 11165.363834
  29.717559, 11131.103808
  29.726339, 11096.530677
  29.735152, 11061.794908
  29.743942, 11027.114556
  29.752814, 10992.076853
  29.761584, 10957.408473
  29.770382, 10922.594289
  29.779283, 10887.340554
  29.788183, 10852.057841
  29.796943, 10817.294423
  29.805867, 10781.848352
  29.814761, 10746.488250
  29.823756, 10710.692853
  29.832661, 10675.217701
  29.841622, 10639.491965
  29.850626, 10603.557849
  29.859562, 10567.860994
  29.868483, 10532.193463
  29.877550, 10495.907386
  29.886628, 10459.545496
  29.895718, 10423.102980
  29.904815, 10386.594973
  29.913935, 10349.963563
  29.922969, 10313.642997
  29.932058, 10277.072982
  29.941289, 10239.894577
  29.950354, 10203.351703
  29.959575, 10166.146605
  29.968842, 10128.721822
  29.978064, 10091.450233
  29.987332, 10053.954842
  29.996534, 10016.696154
  30.005829, 9979.025700
  30.015158, 9941.186766
  30.024481, 9903.337024
  30.033766, 9865.611223
  30.043057, 9827.829747
  30.052511, 9789.351574
  30.061830, 9751.385794
  30.071169, 9713.311533
  30.080486, 9675.294031
  30.089971, 9636.558282
  30.099386, 9598.076646
  30.108779, 9559.650712
  30.118183, 9521.149667
  30.127607, 9482.533868
  30.137065, 9443.751094
  30.146582, 9404.689221
  30.156166, 9365.325750
  30.165685, 9326.192383
  30.175273, 9286.744246
  30.184821, 9247.432094
  30.194414, 9207.902438
  30.203936, 9168.632922
  30.213503, 9129.149418
  30.223194, 9089.120300
  30.232878, 9049.090029
  30.242505, 9009.265257
  30.252127, 8969.428141
  30.261727, 8929.653944
  30.271437, 8889.392548
  30.281296, 8848.482492
  30.291000, 8808.182229
  30.300751, 8767.660310
  30.310426, 8727.424330
  30.320194, 8686.767803
  30.329922, 8646.253487
  30.339688, 8605.548560
  30.349477, 8564.715151
  30.359241, 8523.962812
  30.369245, 8482.172889
  30.379041, 8441.225604
  30.388895, 8400.005691
  30.398844, 8358.359506
  30.408686, 8317.131059
  30.418545, 8275.802531
  30.428450, 8234.256912
  30.438407, 8192.459530
  30.448271, 8151.027624
  30.458184, 8109.358983
  30.468130, 8067.522475
  30.478101, 8025.556811
  30.488134, 7983.298840
  30.498069, 7941.431171
  30.508073, 7899.241862
  30.518168, 7856.640719
  30.528128, 7814.579352
  30.538111, 7772.399373
  30.548163, 7729.898456
  30.558249, 7687.228928
  30.568362, 7644.416815
  30.578444, 7601.705927
  30.588564, 7558.812226
  30.598717, 7515.751069
  30.609006, 7472.085490
  30.619202, 7428.791368
  30.629383, 7385.529657
  30.639417, 7342.874159
  30.649534, 7299.835544
  30.659765, 7256.288308
  30.670121, 7212.183143
  30.680221, 7169.144676
  30.690368, 7125.878267
  30.700629, 7082.104976
  30.710796, 7038.708668
  30.721100, 6994.700027
  30.731393, 6950.717424
  30.741638, 6906.914758
  30.751945, 6862.821109
  30.762202, 6818.919660
  30.772558, 6774.571123
  30.782886, 6730.322700
  30.793173, 6686.221347
  30.803498, 6641.936262
  30.813836, 6597.576034
  30.824110, 6553.463295
  30.834435, 6509.116496
  30.844868, 6464.277673
  30.855275, 6419.531386
  30.865729, 6374.560796
  30.876110, 6329.879690
  30.886487, 6285.201451
  30.897020, 6239.823751
  30.907490, 6194.699211
  30.917966, 6149.528808
  30.928450, 6104.302701
  30.939008, 6058.736765
  30.949500, 6013.435856
  30.959966, 5968.225220
  30.970416, 5923.067039
  30.980897, 5877.754995
  30.991428, 5832.207294
  31.001984, 5786.533098
  31.012555, 5740.773285
  31.023231, 5694.543474
  31.033805, 5648.736532
  31.044378, 5602.910548
  31.054893, 5557.322118
  31.065512, 5511.265554
  31.076056, 5465.517134
  31.086750, 5419.098472
  31.097362, 5373.020110
  31.107965, 5326.961654
  31.118620, 5280.661784
  31.129266, 5234.387354
  31.139858, 5188.331529
  31.150587, 5141.661415
  31.161312, 5094.993211
  31.171962, 5048.633654
  31.182692, 5001.913721
  31.193348, 4955.503042
  31.204016, 4909.023691
  31.214716, 4862.388801
  31.225415, 4815.742812
  31.236126, 4769.035080
  31.246958, 4721.782553
  31.257734, 4674.759580
  31.268533, 4627.626183
  31.279260, 4580.790386
  31.289972, 4534.010482
  31.300751, 4486.921716
  31.311467, 4440.098828
  31.322177, 4393.291948
  31.333002, 4345.965662
  31.343847, 4298.546270
  31.354776, 4250.742476
  31.365729, 4202.824324
  31.376603, 4155.241312
  31.387475, 4107.655921
  31.398427, 4059.706031
  31.409401, 4011.655696
  31.420199, 3964.364124
  31.431072, 3916.731075
  31.441751, 3869.939716
  31.452620, 3822.308823
  31.463522, 3774.523478
  31.474506, 3726.372539
  31.485323, 3678.943022
  31.496246, 3631.040583
  31.507285, 3582.621628
  31.518247, 3534.533244
  31.524268, 3508.116426
