Vfailure/VsTO, Distance
   0.500000, 2071.554424
   0.500551, 2071.014611
   0.501101, 2070.474797
   0.501652, 2069.934984
   0.502202, 2069.395171
   0.502753, 2068.855357
   0.503303, 2068.315544
   0.503854, 2067.775730
   0.504404, 2067.235917
   0.504955, 2066.696104
   0.505506, 2066.156290
   0.506056, 2065.616477
   0.506607, 2065.076663
   0.507157, 2064.536850
   0.507708, 2063.997037
   0.508258, 2063.457223
   0.508809, 2062.917410
   0.509359, 2062.377596
   0.509910, 2061.837783
   0.510460, 2061.297969
   0.511011, 2060.758156
   0.511562, 2060.218343
   0.512112, 2059.678529
   0.512663, 2059.138716
   0.513213, 2058.598902
   0.513764, 2058.059089
   0.514314, 2057.519276
   0.514865, 2056.979462
   0.515415, 2056.439649
   0.515966, 2055.899835
   0.516517, 2055.360022
   0.517067, 2054.820209
   0.517618, 2054.280395
   0.518168, 2053.740582
   0.518719, 2053.200768
   0.519269, 2052.660955
   0.519820, 2052.121141
   0.520370, 2051.581328
   0.520921, 2051.041515
   0.521471, 2050.501701
   0.522022, 2049.961888
   0.522573, 2049.422074
   0.523123, 2048.882261
   0.523674, 2048.342448
   0.524224, 2047.802634
   0.524775, 2047.262821
   0.525325, 2046.723007
   0.525876, 2046.183194
   0.526426, 2045.643381
   0.526977, 2045.103567
   0.527528, 2044.563754
   0.528078, 2044.023940
   0.528629, 2043.484127
   0.529179, 2042.944313
   0.529730, 2042.404500
   0.530280, 2041.864687
   0.530831, 2041.324873
   0.531381, 2040.785060
   0.531932, 2040.245246
   0.532482, 2039.705433
   0.533033, 2039.165620
   0.533584, 2038.625806
   0.534134, 2038.085993
   0.534685, 2037.546179
   0.535235, 2037.006366
   0.535786, 2036.466552
   0.536336, 2035.926739
   0.536887, 2035.386926
   0.537437, 2034.847112
   0.537988, 2034.307299
   0.538539, 2033.767485
   0.539089, 2033.227672
   0.539640, 2032.687859
   0.540190, 2032.148045
   0.540741, 2031.608232
   0.541291, 2031.068418
   0.541842, 2030.528605
   0.542392, 2029.988792
   0.542943, 2029.448978
   0.543493, 2028.909165
   0.544044, 2028.369351
   0.544595, 2027.829538
   0.545145, 2027.289724
   0.545696, 2026.749911
   0.546246, 2026.210098
   0.546797, 2025.670284
   0.547347, 2025.130471
   0.547898, 2024.590657
   0.548448, 2024.050844
   0.548999, 2023.511031
   0.549550, 2022.971217
   0.550100, 2022.431404
   0.550651, 2021.891590
   0.551201, 2021.351777
   0.551752, 2020.811964
   0.552302, 2020.272150
   0.552853, 2019.732337
   0.553403, 2019.192523
   0.553954, 2018.652710
   0.554505, 2018.112896
   0.555055, 2017.573083
   0.555606, 2017.033270
   0.556156, 2016.493456
   0.556707, 2015.953643
   0.557257, 2015.413829
   0.557808, 2014.874016
   0.558358, 2014.334203
   0.558909, 2013.794389
   0.559459, 2013.254576
   0.560010, 2012.714762
   0.560561, 2012.174949
   0.561111, 2011.635136
   0.561662, 2011.095322
   0.562212, 2010.555509
   0.562763, 2010.015695
   0.563313, 2009.475882
   0.563864, 2008.936068
   0.564414, 2008.396255
   0.564965, 2007.856442
   0.565516, 2007.316628
   0.566066, 2006.776815
   0.566617, 2006.237001
   0.567167, 2005.697188
   0.567718, 2005.157375
   0.568268, 2004.617561
   0.568819, 2004.077748
   0.569369, 2003.537934
   0.569920, 2002.998121
   0.570470, 2002.458308
   0.571021, 2001.918494
   0.571572, 2001.378681
   0.572122, 2000.838867
   0.572673, 2000.299054
   0.573223, 1999.759240
   0.573774, 1999.219427
   0.574324, 1998.679614
   0.574875, 1998.139800
   0.575425, 1997.599987
   0.575976, 1997.060173
   0.576527, 1996.520360
   0.577077, 1995.980547
   0.577628, 1995.440733
   0.578178, 1994.900920
   0.578729, 1994.361106
   0.579279, 1993.821293
   0.579830, 1993.281480
   0.580380, 1992.741666
   0.580931, 1992.201853
   0.581481, 1991.662039
   0.582032, 1991.122226
   0.582583, 1990.582412
   0.583133, 1990.042599
   0.583684, 1989.502786
   0.584234, 1988.962972
   0.584785, 1988.423159
   0.585335, 1987.883345
   0.585886, 1987.343532
   0.586436, 1986.803719
   0.586987, 1986.263905
   0.587538, 1985.724092
   0.588088, 1985.184278
   0.588639, 1984.644465
   0.589189, 1984.104651
   0.589740, 1983.564838
   0.590290, 1983.025025
   0.590841, 1982.485211
   0.591391, 1981.945398
   0.591942, 1981.405584
   0.592492, 1980.865771
   0.593043, 1980.325958
   0.593594, 1979.786144
   0.594144, 1979.246331
   0.594695, 1978.706517
   0.595245, 1978.166704
   0.595796, 1977.626891
   0.596346, 1977.087077
   0.596897, 1976.547264
   0.597447, 1976.007450
   0.597998, 1975.467637
   0.598549, 1974.927823
   0.599099, 1974.388010
   0.599650, 1973.848197
   0.600200, 1973.308383
   0.600751, 1972.768570
   0.601301, 1972.228756
   0.601852, 1971.688943
   0.602402, 1971.149130
   0.602953, 1970.609316
   0.603504, 1970.069503
   0.604054, 1969.529689
   0.604605, 1968.989876
   0.605155, 1968.450063
   0.605706, 1967.910249
   0.606256, 1967.370436
   0.606807, 1966.830622
   0.607357, 1966.290809
   0.607908, 1965.750995
   0.608458, 1965.211182
   0.609009, 1964.671369
   0.609560, 1964.131555
   0.610110, 1963.591742
   0.610661, 1963.051928
   0.611211, 1962.512115
   0.611762, 1961.972302
   0.612312, 1961.432488
   0.612863, 1960.892675
   0.613413, 1960.352861
   0.613964, 1959.813048
   0.614515, 1959.273235
   0.615065, 1958.733421
   0.615616, 1958.193608
   0.616166, 1957.653794
   0.616717, 1957.113981
   0.617267, 1956.574167
   0.617818, 1956.034354
   0.618368, 1955.494541
   0.618919, 1954.954727
   0.619469, 1954.414914
   0.620020, 1953.875100
   0.620571, 1953.335287
   0.621121, 1952.795474
   0.621672, 1952.255660
   0.622222, 1951.715847
   0.622773, 1951.176033
   0.623323, 1950.636220
   0.623874, 1950.096407
   0.624424, 1949.556593
   0.624975, 1949.016780
   0.625526, 1948.476966
   0.626076, 1947.937153
   0.626627, 1947.397339
   0.627177, 1946.857526
   0.627728, 1946.317713
   0.628278, 1945.777899
   0.628829, 1945.238086
   0.629379, 1944.698272
   0.629930, 1944.158459
   0.630480, 1943.618646
   0.631031, 1943.078832
   0.631582, 1942.539019
   0.632132, 1941.999205
   0.632683, 1941.459392
   0.633233, 1940.919579
   0.633784, 1940.379765
   0.634334, 1939.839952
   0.634885, 1939.300138
   0.635435, 1938.760325
   0.635986, 1938.220511
   0.636537, 1937.680698
   0.637087, 1937.140885
   0.637638, 1936.601071
   0.638188, 1936.061258
   0.638739, 1935.521444
   0.639289, 1934.981631
   0.639840, 1934.441818
   0.640390, 1933.902004
   0.640941, 1933.362191
   0.641491, 1932.822377
   0.642042, 1932.282564
   0.642593, 1931.742750
   0.643143, 1931.202937
   0.643694, 1930.663124
   0.644244, 1930.123310
   0.644795, 1929.583497
   0.645345, 1929.043683
   0.645896, 1928.503870
   0.646446, 1927.964057
   0.646997, 1927.424243
   0.647548, 1926.884430
   0.648098, 1926.344616
   0.648649, 1925.804803
   0.649199, 1925.264990
   0.649750, 1924.725176
   0.650300, 1924.185363
   0.650851, 1923.645549
   0.651401, 1923.105736
   0.651952, 1922.565922
   0.652503, 1922.026109
   0.653053, 1921.486296
   0.653604, 1920.946482
   0.654154, 1920.406669
   0.654705, 1919.866855
   0.655255, 1919.327042
   0.655806, 1918.787229
   0.656356, 1918.247415
   0.656907, 1917.707602
   0.657457, 1917.167788
   0.658008, 1916.627975
   0.658559, 1916.088162
   0.659109, 1915.548348
   0.659660, 1915.008535
   0.660210, 1914.468721
   0.660761, 1913.928908
   0.661311, 1913.389094
   0.661862, 1912.849281
   0.662412, 1912.309468
   0.662963, 1911.769654
   0.663514, 1911.229841
   0.664064, 1910.690027
   0.664615, 1910.150214
   0.665165, 1909.610401
   0.665716, 1909.070587
   0.666266, 1908.530774
   0.666817, 1907.990960
   0.667367, 1907.451147
   0.667918, 1906.911334
   0.668468, 1906.371520
   0.669019, 1905.831707
   0.669570, 1905.291893
   0.670120, 1904.752080
   0.670671, 1904.212266
   0.671221, 1903.672453
   0.671772, 1903.132640
   0.672322, 1902.592826
   0.672873, 1902.053013
   0.673423, 1901.513199
   0.673974, 1900.973386
   0.674525, 1900.433573
   0.675075, 1899.893759
   0.675626, 1899.353946
   0.676176, 1898.814132
   0.676727, 1898.274319
   0.677277, 1897.734506
   0.677828, 1897.194692
   0.678378, 1896.654879
   0.678929, 1896.115065
   0.679479, 1895.575252
   0.680030, 1895.035438
   0.680581, 1894.495625
   0.681131, 1893.955812
   0.681682, 1893.415998
   0.682232, 1892.876185
   0.682783, 1892.336371
   0.683333, 1891.796558
   0.683884, 1891.328419
   0.684434, 1890.860280
   0.684985, 1890.392140
   0.685536, 1889.924001
   0.686086, 1889.455862
   0.686637, 1888.987723
   0.687187, 1888.519584
   0.687738, 1888.051445
   0.688288, 1887.583305
   0.688839, 1887.115166
   0.689389, 1886.647027
   0.689940, 1886.178888
   0.690490, 1885.710749
   0.691041, 1885.242609
   0.691592, 1884.774470
   0.692142, 1884.306331
   0.692693, 1883.838192
   0.693243, 1883.370053
   0.693794, 1882.901914
   0.694344, 1882.433774
   0.694895, 1881.965635
   0.695445, 1881.497496
   0.695996, 1881.029357
   0.696547, 1880.561218
   0.697097, 1880.093079
   0.697648, 1879.624939
   0.698198, 1879.156800
   0.698749, 1878.688661
   0.699299, 1878.220522
   0.699850, 1877.752383
   0.700400, 1877.284243
   0.700951, 1876.816104
   0.701502, 1876.347965
   0.702052, 1875.879826
   0.702603, 1875.411687
   0.703153, 1874.943548
   0.703704, 1874.475408
   0.704254, 1874.007269
   0.704805, 1873.539130
   0.705355, 1873.070991
   0.705906, 1872.602852
   0.706456, 1872.134713
   0.707007, 1871.666573
   0.707558, 1871.198434
   0.708108, 1870.730295
   0.708659, 1870.262156
   0.709209, 1869.794017
   0.709760, 1869.325877
   0.710310, 1868.857738
   0.710861, 1868.389599
   0.711411, 1867.921460
   0.711962, 1867.453321
   0.712513, 1866.985182
   0.713063, 1866.517042
   0.713614, 1866.048903
   0.714164, 1865.580764
   0.714715, 1865.112625
   0.715265, 1864.644486
   0.715816, 1864.176347
   0.716366, 1863.708207
   0.716917, 1863.240068
   0.717467, 1862.771929
   0.718018, 1862.303790
   0.718569, 1861.835651
   0.719119, 1861.367511
   0.719670, 1860.899372
   0.720220, 1860.431233
   0.720771, 1859.963094
   0.721321, 1859.494955
   0.721872, 1859.026816
   0.722422, 1858.558676
   0.722973, 1858.090537
   0.723524, 1857.622398
   0.724074, 1857.154259
   0.724625, 1856.686120
   0.725175, 1856.217980
   0.725726, 1855.749841
   0.726276, 1855.281702
   0.726827, 1854.813563
   0.727377, 1854.345424
   0.727928, 1853.877285
   0.728478, 1853.409145
   0.729029, 1852.941006
   0.729580, 1852.472867
   0.730130, 1852.004728
   0.730681, 1851.536589
   0.731231, 1851.068450
   0.731782, 1850.600310
   0.732332, 1850.132171
   0.732883, 1849.664032
   0.733433, 1849.195893
   0.733984, 1848.727754
   0.734535, 1848.259614
   0.735085, 1847.791475
   0.735636, 1847.323336
   0.736186, 1846.855197
   0.736737, 1846.387058
   0.737287, 1845.918919
   0.737838, 1845.450779
   0.738388, 1844.982640
   0.738939, 1844.514501
   0.739489, 1844.046362
   0.740040, 1843.578223
   0.740591, 1843.110084
   0.741141, 1842.641944
   0.741692, 1842.173805
   0.742242, 1841.705666
   0.742793, 1841.237527
   0.743343, 1840.769388
   0.743894, 1840.301248
   0.744444, 1839.833109
   0.744995, 1839.364970
   0.745546, 1838.896831
   0.746096, 1838.428692
   0.746647, 1837.960553
   0.747197, 1837.492413
   0.747748, 1837.024274
   0.748298, 1836.556135
   0.748849, 1836.087996
   0.749399, 1835.619857
   0.749950, 1835.151717
   0.750501, 1834.683578
   0.751051, 1834.215439
   0.751602, 1833.747300
   0.752152, 1833.279161
   0.752703, 1832.811022
   0.753253, 1832.342882
   0.753804, 1831.874743
   0.754354, 1831.406604
   0.754905, 1830.938465
   0.755455, 1830.470326
   0.756006, 1830.002187
   0.756557, 1829.534047
   0.757107, 1829.065908
   0.757658, 1828.597769
   0.758208, 1828.129630
   0.758759, 1827.661491
   0.759309, 1827.193351
   0.759860, 1826.725212
   0.760410, 1826.257073
   0.760961, 1825.788934
   0.761512, 1825.320795
   0.762062, 1824.852656
   0.762613, 1824.384516
   0.763163, 1823.916377
   0.763714, 1823.448238
   0.764264, 1822.980099
   0.764815, 1822.511960
   0.765365, 1822.043821
   0.765916, 1821.575681
   0.766466, 1821.107542
   0.767017, 1820.639403
   0.767568, 1820.171264
   0.768118, 1819.703125
   0.768669, 1819.234985
   0.769219, 1818.766846
   0.769770, 1818.298707
   0.770320, 1817.830568
   0.770871, 1817.362429
   0.771421, 1816.894290
   0.771972, 1816.426150
   0.772523, 1815.958011
   0.773073, 1815.489872
   0.773624, 1815.021733
   0.774174, 1814.553594
   0.774725, 1814.085454
   0.775275, 1813.617315
   0.775826, 1813.149176
   0.776376, 1812.681037
   0.776927, 1812.212898
   0.777477, 1811.744759
   0.778028, 1811.276619
   0.778579, 1810.808480
   0.779129, 1810.340341
   0.779680, 1809.872202
   0.780230, 1809.404063
   0.780781, 1808.935924
   0.781331, 1808.467784
   0.781882, 1807.999645
   0.782432, 1807.531506
   0.782983, 1807.063367
   0.783534, 1806.595228
   0.784084, 1806.127088
   0.784635, 1805.658949
   0.785185, 1805.190810
   0.785736, 1804.722671
   0.786286, 1804.254532
   0.786837, 1803.786393
   0.787387, 1803.318253
   0.787938, 1802.850114
   0.788488, 1802.381975
   0.789039, 1801.913836
   0.789590, 1801.445697
   0.790140, 1800.977558
   0.790691, 1800.509418
   0.791241, 1800.041279
   0.791792, 1799.573140
   0.792342, 1799.105001
   0.792893, 1798.636862
   0.793443, 1798.168722
   0.793994, 1797.700583
   0.794545, 1797.232444
   0.795095, 1796.764305
   0.795646, 1796.296166
   0.796196, 1795.828027
   0.796747, 1795.359887
   0.797297, 1794.891748
   0.797848, 1794.423609
   0.798398, 1793.955470
   0.798949, 1793.487331
   0.799499, 1793.019192
   0.800050, 1792.551052
   0.800601, 1792.082913
   0.801151, 1791.614774
   0.801702, 1791.146635
   0.802252, 1790.678496
   0.802803, 1790.210356
   0.803353, 1789.742217
   0.803904, 1789.274078
   0.804454, 1788.805939
   0.805005, 1788.337800
   0.805556, 1787.869661
   0.806106, 1787.401521
   0.806657, 1786.933382
   0.807207, 1786.465243
   0.807758, 1785.997104
   0.808308, 1785.528965
   0.808859, 1785.060825
   0.809409, 1784.592686
   0.809960, 1784.124547
   0.810511, 1783.656408
   0.811061, 1783.188269
   0.811612, 1782.720130
   0.812162, 1782.251990
   0.812713, 1781.783851
   0.813263, 1781.315712
   0.813814, 1780.847573
   0.814364, 1780.379434
   0.814915, 1779.911295
   0.815465, 1779.443155
   0.816016, 1778.975016
   0.816567, 1778.506877
   0.817117, 1778.038738
   0.817668, 1777.570599
   0.818218, 1777.102459
   0.818769, 1776.634320
   0.819319, 1776.166181
   0.819870, 1775.698042
   0.820420, 1775.229903
   0.820971, 1774.761764
   0.821522, 1774.293624
   0.822072, 1773.825485
   0.822623, 1773.357346
   0.823173, 1772.889207
   0.823724, 1772.421068
   0.824274, 1771.952929
   0.824825, 1771.484789
   0.825375, 1771.016650
   0.825926, 1770.548511
   0.826476, 1770.080372
   0.827027, 1769.612233
   0.827578, 1769.144093
   0.828128, 1768.675954
   0.828679, 1768.207815
   0.829229, 1767.739676
   0.829780, 1767.271537
   0.830330, 1766.803398
   0.830881, 1766.335258
   0.831431, 1765.867119
   0.831982, 1765.398980
   0.832533, 1764.930841
   0.833083, 1764.462702
   0.833634, 1763.994562
   0.834184, 1763.526423
   0.834735, 1763.058284
   0.835285, 1762.590145
   0.835836, 1762.122006
   0.836386, 1761.653867
   0.836937, 1761.185727
   0.837487, 1760.717588
   0.838038, 1760.249449
   0.838589, 1759.781310
   0.839139, 1759.313171
   0.839690, 1758.845032
   0.840240, 1758.376892
   0.840791, 1757.908753
   0.841341, 1757.440614
   0.841892, 1756.972475
   0.842442, 1756.504336
   0.842993, 1756.036196
   0.843544, 1755.568057
   0.844094, 1755.099918
   0.844645, 1754.631779
   0.845195, 1754.163640
   0.845746, 1753.695501
   0.846296, 1753.227361
   0.846847, 1752.759222
   0.847397, 1752.291083
   0.847948, 1751.822944
   0.848498, 1751.354805
   0.849049, 1750.886666
   0.849600, 1750.418526
   0.850150, 1749.950387
   0.850701, 1749.482248
   0.851251, 1749.014109
   0.851802, 1748.545970
   0.852352, 1748.077830
   0.852903, 1747.609691
   0.853453, 1747.141552
   0.854004, 1746.673413
   0.854555, 1746.205274
   0.855105, 1745.737135
   0.855656, 1745.268995
   0.856206, 1744.800856
   0.856757, 1744.332717
   0.857307, 1743.864578
   0.857858, 1743.396439
   0.858408, 1742.928299
   0.858959, 1742.460160
   0.859510, 1741.992021
   0.860060, 1741.523882
   0.860611, 1741.055743
   0.861161, 1740.587604
   0.861712, 1740.119464
   0.862262, 1739.651325
   0.862813, 1739.183186
   0.863363, 1738.715047
   0.863914, 1738.246908
   0.864464, 1737.778769
   0.865015, 1737.310629
   0.865566, 1736.842490
   0.866116, 1736.374351
   0.866667, 1735.906212
   0.867217, 1734.103100
   0.867768, 1732.299989
   0.868318, 1730.496877
   0.868869, 1728.693766
   0.869419, 1726.890655
   0.869970, 1725.087543
   0.870521, 1723.284432
   0.871071, 1721.481320
   0.871622, 1719.678209
   0.872172, 1717.875097
   0.872723, 1716.071986
   0.873273, 1714.268874
   0.873824, 1712.465763
   0.874374, 1710.662651
   0.874925, 1708.859540
   0.875475, 1707.056429
   0.876026, 1705.253317
   0.876577, 1703.450206
   0.877127, 1701.647094
   0.877678, 1699.843983
   0.878228, 1698.040871
   0.878779, 1696.237760
   0.879329, 1694.434648
   0.879880, 1692.631537
   0.880430, 1690.828425
   0.880981, 1689.025314
   0.881532, 1687.222203
   0.882082, 1685.419091
   0.882633, 1683.615980
   0.883183, 1681.812868
   0.883734, 1680.009757
   0.884284, 1678.206645
   0.884835, 1676.403534
   0.885385, 1674.600422
   0.885936, 1672.797311
   0.886486, 1670.994199
   0.887037, 1669.191088
   0.887588, 1667.387977
   0.888138, 1665.584865
   0.888689, 1663.781754
   0.889239, 1661.978642
   0.889790, 1660.175531
   0.890340, 1658.372419
   0.890891, 1656.569308
   0.891441, 1654.766196
   0.891992, 1652.963085
   0.892543, 1651.159973
   0.893093, 1649.356862
   0.893644, 1647.553751
   0.894194, 1645.750639
   0.894745, 1643.947528
   0.895295, 1642.144416
   0.895846, 1640.341305
   0.896396, 1638.538193
   0.896947, 1636.735082
   0.897497, 1634.931970
   0.898048, 1633.128859
   0.898599, 1631.325747
   0.899149, 1629.522636
   0.899700, 1627.719524
   0.900250, 1625.916413
   0.900801, 1624.113302
   0.901351, 1622.310190
   0.901902, 1620.507079
   0.902452, 1618.703967
   0.903003, 1616.900856
   0.903554, 1615.097744
   0.904104, 1613.294633
   0.904655, 1611.491521
   0.905205, 1609.688410
   0.905756, 1607.885298
   0.906306, 1606.082187
   0.906857, 1604.279076
   0.907407, 1602.475964
   0.907958, 1600.672853
   0.908509, 1598.869741
   0.909059, 1597.066630
   0.909610, 1595.263518
   0.910160, 1593.460407
   0.910711, 1591.657295
   0.911261, 1589.854184
   0.911812, 1588.051072
   0.912362, 1586.247961
   0.912913, 1584.444850
   0.913463, 1582.641738
   0.914014, 1580.838627
   0.914565, 1579.035515
   0.915115, 1577.232404
   0.915666, 1575.429292
   0.916216, 1573.626181
   0.916767, 1571.823069
   0.917317, 1570.019958
   0.917868, 1568.216846
   0.918418, 1566.413735
   0.918969, 1564.610624
   0.919520, 1562.807512
   0.920070, 1561.004401
   0.920621, 1559.201289
   0.921171, 1557.398178
   0.921722, 1555.595066
   0.922272, 1553.791955
   0.922823, 1551.988843
   0.923373, 1550.185732
   0.923924, 1548.382620
   0.924474, 1546.579509
   0.925025, 1544.776398
   0.925576, 1542.973286
   0.926126, 1541.170175
   0.926677, 1539.367063
   0.927227, 1537.563952
   0.927778, 1535.760840
   0.928328, 1533.957729
   0.928879, 1532.154617
   0.929429, 1530.351506
   0.929980, 1528.548394
   0.930531, 1526.745283
   0.931081, 1524.942172
   0.931632, 1523.139060
   0.932182, 1521.335949
   0.932733, 1519.532837
   0.933283, 1517.729726
   0.933834, 1515.926614
   0.934384, 1514.123503
   0.934935, 1512.320391
   0.935485, 1510.517280
   0.936036, 1508.714168
   0.936587, 1506.911057
   0.937137, 1505.107946
   0.937688, 1503.304834
   0.938238, 1501.501723
   0.938789, 1499.698611
   0.939339, 1497.895500
   0.939890, 1496.092388
   0.940440, 1494.289277
   0.940991, 1492.486165
   0.941542, 1490.683054
   0.942092, 1488.879942
   0.942643, 1487.076831
   0.943193, 1485.273720
   0.943744, 1483.470608
   0.944294, 1481.667497
   0.944845, 1479.864385
   0.945395, 1478.061274
   0.945946, 1476.258162
   0.946496, 1474.455051
   0.947047, 1472.651939
   0.947598, 1470.848828
   0.948148, 1469.045716
   0.948699, 1467.242605
   0.949249, 1465.439493
   0.949800, 1463.636382
   0.950350, 1461.833271
   0.950901, 1460.030159
   0.951451, 1458.227048
   0.952002, 1456.423936
   0.952553, 1454.620825
   0.953103, 1452.817713
   0.953654, 1451.014602
   0.954204, 1449.211490
   0.954755, 1447.408379
   0.955305, 1445.605267
   0.955856, 1443.802156
   0.956406, 1441.999045
   0.956957, 1440.195933
   0.957508, 1438.392822
   0.958058, 1436.589710
   0.958609, 1434.786599
   0.959159, 1432.983487
   0.959710, 1431.180376
   0.960260, 1429.377264
   0.960811, 1427.574153
   0.961361, 1425.771041
   0.961912, 1423.967930
   0.962462, 1422.164819
   0.963013, 1420.361707
   0.963564, 1418.558596
   0.964114, 1416.755484
   0.964665, 1414.952373
   0.965215, 1413.149261
   0.965766, 1411.346150
   0.966316, 1409.543038
   0.966867, 1407.739927
   0.967417, 1405.936815
   0.967968, 1404.133704
   0.968519, 1402.330593
   0.969069, 1400.527481
   0.969620, 1398.724370
   0.970170, 1396.921258
   0.970721, 1395.118147
   0.971271, 1393.315035
   0.971822, 1391.511924
   0.972372, 1389.708812
   0.972923, 1387.905701
   0.973473, 1386.102589
   0.974024, 1384.299478
   0.974575, 1382.496367
   0.975125, 1380.693255
   0.975676, 1378.890144
   0.976226, 1377.087032
   0.976777, 1375.283921
   0.977327, 1373.480809
   0.977878, 1371.677698
   0.978428, 1369.874586
   0.978979, 1368.071475
   0.979530, 1366.268363
   0.980080, 1364.465252
   0.980631, 1362.662141
   0.981181, 1360.859029
   0.981732, 1359.055918
   0.982282, 1357.252806
   0.982833, 1355.449695
   0.983383, 1353.646583
   0.983934, 1351.843472
   0.984484, 1350.040360
   0.985035, 1348.237249
   0.985586, 1346.434137
   0.986136, 1344.631026
   0.986687, 1342.827915
   0.987237, 1341.024803
   0.987788, 1339.221692
   0.988338, 1337.418580
   0.988889, 1335.615469
   0.989439, 1333.812357
   0.989990, 1332.009246
   0.990541, 1330.206134
   0.991091, 1328.403023
   0.991642, 1326.599911
   0.992192, 1324.796800
   0.992743, 1322.993688
   0.993293, 1321.190577
   0.993844, 1319.387466
   0.994394, 1317.584354
   0.994945, 1315.781243
   0.995495, 1313.978131
   0.996046, 1312.175020
   0.996597, 1310.371908
   0.997147, 1308.568797
   0.997698, 1306.765685
   0.998248, 1304.962574
   0.998799, 1303.159462
   0.999349, 1301.356351
   0.999900, 1299.553240
   1.000450, 1297.750128
   1.001001, 1295.947017
   1.001552, 1294.143905
   1.002102, 1292.340794
   1.002653, 1290.537682
   1.003203, 1288.734571
   1.003754, 1286.931459
   1.004304, 1285.128348
   1.004855, 1283.325236
   1.005405, 1281.522125
   1.005956, 1279.719014
   1.006507, 1277.915902
   1.007057, 1276.112791
   1.007608, 1274.309679
   1.008158, 1272.506568
   1.008709, 1270.703456
   1.009259, 1268.900345
   1.009810, 1267.097233
   1.010360, 1265.294122
   1.010911, 1263.491010
   1.011461, 1261.687899
   1.012012, 1259.884788
   1.012563, 1258.081676
   1.013113, 1256.278565
   1.013664, 1254.475453
   1.014214, 1252.672342
   1.014765, 1250.869230
   1.015315, 1249.066119
   1.015866, 1247.263007
   1.016416, 1245.459896
   1.016967, 1243.656784
   1.017518, 1241.853673
   1.018068, 1240.050562
   1.018619, 1238.247450
   1.019169, 1236.444339
   1.019720, 1234.641227
   1.020270, 1232.838116
   1.020821, 1231.035004
   1.021371, 1229.231893
   1.021922, 1227.428781
   1.022472, 1225.625670
   1.023023, 1223.822558
   1.023574, 1222.019447
   1.024124, 1220.216336
   1.024675, 1218.413224
   1.025225, 1216.610113
   1.025776, 1214.807001
   1.026326, 1213.003890
   1.026877, 1211.200778
   1.027427, 1209.397667
   1.027978, 1207.594555
   1.028529, 1205.791444
   1.029079, 1203.988332
   1.029630, 1202.185221
   1.030180, 1200.382110
   1.030731, 1198.578998
   1.031281, 1196.775887
   1.031832, 1194.972775
   1.032382, 1193.169664
   1.032933, 1191.366552
   1.033483, 1189.563441
   1.034034, 1187.760329
   1.034585, 1185.957218
   1.035135, 1184.154106
   1.035686, 1182.350995
   1.036236, 1180.547884
   1.036787, 1178.744772
   1.037337, 1176.941661
   1.037888, 1175.138549
   1.038438, 1173.335438
   1.038989, 1171.532326
   1.039540, 1169.729215
   1.040090, 1167.926103
   1.040641, 1166.122992
   1.041191, 1164.319880
   1.041742, 1162.516769
   1.042292, 1160.713657
   1.042843, 1158.910546
   1.043393, 1157.107435
   1.043944, 1155.304323
   1.044494, 1153.501212
   1.045045, 1151.698100
   1.045596, 1149.894989
   1.046146, 1148.091877
   1.046697, 1146.288766
   1.047247, 1144.485654
   1.047798, 1142.682543
   1.048348, 1140.879431
   1.048899, 1139.076320
   1.049449, 1137.273209
   1.050000, 1135.470097
