Time, Angular Velocity
   0.000000,    0.000000
   0.100000,    0.000762
   0.200000,    0.001162
   0.300000,    0.001562
   0.400000,    0.001654
   0.500000,    0.001720
   0.600000,    0.001786
   0.700000,    0.001852
   0.800000,    0.001918
   0.900000,    0.001984
   1.000000,    0.002050
   1.100000,    0.002116
   1.200000,    0.002182
   1.300000,    0.002248
   1.400000,    0.002138
   1.500000,    0.002013
   1.600000,    0.001888
   1.700000,    0.001762
   1.800000,    0.001637
   1.900000,    0.001512
   2.000000,    0.001387
   2.100000,    0.001262
   2.200000,    0.001137
   2.300000,    0.001011
   2.400000,    0.001177
   2.500000,    0.001367
   2.600000,    0.001557
   2.700000,    0.001748
   2.800000,    0.001938
   2.900000,    0.002128
   3.000000,    0.002319
   3.100000,    0.002509
   3.200000,    0.002699
   3.300000,    0.002889
   3.400000,    0.002278
   3.500000,    0.001598
   3.600000,    0.000918
   3.700000,    0.000239
   3.800000,   -0.000441
   3.900000,   -0.001121
   4.000000,   -0.001801
   4.100000,   -0.002481
   4.200000,   -0.003160
   4.300000,   -0.003840
   4.400000,   -0.003477
   4.500000,   -0.003024
   4.600000,   -0.002572
   4.700000,   -0.002120
   4.800000,   -0.001667
   4.900000,   -0.001215
   5.000000,   -0.000763
   5.100000,   -0.000310
   5.200000,    0.000142
   5.300000,    0.000594
   5.400000,    0.000687
   5.500000,    0.000748
   5.600000,    0.000810
   5.700000,    0.000871
   5.800000,    0.000933
   5.900000,    0.000994
   6.000000,    0.001056
   6.100000,    0.001117
   6.200000,    0.001179
   6.300000,    0.001240
   6.400000,    0.001421
   6.500000,    0.001611
   6.600000,    0.001801
   6.700000,    0.001991
   6.800000,    0.002182
   6.900000,    0.002372
   7.000000,    0.002562
   7.100000,    0.002752
   7.200000,    0.002943
   7.300000,    0.003133
   7.400000,    0.002519
   7.500000,    0.001837
   7.600000,    0.001154
   7.700000,    0.000472
   7.800000,   -0.000210
   7.900000,   -0.000893
   8.000000,   -0.001575
   8.100000,   -0.002257
   8.200000,   -0.002940
   8.300000,   -0.003622
   8.400000,   -0.003261
   8.500000,   -0.002811
   8.600000,   -0.002361
   8.700000,   -0.001911
   8.800000,   -0.001461
   8.900000,   -0.001011
   9.000000,   -0.000561
   9.100000,   -0.000111
   9.200000,    0.000339
   9.300000,    0.000789
   9.400000,    0.000878
   9.500000,    0.000935
   9.600000,    0.000993
   9.700000,    0.001051
   9.800000,    0.001109
   9.900000,    0.001166
  10.000000,    0.001224
  10.100000,    0.001282
  10.200000,    0.001339
  10.300000,    0.001397
  10.400000,    0.001573
  10.500000,    0.001759
  10.600000,    0.001945
  10.700000,    0.002131
  10.800000,    0.002316
  10.900000,    0.002502
  11.000000,    0.002688
  11.100000,    0.002874
  11.200000,    0.003060
  11.300000,    0.003246
  11.400000,    0.002616
  11.500000,    0.001916
  11.600000,    0.001216
  11.700000,    0.000516
  11.800000,   -0.000183
  11.900000,   -0.000883
  12.000000,   -0.001583
  12.100000,   -0.002282
  12.200000,   -0.002982
  12.300000,   -0.003682
  12.400000,   -0.003316
  12.500000,   -0.002859
  12.600000,   -0.002402
  12.700000,   -0.001946
  12.800000,   -0.001489
  12.900000,   -0.001032
  13.000000,   -0.000575
  13.100000,   -0.000119
  13.200000,    0.000338
  13.300000,    0.000795
  13.400000,    0.000879
  13.500000,    0.000932
  13.600000,    0.000985
  13.700000,    0.001038
  13.800000,    0.001090
  13.900000,    0.001143
  14.000000,    0.001196
  14.100000,    0.001249
  14.200000,    0.001302
  14.300000,    0.001354
  14.400000,    0.001526
  14.500000,    0.001707
  14.600000,    0.001889
  14.700000,    0.002071
  14.800000,    0.002252
  14.900000,    0.002434
  15.000000,    0.002616
  15.100000,    0.002797
  15.200000,    0.002979
  15.300000,    0.003160
  15.400000,    0.002536
  15.500000,    0.001843
  15.600000,    0.001150
  15.700000,    0.000457
  15.800000,   -0.000236
  15.900000,   -0.000930
  16.000000,   -0.001623
  16.100000,   -0.002316
  16.200000,   -0.003009
  16.300000,   -0.003702
  16.400000,   -0.003348
  16.500000,   -0.002905
  16.600000,   -0.002462
  16.700000,   -0.002018
  16.800000,   -0.001575
  16.900000,   -0.001132
  17.000000,   -0.000689
  17.100000,   -0.000246
  17.200000,    0.000197
  17.300000,    0.000640
  17.400000,    0.000722
  17.500000,    0.000773
  17.600000,    0.000824
  17.700000,    0.000875
  17.800000,    0.000926
  17.900000,    0.000977
  18.000000,    0.001028
  18.100000,    0.001080
  18.200000,    0.001131
  18.300000,    0.001182
  18.400000,    0.001352
  18.500000,    0.001534
  18.600000,    0.001715
  18.700000,    0.001896
  18.800000,    0.002077
  18.900000,    0.002258
  19.000000,    0.002439
  19.100000,    0.002620
  19.200000,    0.002802
  19.300000,    0.002983
  19.400000,    0.002358
  19.500000,    0.001664
  19.600000,    0.000970
  19.700000,    0.000277
  19.800000,   -0.000417
  19.900000,   -0.001110
  20.000000,   -0.001804
  20.100000,   -0.002498
  20.200000,   -0.003191
  20.300000,   -0.003885
  20.400000,   -0.003529
  20.500000,   -0.003084
  20.600000,   -0.002639
  20.700000,   -0.002194
  20.800000,   -0.001749
  20.900000,   -0.001303
  21.000000,   -0.000858
  21.100000,   -0.000413
  21.200000,    0.000032
  21.300000,    0.000477
  21.400000,    0.000561
  21.500000,    0.000615
  21.600000,    0.000668
  21.700000,    0.000722
  21.800000,    0.000775
  21.900000,    0.000829
  22.000000,    0.000882
  22.100000,    0.000935
  22.200000,    0.000989
  22.300000,    0.001042
  22.400000,    0.001216
  22.500000,    0.001401
  22.600000,    0.001585
  22.700000,    0.001770
  22.800000,    0.001954
  22.900000,    0.002138
  23.000000,    0.002323
  23.100000,    0.002507
  23.200000,    0.002692
  23.300000,    0.002876
  23.400000,    0.002254
  23.500000,    0.001563
  23.600000,    0.000872
  23.700000,    0.000181
  23.800000,   -0.000510
  23.900000,   -0.001201
  24.000000,   -0.001892
  24.100000,   -0.002583
  24.200000,   -0.003274
  24.300000,   -0.003965
  24.400000,   -0.003605
  24.500000,   -0.003155
  24.600000,   -0.002706
  24.700000,   -0.002256
  24.800000,   -0.001806
  24.900000,   -0.001357
  25.000000,   -0.000907
  25.100000,   -0.000458
  25.200000,   -0.000008
  25.300000,    0.000442
  25.400000,    0.000530
  25.500000,    0.000587
  25.600000,    0.000645
  25.700000,    0.000702
  25.800000,    0.000759
  25.900000,    0.000817
  26.000000,    0.000874
  26.100000,    0.000932
  26.200000,    0.000989
  26.300000,    0.001046
  26.400000,    0.001224
  26.500000,    0.001413
  26.600000,    0.001601
  26.700000,    0.001790
  26.800000,    0.001978
  26.900000,    0.002166
  27.000000,    0.002355
  27.100000,    0.002543
  27.200000,    0.002732
  27.300000,    0.002920
  27.400000,    0.002300
  27.500000,    0.001612
  27.600000,    0.000923
  27.700000,    0.000235
  27.800000,   -0.000454
  27.900000,   -0.001143
  28.000000,   -0.001831
  28.100000,   -0.002520
  28.200000,   -0.003208
  28.300000,   -0.003897
  28.400000,   -0.003534
  28.500000,   -0.003081
  28.600000,   -0.002628
  28.700000,   -0.002175
  28.800000,   -0.001722
  28.900000,   -0.001269
  29.000000,   -0.000816
  29.100000,   -0.000363
  29.200000,    0.000090
  29.300000,    0.000543
  29.400000,    0.000633
  29.500000,    0.000693
  29.600000,    0.000752
  29.700000,    0.000812
  29.800000,    0.000872
  29.900000,    0.000931
  30.000000,    0.000991
  30.100000,    0.001050
  30.200000,    0.001110
  30.300000,    0.001169
  30.400000,    0.001349
  30.500000,    0.001539
  30.600000,    0.001729
  30.700000,    0.001918
  30.800000,    0.002108
  30.900000,    0.002298
  31.000000,    0.002488
  31.100000,    0.002678
  31.200000,    0.002868
  31.300000,    0.003058
  31.400000,    0.002438
  31.500000,    0.001749
  31.600000,    0.001060
  31.700000,    0.000370
  31.800000,   -0.000319
  31.900000,   -0.001008
  32.000000,   -0.001697
  32.100000,   -0.002386
  32.200000,   -0.003075
  32.300000,   -0.003764
  32.400000,   -0.003401
  32.500000,   -0.002948
  32.600000,   -0.002494
  32.700000,   -0.002041
  32.800000,   -0.001588
  32.900000,   -0.001135
  33.000000,   -0.000682
  33.100000,   -0.000229
  33.200000,    0.000224
  33.300000,    0.000678
  33.400000,    0.000767
  33.500000,    0.000825
  33.600000,    0.000884
  33.700000,    0.000942
  33.800000,    0.001001
  33.900000,    0.001059
  34.000000,    0.001118
  34.100000,    0.001176
  34.200000,    0.001235
  34.300000,    0.001293
  34.400000,    0.001471
  34.500000,    0.001659
  34.600000,    0.001848
  34.700000,    0.002036
  34.800000,    0.002224
  34.900000,    0.002413
  35.000000,    0.002601
  35.100000,    0.002789
  35.200000,    0.002977
  35.300000,    0.003166
  35.400000,    0.002543
  35.500000,    0.001850
  35.600000,    0.001158
  35.700000,    0.000465
  35.800000,   -0.000227
  35.900000,   -0.000919
  36.000000,   -0.001612
  36.100000,   -0.002304
  36.200000,   -0.002997
  36.300000,   -0.003689
  36.400000,   -0.003328
  36.500000,   -0.002877
  36.600000,   -0.002426
  36.700000,   -0.001975
  36.800000,   -0.001524
  36.900000,   -0.001073
  37.000000,   -0.000622
  37.100000,   -0.000171
  37.200000,    0.000280
  37.300000,    0.000731
  37.400000,    0.000818
  37.500000,    0.000874
  37.600000,    0.000929
  37.700000,    0.000985
  37.800000,    0.001040
  37.900000,    0.001096
  38.000000,    0.001152
  38.100000,    0.001207
  38.200000,    0.001263
  38.300000,    0.001318
  38.400000,    0.001494
  38.500000,    0.001679
  38.600000,    0.001865
  38.700000,    0.002051
  38.800000,    0.002236
  38.900000,    0.002422
  39.000000,    0.002607
  39.100000,    0.002793
  39.200000,    0.002979
  39.300000,    0.003164
  39.400000,    0.002537
  39.500000,    0.001841
  39.600000,    0.001145
  39.700000,    0.000449
  39.800000,   -0.000247
  39.900000,   -0.000943
  40.000000,   -0.001639
  40.100000,   -0.002335
  40.200000,   -0.003031
  40.300000,   -0.003727
  40.400000,   -0.003368
  40.500000,   -0.002919
  40.600000,   -0.002470
  40.700000,   -0.002021
  40.800000,   -0.001571
  40.900000,   -0.001122
  41.000000,   -0.000673
  41.100000,   -0.000224
  41.200000,    0.000225
  41.300000,    0.000674
  41.400000,    0.000759
  41.500000,    0.000813
  41.600000,    0.000866
  41.700000,    0.000920
  41.800000,    0.000974
  41.900000,    0.001027
  42.000000,    0.001081
  42.100000,    0.001135
  42.200000,    0.001188
  42.300000,    0.001242
  42.400000,    0.001416
  42.500000,    0.001601
  42.600000,    0.001785
  42.700000,    0.001970
  42.800000,    0.002154
  42.900000,    0.002338
  43.000000,    0.002523
  43.100000,    0.002707
  43.200000,    0.002892
  43.300000,    0.003076
  43.400000,    0.002447
  43.500000,    0.001750
  43.600000,    0.001052
  43.700000,    0.000354
  43.800000,   -0.000344
  43.900000,   -0.001042
  44.000000,   -0.001740
  44.100000,   -0.002438
  44.200000,   -0.003135
  44.300000,   -0.003833
  44.400000,   -0.003474
  44.500000,   -0.003024
  44.600000,   -0.002575
  44.700000,   -0.002125
  44.800000,   -0.001676
  44.900000,   -0.001226
  45.000000,   -0.000777
  45.100000,   -0.000327
  45.200000,    0.000123
  45.300000,    0.000572
  45.400000,    0.000657
  45.500000,    0.000711
  45.600000,    0.000766
  45.700000,    0.000820
  45.800000,    0.000874
  45.900000,    0.000928
  46.000000,    0.000982
  46.100000,    0.001036
  46.200000,    0.001091
  46.300000,    0.001145
  46.400000,    0.001320
  46.500000,    0.001506
  46.600000,    0.001691
  46.700000,    0.001877
  46.800000,    0.002063
  46.900000,    0.002248
  47.000000,    0.002434
  47.100000,    0.002619
  47.200000,    0.002805
  47.300000,    0.002991
  47.400000,    0.002363
  47.500000,    0.001665
  47.600000,    0.000968
  47.700000,    0.000271
  47.800000,   -0.000427
  47.900000,   -0.001124
  48.000000,   -0.001821
  48.100000,   -0.002519
  48.200000,   -0.003216
  48.300000,   -0.003913
  48.400000,   -0.003552
  48.500000,   -0.003100
  48.600000,   -0.002648
  48.700000,   -0.002196
  48.800000,   -0.001744
  48.900000,   -0.001292
  49.000000,   -0.000840
  49.100000,   -0.000388
  49.200000,    0.000064
  49.300000,    0.000516
  49.400000,    0.000604
  49.500000,    0.000660
  49.600000,    0.000716
  49.700000,    0.000773
  49.800000,    0.000829
  49.900000,    0.000885
  50.000000,    0.000942
  50.100000,    0.000998
  50.200000,    0.001054
  50.300000,    0.001110
  50.400000,    0.001288
  50.500000,    0.001476
  50.600000,    0.001664
  50.700000,    0.001853
  50.800000,    0.002041
  50.900000,    0.002229
  51.000000,    0.002417
  51.100000,    0.002605
  51.200000,    0.002793
  51.300000,    0.002981
  51.400000,    0.002355
  51.500000,    0.001658
  51.600000,    0.000962
  51.700000,    0.000266
  51.800000,   -0.000430
  51.900000,   -0.001126
  52.000000,   -0.001822
  52.100000,   -0.002518
  52.200000,   -0.003214
  52.300000,   -0.003910
  52.400000,   -0.003546
  52.500000,   -0.003091
  52.600000,   -0.002637
  52.700000,   -0.002182
  52.800000,   -0.001727
  52.900000,   -0.001273
  53.000000,   -0.000818
  53.100000,   -0.000363
  53.200000,    0.000091
  53.300000,    0.000546
  53.400000,    0.000635
  53.500000,    0.000693
  53.600000,    0.000752
  53.700000,    0.000810
  53.800000,    0.000868
  53.900000,    0.000926
  54.000000,    0.000984
  54.100000,    0.001043
  54.200000,    0.001101
  54.300000,    0.001159
  54.400000,    0.001338
  54.500000,    0.001528
  54.600000,    0.001718
  54.700000,    0.001908
  54.800000,    0.002098
  54.900000,    0.002287
  55.000000,    0.002477
  55.100000,    0.002667
  55.200000,    0.002857
  55.300000,    0.003047
  55.400000,    0.002420
  55.500000,    0.001724
  55.600000,    0.001028
  55.700000,    0.000332
  55.800000,   -0.000364
  55.900000,   -0.001060
  56.000000,   -0.001756
  56.100000,   -0.002452
  56.200000,   -0.003148
  56.300000,   -0.003844
  56.400000,   -0.003478
  56.500000,   -0.003022
  56.600000,   -0.002567
  56.700000,   -0.002111
  56.800000,   -0.001655
  56.900000,   -0.001199
  57.000000,   -0.000743
  57.100000,   -0.000287
  57.200000,    0.000168
  57.300000,    0.000624
  57.400000,    0.000714
  57.500000,    0.000772
  57.600000,    0.000831
  57.700000,    0.000889
  57.800000,    0.000947
  57.900000,    0.001006
  58.000000,    0.001064
  58.100000,    0.001122
  58.200000,    0.001181
  58.300000,    0.001239
  58.400000,    0.001418
  58.500000,    0.001607
  58.600000,    0.001797
  58.700000,    0.001986
  58.800000,    0.002175
  58.900000,    0.002365
  59.000000,    0.002554
  59.100000,    0.002743
  59.200000,    0.002933
  59.300000,    0.003122
  59.400000,    0.002493
  59.500000,    0.001794
  59.600000,    0.001096
  59.700000,    0.000397
  59.800000,   -0.000302
  59.900000,   -0.001000
  60.000000,   -0.001699
  60.100000,   -0.002398
  60.200000,   -0.003096
  60.300000,   -0.003795
  60.400000,   -0.003432
  60.500000,   -0.002978
  60.600000,   -0.002524
  60.700000,   -0.002070
  60.800000,   -0.001617
  60.900000,   -0.001163
  61.000000,   -0.000709
  61.100000,   -0.000255
  61.200000,    0.000199
  61.300000,    0.000652
  61.400000,    0.000739
  61.500000,    0.000795
  61.600000,    0.000851
  61.700000,    0.000907
  61.800000,    0.000962
  61.900000,    0.001018
  62.000000,    0.001074
  62.100000,    0.001130
  62.200000,    0.001185
  62.300000,    0.001241
  62.400000,    0.001418
  62.500000,    0.001604
  62.600000,    0.001791
  62.700000,    0.001978
  62.800000,    0.002164
  62.900000,    0.002351
  63.000000,    0.002538
  63.100000,    0.002724
  63.200000,    0.002911
  63.300000,    0.003098
  63.400000,    0.002465
  63.500000,    0.001763
  63.600000,    0.001061
  63.700000,    0.000359
  63.800000,   -0.000343
  63.900000,   -0.001046
  64.000000,   -0.001748
  64.100000,   -0.002450
  64.200000,   -0.003152
  64.300000,   -0.003854
  64.400000,   -0.003493
  64.500000,   -0.003041
  64.600000,   -0.002588
  64.700000,   -0.002136
  64.800000,   -0.001684
  64.900000,   -0.001232
  65.000000,   -0.000779
  65.100000,   -0.000327
  65.200000,    0.000125
  65.300000,    0.000577
  65.400000,    0.000663
  65.500000,    0.000717
  65.600000,    0.000771
  65.700000,    0.000826
  65.800000,    0.000880
  65.900000,    0.000934
  66.000000,    0.000988
  66.100000,    0.001042
  66.200000,    0.001097
  66.300000,    0.001151
  66.400000,    0.001327
  66.500000,    0.001512
  66.600000,    0.001698
  66.700000,    0.001884
  66.800000,    0.002070
  66.900000,    0.002256
  67.000000,    0.002442
  67.100000,    0.002628
  67.200000,    0.002814
  67.300000,    0.003000
  67.400000,    0.002366
  67.500000,    0.001663
  67.600000,    0.000959
  67.700000,    0.000256
  67.800000,   -0.000448
  67.900000,   -0.001151
  68.000000,   -0.001855
  68.100000,   -0.002558
  68.200000,   -0.003262
  68.300000,   -0.003965
  68.400000,   -0.003603
  68.500000,   -0.003150
  68.600000,   -0.002697
  68.700000,   -0.002243
  68.800000,   -0.001790
  68.900000,   -0.001337
  69.000000,   -0.000884
  69.100000,   -0.000431
  69.200000,    0.000022
  69.300000,    0.000475
  69.400000,    0.000562
  69.500000,    0.000617
  69.600000,    0.000672
  69.700000,    0.000727
  69.800000,    0.000783
  69.900000,    0.000838
  70.000000,    0.000893
  70.100000,    0.000948
  70.200000,    0.001003
  70.300000,    0.001058
  70.400000,    0.001236
  70.500000,    0.001423
  70.600000,    0.001611
  70.700000,    0.001798
  70.800000,    0.001986
  70.900000,    0.002173
  71.000000,    0.002361
  71.100000,    0.002549
  71.200000,    0.002736
  71.300000,    0.002924
  71.400000,    0.004926
  71.500000,    0.007084
  71.600000,    0.009241
  71.700000,    0.011398
  71.800000,    0.013556
  71.900000,    0.015713
  72.000000,    0.017870
  72.100000,    0.020028
  72.200000,    0.022185
  72.300000,    0.024342
  72.400000,    0.022237
  72.500000,    0.019768
  72.600000,    0.017299
  72.700000,    0.014829
  72.800000,    0.012360
  72.900000,    0.009891
  73.000000,    0.007422
  73.100000,    0.004953
  73.200000,    0.002484
  73.300000,    0.000015
  73.400000,    0.000152
  73.500000,    0.000511
  73.600000,    0.000870
  73.700000,    0.001229
  73.800000,    0.001589
  73.900000,    0.001948
  74.000000,    0.002307
  74.100000,    0.002666
  74.200000,    0.003025
  74.300000,    0.003384
  74.400000,    0.002734
  74.500000,    0.001999
  74.600000,    0.001263
  74.700000,    0.000528
  74.800000,   -0.000208
  74.900000,   -0.000943
  75.000000,   -0.001679
  75.100000,   -0.002414
  75.200000,   -0.003150
  75.300000,   -0.003885
  75.400000,   -0.003532
  75.500000,   -0.003085
  75.600000,   -0.002639
  75.700000,   -0.002192
  75.800000,   -0.001746
  75.900000,   -0.001299
  76.000000,   -0.000853
  76.100000,   -0.000407
  76.200000,    0.000040
  76.300000,    0.000486
  76.400000,    0.000851
  76.500000,    0.001210
  76.600000,    0.001568
  76.700000,    0.001926
  76.800000,    0.002285
  76.900000,    0.002643
  77.000000,    0.003002
  77.100000,    0.003360
  77.200000,    0.003718
  77.300000,    0.004077
  77.400000,   -0.000209
  77.500000,   -0.004891
  77.600000,   -0.009573
  77.700000,   -0.014255
  77.800000,   -0.018937
  77.900000,   -0.023619
  78.000000,   -0.028301
  78.100000,   -0.032982
  78.200000,   -0.037664
  78.300000,   -0.042346
  78.400000,   -0.038602
  78.500000,   -0.034140
  78.600000,   -0.029678
  78.700000,   -0.025216
  78.800000,   -0.020754
  78.900000,   -0.016292
  79.000000,   -0.011830
  79.100000,   -0.007368
  79.200000,   -0.002906
  79.300000,    0.001556
  79.400000,   -0.001974
  79.500000,   -0.006185
  79.600000,   -0.010397
  79.700000,   -0.014608
  79.800000,   -0.018819
