Ground distance, Vertical Forces
   0.000000,    0.000001
   0.000002,    0.000023
   0.000021,    0.000295
   0.000167,    0.002364
   0.000832,    0.011804
   0.003075,    0.043612
   0.011791,    0.167215
   0.028774,    0.408003
   0.053198,    0.754176
   0.085255,    1.208427
   0.124845,    1.769268
   0.171903,    2.435720
   0.226755,    3.212337
   0.289028,    4.093786
   0.359398,    5.089569
   0.437811,    6.198853
   0.524423,    7.423796
   0.619232,    8.764278
   0.722371,   10.222126
   0.833839,   11.797258
   0.953942,   13.493924
   1.082132,   15.304313
   1.220252,   17.254366
   1.367225,   19.328821
   1.522745,   21.523249
   1.688425,   23.860356
   1.863558,   26.330074
   2.046480,   28.908868
   2.242105,   31.665897
   2.447805,   34.564045
   2.662385,   37.586370
   2.886956,   40.748442
   3.126552,   44.121000
   3.374872,   47.615263
   3.635810,   51.285908
   3.905851,   55.083391
   4.187431,   59.041863
   4.482618,   63.190266
   4.791284,   67.526663
   5.111252,   72.020353
   5.442467,   76.670428
   5.792550,   81.583731
   6.155108,   86.670357
   6.532414,   91.962064
   6.918299,   97.372189
   7.323207,  103.047032
   7.737846,  108.856175
   8.174068,  114.965507
   8.619445,  121.200794
   9.076176,  127.592721
   9.550516,  134.228655
  10.044155,  141.132020
  10.545257,  148.137143
  11.068211,  155.445023
  11.604710,  162.939331
  12.164877,  170.761252
  12.735861,  178.731143
  13.323140,  186.925296
  13.933027,  195.431546
  14.556896,  204.129355
  15.209222,  213.220250
  15.876297,  222.512911
  16.558216,  232.008467
  17.264632,  241.841094
  17.977769,  251.763158
  18.714386,  262.007663
  19.464158,  272.430759
  20.250018,  283.350923
  21.055340,  294.536693
  21.865678,  305.787298
  22.700712,  317.375787
  23.563932,  329.350194
  24.446642,  341.589568
  25.356909,  354.205404
  26.285652,  367.071506
  27.231636,  380.170534
  28.199714,  393.569417
  29.193561,  407.318661
  30.211441,  421.393872
  31.249147,  435.736547
  32.306815,  450.348310
  33.393242,  465.350301
  34.505529,  480.702069
  35.642326,  496.384576
  36.795892,  512.290760
  37.984578,  528.673233
  39.196388,  545.366189
  40.430063,  562.351960
  41.688099,  579.664542
  42.984696,  597.498816
  44.286224,  615.391909
  45.621528,  633.740065
  46.989619,  652.529143
  48.382469,  671.648403
  49.802347,  691.128552
  51.233368,  710.751407
  52.708092,  730.962971
  54.204984,  751.467518
  55.740400,  772.488580
  57.306714,  793.921125
  58.884920,  815.504759
  60.506015,  837.662927
  62.151091,  860.136587
  63.830063,  883.060675
  65.522607,  906.157304
  67.267707,  929.957873
  69.028671,  953.961305
  70.839811,  978.634724
  72.685896, 1003.769768
  74.547492, 1029.101436
  76.425792, 1054.645742
  78.344367, 1080.722739
  80.282496, 1107.050227
  82.283674, 1134.218252
  82.364220, 1135.311416
  82.382520, 1135.559774
  82.386573, 1135.614772
  82.392305, 1135.692570
  82.394305, 1135.719708
  82.398170, 1135.772167
  82.399725, 1135.793275
  82.399897, 1135.795605
  82.400052, 1135.797704
  82.401598, 1135.818691
  82.417063, 1136.028573
  82.500111, 1137.155635
  82.811597, 1141.382574
  83.808850, 1154.912288
  85.704999, 1180.623624
  87.601794, 1206.325978
  89.518394, 1232.278827
  91.465491, 1258.626444
  93.436872, 1285.284170
  95.431393, 1312.236029
  97.472361, 1339.796184
  99.538049, 1367.670406
 101.632266, 1395.909522
 103.755118, 1424.514313
 105.908914, 1453.515258
 108.093096, 1482.904115
 110.316443, 1512.798204
 112.575904, 1543.155588
 114.859101, 1573.809294
 117.152850, 1604.581993
 119.481677, 1635.802264
 121.839955, 1667.393914
 124.238118, 1699.495904
 126.674755, 1732.088354
 129.156656, 1765.261046
 131.640597, 1798.435749
 134.164906, 1832.123947
 136.725987, 1866.276674
 139.317875, 1900.813589
 141.940015, 1935.726552
 144.588257, 1970.959689
 147.265928, 2006.556611
 149.984507, 2042.669062
 152.739690, 2079.238881
 155.526149, 2116.194528
 158.351258, 2153.632939
 161.173061, 2190.997786
 164.049516, 2229.055935
 166.966740, 2267.622438
 169.914189, 2306.557013
 172.901538, 2345.986572
 175.919509, 2385.787774
 178.963302, 2425.896649
 182.048209, 2466.513888
 185.166042, 2507.530724
 188.347880, 2549.354684
 191.554350, 2591.467043
 194.784680, 2633.857128
 198.050896, 2676.682007
 201.375619, 2720.236985
 204.689018, 2763.606741
 208.082367, 2807.985106
 211.492896, 2852.549814
 214.940927, 2897.565752
 218.428859, 2943.063224
 221.952588, 2988.987694
 225.506942, 3035.270904
 229.089745, 3081.883810
 232.699811, 3128.810305
 236.355511, 3176.288227
 240.052167, 3224.255629
 243.788624, 3272.696432
 247.596378, 3322.017331
 251.423370, 3371.542721
 255.279336, 3421.398064
 259.177338, 3471.751321
 263.115219, 3522.573492
 267.096126, 3573.904016
 271.105754, 3625.557508
 275.166246, 3677.818113
 279.252598, 3730.362958
 283.377522, 3783.354694
 287.541266, 3836.795431
 291.736530, 3890.590534
 295.970670, 3944.833370
 300.272023, 3999.885406
 304.606341, 4055.306785
 308.982325, 4111.207778
 313.401013, 4167.600403
 317.883118, 4224.747429
 322.370443, 4281.905905
 326.895019, 4339.483398
 331.475769, 4397.719344
 336.087186, 4456.288188
 340.752261, 4515.480733
 341.690350, 4527.376631
 342.326424, 4535.441346
 342.834251, 4541.879274
 342.909881, 4542.837996
 342.927908, 4543.066517
 342.933475, 4543.137086
 342.936056, 4543.169806
 342.936625, 4543.177028
 342.937218, 4543.184543
 342.943146, 4543.259685
 342.996504, 4543.936075
 343.306073, 4547.860092
 344.412412, 4561.881227
 348.194436, 4609.782626
 352.522518, 4664.543615
 356.896392, 4719.823028
 361.308313, 4775.521589
 365.766363, 4831.739922
 370.267647, 4888.439995
 374.778538, 4945.197479
 379.353960, 5002.702254
 383.941271, 5060.291451
 388.548353, 5118.063732
 393.207588, 5176.423985
 397.903065, 5235.171434
 402.639881, 5294.368572
 407.399068, 5353.777349
 412.221579, 5413.907543
 417.072898, 5474.327182
 421.937454, 5534.841835
 426.841381, 5595.775858
 431.800108, 5657.319318
 436.794276, 5719.230391
 441.806899, 5781.297735
 446.862677, 5843.826249
 451.974992, 5906.979677
 457.110376, 5970.343234
 462.278897, 6034.040348
 467.502392, 6098.338578
 472.768856, 6163.088448
 478.053447, 6227.983573
 483.376024, 6293.267024
 488.720802, 6358.744253
 494.131934, 6424.954664
 499.569809, 6491.411897
 505.031027, 6558.073747
 510.548198, 6625.336909
 516.110796, 6693.071234
 521.732936, 6761.446684
 527.371032, 6829.931922
 533.042382, 6898.736380
 538.751213, 6967.910213
 544.505050, 7037.543168
 550.297615, 7107.557848
 556.115933, 7177.796401
 561.973343, 7248.418829
 567.888696, 7319.650694
 573.837780, 7391.198796
 579.844532, 7463.349407
 585.883966, 7535.800799
 591.949428, 7608.472271
 598.072678, 7681.742899
 604.225883, 7755.278085
 610.408575, 7829.071352
 616.644321, 7903.402538
 622.915371, 7978.058524
 629.226858, 8053.099126
 635.574948, 8128.477470
 641.964139, 8204.245660
 648.397600, 8280.439759
 654.857257, 8356.844586
 661.347064, 8433.506080
 667.899211, 8510.802818
 674.514125, 8588.737431
 681.182892, 8667.202663
 687.900080, 8746.132709
 694.627289, 8825.075485
 701.380297, 8904.215807
 708.178473, 8983.779491
 714.996028, 9063.463709
 721.873057, 9143.735747
 728.809736, 9224.595369
 735.793922, 9305.899007
 742.807962, 9387.439858
 749.857801, 9469.285978
 756.949169, 9551.502603
 764.097458, 9634.266369
 771.308444, 9717.641812
 778.553708, 9801.298600
 785.803439, 9884.892091
 793.129434, 9969.248779
 800.488954, 10053.874437
 807.883684, 10138.787340
 809.370929, 10155.851023
 815.018655, 10220.606176
 815.078148, 10221.287946
 815.095169, 10221.482993
 815.122700, 10221.798493
 815.131617, 10221.900667
 815.149449, 10222.105015
 815.151760, 10222.131505
 815.152979, 10222.145465
 815.154148, 10222.158861
 815.155211, 10222.171049
 815.165847, 10222.292929
 815.271338, 10223.501765
 816.008823, 10231.951935
 819.307960, 10269.736139
 825.852033, 10344.598868
 832.610186, 10421.792551
 839.389160, 10499.104064
 846.215523, 10576.835140
 853.078094, 10654.856763
 859.966829, 10733.053634
 866.881207, 10811.419008
 873.843434, 10890.203150
 880.837696, 10969.225533
 887.858937, 11048.427994
 894.943703, 11128.220948
 902.038714, 11208.002891
 909.160625, 11287.960679
 916.327426, 11368.294915
 923.525699, 11448.853727
 930.779614, 11529.905840
 938.066272, 11611.193575
 945.376390, 11692.612436
 952.735269, 11774.442872
 960.117392, 11856.399750
 967.542523, 11938.701311
 975.011305, 12021.352915
 982.498153, 12104.070337
 990.042408, 12187.286807
 997.598190, 12270.494960
1005.215235, 12354.241133
1012.861879, 12438.175346
1020.555672, 12522.488736
1028.281929, 12607.018842
1036.038449, 12691.740466
1043.828776, 12776.691196
1051.659981, 12861.946695
1059.525807, 12947.437425
1067.429215, 13033.194204
1075.347878, 13118.973937
1083.326570, 13205.260227
1091.318343, 13291.543956
1099.373244, 13378.364030
1107.464963, 13465.434738
1115.590092, 13552.718142
1123.751443, 13640.243157
1131.967263, 13728.203631
1140.219043, 13816.399573
1148.487455, 13904.623587
1156.803997, 13993.210622
1165.166043, 14082.130771
1173.554258, 14171.177139
1181.988333, 14260.557400
1190.454226, 14350.121271
1198.971656, 14440.075723
1207.510171, 14530.097817
1216.085987, 14620.357547
1224.715728, 14711.028053
1233.363034, 14801.725979
1242.043076, 14892.609728
1250.771925, 14983.846001
1259.527479, 15075.202354
1268.342607, 15167.020042
1277.190888, 15259.021995
1286.071741, 15351.201015
1294.967402, 15443.372091
1303.939513, 15536.172079
1312.930728, 15629.005886
1321.969565, 15722.166795
1331.052530, 15815.616956
1340.186788, 15909.428127
1349.357041, 16003.441488
1358.544029, 16097.458800
1367.746378, 16191.465801
1376.996500, 16285.792527
1386.303725, 16380.531950
1395.663641, 16475.636801
1405.045137, 16570.789636
1414.476222, 16666.273249
1423.949596, 16762.011912
1433.463460, 16857.985867
1442.984234, 16953.855730
1452.570266, 17050.207766
1462.192651, 17146.749338
1471.853557, 17243.500851
1481.542862, 17340.359784
1491.258219, 17437.301887
1501.022059, 17534.549636
1510.849849, 17632.254682
1520.706102, 17730.062418
1530.597748, 17828.040537
1540.512260, 17926.064098
1550.491088, 18024.541199
1560.495236, 18123.085276
1562.504417, 18142.854332
1564.043094, 18157.988962
1565.175679, 18169.126458
1565.355282, 18170.892410
1565.410007, 18171.430481
1565.503798, 18172.352643
1565.535280, 18172.662175
1565.540718, 18172.715648
1565.546350, 18172.771024
1565.602674, 18173.324790
1566.098973, 18178.204122
1568.930175, 18206.030262
1577.596519, 18291.115180
1587.694788, 18390.085510
1597.806009, 18488.996882
1607.928398, 18587.831903
1618.109930, 18687.057786
1628.342851, 18786.596640
1638.599880, 18886.181734
1648.915589, 18986.147186
1659.257306, 19086.174766
1669.649991, 19186.504521
1680.082010, 19287.022369
1690.545587, 19387.652181
1701.045476, 19488.438532
1711.578944, 19589.354002
1722.170694, 19690.633479
1732.795902, 19792.037804
1743.453085, 19893.551779
1754.153178, 19995.278229
1764.901754, 20097.268376
1775.684089, 20199.381002
1786.494166, 20301.558182
1797.367155, 20404.130600
1808.291926, 20506.990855
1819.233216, 20609.805827
1830.216962, 20712.818374
1841.242369, 20816.019489
1852.320146, 20919.507588
1863.428537, 21023.077917
1874.579106, 21126.837059
1885.749459, 21230.575693
1896.968434, 21334.560542
1908.228076, 21438.716179
1919.546691, 21543.209986
1930.904397, 21647.856495
1942.292135, 21752.571115
1953.713791, 21857.388619
1965.175680, 21962.365692
1976.677338, 22067.496674
1988.210307, 22172.703106
1999.785142, 22278.080045
2011.412691, 22383.724449
2023.087369, 22489.583621
2034.810418, 22595.667010
2046.562159, 22701.795222
2058.359652, 22808.121078
2070.167709, 22914.326708
2082.046240, 23020.949529
2093.960627, 23127.676724
2105.923960, 23234.624017
2117.919156, 23341.637290
2129.941762, 23448.676017
2142.032714, 23556.102845
2154.156989, 23663.604632
2166.314450, 23771.179153
2178.530503, 23879.049530
2190.756974, 23986.789317
2203.022393, 24094.649383
2215.363777, 24202.952929
2227.701506, 24311.000114
2240.114398, 24419.480035
2252.577468, 24528.171773
2265.066299, 24636.861136
2277.603191, 24745.741016
2290.155525, 24854.527234
2302.757473, 24963.515015
2315.421835, 25072.812843
2328.090197, 25181.915625
2340.843127, 25291.515654
2353.608184, 25400.988590
2366.419929, 25510.630069
2372.621155, 25563.616292
2379.305410, 25620.669140
2392.222960, 25990.962121
2405.142786, 26603.921753
2418.117522, 27216.151289
2431.128888, 27829.512826
2444.201772, 28443.501105
2457.295897, 29058.673902
2470.442943, 29673.763138
2483.631167, 30289.838072
2496.857699, 30906.400956
2510.116802, 31523.262378
2523.431822, 32140.422861
2536.786590, 32758.550300
2550.172698, 33376.941134
2563.587043, 33995.234554
2577.043371, 34613.437459
2590.524621, 35231.845210
2604.028595, 35849.799350
2617.596617, 36467.649545
2631.203945, 37086.561654
2644.820311, 37705.300016
2658.477183, 38323.145520
2672.176656, 38941.193782
2685.915065, 39559.443657
2699.689361, 40177.714499
2713.484454, 40795.706614
2714.037645, 41258.467601
2714.063978, 41276.899948
2714.081420, 41277.965792
2714.094314, 41278.687399
2714.101904, 41279.198215
2714.105124, 41279.484345
2714.108322, 41279.627107
2714.140297, 41280.104693
2714.460061, 41284.880639
2716.392408, 41317.888103
2724.983738, 41481.442980
2739.164868, 41929.269810
2753.527378, 42562.416037
2767.911562, 43199.899142
2782.349781, 43836.823179
2796.824939, 44474.012566
2811.314618, 45110.608789
2825.856947, 45746.344839
2840.412219, 46381.924921
2854.983880, 47016.107560
2869.603538, 47649.386955
2884.232979, 48282.248973
2898.917163, 48914.052382
2913.628173, 49545.808916
2914.789066, 50002.354951
2915.951905, 50051.546087
2917.115888, 50100.787365
2918.278234, 50150.019728
2919.443401, 50199.216511
2920.609898, 50248.491247
2921.767956, 50297.676497
2922.933494, 50346.682757
2924.099772, 50395.897308
2925.261888, 50445.058341
2926.434095, 50494.199829
2927.590039, 50543.412262
2928.762597, 50592.328930
2929.936294, 50641.727697
2931.112514, 50691.167886
2932.289121, 50740.663291
2933.455329, 50790.015283
2934.625407, 50839.084838
2935.805701, 50888.372422
2936.983307, 50937.902783
2938.163499, 50987.361482
2939.345783, 51036.897515
2940.527715, 51086.465493
2941.712770, 51136.036849
2942.893383, 51185.618836
2944.081742, 51235.141667
2945.265809, 51284.812337
2946.451557, 51334.352118
2947.634021, 51383.874081
2948.826003, 51433.392534
2950.013203, 51483.103600
2951.202490, 51532.674132
2952.400183, 51582.383863
2953.593395, 51632.256415
2954.786333, 51681.967349
2955.980723, 51731.661083
2957.177624, 51781.401049
2958.377004, 51831.217463
2959.572956, 51881.035639
2960.774981, 51930.801440
2961.979724, 51980.749605
2963.171181, 52030.583302
2964.382910, 52080.253750
2965.595614, 52130.496699
2966.807645, 52180.730236
2968.022782, 52230.953186
2969.239239, 52281.252881
2970.454475, 52331.545794
2971.670807, 52381.786825
2972.885051, 52432.003610
2974.103573, 52482.182449
2975.326382, 52532.507438
2976.546719, 52582.895064
2977.772673, 52633.249480
2978.992477, 52683.659141
2980.221639, 52733.975162
2981.452211, 52784.546824
2982.682551, 52835.124318
2983.914769, 52885.686083
2985.143722, 52936.229533
2986.373500, 52986.656758
2987.613614, 53037.201882
2988.842756, 53087.876802
2990.083021, 53138.339654
2991.326527, 53189.128225
2992.572913, 53240.011259
2993.820087, 53290.952469
2995.058739, 53341.778114
2996.309155, 53392.468958
2997.553165, 53443.384048
2998.796496, 53494.073036
3000.053222, 53544.870761
3001.307655, 53595.988114
3002.572516, 53647.130982
3003.831816, 53698.467978
3005.096910, 53749.680377
3006.353204, 53800.915030
3007.624352, 53852.042222
3008.892254, 53903.516149
3010.153876, 53954.784788
3011.422354, 54005.920416
3012.700126, 54057.325267
3013.975145, 54108.922835
3015.260217, 54160.524736
3016.536628, 54212.268984
3017.826545, 54263.890859
3019.114091, 54315.827532
3020.401361, 54367.654122
3021.695380, 54419.513752
3022.986010, 54471.483553
3024.279524, 54523.351652
3025.569306, 54575.216152
3026.863638, 54626.988867
3028.157547, 54678.843954
3029.466780, 54694.386809
3030.769869, 54709.833253
3032.078104, 54725.317112
3033.383931, 54740.748885
3034.697490, 54756.248233
3036.005911, 54771.663190
3037.318021, 54787.097767
3038.636361, 54802.581573
3039.957820, 54818.077763
3041.283872, 54833.603388
3042.606476, 54849.064255
3043.925798, 54864.462450
3045.248974, 54879.881236
3046.572998, 54895.285408
3047.896986, 54910.664651
3049.235022, 54926.182130
3050.574592, 54941.692264
3051.914738, 54957.183871
3053.255055, 54972.652215
3054.595374, 54988.095322
3055.939125, 55003.552595
3057.285399, 55019.013366
3058.633473, 55034.469190
3059.989414, 55049.989319
3061.342543, 55065.451346
3062.703548, 55080.977246
3064.057298, 55096.394342
3065.415249, 55111.833180
3066.775950, 55127.277018
3068.141792, 55142.752748
3069.500283, 55158.118863
3070.864097, 55173.518758
3072.231443, 55188.931914
3073.603291, 55204.369008
3074.971642, 55219.739966
3076.349388, 55235.189421
3077.728410, 55250.625968
3079.103647, 55265.993018
3080.486749, 55281.420591
3081.876266, 55296.892058
3083.258304, 55312.252733
3084.642184, 55327.606348
3086.044225, 55343.133335
3087.445176, 55358.619934
3088.853940, 55374.164356
3090.262435, 55389.677152
3091.673490, 55405.189371
3093.085030, 55420.678098
3094.489911, 55436.065091
3095.910213, 55451.591898
3097.332952, 55467.115972
3098.753355, 55482.585227
3100.183564, 55498.131634
3101.616592, 55513.678800
3103.038475, 55529.075478
3104.468759, 55544.533371
3105.906198, 55560.038503
3107.338045, 55575.453286
3108.775863, 55590.902166
3110.216229, 55606.348066
3111.663552, 55621.837938
3113.112019, 55637.309284
3114.558220, 55652.725681
3116.014418, 55668.217584
3117.461539, 55683.582005
3118.917658, 55699.010825
3120.374827, 55714.419472
3121.834281, 55729.820885
3123.304248, 55745.301426
3124.778858, 55760.798759
3126.250308, 55776.230815
3127.721853, 55791.631785
3128.893559, 55803.871732
3129.197642, 55807.044935
3130.672797, 55822.419157
3132.155720, 55837.841754
3133.642354, 55853.270127
3135.125536, 55868.629889
3136.615220, 55884.024008
3138.111573, 55899.453733
3139.612951, 55914.901697
3141.114773, 55930.320529
3142.613597, 55945.674968
3144.118431, 55961.057150
3145.635001, 55976.524983
3147.143956, 55991.880921
3148.665929, 56007.334728
3150.192898, 56022.804309
3151.709698, 56038.136159
3153.238027, 56053.549531
3154.769278, 56068.957093
3156.309629, 56084.420554
3157.847254, 56099.820950
3159.393273, 56115.269430
3160.944156, 56130.730207
3162.504245, 56146.246053
3164.062111, 56161.703013
3165.614343, 56177.067501
3167.178826, 56192.516264
3168.741195, 56207.907070
3170.302980, 56223.255055
3171.872111, 56238.637870
3173.450113, 56254.069862
3175.019506, 56269.380030
3176.616157, 56284.917569
3178.194105, 56300.234883
3179.786350, 56315.652431
3181.378013, 56331.025611
3182.980148, 56346.460785
3184.573956, 56361.776727
3186.174614, 56377.119318
3187.778710, 56392.455434
3189.380130, 56407.726549
3190.985816, 56422.998785
3192.595696, 56438.271110
3194.211663, 56453.561059
3195.825406, 56468.789821
3197.448977, 56484.070814
3199.071617, 56499.302401
3200.704249, 56514.586753
3202.332075, 56529.785081
3203.962560, 56544.967158
3205.597610, 56560.150406
3207.250819, 56575.460174
3208.895873, 56590.652341
3210.552234, 56605.906501
3212.216602, 56621.191484
3213.879398, 56636.419024
3215.542328, 56651.604777
3217.217083, 56666.854992
3218.886551, 56682.013570
3220.559789, 56697.162768
3222.239598, 56712.327506
3223.926929, 56727.515769
3225.610143, 56742.622638
3227.311767, 56757.849689
3229.002292, 56772.932516
3230.706921, 56788.095847
3232.405721, 56803.161991
3234.112757, 56818.255550
3235.816751, 56833.276575
3237.536072, 56848.386460
3239.248490, 56863.389455
3240.960421, 56878.342036
3242.688775, 56893.391228
3244.403048, 56908.271291
3246.135428, 56923.261425
3247.867064, 56938.197758
3249.597412, 56953.075654
3251.325460, 56967.886518
3253.063331, 56982.733922
3254.796641, 56997.494712
3256.553014, 57012.403328
3258.296300, 57027.152483
3260.044487, 57041.894667
3261.796847, 57056.623326
3263.560246, 57071.395490
3265.333909, 57086.203742
3267.100565, 57100.903711
3268.868073, 57115.561021
3270.630404, 57130.125813
3272.418062, 57144.849308
3274.196382, 57159.445277
3275.975189, 57173.994701
3277.782274, 57188.723621
3279.568536, 57203.231486
3281.357723, 57217.711902
3283.166292, 57232.297063
3284.972932, 57246.814318
3286.793601, 57261.391337
3288.607131, 57275.858292
3290.415262, 57290.229581
3292.232651, 57304.621507
3294.035713, 57318.847469
3295.856396, 57333.159360
3297.689849, 57347.517681
3299.545030, 57361.991013
3301.387609, 57376.311086
3303.241116, 57390.660807
3305.087239, 57404.898212
3306.933904, 57419.084693
3308.792625, 57433.308110
3310.645060, 57447.427805
3312.514835, 57461.623328
3314.357774, 57475.559677
3316.214083, 57489.541468
3318.064396, 57503.422472
3319.951337, 57517.521020
3321.835631, 57531.542083
3323.714537, 57545.465592
3325.591770, 57559.319365
3327.482543, 57573.215103
3329.383852, 57587.129575
3331.285104, 57600.984729
3333.185082, 57614.771737
3335.084669, 57628.497034
3336.993240, 57642.227930
3338.920906, 57656.035820
3340.828399, 57669.639434
3342.749554, 57683.280347
3344.647727, 57696.698778
3346.597201, 57710.418469
3348.511902, 57723.832846
3350.444250, 57737.309937
3352.390511, 57750.822175
3354.311261, 57764.096366
3356.246776, 57777.411335
3358.195576, 57790.755525
3360.141633, 57804.018647
3362.100081, 57817.303345
3364.034019, 57830.359866
3365.983883, 57843.461574
3367.930106, 57856.476370
3369.874679, 57869.417796
3371.843458, 57882.456797
3373.816261, 57895.458309
3375.801764, 57908.478666
3377.784804, 57921.417890
3379.765582, 57934.277490
3381.757390, 57947.143293
3383.715316, 57959.726294
3385.722307, 57972.558786
3387.713058, 57985.221554
3389.719824, 57997.919757
3391.713217, 58010.467262
3393.712374, 58022.984885
3395.713463, 58035.448208
3397.715383, 58047.850208
3399.725498, 58060.236020
3401.767453, 58072.749296
3403.766003, 58084.929483
3405.758937, 58097.009307
3407.792860, 58109.269459
3409.824148, 58121.445006
3411.866433, 58133.617216
3413.905999, 58145.703874
3415.933376, 58157.649598
3417.977630, 58169.625378
3420.012703, 58181.478139
3422.059309, 58193.328372
3424.109045, 58205.126644
3426.151928, 58216.815648
3428.208092, 58228.510233
3430.268072, 58240.155662
3432.309855, 58251.628191
3434.381039, 58263.194673
3436.422437, 58274.524560
3438.510746, 58286.042615
3440.601353, 58297.500179
3442.673813, 58308.786010
3444.752898, 58320.035580
3446.813459, 58331.113401
3448.885973, 58342.183637
3450.963075, 58353.206062
3453.048523, 58364.199920
3455.112418, 58375.008246
3457.206660, 58385.902347
3459.294969, 58396.692196
3461.365805, 58407.319374
3463.464551, 58418.016195
3465.568253, 58428.663921
3467.678901, 58439.271955
3469.761936, 58449.667681
3471.869679, 58460.112345
3473.971654, 58470.453901
3476.066391, 58480.685785
3478.182220, 58490.945609
3480.290002, 58501.091358
3482.379078, 58511.073133
3484.497714, 58521.120953
3486.608263, 58531.055099
3488.747860, 58541.049220
3490.887727, 58550.967285
3493.022436, 58560.784376
3495.160588, 58570.540126
3497.273690, 58580.105671
3499.414962, 58589.721737
3501.558268, 58599.269300
3503.681141, 58608.649249
3505.813930, 58617.996236
3507.941859, 58627.245211
3510.096293, 58636.531309
3512.258755, 58645.772981
3514.406074, 58654.871576
3516.541832, 58663.843716
3518.713312, 58672.886684
3520.868924, 58681.784539
3523.047947, 58690.698979
3525.220432, 58699.506536
3527.382590, 58708.192759
3529.536158, 58716.765655
3531.716045, 58725.363193
3533.893961, 58733.872438
3536.062525, 58742.265162
3538.218997, 58750.531931
3540.410699, 58758.852852
3542.577349, 58766.998488
3544.759189, 58775.120665
3546.933179, 58783.133195
3549.118910, 58791.108048
3551.305788, 58799.005845
3553.487253, 58806.803117
3555.659158, 58814.485861
3557.831736, 58822.090759
3560.009539, 58829.633402
3562.199997, 58837.138520
3564.382414, 58844.534937
3566.577840, 58851.893704
3568.776373, 58859.180716
3570.979636, 58866.400907
3573.180154, 58873.529656
3575.380559, 58880.575647
3577.604910, 58887.614559
3579.822509, 58894.548274
3582.027082, 58901.358287
3584.222808, 58908.058729
3586.427222, 58914.703110
3588.658966, 58921.345583
3590.874585, 58927.856166
3593.111977, 58934.345894
3595.337291, 58940.716023
3597.561969, 58947.000027
3599.785910, 58953.197692
3601.994611, 58959.269502
3604.212565, 58965.283127
3606.439624, 58971.237116
3608.658076, 58977.084091
3610.885446, 58982.870215
3613.120598, 58988.591588
3615.346217, 58994.203983
3617.581734, 58999.756380
3619.807020, 59005.198799
3622.045312, 59010.587914
3624.278295, 59015.879184
3626.511318, 59021.085588
3628.756531, 59026.234758
3630.662168, 59030.537754
