Ground distance, Vertical Forces
   0.000000,    0.000000
   0.000002,    0.000000
   0.000033,    0.000000
   0.000541,    0.000000
   0.002971,    0.000000
   0.012724,    0.000000
   0.030175,    0.000000
   0.055121,    0.000000
   0.087431,    0.000000
   0.127351,    0.000000
   0.175087,    0.000000
   0.230545,    0.000000
   0.293397,    0.000000
   0.364623,    0.000000
   0.443513,    0.000000
   0.530359,    0.000000
   0.626309,    0.000000
   0.729777,    0.000000
   0.842292,    0.000000
   0.963616,    0.000000
   1.092107,    0.000000
   1.229745,    0.000000
   1.378547,    0.000000
   1.536402,    0.000000
   1.702785,    0.000000
   1.880020,    0.000000
   2.066176,    0.000000
   2.263475,    0.000000
   2.469520,    0.000000
   2.687974,    0.000000
   2.915646,    0.000000
   3.153525,    0.000000
   3.404560,    0.000000
   3.665621,    0.000000
   3.939644,    0.000000
   4.226323,    0.000000
   4.526462,    0.000000
   4.834008,    0.000000
   5.151473,    0.000000
   5.483183,    0.000000
   5.829160,    0.000000
   6.193214,    0.000000
   6.569655,    0.000000
   6.958681,    0.000000
   7.362451,    0.000000
   7.781528,    0.000000
   8.217215,    0.000000
   8.664408,    0.000000
   9.129936,    0.000000
   9.607516,    0.000000
  10.098993,    0.000000
  10.614274,    0.000000
  11.146344,    0.000000
  11.686715,    0.000000
  12.245868,    0.000000
  12.820009,    0.000000
  13.423800,    0.000000
  14.037027,    0.000000
  14.668337,    0.000000
  15.312479,    0.000000
  15.979087,    0.000000
  16.665407,    0.000000
  17.369399,    0.000000
  18.093800,    0.000000
  18.833876,    0.000000
  19.591959,    0.000000
  20.369445,    0.000000
  21.183145,    0.000000
  22.002937,    0.000000
  22.847356,    0.000000
  23.710068,    0.000000
  24.594700,    0.000000
  25.508131,    0.000000
  26.440806,    0.000000
  27.392696,    0.000000
  28.376439,    0.000000
  29.370720,    0.000000
  30.386306,    0.000000
  31.437731,    0.000000
  32.505956,    0.000000
  33.595058,    0.000000
  34.722148,    0.000000
  35.854885,    0.000000
  37.013675,    0.000000
  38.196420,    0.000000
  39.405089,    0.000000
  40.647508,    0.000000
  41.900882,    0.000000
  43.179474,    0.000000
  44.514203,    0.000000
  45.859442,    0.000000
  47.224391,    0.000000
  48.628488,    0.000000
  50.052956,    0.000000
  51.505792,    0.000000
  52.986236,    0.000000
  54.503722,    0.000000
  56.045472,    0.000000
  57.603177,    0.000000
  59.199081,    0.000000
  60.807362,    0.000000
  62.453934,    0.000000
  64.126404,    0.000000
  65.835876,    0.000000
  67.565067,    0.000000
  69.327693,    0.000000
  71.134304,    0.000000
  72.979054,    0.000000
  74.841589,    0.000000
  76.727429,    0.000000
  78.653341,    0.000000
  80.636011,    0.000000
  81.033263,    0.000000
  81.360354,    0.000000
  82.361676,    0.000000
  82.376999,    0.000000
  82.390335,    0.000000
  82.393274,    0.000000
  82.394717,    0.000000
  82.397331,    0.000000
  82.397670,    0.000000
  82.397868,    0.000000
  82.398050,    0.000000
  82.399865,    0.000000
  82.416165,    0.000000
  82.520608,    0.000000
  82.937459,    0.000000
  84.229911,    0.000000
  86.170510,    0.000000
  88.073124,    0.000000
  89.990574,    0.000000
  91.955791,    0.000000
  93.930154,    0.000000
  95.949316,    0.000000
  98.000751,    0.000000
 100.078216,    0.000000
 102.188103,    0.000000
 104.330924,    0.000000
 106.490812,    0.000000
 108.673515,    0.000000
 110.897496,    0.000000
 113.151885,    0.000000
 115.441649,    0.000000
 117.761229,    0.000000
 120.124748,    0.000000
 122.493405,    0.000000
 124.904985,    0.000000
 127.345454,    0.000000
 129.808483,    0.000000
 132.308287,    0.000000
 134.852048,    0.000000
 137.425981,    0.000000
 140.011838,    0.000000
 142.645210,    0.000000
 145.317166,    0.000000
 148.010533,    0.000000
 150.726563,    0.000000
 153.495654,    0.000000
 156.293415,    0.000000
 159.125946,    0.000000
 161.982567,    0.000000
 164.876803,    0.000000
 167.790890,    0.000000
 170.756876,    0.000000
 173.759997,    0.000000
 176.773001,    0.000000
 179.820526,    0.000000
 182.913100,    0.000000
 186.042785,    0.000000
 189.210084,    0.000000
 192.421816,    0.000000
 195.648537,    0.000000
 198.925358,    0.000000
 202.244762,    0.000000
 205.607610,    0.000000
 208.999113,    0.000000
 212.433012,    0.000000
 215.894672,    0.000000
 219.378388,    0.000000
 222.916665,    0.000000
 226.462884,    0.000000
 230.066454,    0.000000
 233.703388,    0.000000
 237.375397,    0.000000
 241.101449,    0.000000
 244.865177,    0.000000
 248.657396,    0.000000
 252.491743,    0.000000
 256.379315,    0.000000
 260.305283,    0.000000
 264.249513,    0.000000
 268.230578,    0.000000
 272.255463,    0.000000
 276.311583,    0.000000
 280.408372,    0.000000
 284.551412,    0.000000
 288.751049,    0.000000
 292.996648,    0.000000
 297.265420,    0.000000
 301.555738,    0.000000
 305.882377,    0.000000
 310.280125,    0.000000
 314.691178,    0.000000
 319.154941,    0.000000
 323.664212,    0.000000
 328.194408,    0.000000
 332.785079,    0.000000
 337.425734,    0.000000
 342.107596,    0.000000
 342.295944,    0.000000
 342.456995,    0.000000
 342.613492,    0.000000
 342.804838,    0.000000
 342.847613,    0.000000
 342.899136,    0.000000
 342.910053,    0.000000
 342.915375,    0.000000
 342.926020,    0.000000
 342.927221,    0.000000
 342.927916,    0.000000
 342.934873,    0.000000
 342.943567,    0.000000
 343.030507,    0.000000
 343.519807,    0.000000
 345.252905,    0.000000
 349.286153,    0.000000
 353.638804,    0.000000
 358.031236,    0.000000
 362.451031,    0.000000
 366.909391,    0.000000
 371.380845,    0.000000
 375.913739,    0.000000
 380.479314,    0.000000
 385.083162,    0.000000
 389.713857,    0.000000
 394.386580,    0.000000
 399.078557,    0.000000
 403.820161,    0.000000
 408.590329,    0.000000
 413.414164,    0.000000
 418.262768,    0.000000
 423.136142,    0.000000
 428.061165,    0.000000
 433.013843,    0.000000
 437.995621,    0.000000
 443.029943,    0.000000
 448.087900,    0.000000
 453.184382,    0.000000
 458.340719,    0.000000
 463.523880,    0.000000
 468.759042,    0.000000
 474.006508,    0.000000
 479.285980,    0.000000
 484.631216,    0.000000
 490.019159,    0.000000
 495.421630,    0.000000
 500.896666,    0.000000
 506.388847,    0.000000
 511.928703,    0.000000
 517.499252,    0.000000
 523.093641,    0.000000
 528.715542,    0.000000
 534.408289,    0.000000
 540.130011,    0.000000
 545.897727,    0.000000
 551.699894,    0.000000
 557.535523,    0.000000
 563.438774,    0.000000
 569.369611,    0.000000
 575.341771,    0.000000
 581.326946,    0.000000
 587.356886,    0.000000
 593.450651,    0.000000
 599.580624,    0.000000
 605.745117,    0.000000
 611.953454,    0.000000
 618.188182,    0.000000
 624.479956,    0.000000
 630.801805,    0.000000
 637.171694,    0.000000
 643.568650,    0.000000
 649.998833,    0.000000
 656.482579,    0.000000
 663.011445,    0.000000
 669.584811,    0.000000
 676.203186,    0.000000
 682.841179,    0.000000
 689.507878,    0.000000
 696.259094,    0.000000
 703.027434,    0.000000
 709.843413,    0.000000
 716.701039,    0.000000
 723.612703,    0.000000
 730.571550,    0.000000
 737.550386,    0.000000
 744.557066,    0.000000
 751.633198,    0.000000
 758.743051,    0.000000
 765.909084,    0.000000
 773.105396,    0.000000
 780.331632,    0.000000
 787.613103,    0.000000
 794.927071,    0.000000
 802.302978,    0.000000
 809.702380,    0.000000
 811.195227,    0.000000
 812.212508,    0.000000
 813.021068,    0.000000
 813.586284,    0.000000
 814.010511,    0.000000
 814.439771,    0.000000
 814.801066,    0.000000
 814.905256,    0.000000
 815.060774,    0.000000
 815.093695,    0.000000
 815.106590,    0.000000
 815.132382,    0.000000
 815.134182,    0.000000
 815.135835,    0.000000
 815.152364,    0.000000
 815.289804,    0.000000
 816.137865,    0.000000
 820.714060,    0.000000
 827.442902,    0.000000
 834.219769,    0.000000
 841.014425,    0.000000
 847.832678,    0.000000
 854.691049,    0.000000
 861.592676,    0.000000
 868.516311,    0.000000
 875.496579,    0.000000
 882.503664,    0.000000
 889.523813,    0.000000
 896.584121,    0.000000
 903.687531,    0.000000
 910.842193,    0.000000
 918.009308,    0.000000
 925.231963,    0.000000
 932.495561,    0.000000
 939.791140,    0.000000
 947.102270,    0.000000
 954.472673,    0.000000
 961.856390,    0.000000
 969.287009,    0.000000
 976.747667,    0.000000
 984.250283,    0.000000
 991.772304,    0.000000
 999.365987,    0.000000
1006.967399,    0.000000
1014.618518,    0.000000
1022.316280,    0.000000
1030.028218,    0.000000
1037.783868,    0.000000
1045.591107,    0.000000
1053.424549,    0.000000
1061.293812,    0.000000
1069.188759,    0.000000
1077.131625,    0.000000
1085.120361,    0.000000
1093.142777,    0.000000
1101.199347,    0.000000
1109.291289,    0.000000
1117.424555,    0.000000
1125.581215,    0.000000
1133.762223,    0.000000
1142.036306,    0.000000
1150.329974,    0.000000
1158.618848,    0.000000
1166.975708,    0.000000
1175.366360,    0.000000
1183.800292,    0.000000
1192.252629,    0.000000
1200.772019,    0.000000
1209.310189,    0.000000
1217.874947,    0.000000
1226.486966,    0.000000
1235.173510,    0.000000
1243.882567,    0.000000
1252.624459,    0.000000
1261.388500,    0.000000
1270.193329,    0.000000
1279.047869,    0.000000
1287.933862,    0.000000
1296.867623,    0.000000
1305.839347,    0.000000
1314.864823,    0.000000
1323.885292,    0.000000
1332.942299,    0.000000
1342.077471,    0.000000
1351.257473,    0.000000
1360.460868,    0.000000
1369.664848,    0.000000
1378.949558,    0.000000
1388.282895,    0.000000
1397.640617,    0.000000
1407.027159,    0.000000
1416.447142,    0.000000
1425.926777,    0.000000
1435.421877,    0.000000
1444.976498,    0.000000
1454.552941,    0.000000
1464.171465,    0.000000
1473.844020,    0.000000
1483.562570,    0.000000
1493.292099,    0.000000
1503.068605,    0.000000
1512.888040,    0.000000
1522.752542,    0.000000
1532.662149,    0.000000
1542.621556,    0.000000
1552.597602,    0.000000
1562.603654,    0.000000
1564.618172,    0.000000
1564.945221,    0.000000
1565.303961,    0.000000
1565.384549,    0.000000
1565.439584,    0.000000
1565.467122,    0.000000
1565.486782,    0.000000
1565.498378,    0.000000
1565.505571,    0.000000
1565.512170,    0.000000
1565.578160,    0.000000
1566.111782,    0.000000
1569.384434,    0.000000
1578.246930,    0.000000
1588.354980,    0.000000
1598.453427,    0.000000
1608.612393,    0.000000
1618.800859,    0.000000
1629.039420,    0.000000
1639.320516,    0.000000
1649.634078,    0.000000
1659.983444,    0.000000
1670.364787,    0.000000
1680.794562,    0.000000
1691.268614,    0.000000
1701.766539,    0.000000
1712.297011,    0.000000
1722.860961,    0.000000
1733.474520,    0.000000
1744.144144,    0.000000
1754.831961,    0.000000
1765.581514,    0.000000
1776.356349,    0.000000
1787.186241,    0.000000
1798.046252,    0.000000
1808.964794,    0.000000
1819.903022,    0.000000
1830.889952,    0.000000
1841.906137,    0.000000
1852.967362,    0.000000
1864.073746,    0.000000
1875.232590,    0.000000
1886.402627,    0.000000
1897.645968,    0.000000
1908.910532,    0.000000
1920.208509,    0.000000
1931.542650,    0.000000
1942.909477,    0.000000
1954.356129,    0.000000
1965.806655,    0.000000
1977.317481,    0.000000
1988.856478,    0.000000
2000.440831,    0.000000
2012.071970,    0.000000
2023.743570,    0.000000
2035.462546,    0.000000
2047.203289,    0.000000
2059.002469,    0.000000
2070.829172,    0.000000
2082.699463,    0.000000
2094.602004,    0.000000
2106.578692,    0.000000
2118.577714,    0.000000
2130.618936,    0.000000
2142.693726,    0.000000
2154.814748,    0.000000
2167.000338,    0.000000
2179.194598,    0.000000
2191.411742,    0.000000
2203.690323,    0.000000
2216.019982,    0.000000
2228.358940,    0.000000
2240.768575,    0.000000
2253.200649,    0.000000
2265.699866,    0.000000
2278.213463,    0.000000
2290.809217,    0.000000
2303.404994,    0.000000
2316.042044,    0.000000
2328.724345,    0.000000
2341.465740,    0.000000
2354.245922,    0.000000
2367.069967,    0.000000
2372.492426,    0.000000
2379.923498,    0.000000
2392.843407,   23.430769
2405.785180,   63.827363
2418.773343,  103.770464
2431.813246,  143.339342
2444.881203,  182.552263
2457.972605,  221.340170
2471.119483,  259.692805
2484.314733,  297.707781
2497.560462,  335.365539
2510.830238,  372.674616
2524.116064,  409.562787
2537.468300,  446.010447
2550.840693,  482.162417
2564.259797,  517.892429
2577.699343,  553.277390
2591.169219,  588.249482
2604.704848,  622.837331
2618.263303,  657.138194
2631.872560,  691.041272
2645.511616,  724.622625
2659.177631,  757.831848
2672.898627,  790.663805
2686.651355,  823.192025
2700.411829,  855.363697
2703.172549,  887.926991
2712.901845,  893.720102
2713.453808,  916.529154
2713.626186,  917.803562
2713.848511,  918.188719
2713.901305,  918.702987
2714.002273,  918.818432
2714.026210,  919.051937
2714.033393,  919.107177
2714.040924,  919.123376
2714.048142,  919.140425
2714.120319,  919.152238
2714.618896,  919.285841
2717.388675,  920.255205
2729.523761,  925.857145
2743.872548,  952.974056
2758.233892,  984.837129
2772.636870, 1016.292978
2787.057544, 1047.413677
2801.510969, 1078.148229
2815.998244, 1108.534192
2830.547433, 1138.575128
2845.120729, 1168.337266
2859.717751, 1197.742527
2874.314583, 1226.796454
2888.973936, 1255.448731
2903.645704, 1283.836712
2904.799787, 1313.134067
2905.954488, 1315.316337
2907.111274, 1317.497367
2908.268407, 1319.680218
2909.425802, 1321.861458
2910.584049, 1324.040862
2911.738835, 1326.220000
2912.898419, 1328.389599
2914.059975, 1330.566214
2915.219228, 1332.744659
2916.381252, 1334.916049
2917.541542, 1337.090785
2918.703437, 1339.259708
2919.866672, 1341.429397
2921.034130, 1343.599063
2922.198962, 1345.774982
2923.364982, 1347.943386
2924.535058, 1350.111479
2925.702534, 1352.285473
2926.875026, 1354.451663
2928.049386, 1356.625193
2929.223172, 1358.800144
2930.398027, 1360.971610
2931.571747, 1363.142994
2932.748896, 1365.309588
2933.919596, 1367.481181
2935.099266, 1369.637177
2936.272396, 1371.808904
2937.453024, 1373.965022
2938.631889, 1376.133544
2939.814198, 1378.296079
2940.998855, 1380.462780
2942.184894, 1382.631609
2943.372744, 1384.800662
2944.561633, 1386.970832
2945.749083, 1389.140863
2946.942087, 1391.305343
2948.137479, 1393.477979
2949.330903, 1395.653099
2950.525270, 1397.822086
2951.719866, 1399.990584
2952.914411, 1402.157261
2954.114081, 1404.321089
2955.314112, 1406.492386
2956.510281, 1408.662463
2957.714624, 1410.822153
2958.909617, 1412.996000
2960.113640, 1415.148975
2961.315613, 1417.317021
2962.520777, 1419.478614
2963.726672, 1421.643921
2964.935209, 1423.808094
2966.144792, 1425.974895
2967.358969, 1428.140966
2968.578336, 1430.312932
2969.795577, 1432.492591
2971.012674, 1434.665974
2972.227890, 1436.836985
2973.444019, 1439.002104
2974.667238, 1441.165995
2975.890535, 1443.340895
2977.116349, 1445.513419
2978.342223, 1447.688361
2979.569657, 1449.860981
2980.802599, 1452.033709
2982.036842, 1454.214295
2983.270674, 1456.395045
2984.510197, 1458.572192
2985.751304, 1460.757473
2986.989811, 1462.943633
2988.226169, 1465.122868
2989.474160, 1467.294722
2990.720502, 1469.485979
2991.965168, 1471.672029
2993.203422, 1473.853286
2994.446425, 1476.019961
2995.700461, 1478.192073
2996.950975, 1480.382554
2998.206848, 1482.563730
2999.461309, 1484.752589
3000.719597, 1486.936178
3001.985282, 1489.123780
3003.245619, 1491.323129
3004.514759, 1493.509517
3005.786255, 1495.709469
3007.048708, 1497.912246
3008.319441, 1500.095394
3009.590846, 1502.291269
3010.866683, 1504.485619
3012.146471, 1506.685334
3013.427508, 1508.889773
3014.708961, 1511.094099
3015.992698, 1513.296618
3017.274046, 1515.501161
3018.567136, 1517.697924
3019.856483, 1519.913946
3021.146736, 1522.120752
3022.438833, 1524.326673
3023.728038, 1526.533846
3025.022928, 1528.732926
3026.323974, 1530.939320
3027.637425, 1533.153258
3028.940123, 1533.030131
3030.256558, 1532.905912
3031.571704, 1532.782019
3032.882531, 1532.658739
3034.188556, 1532.536113
3035.505677, 1532.412651
3036.824995, 1532.289191
3038.143636, 1532.166002
3039.457266, 1532.043486
3040.773847, 1531.920903
3042.106501, 1531.797034
3043.441491, 1531.673161
3044.775351, 1531.549605
3046.106406, 1531.426521
3047.437932, 1531.303607
3048.780410, 1531.179896
3050.123401, 1531.056354
3051.466367, 1530.933031
3052.814317, 1530.809468
3054.165818, 1530.685798
3055.511313, 1530.562896
3056.858784, 1530.440032
3058.214830, 1530.316606
3059.568162, 1530.193648
3060.926469, 1530.070460
3062.282469, 1529.947702
3063.648926, 1529.824222
3065.009411, 1529.701506
3066.375909, 1529.578472
3067.748408, 1529.455125
3069.124603, 1529.331674
3070.499620, 1529.208557
3071.872585, 1529.085852
3073.248527, 1528.963111
3074.633115, 1528.839829
3076.023260, 1528.716286
3077.403241, 1528.593878
3078.787201, 1528.471349
3080.183473, 1528.347965
3081.577657, 1528.225002
3082.969906, 1528.102445
3084.369728, 1527.979459
3085.776421, 1527.856110
3087.169606, 1527.734182
3088.579342, 1527.611046
3089.990477, 1527.488031
3091.397251, 1527.365636
3092.807630, 1527.243171
3094.228306, 1527.120057
3095.644300, 1526.997593
3097.070247, 1526.874516
3098.499167, 1526.751431
3099.923126, 1526.629022
3101.340220, 1526.507450
3102.778769, 1526.384288
3104.214354, 1526.261632
3105.649985, 1526.139224
3107.090706, 1526.016637
3108.524242, 1525.894913
3109.965099, 1525.772822
3111.407182, 1525.650881
3112.856765, 1525.528564
3114.313000, 1525.405945
3115.769846, 1525.283536
3117.235670, 1525.160636
3118.695848, 1525.038471
3120.164011, 1524.915903
3121.630678, 1524.793725
3123.096353, 1524.671894
3124.567963, 1524.549836
3126.049675, 1524.427210
3127.531844, 1524.304817
3128.361018, 1524.236465
3129.027277, 1524.181604
3130.518850, 1524.058983
3132.013063, 1523.936421
3133.504276, 1523.814380
3135.002093, 1523.692075
3136.498429, 1523.570169
3137.999796, 1523.448130
3139.504488, 1523.326102
3141.011275, 1523.204184
3142.529699, 1523.081610
3144.039567, 1522.960010
3145.559693, 1522.837868
3147.074264, 1522.716459
3148.591937, 1522.595086
3150.116066, 1522.473485
3151.635892, 1522.352515
3153.176261, 1522.230202
3154.716460, 1522.108198
3156.253594, 1521.986731
3157.808544, 1521.864155
3159.354347, 1521.742599
3160.910114, 1521.620559
3162.466604, 1521.498765
3164.023341, 1521.377253
3165.589924, 1521.255278
3167.149864, 1521.134124
3168.713249, 1521.013008
3170.284278, 1520.891607
3171.857758, 1520.770325
3173.436109, 1520.648979
3175.015103, 1520.527895
3176.600182, 1520.406658
3178.185449, 1520.285721
3179.770731, 1520.165098
3181.359222, 1520.044546
3182.943728, 1519.924612
3184.542560, 1519.803912
3186.137513, 1519.683824
3187.754723, 1519.562386
3189.356988, 1519.442394
3190.973415, 1519.321668
3192.593554, 1519.200994
3194.208809, 1519.081012
3195.833172, 1518.960684
3197.448467, 1518.841357
3199.066283, 1518.722172
3200.694306, 1518.602568
3202.335753, 1518.482316
3203.983064, 1518.361975
3205.641674, 1518.241154
3207.280989, 1518.122079
3208.935643, 1518.002233
3210.581419, 1517.883373
3212.235919, 1517.764228
3213.894933, 1517.645104
3215.557438, 1517.526078
3217.230472, 1517.406650
3218.892935, 1517.288328
3220.562790, 1517.169831
3222.249932, 1517.050465
3223.933857, 1516.931685
3225.624941, 1516.812762
3227.308030, 1516.694761
3229.004340, 1516.576195
3230.704535, 1516.457723
3232.414320, 1516.338953
3234.113373, 1516.221295
3235.821159, 1516.103401
3237.532997, 1515.985599
3239.245409, 1515.868129
3240.975826, 1515.749802
3242.698938, 1515.632352
3244.423983, 1515.515148
3246.154190, 1515.397973
3247.880095, 1515.281469
3249.613659, 1515.164828
3251.362330, 1515.047559
3253.099862, 1514.931421
3254.841425, 1514.815400
3256.600014, 1514.698636
3258.362478, 1514.582009
3260.136084, 1514.465045
3261.901322, 1514.349031
3263.672672, 1514.233014
3265.431316, 1514.118225
3267.208604, 1514.002620
3268.984295, 1513.887521
3270.767219, 1513.772358
3272.544773, 1513.657945
3274.345841, 1513.542431
3276.132361, 1513.428259
3277.929463, 1513.313822
3279.730499, 1513.199548
3281.524651, 1513.086124
3283.332549, 1512.972246
3285.149411, 1512.858226
3286.970691, 1512.744352
3288.793420, 1512.630812
3290.618291, 1512.517565
3292.431301, 1512.405476
3294.254611, 1512.293174
3296.095281, 1512.180236
3297.925454, 1512.068372
3299.766295, 1511.956289
3301.597446, 1511.845227
3303.438861, 1511.733976
3305.289616, 1511.622599
3307.146645, 1511.511286
3309.019026, 1511.399501
3310.887434, 1511.288402
3312.731949, 1511.179163
3314.600649, 1511.068937
3316.466430, 1510.959331
3318.346211, 1510.849355
3320.237034, 1510.739191
3322.109861, 1510.630529
3323.994295, 1510.521648
3325.889043, 1510.412632
3327.781595, 1510.304204
3329.700331, 1510.194745
3331.600635, 1510.086806
3333.500876, 1509.979334
3335.420113, 1509.871260
3337.327173, 1509.764342
3339.240048, 1509.657568
3341.139730, 1509.551998
3343.051078, 1509.446248
3344.963995, 1509.340883
3346.885643, 1509.235512
3348.820767, 1509.129883
3350.745775, 1509.025286
3352.686959, 1508.920293
3354.603012, 1508.817137
3356.528096, 1508.713972
3358.492832, 1508.609175
3360.442831, 1508.505657
3362.387970, 1508.402885
3364.360263, 1508.299179
3366.315655, 1508.196856
3368.285608, 1508.094272
3370.266521, 1507.991622
3372.239699, 1507.889877
3374.198643, 1507.789364
3376.197916, 1507.687293
3378.174825, 1507.586872
3380.142206, 1507.487437
3382.119297, 1507.388016
3384.112691, 1507.288286
3386.096415, 1507.189551
3388.082682, 1507.091199
3390.069027, 1506.993354
3392.069418, 1506.895334
3394.052031, 1506.798696
3396.059065, 1506.701385
3398.064824, 1506.604658
3400.076317, 1506.508177
3402.080159, 1506.412585
3404.104856, 1506.316526
3406.106249, 1506.222094
3408.121300, 1506.127543
3410.138968, 1506.033396
3412.155264, 1505.939840
3414.192841, 1505.845832
3416.242318, 1505.751818
3418.284041, 1505.658701
3420.337146, 1505.565610
3422.370310, 1505.473962
3424.428263, 1505.381743
3426.474693, 1505.290584
3428.522177, 1505.199923
3430.583555, 1505.109196
3432.636737, 1505.019377
3434.691409, 1504.930041
3436.752335, 1504.840983
3438.798176, 1504.753123
3440.863595, 1504.664972
3442.926301, 1504.577491
3444.985002, 1504.490729
3447.072013, 1504.403337
3449.156307, 1504.316622
3451.234774, 1504.230712
3453.333852, 1504.144519
3455.406112, 1504.059989
3457.496279, 1503.975293
3459.587240, 1503.891132
3461.692500, 1503.806970
3463.783547, 1503.723946
3465.878107, 1503.641352
3467.976884, 1503.559163
3470.083798, 1503.477232
3472.213426, 1503.395003
3474.342112, 1503.313399
3476.447421, 1503.233270
3478.548375, 1503.153882
3480.639137, 1503.075448
3482.749495, 1502.996854
3484.861714, 1502.918771
3486.982420, 1502.840958
3489.087778, 1502.764286
3491.198645, 1502.687991
3493.365272, 1502.610284
3495.492002, 1502.534600
3497.620671, 1502.459437
3499.742684, 1502.385094
3501.843323, 1502.312077
3503.985048, 1502.238221
3506.132395, 1502.164771
3508.261823, 1502.092525
3510.390436, 1502.020896
3512.513455, 1501.950042
3514.651458, 1501.879280
3516.795001, 1501.808930
3518.934556, 1501.739307
3521.083114, 1501.669990
3523.238875, 1501.601043
3525.392920, 1501.532754
3527.551713, 1501.464920
3529.707244, 1501.397793
3531.905682, 1501.329951
3534.074983, 1501.263624
3536.235993, 1501.198158
3538.408309, 1501.132961
3540.576812, 1501.068490
3542.752240, 1501.004427
3544.928152, 1500.940965
3547.091890, 1500.878468
3549.267380, 1500.816245
3551.450147, 1500.754431
3553.639640, 1500.693048
3555.836959, 1500.632072
3558.041858, 1500.571516
3560.239168, 1500.511796
3562.433565, 1500.452782
3564.627198, 1500.394412
3566.814273, 1500.336839
3568.998617, 1500.279958
3571.213178, 1500.222922
3573.411288, 1500.166939
3575.622068, 1500.111266
3577.834719, 1500.056181
3580.041345, 1500.001879
3582.260869, 1499.947897
3584.467607, 1499.894859
3586.668004, 1499.842603
3588.860160, 1499.791166
3591.081375, 1499.739684
3593.295965, 1499.688992
3595.523121, 1499.638654
3597.751594, 1499.588930
3599.968563, 1499.540102
3602.198440, 1499.491631
3604.425159, 1499.443873
3606.645292, 1499.396895
3608.872265, 1499.350415
3611.086817, 1499.304830
3613.324075, 1499.259424
3615.566272, 1499.214568
3617.814691, 1499.170241
3620.066078, 1499.126511
3622.304082, 1499.083692
3624.553286, 1499.041311
3626.801628, 1498.999601
3628.265805, 1498.972791
