Ground distance, Vertical Forces
   0.000000, 48404.546721
   0.000002, 48404.546721
   0.000021, 48404.546721
   0.000167, 48404.546721
   0.000832, 48404.546721
   0.003075, 48404.546721
   0.011791, 48404.546721
   0.028774, 48404.546721
   0.053198, 48404.546721
   0.085255, 48404.546721
   0.124845, 48404.546721
   0.171903, 48404.546721
   0.226755, 48404.546721
   0.289028, 48404.546721
   0.359398, 48404.546721
   0.437811, 48404.546721
   0.524423, 48404.546721
   0.619232, 48404.546721
   0.722371, 48404.546721
   0.833839, 48404.546721
   0.953942, 48404.546721
   1.082132, 48404.546721
   1.220252, 48404.546721
   1.367225, 48404.546721
   1.522745, 48404.546721
   1.688425, 48404.546721
   1.863558, 48404.546721
   2.046480, 48404.546721
   2.242105, 48404.546721
   2.447805, 48404.546721
   2.662385, 48404.546721
   2.886956, 48404.546721
   3.126552, 48404.546721
   3.374872, 48404.546721
   3.635810, 48404.546721
   3.905851, 48404.546721
   4.187431, 48404.546721
   4.482618, 48404.546721
   4.791284, 48404.546721
   5.111252, 48404.546721
   5.442467, 48404.546721
   5.792550, 48404.546721
   6.155108, 48404.546721
   6.532414, 48404.546721
   6.918299, 48404.546721
   7.323207, 48404.546721
   7.737846, 48404.546721
   8.174068, 48404.546721
   8.619445, 48404.546721
   9.076176, 48404.546721
   9.550516, 48404.546721
  10.044155, 48404.546721
  10.545257, 48404.546721
  11.068211, 48404.546721
  11.604710, 48404.546721
  12.164877, 48404.546721
  12.735861, 48404.546721
  13.323140, 48404.546721
  13.933027, 48404.546721
  14.556896, 48404.546721
  15.209222, 48404.546721
  15.876297, 48404.546721
  16.558216, 48404.546721
  17.264632, 48404.546721
  17.977769, 48404.546721
  18.714386, 48404.546721
  19.464158, 48404.546721
  20.250018, 48404.546721
  21.055340, 48404.546721
  21.865678, 48404.546721
  22.700712, 48404.546721
  23.563932, 48404.546721
  24.446642, 48404.546721
  25.356909, 48404.546721
  26.285652, 48404.546721
  27.231636, 48404.546721
  28.199714, 48404.546721
  29.193561, 48404.546721
  30.211441, 48404.546721
  31.249147, 48404.546721
  32.306815, 48404.546721
  33.393242, 48404.546721
  34.505529, 48404.546721
  35.642326, 48404.546721
  36.795892, 48404.546721
  37.984578, 48404.546721
  39.196388, 48404.546721
  40.430063, 48404.546721
  41.688099, 48404.546721
  42.984696, 48404.546721
  44.286224, 48404.546721
  45.621528, 48404.546721
  46.989619, 48404.546721
  48.382469, 48404.546721
  49.802347, 48404.546721
  51.233368, 48404.546721
  52.708092, 48404.546721
  54.204984, 48404.546721
  55.740400, 48404.546721
  57.306714, 48404.546721
  58.884920, 48404.546721
  60.506015, 48404.546721
  62.151091, 48404.546721
  63.830063, 48404.546721
  65.522607, 48404.546721
  67.267707, 48404.546721
  69.028671, 48404.546721
  70.839811, 48404.546721
  72.685896, 48404.546721
  74.547492, 48404.546721
  76.425792, 48404.546721
  78.344367, 48404.546721
  80.282496, 48404.546721
  82.283674, 48404.546721
  82.364220, 48404.546721
  82.382520, 48404.546721
  82.386573, 48404.546721
  82.392305, 48404.546721
  82.394305, 48404.546721
  82.398170, 48404.546721
  82.399725, 48404.546721
  82.399897, 48404.546721
  82.400052, 48404.546721
  82.401598, 48404.546721
  82.417063, 48404.546721
  82.500111, 48404.546721
  82.811597, 48404.546721
  83.808850, 48404.546721
  85.704999, 48404.546721
  87.601794, 48404.546721
  89.518394, 48404.546721
  91.465491, 48404.546721
  93.436872, 48404.546721
  95.431393, 48404.546721
  97.472361, 48404.546721
  99.538049, 48404.546721
 101.632266, 48404.546721
 103.755118, 48404.546721
 105.908914, 48404.546721
 108.093096, 48404.546721
 110.316443, 48404.546721
 112.575904, 48404.546721
 114.859101, 48404.546721
 117.152850, 48404.546721
 119.481677, 48404.546721
 121.839955, 48404.546721
 124.238118, 48404.546721
 126.674755, 48404.546721
 129.156656, 48404.546721
 131.640597, 48404.546721
 134.164906, 48404.546721
 136.725987, 48404.546721
 139.317875, 48404.546721
 141.940015, 48404.546721
 144.588257, 48404.546721
 147.265928, 48404.546721
 149.984507, 48404.546721
 152.739690, 48404.546721
 155.526149, 48404.546721
 158.351258, 48404.546721
 161.173061, 48404.546721
 164.049516, 48404.546721
 166.966740, 48404.546721
 169.914189, 48404.546721
 172.901538, 48404.546721
 175.919509, 48404.546721
 178.963302, 48404.546721
 182.048209, 48404.546721
 185.166042, 48404.546721
 188.347880, 48404.546721
 191.554350, 48404.546721
 194.784680, 48404.546721
 198.050896, 48404.546721
 201.375619, 48404.546721
 204.689018, 48404.546721
 208.082367, 48404.546721
 211.492896, 48404.546721
 214.940927, 48404.546721
 218.428859, 48404.546721
 221.952588, 48404.546721
 225.506942, 48404.546721
 229.089745, 48404.546721
 232.699811, 48404.546721
 236.355511, 48404.546721
 240.052167, 48404.546721
 243.788624, 48404.546721
 247.596378, 48404.546721
 251.423370, 48404.546721
 255.279336, 48404.546721
 259.177338, 48404.546721
 263.115219, 48404.546721
 267.096126, 48404.546721
 271.105754, 48404.546721
 275.166246, 48404.546721
 279.252598, 48404.546721
 283.377522, 48404.546721
 287.541266, 48404.546721
 291.736530, 48404.546721
 295.970670, 48404.546721
 300.272023, 48404.546721
 304.606341, 48404.546721
 308.982325, 48404.546721
 313.401013, 48404.546721
 317.883118, 48404.546721
 322.370443, 48404.546721
 326.895019, 48404.546721
 331.475769, 48404.546721
 336.087186, 48404.546721
 340.752261, 48404.546721
 341.690350, 48404.546721
 342.326424, 48404.546721
 342.834251, 48404.546721
 342.909881, 48404.546721
 342.927908, 48404.546721
 342.933475, 48404.546721
 342.936056, 48404.546721
 342.936625, 48404.546721
 342.937218, 48404.546721
 342.943146, 48404.546721
 342.996504, 48404.546721
 343.306073, 48404.546721
 344.412412, 48404.546721
 348.194436, 48404.546721
 352.522518, 48404.546721
 356.896392, 48404.546721
 361.308313, 48404.546721
 365.766363, 48404.546721
 370.267647, 48404.546721
 374.778538, 48404.546721
 379.353960, 48404.546721
 383.941271, 48404.546721
 388.548353, 48404.546721
 393.207588, 48404.546721
 397.903065, 48404.546721
 402.639881, 48404.546721
 407.399068, 48404.546721
 412.221579, 48404.546721
 417.072898, 48404.546721
 421.937454, 48404.546721
 426.841381, 48404.546721
 431.800108, 48404.546721
 436.794276, 48404.546721
 441.806899, 48404.546721
 446.862677, 48404.546721
 451.974992, 48404.546721
 457.110376, 48404.546721
 462.278897, 48404.546721
 467.502392, 48404.546721
 472.768856, 48404.546721
 478.053447, 48404.546721
 483.376024, 48404.546721
 488.720802, 48404.546721
 494.131934, 48404.546721
 499.569809, 48404.546721
 505.031027, 48404.546721
 510.548198, 48404.546721
 516.110796, 48404.546721
 521.732936, 48404.546721
 527.371032, 48404.546721
 533.042382, 48404.546721
 538.751213, 48404.546721
 544.505050, 48404.546721
 550.297615, 48404.546721
 556.115933, 48404.546721
 561.973343, 48404.546721
 567.888696, 48404.546721
 573.837780, 48404.546721
 579.844532, 48404.546721
 585.883966, 48404.546721
 591.949428, 48404.546721
 598.072678, 48404.546721
 604.225883, 48404.546721
 610.408575, 48404.546721
 616.644321, 48404.546721
 622.915371, 48404.546721
 629.226858, 48404.546721
 635.574948, 48404.546721
 641.964139, 48404.546721
 648.397600, 48404.546721
 654.857257, 48404.546721
 661.347064, 48404.546721
 667.899211, 48404.546721
 674.514125, 48404.546721
 681.182892, 48404.546721
 687.900080, 48404.546721
 694.627289, 48404.546721
 701.380297, 48404.546721
 708.178473, 48404.546721
 714.996028, 48404.546721
 721.873057, 48404.546721
 728.809736, 48404.546721
 735.793922, 48404.546721
 742.807962, 48404.546721
 749.857801, 48404.546721
 756.949169, 48404.546721
 764.097458, 48404.546721
 771.308444, 48404.546721
 778.553708, 48404.546721
 785.803439, 48404.546721
 793.129434, 48404.546721
 800.488954, 48404.546721
 807.883684, 48404.546721
 809.370929, 48404.546721
 815.018655, 48404.546721
 815.078148, 48404.546721
 815.095169, 48404.546721
 815.122700, 48404.546721
 815.131617, 48404.546721
 815.149449, 48404.546721
 815.151760, 48404.546721
 815.152979, 48404.546721
 815.154148, 48404.546721
 815.155211, 48404.546721
 815.165847, 48404.546721
 815.271338, 48404.546721
 816.008823, 48404.546721
 819.307960, 48404.546721
 825.852033, 48404.546721
 832.610186, 48404.546721
 839.389160, 48404.546721
 846.215523, 48404.546721
 853.078094, 48404.546721
 859.966829, 48404.546721
 866.881207, 48404.546721
 873.843434, 48404.546721
 880.837696, 48404.546721
 887.858937, 48404.546721
 894.943703, 48404.546721
 902.038714, 48404.546721
 909.160625, 48404.546721
 916.327426, 48404.546721
 923.525699, 48404.546721
 930.779614, 48404.546721
 938.066272, 48404.546721
 945.376390, 48404.546721
 952.735269, 48404.546721
 960.117392, 48404.546721
 967.542523, 48404.546721
 975.011305, 48404.546721
 982.498153, 48404.546721
 990.042408, 48404.546721
 997.598190, 48404.546721
1005.215235, 48404.546721
1012.861879, 48404.546721
1020.555672, 48404.546721
1028.281929, 48404.546721
1036.038449, 48404.546721
1043.828776, 48404.546721
1051.659981, 48404.546721
1059.525807, 48404.546721
1067.429215, 48404.546721
1075.347878, 48404.546721
1083.326570, 48404.546721
1091.318343, 48404.546721
1099.373244, 48404.546721
1107.464963, 48404.546721
1115.590092, 48404.546721
1123.751443, 48404.546721
1131.967263, 48404.546721
1140.219043, 48404.546721
1148.487455, 48404.546721
1156.803997, 48404.546721
1165.166043, 48404.546721
1173.554258, 48404.546721
1181.988333, 48404.546721
1190.454226, 48404.546721
1198.971656, 48404.546721
1207.510171, 48404.546721
1216.085987, 48404.546721
1224.715728, 48404.546721
1233.363034, 48404.546721
1242.043076, 48404.546721
1250.771925, 48404.546721
1259.527479, 48404.546721
1268.342607, 48404.546721
1277.190888, 48404.546721
1286.071741, 48404.546721
1294.967402, 48404.546721
1303.939513, 48404.546721
1312.930728, 48404.546721
1321.969565, 48404.546721
1331.052530, 48404.546721
1340.186788, 48404.546721
1349.357041, 48404.546721
1358.544029, 48404.546721
1367.746378, 48404.546721
1376.996500, 48404.546721
1386.303725, 48404.546721
1395.663641, 48404.546721
1405.045137, 48404.546721
1414.476222, 48404.546721
1423.949596, 48404.546721
1433.463460, 48404.546721
1442.984234, 48404.546721
1452.570266, 48404.546721
1462.192651, 48404.546721
1471.853557, 48404.546721
1481.542862, 48404.546721
1491.258219, 48404.546721
1501.022059, 48404.546721
1510.849849, 48404.546721
1520.706102, 48404.546721
1530.597748, 48404.546721
1540.512260, 48404.546721
1550.491088, 48404.546721
1560.495236, 48404.546721
1562.504417, 48404.546721
1564.043094, 48404.546721
1565.175679, 48404.546721
1565.355282, 48404.546721
1565.410007, 48404.546721
1565.503798, 48404.546721
1565.535280, 48404.546721
1565.540718, 48404.546721
1565.546350, 48404.546721
1565.602674, 48404.546721
1566.098973, 48404.546721
1568.930175, 48404.546721
1577.596519, 48404.546721
1587.694788, 48404.546721
1597.806009, 48404.546721
1607.928398, 48404.546721
1618.109930, 48404.546721
1628.342851, 48404.546721
1638.599880, 48404.546721
1648.915589, 48404.546721
1659.257306, 48404.546721
1669.649991, 48404.546721
1680.082010, 48404.546721
1690.545587, 48404.546721
1701.045476, 48404.546721
1711.578944, 48404.546721
1722.170694, 48404.546721
1732.795902, 48404.546721
1743.453085, 48404.546721
1754.153178, 48404.546721
1764.901754, 48404.546721
1775.684089, 48404.546721
1786.494166, 48404.546721
1797.367155, 48404.546721
1808.291926, 48404.546721
1819.233216, 48404.546721
1830.216962, 48404.546721
1841.242369, 48404.546721
1852.320146, 48404.546721
1863.428537, 48404.546721
1874.579106, 48404.546721
1885.749459, 48404.546721
1896.968434, 48404.546721
1908.228076, 48404.546721
1919.546691, 48404.546721
1930.904397, 48404.546721
1942.292135, 48404.546721
1953.713791, 48404.546721
1965.175680, 48404.546721
1976.677338, 48404.546721
1988.210307, 48404.546721
1999.785142, 48404.546721
2011.412691, 48404.546721
2023.087369, 48404.546721
2034.810418, 48404.546721
2046.562159, 48404.546721
2058.359652, 48404.546721
2070.167709, 48404.546721
2082.046240, 48404.546721
2093.960627, 48404.546721
2105.923960, 48404.546721
2117.919156, 48404.546721
2129.941762, 48404.546721
2142.032714, 48404.546721
2154.156989, 48404.546721
2166.314450, 48404.546721
2178.530503, 48404.546721
2190.756974, 48404.546721
2203.022393, 48404.546721
2215.363777, 48404.546721
2227.701506, 48404.546721
2240.114398, 48404.546721
2252.577468, 48404.546721
2265.066299, 48404.546721
2277.603191, 48404.546721
2290.155525, 48404.546721
2302.757473, 48404.546721
2315.421835, 48404.546721
2328.090197, 48404.546721
2340.843127, 48404.546721
2353.608184, 48404.546721
2366.419929, 48404.546721
2372.621155, 48404.546721
2379.305410, 48404.546721
2392.222960, 48404.546721
2405.142786, 48404.546721
2418.117522, 48404.546721
2431.128888, 48404.546721
2444.201772, 48404.546721
2457.295897, 48404.546721
2470.442943, 48404.546721
2483.631167, 48404.546721
2496.857699, 48404.546721
2510.116802, 48404.546721
2523.431822, 48404.546721
2536.786590, 48404.546721
2550.172698, 48404.546721
2563.587043, 48404.546721
2577.043371, 48404.546721
2590.524621, 48404.546721
2604.028595, 48404.546721
2617.596617, 48404.546721
2631.203945, 48404.546721
2644.820311, 48404.546721
2658.477183, 48404.546721
2672.176656, 48404.546721
2685.915065, 48404.546721
2699.689361, 48404.546721
2713.484454, 48404.546721
2714.037645, 48404.546721
2714.063978, 48404.546721
2714.081420, 48404.546721
2714.094314, 48404.546721
2714.101904, 48404.546721
2714.105124, 48404.546721
2714.108322, 48404.546721
2714.140297, 48404.546721
2714.460061, 48404.546721
2716.392408, 48404.546721
2724.983738, 48404.546721
2739.164868, 48404.546721
2753.527378, 48404.546721
2767.911562, 48404.546721
2782.349781, 48404.546721
2796.824939, 48404.546721
2811.314618, 48404.546721
2825.856947, 48404.546721
2840.412219, 48404.546721
2854.983880, 48404.546721
2869.603538, 48404.546721
2884.232979, 48404.546721
2898.917163, 48404.546721
2913.628173, 48404.546721
2914.789066, 48404.546641
2915.951905, 48404.546393
2917.115888, 48404.545970
2918.278234, 48404.545362
2919.443401, 48404.544560
2920.609898, 48404.543553
2921.767956, 48404.542344
2922.933494, 48404.540906
2924.099772, 48404.539236
2925.261888, 48404.537334
2926.434095, 48404.535163
2927.590039, 48404.532765
2928.762597, 48404.530063
2929.936294, 48404.527074
2931.112514, 48404.523784
2932.289121, 48404.520188
2933.455329, 48404.516311
2934.625407, 48404.512098
2935.805701, 48404.507510
2936.983307, 48404.502582
2938.163499, 48404.497280
2939.345783, 48404.491595
2940.527715, 48404.485524
2941.712770, 48404.479037
2942.893383, 48404.472164
2944.081742, 48404.464820
2945.265809, 48404.457065
2946.451557, 48404.448850
2947.634021, 48404.440196
2948.826003, 48404.430995
2950.013203, 48404.421340
2951.202490, 48404.411165
2952.400183, 48404.400396
2953.593395, 48404.389132
2954.786333, 48404.377322
2955.980723, 48404.364937
2957.177624, 48404.351947
2958.377004, 48404.338336
2959.572956, 48404.324156
2960.774981, 48404.309280
2961.979724, 48404.293727
2963.171181, 48404.277696
2964.382910, 48404.260717
2965.595614, 48404.243027
2966.807645, 48404.224633
2968.022782, 48404.205461
2969.239239, 48404.185518
2970.454475, 48404.164830
2971.670807, 48404.143341
2972.885051, 48404.121093
2974.103573, 48404.097950
2975.326382, 48404.073886
2976.546719, 48404.049016
2977.772673, 48404.023155
2978.992477, 48403.996532
2980.221639, 48403.968791
2981.452211, 48403.940079
2982.682551, 48403.910416
2983.914769, 48403.879731
2985.143722, 48403.848134
2986.373500, 48403.815507
2987.613614, 48403.781563
2988.842756, 48403.746868
2990.083021, 48403.710779
2991.326527, 48403.673488
2992.572913, 48403.634977
2993.820087, 48403.595285
2995.058739, 48403.554700
2996.309155, 48403.512533
2997.553165, 48403.469367
2998.796496, 48403.424995
3000.053222, 48403.378875
3001.307655, 48403.331544
3002.572516, 48403.282490
3003.831816, 48403.232300
3005.096910, 48403.180501
3006.353204, 48403.127673
3007.624352, 48403.072790
3008.892254, 48403.016591
3010.153876, 48402.959202
3011.422354, 48402.900005
3012.700126, 48402.838833
3013.975145, 48402.776226
3015.260217, 48402.711521
3016.536628, 48402.645629
3017.826545, 48402.577377
3019.114091, 48402.507555
3020.401361, 48402.436030
3021.695380, 48402.362375
3022.986010, 48402.287133
3024.279524, 48402.209916
3025.569306, 48402.131092
3026.863638, 48402.050129
3028.157547, 48401.967303
3029.466780, 48401.881974
3030.769869, 48401.795521
3032.078104, 48401.707187
3033.383931, 48401.617473
3034.697490, 48401.525665
3036.005911, 48401.432651
3037.318021, 48401.337799
3038.636361, 48401.240901
3039.957820, 48401.142162
3041.283872, 48401.041451
3042.606476, 48400.939369
3043.925798, 48400.835908
3045.248974, 48400.730502
3046.572998, 48400.623375
3047.896986, 48400.514588
3049.235022, 48400.402952
3050.574592, 48400.289473
3051.914738, 48400.174222
3053.255055, 48400.057225
3054.595374, 48399.938489
3055.939125, 48399.817697
3057.285399, 48399.694910
3058.633473, 48399.570180
3059.989414, 48399.442919
3061.342543, 48399.314112
3062.703548, 48399.182722
3064.057298, 48399.050204
3065.415249, 48398.915433
3066.775950, 48398.778533
3068.141792, 48398.639239
3069.500283, 48398.498822
3070.864097, 48398.355970
3072.231443, 48398.210844
3073.603291, 48398.063317
3074.971642, 48397.914238
3076.349388, 48397.762185
3077.728410, 48397.608022
3079.103647, 48397.452313
3080.486749, 48397.293723
3081.876266, 48397.132379
3083.258304, 48396.969889
3084.642184, 48396.805162
3086.044225, 48396.636204
3087.445176, 48396.465288
3088.853940, 48396.291306
3090.262435, 48396.115231
3091.673490, 48395.936695
3093.085030, 48395.755947
3094.489911, 48395.573907
3095.910213, 48395.387686
3097.332952, 48395.198937
3098.753355, 48395.008284
3100.183564, 48394.814073
3101.616592, 48394.617214
3103.038475, 48394.419636
3104.468759, 48394.218623
3105.906198, 48394.014303
3107.338045, 48393.808476
3108.775863, 48393.599472
3110.216229, 48393.387758
3111.663552, 48393.172655
3113.112019, 48392.954998
3114.558220, 48392.735295
3116.014418, 48392.511654
3117.461539, 48392.286994
3118.917658, 48392.058500
3120.374827, 48391.827387
3121.834281, 48391.593441
3123.304248, 48391.355301
3124.778858, 48391.113872
3126.250308, 48390.870417
3127.721853, 48390.624398
3128.893559, 48390.426679
3129.197642, 48390.375101
3130.672797, 48390.123332
3132.155720, 48389.867628
3133.642354, 48389.608651
3135.125536, 48389.347639
3136.615220, 48389.082822
3138.111573, 48388.814127
3139.612951, 48388.541808
3141.114773, 48388.266672
3142.613597, 48387.989347
3144.118431, 48387.708149
3145.635001, 48387.421951
3147.143956, 48387.134382
3148.665929, 48386.841487
3150.192898, 48386.544749
3151.709698, 48386.247120
3153.238027, 48385.944330
3154.769278, 48385.638033
3156.309629, 48385.326949
3157.847254, 48385.013439
3159.393273, 48384.695208
3160.944156, 48384.372935
3162.504245, 48384.045666
3164.062111, 48383.715769
3165.614343, 48383.383978
3167.178826, 48383.046442
3168.741195, 48382.706219
3170.302980, 48382.362975
3171.872111, 48382.014935
3173.450113, 48381.661703
3175.019506, 48381.307180
3176.616157, 48380.943197
3178.194105, 48380.580193
3179.786350, 48380.210581
3181.378013, 48379.837761
3182.980148, 48379.459104
3184.573956, 48379.079034
3186.174614, 48378.693927
3187.778710, 48378.304560
3189.380130, 48377.912405
3190.985816, 48377.515746
3192.595696, 48377.114563
3194.211663, 48376.708341
3195.825406, 48376.299145
3197.448977, 48375.883884
3199.071617, 48375.465269
3200.704249, 48375.040443
3202.332075, 48374.613227
3203.962560, 48374.181659
3205.597610, 48373.745199
3207.250819, 48373.300130
3208.895873, 48372.853493
3210.552234, 48372.399980
3212.216602, 48371.940417
3213.879398, 48371.477416
3215.542328, 48371.010496
3217.217083, 48370.536321
3218.886551, 48370.059701
3220.559789, 48369.578045
3222.239598, 48369.090499
3223.926929, 48368.596726
3225.610143, 48368.100106
3227.311767, 48367.593930
3229.002292, 48367.086940
3230.706921, 48366.571553
3232.405721, 48366.053754
3234.112757, 48365.529236
3235.816751, 48365.001433
3237.536072, 48364.464599
3239.248490, 48363.925631
3240.960421, 48363.382526
3242.688775, 48362.829847
3244.403048, 48362.277329
3246.135428, 48361.714569
3247.867064, 48361.147614
3249.597412, 48360.576638
3251.325460, 48360.001976
3253.063331, 48359.419556
3254.796641, 48358.834168
3256.553014, 48358.236396
3258.296300, 48357.638494
3260.044487, 48357.034313
3261.796847, 48356.424056
3263.560246, 48355.805260
3265.333909, 48355.178099
3267.100565, 48354.548656
3268.868073, 48353.914142
3270.630404, 48353.276728
3272.418062, 48352.625287
3274.196382, 48351.972373
3275.975189, 48351.314403
3277.782274, 48350.640968
3279.568536, 48349.970320
3281.357723, 48349.293607
3283.166292, 48348.604500
3284.972932, 48347.911030
3286.793601, 48347.207011
3288.607131, 48346.500585
3290.415262, 48345.791115
3292.232651, 48345.072822
3294.035713, 48344.355036
3295.856396, 48343.625014
3297.689849, 48342.884555
3299.545030, 48342.129880
3301.387609, 48341.374900
3303.241116, 48340.609968
3305.087239, 48339.842614
3306.933904, 48339.069561
3308.792625, 48338.285919
3310.645060, 48337.499385
3312.514835, 48336.699863
3314.357774, 48335.906273
3316.214083, 48335.101352
3318.064396, 48334.293450
3319.951337, 48333.463804
3321.835631, 48332.629515
3323.714537, 48331.791820
3325.591770, 48330.949083
3327.482543, 48330.094407
3329.383852, 48329.229023
3331.285104, 48328.357693
3333.185082, 48327.480967
3335.084669, 48326.598432
3336.993240, 48325.705679
3338.920906, 48324.797833
3340.828399, 48323.893378
3342.749554, 48322.976291
3344.647727, 48322.064095
3346.597201, 48321.120943
3348.511902, 48320.188385
3350.444250, 48319.240960
3352.390511, 48318.280332
3354.311261, 48317.326003
3356.246776, 48316.358003
3358.195576, 48315.376921
3360.141633, 48314.390760
3362.100081, 48313.391791
3364.034019, 48312.398884
3365.983883, 48311.391310
3367.930106, 48310.379104
3369.874679, 48309.361246
3371.843458, 48308.324077
3373.816261, 48307.278071
3375.801764, 48306.218530
3377.784804, 48305.153480
3379.765582, 48304.082826
3381.757390, 48302.999324
3383.715316, 48301.927512
3385.722307, 48300.821889
3387.713058, 48299.718250
3389.719824, 48298.598701
3391.713217, 48297.479610
3393.712374, 48296.350262
3395.713463, 48295.212769
3397.715383, 48294.067729
3399.725498, 48292.910870
3401.767453, 48291.728358
3403.766003, 48290.563817
3405.758937, 48289.395478
3407.792860, 48288.195816
3409.824148, 48286.990346
3411.866433, 48285.770917
3413.905999, 48284.545663
3415.933376, 48283.320342
3417.977630, 48282.077349
3420.012703, 48280.832473
3422.059309, 48279.573020
3424.109045, 48278.304068
3426.151928, 48277.031805
3428.208092, 48275.743645
3430.268072, 48274.445411
3432.309855, 48273.151044
3434.381039, 48271.830294
3436.422437, 48270.520897
3438.510746, 48269.173547
3440.601353, 48267.816738
3442.673813, 48266.463817
3444.752898, 48265.098668
3446.813459, 48263.737860
3448.885973, 48262.361291
3450.963075, 48260.973749
3453.048523, 48259.572637
3455.112418, 48258.178108
3457.206660, 48256.755034
3459.294969, 48255.327915
3461.365805, 48253.904761
3463.464551, 48252.454314
3465.568253, 48250.992233
3467.678901, 48249.517057
3469.761936, 48248.053049
3471.869679, 48246.563444
3473.971654, 48245.069658
3476.066391, 48243.572802
3478.182220, 48242.052541
3480.290002, 48240.529724
3482.379078, 48239.012200
3484.497714, 48237.464834
3486.608263, 48235.914985
3488.747860, 48234.335247
3490.887727, 48232.746683
3493.022436, 48231.153342
3495.160588, 48229.548804
3497.273690, 48227.954572
3499.414962, 48226.330466
3501.558268, 48224.696117
3503.681141, 48223.068760
3505.813930, 48221.425185
3507.941859, 48219.776739
3510.096293, 48218.098982
3512.258755, 48216.406084
3514.406074, 48214.716219
3516.541832, 48213.026722
3518.713312, 48211.300035
3520.868924, 48209.577048
3523.047947, 48207.826309
3525.220432, 48206.071768
3527.382590, 48204.316582
3529.536158, 48202.559449
3531.716045, 48200.771770
3533.893961, 48198.976584
3536.062525, 48197.180037
3538.218997, 48195.384527
3540.410699, 48193.550499
3542.577349, 48191.728327
3544.759189, 48189.884222
3546.933179, 48188.037602
3549.118910, 48186.171796
3551.305788, 48184.295760
3553.487253, 48182.415140
3555.659158, 48180.533600
3557.831736, 48178.642323
3560.009539, 48176.737306
3562.199997, 48174.811927
3564.382414, 48172.884342
3566.577840, 48170.935922
3568.776373, 48168.975347
3570.979636, 48167.001111
3573.180154, 48165.019895
3575.380559, 48163.029340
3577.604910, 48161.007525
3579.822509, 48158.982234
3582.027082, 48156.959320
3584.222808, 48154.935085
3586.427222, 48152.893359
3588.658966, 48150.816637
3590.874585, 48148.745279
3593.111977, 48146.643813
3595.337291, 48144.543964
3597.561969, 48142.435015
3599.785910, 48140.317066
3601.994611, 48138.204030
3604.212565, 48136.072508
3606.439624, 48133.922521
3608.658076, 48131.771159
3610.885446, 48129.601423
3613.120598, 48127.414305
3615.346217, 48125.226758
3617.581734, 48123.019676
3619.807020, 48120.812932
3622.045312, 48118.583461
3624.278295, 48116.349454
3626.511318, 48114.105591
3628.756531, 48111.839578
3630.662168, 48109.908498
