Ground distance, Vertical Forces
   0.000000,    0.000004
   0.000001,    0.000247
   0.000017,    0.004243
   0.000255,    0.064596
   0.002467,    0.624875
   0.007750,    1.962773
   0.015959,    4.041134
   0.027137,    6.870100
   0.041254,   10.441813
   0.058408,   14.780762
   0.078561,   19.876535
   0.101951,   25.788835
   0.128563,   32.513649
   0.158279,   40.020520
   0.191119,   48.313733
   0.226989,   57.369548
   0.266463,   67.331889
   0.309271,   78.132047
   0.356037,   89.927262
   0.406380,  102.620294
   0.460071,  116.153147
   0.517529,  130.630705
   0.578467,  145.979801
   0.643393,  162.328102
   0.713008,  179.851264
   0.786968,  198.461530
   0.865394,  218.188634
   0.947628,  238.866533
   1.034972,  260.821565
   1.126468,  283.812036
   1.223765,  308.251447
   1.323474,  333.287407
   1.427744,  359.459259
   1.539258,  387.439350
   1.656041,  416.730308
   1.777219,  447.112066
   1.901956,  478.374580
   2.035541,  511.841668
   2.171958,  546.005220
   2.315495,  581.937836
   2.462520,  618.729302
   2.618731,  657.804059
   2.782166,  698.669465
   2.951571,  741.010132
   3.128011,  785.091051
   3.306491,  829.663225
   3.492216,  876.025692
   3.685102,  924.155562
   3.885058,  974.028911
   4.091914, 1025.601114
   4.307990, 1079.448879
   4.529082, 1134.522946
   4.758750, 1191.708160
   4.998555, 1251.390992
   5.246563, 1313.087572
   5.498612, 1375.761280
   5.759659, 1440.642955
   6.024581, 1506.457896
   6.302768, 1575.536709
   6.587963, 1646.322581
   6.880423, 1718.877941
   7.182638, 1793.818217
   7.494247, 1871.051081
   7.813722, 1950.195503
   8.146740, 2032.655055
   8.484523, 2116.253501
   8.835726, 2203.130356
   9.195778, 2292.151869
   9.565990, 2383.639546
   9.941763, 2476.454462
  10.328643, 2571.964529
  10.725944, 2669.997171
  11.136037, 2771.133869
  11.556321, 2874.729959
  11.983383, 2979.941620
  12.422011, 3087.946086
  12.878082, 3200.185481
  13.345818, 3315.233419
  13.819351, 3431.644150
  14.305407, 3551.068306
  14.801299, 3672.842441
  15.301561, 3795.622434
  15.820471, 3922.909364
  16.345555, 4051.639046
  16.883176, 4183.369194
  17.430886, 4317.495892
  17.993900, 4455.292784
  18.569241, 4596.026511
  19.158773, 4740.148661
  19.759306, 4886.875130
  20.367591, 5035.409623
  20.990672, 5187.468752
  21.629373, 5343.248134
  22.282321, 5502.407916
  22.949992, 5665.059258
  23.630059, 5830.630448
  24.318486, 5998.136311
  25.029145, 6170.946014
  25.173378, 6206.006229
  25.188905, 6209.780247
  25.202393, 6213.058626
  25.215028, 6216.129654
  25.217716, 6216.783009
  25.218371, 6216.942131
  25.219681, 6217.260380
  25.219769, 6217.281983
  25.219947, 6217.325252
  25.220111, 6217.364982
  25.221746, 6217.762286
  25.232282, 6220.323181
  25.282756, 6232.590552
  25.478586, 6280.179572
  25.958376, 6396.730813
  26.611884, 6555.384058
  27.277827, 6716.941699
  27.953232, 6880.678085
  28.644698, 7048.187642
  29.339141, 7216.297383
  30.047994, 7387.771746
  30.765539, 7561.223020
  31.500691, 7738.800944
  32.249390, 7919.517892
  33.006053, 8102.022118
  33.780350, 8288.640776
  34.569074, 8478.593543
  35.362586, 8669.555952
  36.174676, 8864.841267
  36.995868, 9062.165516
  37.832162, 9262.964929
  38.673925, 9464.922927
  39.530810, 9670.351503
  40.402492, 9879.165989
  41.285628, 10090.560224
  42.178556, 10304.131925
  43.087960, 10521.474726
  44.010630, 10741.814186
  44.947107, 10965.274493
  45.899917, 11192.451042
  46.860352, 11421.262862
  47.840451, 11654.572324
  48.838804, 11892.034774
  49.845897, 12131.381181
  50.854911, 12370.990232
  51.883263, 12614.993388
  52.927618, 12862.591280
  53.984773, 13113.018028
  55.065146, 13368.733178
  56.151595, 13625.672713
  57.257791, 13887.064110
  58.376309, 14151.145662
  59.512760, 14419.234914
  60.661241, 14689.933047
  61.824384, 14963.854353
  63.005557, 15241.784611
  64.200518, 15522.717812
  65.410485, 15806.934362
  66.636564, 16094.686703
  67.873699, 16384.782114
  69.120170, 16676.813521
  70.394835, 16975.189888
  71.678802, 17275.479760
  72.978929, 17579.281530
  74.296693, 17886.932545
  75.633479, 18198.746957
  76.979364, 18512.403997
  78.350272, 18831.606439
  79.727807, 19152.063497
  81.125676, 19476.958317
  82.541232, 19805.665656
  83.972526, 20137.725253
  85.415697, 20472.235235
  86.885005, 20812.491335
  88.363049, 21154.455329
  89.869540, 21502.678784
  91.378737, 21851.203745
  92.909923, 22204.478798
  94.458758, 22561.492084
  96.026552, 22922.536362
  97.604164, 23285.500476
  99.206718, 23653.855543
 100.818558, 24023.994177
 102.457913, 24400.093382
 104.113139, 24779.470636
 104.445670, 24855.642950
 104.485463, 24864.757248
 104.493304, 24866.553286
 104.496288, 24867.236692
 104.501933, 24868.529452
 104.503796, 24868.956189
 104.504318, 24869.075917
 104.504550, 24869.128852
 104.504918, 24869.213353
 104.505253, 24869.290012
 104.508600, 24870.056608
 104.534841, 24876.066614
 104.691129, 24911.859742
 105.287713, 25048.452247
 106.781555, 25390.218873
 108.283360, 25733.435716
 109.794029, 26078.305040
 111.326500, 26427.771809
 112.874280, 26780.344138
 114.436413, 27135.796290
 116.013378, 27494.228813
 117.603289, 27855.205758
 119.209536, 28219.488298
 120.826994, 28585.907068
 122.459989, 28955.434553
 124.112435, 29328.946218
 125.774368, 29704.181791
 127.454219, 30083.037254
 129.145975, 30464.148488
 130.857381, 30849.250886
 132.583634, 31237.253906
 134.315875, 31626.160864
 136.068820, 32019.269081
 137.840843, 32416.201260
 139.627519, 32815.956633
 141.422901, 33217.198473
 143.240681, 33622.978090
 145.070923, 34031.066999
 146.921858, 34443.291034
 148.782838, 34857.269812
 150.656333, 35273.547232
 152.546934, 35693.135321
 154.455011, 36116.105778
 156.384002, 36543.209009
 158.327845, 36973.092326
 160.283892, 37405.162622
 162.263596, 37841.938833
 164.257907, 38281.413124
 166.261760, 38722.462750
 168.282175, 39166.626132
 170.325250, 39615.231470
 172.378165, 40065.454878
 174.452665, 40519.862979
 176.542314, 40977.034780
 178.649208, 41437.419591
 180.772169, 41900.750141
 182.918861, 42368.686996
 185.080120, 42839.220289
 187.249169, 43310.869863
 189.433720, 43785.306594
 191.646193, 44265.214181
 193.868494, 44746.656226
 196.108664, 45231.367204
 198.371146, 45720.296293
 200.643063, 46210.651220
 202.937959, 46705.346013
 205.253088, 47203.775136
 207.584292, 47705.032290
 209.926108, 48207.935762
 212.290700, 48715.088287
 214.672591, 49225.302371
 217.073425, 49738.919356
 219.498429, 50257.043892
 221.936667, 50777.327811
 224.385422, 51299.185552
 226.854951, 51824.794262
 229.344430, 52353.965786
 231.845408, 52884.894719
 234.373241, 53420.829348
 236.918280, 53959.709836
 239.472076, 54499.740272
 242.061401, 55046.568109
 244.655126, 55593.606467
 245.178202, 55703.840969
 245.525963, 55777.112917
 245.807041, 55836.325542
 246.015277, 55880.187732
 246.179781, 55914.835201
 246.220123, 55923.331388
 246.278080, 55935.537216
 246.344385, 55949.500798
 246.359208, 55952.622423
 246.363379, 55953.500805
 246.371722, 55955.257584
 246.372421, 55955.404770
 246.372948, 55955.515906
 246.373149, 55955.558182
 246.373379, 55955.606575
 246.375677, 55956.090508
 246.396109, 55960.393283
 246.511073, 55984.602101
 247.015681, 56090.839563
 249.063039, 56521.524694
 251.363044, 57004.679622
 253.682942, 57491.290952
 256.010641, 57978.813494
 258.354513, 58468.993359
 260.710223, 58960.914889
 263.082284, 59455.511200
 265.463729, 59951.321281
 267.872028, 60451.969671
 270.297303, 60955.386161
 272.724031, 61458.344068
 275.173148, 61965.175396
 277.634148, 62473.693734
 280.109651, 62984.432544
 282.592366, 63495.880925
 285.085595, 64008.715086
 287.601677, 64525.461601
 290.125010, 65042.906025
 292.674027, 65564.816617
 295.237084, 66088.795349
 297.805362, 66613.033852
 300.395551, 67140.930292
 303.000628, 67671.040711
 305.620327, 68203.300700
 308.261604, 68739.110799
 310.910642, 69275.658850
 313.572746, 69814.013311
 316.252244, 70355.039531
 318.943579, 70897.605765
 321.655360, 71443.437039
 324.377621, 71990.516411
 327.119918, 72540.754760
 329.879168, 73093.520151
 332.655198, 73648.766171
 335.449935, 74206.865760
 338.250530, 74765.246066
 341.066686, 75325.835659
 343.907420, 75890.415056
 346.760218, 76456.484024
 349.631279, 77025.262709
 352.509553, 77594.554488
 355.413508, 78168.001098
 358.328246, 78742.647461
 361.258124, 79319.345069
 364.207589, 79898.957214
 367.171726, 80480.506146
 370.144577, 81062.816374
 373.142474, 81649.075561
 376.149799, 82236.217841
 379.174534, 82825.793136
 382.217267, 83417.904059
 385.275058, 84011.967168
 388.353354, 84609.028668
 391.441803, 85207.070367
 394.542724, 85806.535683
 397.661268, 86408.410652
 400.797138, 87012.625844
 403.950422, 87619.186533
 407.123842, 88228.603069
 410.313786, 88840.169099
 413.520413, 89453.904113
 416.740260, 90069.135522
 419.973927, 90685.970343
 423.227911, 91305.636051
 426.501601, 91928.002369
 429.793011, 92552.678366
 433.088002, 93176.975555
 436.409353, 93805.200278
 439.747571, 94435.541392
 443.095956, 95066.725686
 446.461655, 95700.092134
 449.845688, 96335.820819
 453.248885, 96974.054327
 456.664749, 97613.564397
 460.099236, 98255.455930
 463.547532, 98898.818888
 464.238893, 99027.675625
 466.577639, 99463.244888
 466.605310, 99468.395280
 466.625298, 99472.115576
 466.635065, 99473.933564
 466.642104, 99475.243566
 466.648906, 99476.509639
 466.656131, 99477.854383
 466.662731, 99479.082883
 466.728409, 99491.306983
 467.103564, 99561.123451
 469.224836, 99955.645256
 472.700549, 100601.163857
 476.197204, 101249.439544
 479.705616, 101898.758363
 483.221541, 102548.331276
 486.759524, 103200.836279
 490.319986, 103856.334419
 493.894007, 104513.171713
 497.490614, 105172.994523
 501.108666, 105835.577688
 504.739704, 106499.360875
 508.381814, 107163.987569
 512.044970, 107831.267735
 515.724748, 108500.382883
 519.421489, 109171.383774
 523.131816, 109843.648306
 526.856522, 110517.311744
 530.604726, 111194.010883
 534.368610, 111872.320390
 538.154571, 112553.380289
 541.948915, 113234.718104
 545.770910, 113919.781541
 549.608236, 114606.347123
 553.462340, 115294.663657
 557.326949, 115983.603262
 561.208644, 116674.331347
 565.118384, 117368.781577
 569.040337, 118064.127999
 572.973337, 118760.158347
 576.935591, 119460.080752
 580.912943, 120161.378942
 584.903275, 120863.671235
 588.919244, 121569.172319
 592.954910, 122276.822612
 596.999087, 122984.652559
 601.058177, 123693.777042
 605.137398, 124405.096575
 609.233231, 125117.985392
 613.345544, 125832.410370
 617.479870, 126549.319815
 621.640568, 127269.452238
 625.816177, 127990.809414
 627.892271, 128348.961263
 630.012567, 128714.394315
 634.224936, 130763.886663
 638.455333, 134126.225290
 642.700056, 137498.316753
 646.967203, 140879.142612
 651.252981, 144272.787758
 655.560997, 147677.447336
 659.898597, 151096.600117
 664.247651, 154530.931986
 668.621948, 157971.941163
 673.014815, 161426.414447
 677.427671, 164890.502315
 681.865246, 168365.801108
 686.323841, 171853.979366
 690.794244, 175350.746983
 695.274110, 178850.110984
 699.769376, 182351.872493
 704.296786, 185862.755306
 708.829236, 189386.048924
 713.383207, 192910.017922
 717.946703, 196441.022347
 722.526989, 199973.756405
 727.114036, 203509.689815
 731.732906, 207049.052915
 736.354242, 210598.370746
 740.992586, 214145.069971
 745.641065, 217694.941290
 750.298075, 221243.795085
 750.612109, 223727.876975
 750.926043, 223964.294813
 751.240488, 224200.707789
 751.555148, 224437.356308
 751.870158, 224674.120811
 752.184878, 224910.915484
 752.500376, 225147.670357
 752.815916, 225384.751968
 753.132005, 225621.906921
 753.448043, 225859.247784
 753.764383, 226096.553553
 754.079609, 226333.661394
 754.396295, 226570.470868
 754.713693, 226808.111637
 755.030782, 227045.955011
 755.348687, 227283.752153
 755.666822, 227521.933812
 755.983714, 227759.845763
 756.301667, 227997.294764
 756.620315, 228235.361814
 756.939644, 228473.856655
 757.258424, 228712.474948
 757.575412, 228950.292642
 757.895644, 229187.894131
 758.215520, 229426.961085
 758.536137, 229665.931739
 758.857182, 229905.285598
 759.178453, 230144.814599
 759.499239, 230384.244587
 759.820524, 230623.452727
 760.140469, 230862.492377
 760.462904, 231101.357711
 760.784332, 231341.137023
 761.107287, 231580.676276
 761.429367, 231820.673608
 761.752599, 232060.406022
 762.075763, 232300.599931
 762.399389, 232540.767852
 762.722844, 232781.023039
 763.047066, 233021.272178
 763.371725, 233261.906431
 763.696608, 233502.707438
 764.021711, 233743.566538
 764.347439, 233984.578041
 764.674200, 234226.042273
 765.001384, 234468.015474
 765.328401, 234710.049750
 765.655942, 234952.014478
 765.983039, 235194.022781
 766.311462, 235436.014129
 766.638159, 235678.140842
 766.966213, 235919.616120
 767.295484, 236161.944843
 767.625536, 236404.950639
 767.955914, 236648.306686
 768.285288, 236891.466793
 768.615954, 237134.316586
 768.947722, 237377.952175
 769.277652, 237621.576687
 769.608996, 237864.503071
 769.942305, 238108.478265
 770.274033, 238352.928856
 770.607086, 238596.785833
 770.938498, 238840.784520
 771.273404, 239084.673822
 771.607635, 239330.007876
 771.940820, 239574.630639
 772.276191, 239819.125766
 772.612700, 240064.842453
 772.947699, 240310.631932
 773.284930, 240556.072159
 773.620330, 240802.047913
 773.958161, 241047.560511
 774.294306, 241293.739686
 774.633147, 241539.588463
 774.970656, 241619.313483
 775.310450, 241699.494787
 775.650498, 241779.651926
 775.989929, 241859.579718
 776.330242, 241939.630836
 776.670776, 242019.649258
 777.012483, 242099.858268
 777.354883, 242180.143994
 777.696825, 242260.236320
 778.038452, 242340.169312
 778.382072, 242420.481793
 778.725436, 242500.647673
 779.068718, 242580.707263
 779.408450, 242659.853216
 779.753800, 242740.220326
 780.099044, 242820.474297
 780.444956, 242900.794838
 780.790587, 242980.961223
 781.133644, 243060.442558
 781.479820, 243140.557561
 781.826461, 243220.690634
 782.173980, 243300.936189
 782.523017, 243381.441061
 782.870331, 243461.458100
 783.219320, 243541.769448
 783.567999, 243621.917919
 783.916464, 243701.925690
 784.266432, 243782.186156
 784.615414, 243862.128560
 784.967131, 243942.603785
 785.317406, 244022.656245
 785.669876, 244103.116053
 786.021939, 244183.388561
 786.374941, 244263.780636
 786.726518, 244343.753538
 787.078563, 244423.738202
 787.431962, 244503.935350
 787.786649, 244584.328580
 788.142230, 244664.827404
 788.496758, 244744.991238
 788.851579, 244825.124428
 789.209105, 244905.770453
 789.566161, 244986.212151
 789.922699, 245066.438733
 790.281245, 245147.018131
 790.639432, 245227.417193
 790.997555, 245307.702339
 791.357737, 245388.348772
 791.716368, 245468.547470
 792.076200, 245548.913972
 792.434554, 245628.850107
 792.796159, 245709.409603
 793.156656, 245789.620513
 793.229135, 245805.734856
 793.279469, 245816.923372
 793.315390, 245824.906775
 793.344960, 245831.477876
 793.428315, 245849.997552
 793.438330, 245852.222440
 793.439712, 245852.529321
 793.440133, 245852.622828
 793.440562, 245852.718260
 793.443597, 245853.392457
 793.459422, 245856.907613
 793.516551, 245869.595795
 793.656040, 245900.565721
 793.968120, 245969.799993
 794.328921, 246049.748346
 794.692620, 246130.235923
 795.056752, 246210.715642
 795.422984, 246291.554726
 795.788527, 246372.136949
 796.154951, 246452.808095
 796.522528, 246533.627137
 796.889074, 246614.113500
 797.256267, 246694.635609
 797.625482, 246775.493860
 797.994031, 246856.099022
 798.363718, 246936.844742
 798.733638, 247017.533108
 799.104428, 247098.302120
 799.475930, 247179.116453
 799.849319, 247260.230959
 800.220889, 247340.839670
 800.593947, 247421.660504
 800.967769, 247502.535208
 801.341404, 247583.257724
 801.716554, 247664.195210
 802.092188, 247745.123659
 802.467806, 247825.935420
 802.843927, 247906.741737
 803.222956, 247988.057395
 803.600776, 248068.998381
 803.910735, 248135.315212
 803.979244, 248149.962486
 804.358314, 248230.939283
 804.737110, 248311.741264
 805.118906, 248393.065570
 805.500278, 248474.181279
 805.883132, 248555.493243
 806.265543, 248636.592082
 806.647335, 248717.440606
 807.031355, 248798.640915
 807.416929, 248880.048403
 807.803661, 248961.578302
 808.190425, 249042.992345
 808.577259, 249124.298550
 808.965453, 249205.766723
 809.353219, 249287.021447
 809.742998, 249368.573077
 810.133323, 249450.113182
 810.523261, 249531.447172
 810.913114, 249612.637445
 811.304478, 249694.015957
 811.697860, 249775.685973
 812.091025, 249857.182785
 812.484576, 249938.630857
 812.879698, 250020.274308
 813.274438, 250101.708993
 813.669740, 250183.129502
 814.065915, 250264.598581
 814.463202, 250346.164644
 814.862314, 250427.972134
 815.260649, 250509.487326
 815.660994, 250591.279592
 816.060578, 250672.782168
 816.460997, 250754.320074
 816.862109, 250835.863692
 817.266514, 250917.939456
 817.671040, 250999.901249
 818.074529, 251081.515276
 818.478589, 251163.106617
 818.882768, 251244.583605
 819.288649, 251326.264000
 819.696903, 251408.280544
 820.101783, 251489.479450
 820.511723, 251571.550747
 820.920397, 251653.225792
 821.331255, 251735.193591
 821.740692, 251816.734354
 822.152015, 251898.506270
 822.563458, 251980.156870
 822.978052, 252062.285666
 823.390576, 252143.858141
 823.805956, 252225.847160
 824.220430, 252307.509449
 824.637245, 252389.483379
 825.056186, 252471.724521
 825.473890, 252553.571660
 825.895433, 252636.017989
 826.315493, 252718.020953
 826.737645, 252800.278267
 827.156871, 252881.812355
 827.580342, 252964.016875
 828.003964, 253046.094557
 828.428904, 253128.270357
 828.853380, 253210.199117
 829.278541, 253292.102409
 829.703827, 253373.871663
 830.130148, 253455.681048
 830.559665, 253537.942608
 830.987628, 253619.745425
 831.418616, 253701.963800
 831.850620, 253784.212173
 832.279824, 253865.764602
 832.714774, 253948.243318
 833.145520, 254029.760154
 833.581693, 254112.137123
 834.014926, 254193.792113
 834.450429, 254275.707456
 834.886699, 254357.598592
 835.322941, 254439.315380
 835.763082, 254521.591280
 836.203536, 254603.753171
 836.646482, 254686.205656
 837.086407, 254767.922799
 837.526688, 254849.533016
 837.966394, 254930.863817
 838.409052, 255012.566073
 838.853339, 255094.392483
 839.299556, 255176.396093
 839.746195, 255258.298463
 840.192249, 255339.914773
 840.642623, 255422.139934
 841.095364, 255504.613124
 841.544714, 255586.286010
 841.995376, 255668.014307
 842.446045, 255749.560532
 842.899833, 255831.485544
 843.356055, 255913.661950
 843.809790, 255995.203445
 844.265177, 256076.853988
 844.722391, 256158.642641
 845.182224, 256240.708150
 845.641470, 256322.476740
 846.101852, 256404.254923
 846.564824, 256486.298179
 847.026808, 256567.971280
 847.491961, 256650.007482
 847.956311, 256731.704775
 848.419609, 256813.020222
 848.887748, 256894.985374
 849.353540, 256976.340000
 849.823705, 257058.256196
 850.294031, 257139.997312
 850.762000, 257221.126447
 851.233866, 257302.727007
 851.704754, 257383.953503
 852.178773, 257465.513462
 852.652850, 257546.875560
 853.131265, 257628.771548
 853.610585, 257710.609609
 854.088694, 257792.028889
 854.565959, 257873.092758
 855.042662, 257953.849900
 855.522816, 258034.978225
 856.001731, 258115.683256
 856.487444, 258197.315587
 856.969937, 258278.188953
 857.450888, 258358.587547
 857.932106, 258438.814436
 858.415832, 258519.241026
 858.900823, 258599.658055
 859.384215, 258679.590545
 859.874333, 258760.411483
 860.359880, 258840.256056
 860.849177, 258920.493266
 861.343012, 259001.246187
 861.835296, 259081.516882
 862.328919, 259161.776445
 862.824747, 259242.163111
 863.317980, 259321.898664
 863.814884, 259401.994984
 864.310314, 259481.621184
 864.804901, 259560.880005
 865.304793, 259640.753423
 865.806957, 259720.750901
 866.305097, 259799.870712
 866.802265, 259878.600954
 867.302978, 259957.654871
 867.803297, 260036.408044
 868.301717, 260114.625035
 868.810490, 260194.222100
 869.314096, 260272.767434
 869.822111, 260351.754805
 870.330170, 260430.501910
 870.836668, 260508.761088
 871.351770, 260588.097546
 871.865411, 260666.955451
 872.375309, 260744.987946
 872.886073, 260822.902632
 873.402076, 260901.361599
 873.918891, 260979.687145
 874.434062, 261057.507187
 874.947833, 261134.860917
 875.463748, 261212.281055
 875.983028, 261289.946398
 876.502951, 261367.446682
 877.024392, 261444.910539
 877.545781, 261522.103248
 878.066112, 261598.876571
 878.588742, 261675.724580
 879.117774, 261753.243911
 879.639065, 261829.362796
 880.167680, 261906.281092
 880.698983, 261983.316426
 881.230891, 262060.164020
 881.760735, 262136.438987
 882.290286, 262212.397938
 882.820692, 262288.205099
 883.352038, 262363.870760
 883.881898, 262439.049541
 884.415946, 262514.544588
 884.950901, 262589.887507
 885.484989, 262664.828265
 886.026517, 262740.527064
 886.559943, 262814.811746
 887.095052, 262889.049599
 887.638940, 262964.216750
 888.181396, 263038.895793
 888.724139, 263113.324210
 889.265944, 263187.334053
 889.807252, 263260.986769
 890.359034, 263335.766644
 890.906086, 263409.608480
 891.450348, 263482.779739
 892.003869, 263556.895010
 892.550503, 263629.790277
 893.101495, 263702.966807
 893.650070, 263775.523020
 894.210249, 263849.305592
 894.762347, 263921.718527
 895.314448, 263993.828837
 895.872588, 264066.419458
 896.427085, 264138.229111
 896.982856, 264209.896159
 897.545480, 264282.133033
 898.106295, 264353.823187
 898.661118, 264424.438251
 899.221903, 264495.499378
 899.783457, 264566.342832
 900.342527, 264636.559249
 900.900924, 264706.378545
 901.464052, 264776.472810
 902.028116, 264846.364775
 902.594647, 264916.240872
 903.160401, 264985.699381
 903.727311, 265054.977027
 904.292135, 265123.678322
 904.855878, 265191.927811
 905.425601, 265260.576223
 905.995177, 265328.879789
 906.569032, 265397.365594
 907.139583, 265465.127651
 907.715339, 265533.174557
 908.292192, 265601.015212
 908.865973, 265668.160655
 909.441313, 265735.154212
 910.021702, 265802.395963
 910.600565, 265869.121043
 911.181081, 265935.695501
 911.763913, 266002.191603
 912.340765, 266067.665898
 912.924546, 266133.582604
 913.511419, 266199.499234
 914.093883, 266264.574439
 914.668405, 266328.424136
 915.246196, 266392.298153
 915.836834, 266457.240777
 916.423127, 266521.354022
 917.005072, 266584.645146
 917.589012, 266647.805757
 918.174412, 266710.774812
 918.756361, 266773.025575
 919.347030, 266835.855036
 919.939133, 266898.478988
 920.526837, 266960.282678
 921.116623, 267021.949862
 921.712234, 267083.864352
 922.304148, 267145.034218
 922.897491, 267205.991133
 923.488545, 267266.353611
 924.080794, 267326.478387
 924.673249, 267386.263472
 925.263823, 267445.499694
 925.861724, 267505.105410
 926.459042, 267564.285684
 927.052956, 267622.764546
 927.655935, 267681.764245
 928.258691, 267740.367688
 928.856432, 267798.113546
 929.456766, 267855.739005
 930.062516, 267913.507349
 930.668415, 267970.910773
 931.267238, 268027.271181
 931.871859, 268083.801359
 932.473723, 268139.698244
 933.081668, 268195.779384
 933.691765, 268251.674519
 934.296742, 268306.719956
 934.903355, 268361.533544
 935.508017, 268415.791335
 936.118393, 268470.177305
 936.731540, 268524.420998
 937.344881, 268578.291602
 937.952278, 268631.255141
 938.566704, 268684.441692
 939.174445, 268736.663609
 939.788160, 268789.009262
 940.401627, 268840.942248
 941.013744, 268892.370582
 941.626806, 268943.487512
 942.245854, 268994.706353
 942.867458, 269045.735071
 943.477847, 269095.451178
 944.102012, 269145.887717
 944.718323, 269195.290918
 945.333065, 269244.173591
 945.949696, 269292.810160
 946.572379, 269341.521231
 947.189466, 269389.395016
 947.808121, 269436.990987
 948.428479, 269484.316298
 949.048934, 269531.246529
 949.671379, 269577.922618
 950.290745, 269623.965482
 950.922111, 269670.487090
 951.546234, 269716.064780
 952.177467, 269761.746740
 952.806680, 269806.867051
 953.431007, 269851.226823
 954.056801, 269895.280706
 954.681363, 269938.838456
 955.307273, 269982.079652
 955.933379, 270024.923049
 956.564495, 270067.692875
 957.191797, 270109.789758
 957.820511, 270151.566754
 958.447223, 270192.797402
 958.845357, 270218.775762
