Speed, Forces
 144.534514, 5240.352958
 146.148106, 4783.592740
 147.761698, 4585.375782
 149.375290, 4397.017174
 150.988882, 4295.720302
 152.602475, 4193.335073
 154.216067, 4095.652724
 155.829659, 4020.718267
 157.443251, 3945.003838
 159.056843, 3868.509435
 160.670435, 3802.489223
 162.284027, 3738.741625
 163.897619, 3674.357017
 165.511211, 3609.335399
 167.124803, 3557.713328
 168.738395, 3505.773400
 170.351987, 3453.334400
 171.965579, 3400.396328
 173.579171, 3355.681292
 175.192764, 3314.341528
 176.806356, 3272.619248
 178.419948, 3230.514452
 180.033540, 3188.027139
 181.647132, 3154.253293
 183.260724, 3122.264110
 184.874316, 3089.992020
 186.487908, 3057.437023
 188.101500, 3024.599119
 189.715092, 2993.605146
 191.328684, 2971.792330
 192.942276, 2949.794773
 194.555868, 2927.612477
 196.169460, 2905.245442
 197.783053, 2882.693666
 199.396645, 2859.957150
 201.010237, 2843.740924
 202.623829, 2831.907403
 204.237421, 2819.979268
 205.851013, 2807.956521
 207.464605, 2795.839161
 209.078197, 2783.627188
 210.691789, 2771.320602
 212.305381, 2758.919404
 213.918973, 2753.456270
 215.532565, 2750.274291
 217.146157, 2747.068402
 218.759749, 2743.838601
 220.373342, 2740.584888
 221.986934, 2737.307264
 223.600526, 2734.005728
 225.214118, 2730.680281
 226.827710, 2727.330923
 228.441302, 2725.511969
 230.054894, 2730.597198
 231.668486, 2735.718221
 233.282078, 2740.875036
 234.895670, 2746.067644
 236.509262, 2751.296045
 238.122854, 2756.560240
 239.736446, 2761.860227
 241.350038, 2767.196008
 242.963631, 2772.567581
 244.577223, 2777.974948
 246.190815, 2783.418107
 247.804407, 2790.273079
 249.417999, 2804.662899
 251.031591, 2819.146114
 252.645183, 2833.722725
 254.258775, 2848.392733
 255.872367, 2863.156136
 257.485959, 2878.012936
 259.099551, 2892.963132
 260.713143, 2908.006723
 262.326735, 2923.143711
 263.940327, 2938.374094
 265.553920, 2953.697874
 267.167512, 2969.115050
 268.781104, 2984.625621
 270.394696, 3000.229589
 272.008288, 3015.926953
 273.621880, 3034.754844
 275.235472, 3058.299002
 276.849064, 3081.981596
 278.462656, 3105.802626
 280.076248, 3129.762091
 281.689840, 3153.859991
 283.303432, 3178.096327
 284.917024, 3202.471099
 286.530616, 3226.984306
 288.144209, 3251.635948
 289.757801, 3276.426026
 291.371393, 3301.354539
 292.984985, 3326.421488
 294.598577, 3351.626873
 296.212169, 3376.970693
 297.825761, 3402.452948
 299.439353, 3428.073639
 301.052945, 3453.832765
 302.666537, 3479.730327
 304.280129, 3505.766324
