Speed, Forces
 137.117368, 4716.310014
 138.805881, 4279.017842
 140.494394, 4091.656019
 142.182907, 3929.233173
 143.871419, 3828.283012
 145.559932, 3726.141080
 147.248445, 3644.471272
 148.936958, 3569.562952
 150.625470, 3493.800548
 152.313983, 3426.382026
 154.002496, 3363.111203
 155.691009, 3299.142842
 157.379521, 3237.328024
 159.068034, 3186.118438
 160.756547, 3134.362360
 162.445059, 3082.059790
 164.133572, 3033.101501
 165.822085, 2992.176130
 167.510598, 2950.831897
 169.199110, 2909.068801
 170.887623, 2866.886843
 172.576136, 2834.126223
 174.264649, 2802.309117
 175.953161, 2770.182222
 177.641674, 2737.745538
 179.330187, 2704.999067
 181.018700, 2680.929850
 182.707212, 2659.141633
 184.395725, 2637.151122
 186.084238, 2614.958318
 187.772750, 2592.563220
 189.461263, 2569.965829
 191.149776, 2556.206860
 192.838289, 2544.426610
 194.526801, 2532.542757
 196.215314, 2520.555301
 197.903827, 2508.464243
 199.592340, 2496.269582
 201.280852, 2483.971318
 202.969365, 2478.054114
 204.657878, 2474.893606
 206.346391, 2471.706915
 208.034903, 2468.494041
 209.723416, 2465.254983
 211.411929, 2461.989741
 213.100442, 2458.698316
 214.788954, 2455.380708
 216.477467, 2452.239776
 218.165980, 2457.284280
 219.854492, 2462.367979
 221.543005, 2467.490871
 223.231518, 2472.652958
 224.920031, 2477.854239
 226.608543, 2483.094713
 228.297056, 2488.374382
 229.985569, 2493.693244
 231.674082, 2499.051301
 233.362594, 2504.448552
 235.051107, 2510.933048
 236.739620, 2525.220825
 238.428133, 2539.610871
 240.116645, 2554.103188
 241.805158, 2568.697775
 243.493671, 2583.394633
 245.182183, 2598.193761
 246.870696, 2613.095159
 248.559209, 2628.098828
 250.247722, 2643.204766
 251.936234, 2658.412976
 253.624747, 2673.723455
 255.313260, 2689.136205
 257.001773, 2704.651225
 258.690285, 2720.268515
 260.378798, 2742.312531
 262.067311, 2765.764309
 263.755824, 2789.367676
 265.444336, 2813.122633
 267.132849, 2837.029179
 268.821362, 2861.087314
 270.509875, 2885.297039
 272.198387, 2909.658353
 273.886900, 2934.171256
 275.575413, 2958.835749
 277.263925, 2983.651831
 278.952438, 3008.619502
 280.640951, 3033.738763
 282.329464, 3059.009613
 284.017976, 3084.432052
 285.706489, 3110.006081
 287.395002, 3135.731699
 289.083515, 3161.608906
 290.772027, 3187.637703
 292.460540, 3213.818089
 294.149053, 3245.883796
 295.837566, 3278.364338
 297.526078, 3311.030796
 299.214591, 3343.883169
 300.903104, 3376.921458
 302.591616, 3410.145662
 304.280129, 3443.555781
