Speed, Forces
 133.254257, 4454.301289
 134.981791, 4032.017926
 136.709325, 3845.548575
 138.436859, 3695.930810
 140.164393, 3595.338719
 141.891927, 3493.571929
 143.619461, 3419.694441
 145.346995, 3344.922937
 147.074529, 3270.262488
 148.802064, 3207.735715
 150.529598, 3144.478793
 152.257132, 3080.491720
 153.984666, 3026.915552
 155.712200, 2975.640205
 157.439734, 2923.792815
 159.167268, 2872.608255
 160.894802, 2831.992593
 162.622336, 2790.938485
 164.349870, 2749.445932
 166.077404, 2707.514933
 167.804938, 2675.022557
 169.532472, 2643.362091
 171.260006, 2611.377352
 172.987540, 2579.068341
 174.715074, 2546.966706
 176.442609, 2525.445237
 178.170143, 2503.712017
 179.897677, 2481.767045
 181.625211, 2459.610322
 183.352745, 2437.241847
 185.080279, 2418.809300
 186.807813, 2407.136600
 188.535347, 2395.355453
 190.262881, 2383.465859
 191.990415, 2371.467819
 193.717949, 2359.361333
 195.445483, 2347.146400
 197.173017, 2340.530063
 198.900551, 2337.388167
 200.628085, 2334.218864
 202.355619, 2331.022153
 204.083154, 2327.798034
 205.810688, 2324.546507
 207.538222, 2321.267573
 209.265756, 2317.961232
 210.993290, 2317.789327
 212.720824, 2322.820631
 214.448358, 2327.892962
 216.175892, 2333.006319
 217.903426, 2338.160703
 219.630960, 2343.356113
 221.358494, 2348.592550
 223.086028, 2353.870013
 224.813562, 2359.188503
 226.541096, 2364.548019
 228.268630, 2370.129055
 229.996165, 2384.327932
 231.723699, 2398.633862
 233.451233, 2413.046843
 235.178767, 2427.566876
 236.906301, 2442.193961
 238.633835, 2456.928098
 240.361369, 2471.769287
 242.088903, 2486.717527
 243.816437, 2501.772819
 245.543971, 2516.935164
 247.271505, 2532.204560
 248.999039, 2547.581008
 250.726573, 2563.064507
 252.454107, 2582.053666
 254.181641, 2605.321309
 255.909175, 2628.747629
 257.636710, 2652.332625
 259.364244, 2676.076298
 261.091778, 2699.978647
 262.819312, 2724.039673
 264.546846, 2748.259376
 266.274380, 2772.637756
 268.001914, 2797.174812
 269.729448, 2821.870545
 271.456982, 2846.724955
 273.184516, 2871.738042
 274.912050, 2896.909805
 276.639584, 2922.240245
 278.367118, 2947.729361
 280.094652, 2973.377155
 281.822186, 2999.183625
 283.549720, 3025.148771
 285.277255, 3054.678135
 287.004789, 3086.912084
 288.732323, 3119.340640
 290.459857, 3151.963804
 292.187391, 3184.781575
 293.914925, 3217.793954
 295.642459, 3251.000941
 297.369993, 3284.402536
 299.097527, 3317.998738
 300.825061, 3351.789548
 302.552595, 3385.774966
 304.280129, 3419.954991
