Speed, Forces
 129.275364, 4192.267071
 131.043089, 3785.272970
 132.810814, 3599.969479
 134.578538, 3463.037077
 136.346263, 3362.940875
 138.113988, 3269.100918
 139.881713, 3195.494645
 141.649438, 3120.952275
 143.417163, 3052.186534
 145.184888, 2989.778159
 146.952613, 2926.605264
 148.720338, 2867.890913
 150.488063, 2817.199588
 152.255787, 2765.909294
 154.023512, 2714.020031
 155.791237, 2672.252174
 157.558962, 2631.563142
 159.326687, 2590.415026
 161.094412, 2548.807826
 162.862137, 2516.459640
 164.629862, 2485.008126
 166.397587, 2453.217076
 168.165312, 2421.086490
 169.933036, 2391.899275
 171.700761, 2370.474384
 173.468486, 2348.827774
 175.236211, 2326.959445
 177.003936, 2304.869398
 178.771661, 2282.557631
 180.539386, 2270.069789
 182.307111, 2258.415922
 184.074836, 2246.648503
 185.842561, 2234.767534
 187.610286, 2222.773013
 189.378010, 2210.664941
 191.145735, 2203.088677
 192.913460, 2199.971208
 194.681185, 2196.825041
 196.448910, 2193.650177
 198.216635, 2190.446615
 199.984360, 2187.214355
 201.752085, 2183.953397
 203.519810, 2180.663741
 205.287535, 2183.115170
 207.055259, 2188.125359
 208.822984, 2193.178506
 210.590709, 2198.274611
 212.358434, 2203.413673
 214.126159, 2208.595693
 215.893884, 2213.820670
 217.661609, 2219.088605
 219.429334, 2224.399498
 221.197059, 2229.753348
 222.964784, 2242.753726
 224.732509, 2256.947897
 226.500233, 2271.254160
 228.267958, 2285.672513
 230.035683, 2300.202957
 231.803408, 2314.845492
 233.571133, 2329.600118
 235.338858, 2344.466835
 237.106583, 2359.445643
 238.874308, 2374.536541
 240.642033, 2389.739531
 242.409758, 2405.054611
 244.177482, 2420.556432
 245.945207, 2443.589374
 247.712932, 2466.788462
 249.480657, 2490.153697
 251.248382, 2513.685077
 253.016107, 2537.382602
 254.783832, 2561.246274
 256.551557, 2585.276091
 258.319282, 2609.472054
 260.087007, 2633.834163
 261.854732, 2658.362417
 263.622456, 2683.056817
 265.390181, 2707.917364
 267.157906, 2732.944055
 268.925631, 2758.136893
 270.693356, 2783.495876
 272.461081, 2809.021006
 274.228806, 2834.712281
 275.996531, 2861.237633
 277.764256, 2893.154015
 279.531981, 2925.274164
 281.299705, 2957.598082
 283.067430, 2990.125768
 284.835155, 3022.857221
 286.602880, 3055.792443
 288.370605, 3088.931433
 290.138330, 3122.274191
 291.906055, 3155.820717
 293.673780, 3189.571011
 295.441505, 3223.525073
 297.209230, 3257.682903
 298.976954, 3292.044502
 300.744679, 3326.609868
 302.512404, 3361.379002
 304.280129, 3396.351905
