Speed, Forces
 140.874584, 4978.318740
 142.525145, 4526.273760
 144.175706, 4338.270241
 145.826267, 4162.931320
 147.476828, 4061.749521
 149.127389, 3959.428922
 150.777950, 3869.797654
 152.428512, 3794.837216
 154.079073, 3719.060657
 155.729634, 3645.679854
 157.380195, 3582.459477
 159.030756, 3518.572567
 160.681317, 3454.019123
 162.331878, 3397.301200
 163.982439, 3345.681806
 165.633000, 3293.540210
 167.283561, 3240.876412
 168.934122, 3194.087073
 170.584683, 3152.922072
 172.235244, 3111.356825
 173.885805, 3069.391334
 175.536366, 3027.025598
 177.186927, 2993.846015
 178.837489, 2961.920525
 180.488050, 2929.699017
 182.138611, 2897.181490
 183.789172, 2864.367944
 185.439733, 2836.969693
 187.090294, 2815.155658
 188.740855, 2793.148322
 190.391416, 2770.947683
 192.041977, 2748.553743
 193.692538, 2725.966500
 195.343099, 2705.647557
 196.993660, 2693.881714
 198.644221, 2682.016874
 200.294782, 2670.053035
 201.945343, 2657.990199
 203.595904, 2645.828365
 205.246466, 2633.567533
 206.897027, 2621.207703
 208.547588, 2615.687595
 210.198149, 2612.513855
 211.848710, 2609.315096
 213.499271, 2606.091317
 215.149832, 2602.842519
 216.800393, 2599.568701
 218.450954, 2596.269863
 220.101515, 2592.946005
 221.752076, 2589.597127
 223.402637, 2591.514901
 225.053198, 2596.602728
 226.703759, 2601.728006
 228.354320, 2606.890737
 230.004881, 2612.090920
 231.655442, 2617.328554
 233.306004, 2622.603641
 234.956565, 2627.916179
 236.607126, 2633.266169
 238.257687, 2638.653612
 239.908248, 2644.078506
 241.558809, 2651.004918
 243.209370, 2665.355734
 244.859931, 2679.804275
 246.510492, 2694.350540
 248.161053, 2708.994530
 249.811614, 2723.736245
 251.462175, 2738.575684
 253.112736, 2753.512848
 254.763297, 2768.547737
 256.413858, 2783.680350
 258.064419, 2798.910688
 259.714981, 2814.238751
 261.365542, 2829.664538
 263.016103, 2845.188050
 264.666664, 2860.809286
 266.317225, 2877.680339
 267.967786, 2901.124491
 269.618347, 2924.713494
 271.268908, 2948.447349
 272.919469, 2972.326055
 274.570030, 2996.349613
 276.220591, 3020.518022
 277.871152, 3044.831283
 279.521713, 3069.289395
 281.172274, 3093.892359
 282.822835, 3118.640175
 284.473396, 3143.532842
 286.123958, 3168.570361
 287.774519, 3193.752731
 289.425080, 3219.079953
 291.075641, 3244.552026
 292.726202, 3270.168951
 294.376763, 3295.930727
 296.027324, 3321.837355
 297.677885, 3347.888834
 299.328446, 3374.085165
 300.979007, 3402.011777
 302.629568, 3434.495348
 304.280129, 3467.156571
