Range, Altitude
   0.000000,    0.000000
   0.000018,    0.000000
   0.000200,    0.000000
   0.000401,    0.000000
   0.000603,    0.000000
   0.000804,    0.000000
   0.001006,    0.000000
   0.001207,    0.000000
   0.001409,    0.000000
   0.001610,    0.000000
   0.001812,    0.000000
   0.002013,    0.000000
   0.002505,    0.000000
   0.003034,    0.000000
   0.003562,    0.000000
   0.004090,    0.000000
   0.004619,    0.000000
   0.005147,    0.000000
   0.005675,    0.000000
   0.006204,    0.000000
   0.006732,    0.000000
   0.007261,    0.000000
   0.008076,    0.000000
   0.008927,    0.000000
   0.009778,    0.000000
   0.010629,    0.000000
   0.011481,    0.000000
   0.012332,    0.000000
   0.013183,    0.000000
   0.014034,    0.000000
   0.014885,    0.000000
   0.015736,    0.000000
   0.016871,    0.000000
   0.018041,    0.000000
   0.019211,    0.000000
   0.020380,    0.000000
   0.021550,    0.000000
   0.022720,    0.000000
   0.023890,    0.000000
   0.025060,    0.000000
   0.026230,    0.000000
   0.027400,    0.000000
   0.028849,    0.000000
   0.030333,    0.000000
   0.031817,    0.000000
   0.033302,    0.000000
   0.034786,    0.000000
   0.036270,    0.000000
   0.037754,    0.000000
   0.039239,    0.000000
   0.040723,    0.000000
   0.042207,    0.000000
   0.043967,    0.000000
   0.045761,    0.000000
   0.047555,    0.000000
   0.049349,    0.000000
   0.051144,    0.000000
   0.052938,    0.000000
   0.054732,    0.000000
   0.056526,    0.000000
   0.058320,    0.000000
   0.060114,    0.000000
   0.062179,    0.000000
   0.064277,    0.000000
   0.066376,    0.000000
   0.068474,    0.000000
   0.070573,    0.000000
   0.072671,    0.000000
   0.074770,    0.000000
   0.076868,    0.000000
   0.078966,    0.000000
   0.081065,    0.000000
   0.083428,    0.000000
   0.085825,    0.000000
   0.088222,    0.000000
   0.090618,    0.000000
   0.093015,    0.000000
   0.095411,    0.000000
   0.097808,    0.000000
   0.100205,    0.000000
   0.102601,    0.000000
   0.104998,    0.000000
   0.107654,    0.000000
   0.110343,    0.000000
   0.113031,    0.000000
   0.115720,    0.000000
   0.118409,    0.000000
   0.121097,    0.000000
   0.123786,    0.000000
   0.126475,    0.000000
   0.129163,    0.000000
   0.131852,    0.000000
   0.134795,    0.000000
   0.137769,    0.000000
   0.140744,    0.000000
   0.143718,    0.000000
   0.146693,    0.000000
   0.149667,    0.000000
   0.152642,    0.000000
   0.155616,    0.000000
   0.158591,    0.000000
   0.161565,    0.000000
   0.164789,    0.000000
   0.168043,    0.000000
   0.171297,    0.000000
   0.174551,    0.000000
   0.177806,    0.000000
   0.181060,    0.000000
   0.184314,    0.000000
   0.187568,    0.000000
   0.190823,    0.000000
   0.194077,    0.000000
   0.197574,    0.000000
   0.201102,    0.000000
   0.204629,    0.000000
   0.208157,    0.000000
   0.211684,    0.000000
   0.215212,    0.000000
   0.218739,    0.000000
   0.222267,    0.000000
   0.225794,    0.000000
   0.229322,    0.000000
   0.233086,    0.000000
   0.236879,    0.000000
   0.240672,    0.000000
   0.244465,    0.000000
   0.248259,    0.000000
   0.252052,    0.000000
   0.255845,    0.000000
   0.259638,    0.000000
   0.263431,    0.000000
   0.267225,    0.000000
   0.271247,    0.000000
   0.275298,    0.000000
   0.279349,    0.000000
   0.283400,    0.000000
   0.287451,    0.000000
   0.291502,    0.000000
   0.295553,    0.000000
   0.299604,    0.000000
   0.303655,    0.000000
   0.307706,    0.000000
   0.311979,    0.000000
   0.316280,    0.000000
   0.320581,    0.000000
   0.324882,    0.000000
   0.329183,    0.000000
   0.333484,    0.000000
   0.337785,    0.000000
   0.342086,    0.000000
   0.346387,    0.000000
   0.350688,    0.000000
   0.355204,    0.000000
   0.359747,    0.000000
   0.364291,    0.000000
   0.368834,    0.000000
   0.373377,    0.000000
   0.377921,    0.000000
   0.382464,    0.000000
   0.387007,    0.000000
   0.391551,    0.000000
   0.396094,    0.000000
   0.400846,    0.000000
   0.405624,    0.000000
   0.410402,    0.000000
   0.415181,    0.000000
   0.419959,    0.000000
   0.424737,    0.000000
   0.429515,    0.000000
   0.434293,    0.000000
   0.439071,    0.000000
   0.443850,    0.000000
   0.448830,    0.000000
   0.453836,    0.000000
   0.458841,    0.000000
   0.463847,    0.000000
   0.468853,    0.000000
   0.473858,    0.000000
   0.478864,    0.000000
   0.483870,    0.000000
   0.488876,    0.000000
   0.493881,    0.000000
   0.499047,    0.000000
   0.504233,    0.000000
   0.509419,    0.000000
   0.514606,    0.000000
   0.519792,    0.000000
   0.524978,    0.000000
   0.527164,    0.000000
   0.532458,    0.000000
   0.537753,    0.000000
   0.543047,    0.000000
   0.548386,    0.000000
   0.553824,    0.000000
   0.559262,    0.000000
   0.564700,    0.000000
   0.570138,    0.000000
   0.575576,    0.000000
   0.581014,    0.000000
   0.586452,    0.000000
   0.591890,    0.000000
   0.597328,    0.000000
   0.602828,    0.000000
   0.608467,    0.000000
   0.614106,    0.000000
   0.619745,    0.000000
   0.625384,    0.000000
   0.631023,    0.000000
   0.636662,    0.000000
   0.642301,    0.000000
   0.647939,    0.000000
   0.653578,    0.000000
   0.659276,    0.000000
   0.665102,    0.000000
   0.670929,    0.000000
   0.676755,    0.000000
   0.682582,    0.000000
   0.688408,    0.000000
   0.694235,    0.000000
   0.700062,    0.000000
   0.705888,    0.000000
   0.711715,    0.000000
   0.715732,    0.000000
   0.721712,    0.153204
   0.727692,    0.306408
   0.733673,    0.459612
   0.739653,    0.612816
   0.745633,    0.766020
   0.751614,    0.919224
   0.757594,    1.072429
   0.763574,    1.225633
   0.769554,    1.378837
   0.775535,    1.532041
   0.781579,    1.932100
   0.787623,    2.332160
   0.793667,    2.732220
   0.799712,    3.132280
   0.805756,    3.532339
   0.811821,    4.106561
   0.817887,    4.680782
   0.823953,    5.255004
   0.830019,    5.829225
   0.836084,    6.403447
   0.842157,    7.165088
   0.848230,    7.926728
   0.854302,    8.688369
   0.860375,    9.450010
   0.866447,   10.211651
   0.866447,   10.668000
   7.198996,  585.216000
  13.847104, 1159.764000
  20.909742, 1734.312000
  28.705203, 2308.860000
  37.552122, 2883.408000
  47.643297, 3457.956000
  59.260967, 4032.504000
  72.876742, 4607.052000
  89.579057, 5181.600000
  89.579057, 5181.600000
  96.198591, 5181.600000
 102.818125, 5181.600000
 109.437659, 5181.600000
 116.057192, 5181.600000
 122.676726, 5181.600000
 129.296260, 5181.600000
 135.915794, 5181.600000
 142.535327, 5181.600000
 149.154861, 5181.600000
 155.774395, 5181.600000
 162.393928, 5181.600000
 169.013462, 5181.600000
 175.632996, 5181.600000
 182.252530, 5181.600000
 188.872063, 5181.600000
 195.491597, 5181.600000
 202.111131, 5181.600000
 208.730665, 5181.600000
 215.350198, 5181.600000
 221.969732, 5181.600000
 228.589266, 5181.600000
 235.208800, 5181.600000
 241.828333, 5181.600000
 248.447867, 5181.600000
 255.067401, 5181.600000
 261.686935, 5181.600000
 268.306468, 5181.600000
 274.926002, 5181.600000
 281.545536, 5181.600000
 281.545536, 5181.600000
 291.648571, 4656.666667
 301.494385, 4131.733333
 311.058306, 3606.800000
 320.321438, 3081.866667
 329.278544, 2556.933333
 337.909416, 2032.000000
 346.197375, 1507.066667
 354.243462,  982.133333
 362.031168,  457.200000
 362.031168,  457.200000
 365.148059,  745.066667
 368.340472, 1032.933333
 371.609206, 1320.800000
 374.971721, 1608.666667
 378.492279, 1896.533333
 382.229346, 2184.400000
 386.206414, 2472.266667
 390.443997, 2760.133333
 394.960473, 3048.000000
 394.960473, 3048.000000
 404.423332, 3048.000000
 413.886191, 3048.000000
 423.349050, 3048.000000
 432.811909, 3048.000000
 442.274768, 3048.000000
 451.737627, 3048.000000
 461.200486, 3048.000000
 470.663345, 3048.000000
 480.126204, 3048.000000
 480.126204, 3048.000000
 485.188159, 2760.133333
 490.097502, 2472.266667
 494.954527, 2184.400000
 499.761406, 1896.533333
 504.520085, 1608.666667
 509.229886, 1320.800000
 513.890675, 1032.933333
 518.500050,  745.066667
 523.052537,  457.200000
 523.052537,  457.200000
 523.052537,  457.200000
 523.052537,  457.200000
 523.052537,  457.200000
 523.052537,  457.200000
 523.052537,  457.200000
 523.052537,  457.200000
 523.052537,  457.200000
 523.052537,  457.200000
 523.052537,  457.200000
 523.052537,  457.200000
 523.058063,  456.910797
 523.063589,  456.621596
 523.069115,  456.332396
 523.074641,  456.043322
 523.080167,  455.754273
 523.085694,  455.465223
 523.091220,  455.176173
 523.096746,  454.887124
 523.102272,  454.598074
 523.107799,  454.309025
 523.113325,  454.019975
 523.118851,  453.730926
 523.124378,  453.441876
 523.129904,  453.153011
 523.135431,  452.864181
 523.140957,  452.575351
 523.146484,  452.286521
 523.152010,  451.997691
 523.157537,  451.708861
 523.163063,  451.420031
 523.168590,  451.131201
 523.174117,  450.842372
 523.179643,  450.553542
 523.185170,  450.264789
 523.190697,  449.976050
 523.196223,  449.687312
 523.201750,  449.398574
 523.207277,  449.109836
 523.212804,  448.821098
 523.218331,  448.532359
 523.223858,  448.243621
 523.229384,  447.954883
 523.234911,  447.666145
 523.240438,  447.377687
 523.245965,  447.089282
 523.251492,  446.800878
 523.257019,  446.512474
 523.262546,  446.224070
 523.268073,  445.935666
 523.273600,  445.647261
 523.279127,  445.358857
 523.284654,  445.070453
 523.290181,  444.782049
 523.295708,  444.493641
 523.301236,  444.205232
 523.306763,  443.916823
 523.312290,  443.628414
 523.317817,  443.340005
 523.323344,  443.051596
 523.328872,  442.763188
 523.334399,  442.474779
 523.339926,  442.186370
 523.345453,  441.897961
 523.350981,  441.609522
 523.356508,  441.321078
 523.362036,  441.032634
 523.367563,  440.744189
 523.373090,  440.455745
 523.378618,  440.167300
 523.384145,  439.878856
 523.389673,  439.590412
 523.395200,  439.301967
 523.400728,  439.013523
 523.406255,  438.725172
 523.411783,  438.436839
 523.417311,  438.148506
 523.422838,  437.860173
 523.428366,  437.571840
 523.433893,  437.283507
 523.439421,  436.995174
 523.444949,  436.706841
 523.450476,  436.418508
 523.456004,  436.130175
 523.461532,  435.841737
 523.467060,  435.553278
 523.472588,  435.264820
 523.478115,  434.976361
 523.483643,  434.687902
 523.489171,  434.399443
 523.494699,  434.110985
 523.500227,  433.822526
 523.505755,  433.534067
 523.511283,  433.245608
 523.516811,  432.957186
 523.522339,  432.668771
 523.527867,  432.380355
 523.533395,  432.091940
 523.538923,  431.803525
 523.544451,  431.515109
 523.549980,  431.226694
 523.555508,  430.938278
 523.561036,  430.649863
 523.566564,  430.361448
 523.572092,  430.073116
 523.577621,  429.784800
 523.583149,  429.496484
 523.588677,  429.208169
 523.594206,  428.919853
 523.599734,  428.631537
 523.605262,  428.343221
 523.610790,  428.054906
 523.616319,  427.766590
 523.621847,  427.478274
 523.627376,  427.190233
 523.632904,  426.902245
 523.638433,  426.614256
 523.643961,  426.326268
 523.649490,  426.038280
 523.655018,  425.750292
 523.660547,  425.462303
 523.666075,  425.174315
 523.671604,  424.886327
 523.677132,  424.598338
 523.682661,  424.310534
 523.688189,  424.022766
 523.693718,  423.734997
 523.699247,  423.447229
 523.704775,  423.159460
 523.710304,  422.871691
 523.715833,  422.583923
 523.721361,  422.296154
 523.726890,  422.008386
 523.732418,  421.720617
 523.737947,  421.433006
 523.743476,  421.145426
 523.749005,  420.857845
 523.754533,  420.570264
 523.760062,  420.282684
 523.765591,  419.995103
 523.771119,  419.707523
 523.776648,  419.419942
 523.782177,  419.132361
 523.787706,  418.844781
 523.793234,  418.557125
 523.798763,  418.269455
 523.804292,  417.981785
 523.809821,  417.694115
 523.815350,  417.406445
 523.820879,  417.118775
 523.826407,  416.831104
 523.831936,  416.543434
 523.837465,  416.255764
 523.842994,  415.968094
 523.848523,  415.680457
 523.854052,  415.392827
 523.859581,  415.105196
 523.865110,  414.817566
 523.870639,  414.529935
 523.876168,  414.242305
 523.881697,  413.954675
 523.887226,  413.667044
 523.892755,  413.379414
 523.898284,  413.091783
 523.903813,  412.804277
 523.909342,  412.516796
 523.914871,  412.229314
 523.920400,  411.941832
 523.925929,  411.654350
 523.931458,  411.366869
 523.936987,  411.079387
 523.942516,  410.791905
 523.948045,  410.504423
 523.953574,  410.216942
 523.959104,  409.929352
 523.964633,  409.641742
 523.970162,  409.354132
 523.975691,  409.066522
 523.981220,  408.778912
 523.986750,  408.491301
 523.992279,  408.203691
 523.997808,  407.916081
 524.003337,  407.628471
 524.008867,  407.340861
 524.014396,  407.053254
 524.019925,  406.765648
 524.025455,  406.478042
 524.030984,  406.190436
 524.036513,  405.902830
 524.042043,  405.615224
 524.047572,  405.327618
 524.053101,  405.040012
 524.058631,  404.752406
 524.064160,  404.464800
 524.069690,  404.177292
 524.075219,  403.889804
 524.080748,  403.602316
 524.086278,  403.314827
 524.091807,  403.027339
 524.097337,  402.739851
 524.102866,  402.452363
 524.108396,  402.164874
 524.113925,  401.877386
 524.119455,  401.589898
 524.124984,  401.302283
 524.130514,  401.014643
 524.136044,  400.727003
 524.141573,  400.439364
 524.147103,  400.151724
 524.152632,  399.864084
 524.158162,  399.576444
 524.163692,  399.288805
 524.169221,  399.001165
 524.174751,  398.713525
 524.180281,  398.425876
 524.185811,  398.138225
 524.191340,  397.850574
 524.196870,  397.562922
 524.202400,  397.275271
 524.207930,  396.987620
 524.213460,  396.699969
 524.218989,  396.412318
 524.224519,  396.124667
 524.230049,  395.837015
 524.235579,  395.549457
 524.241109,  395.261917
 524.246639,  394.974377
 524.252169,  394.686836
 524.257699,  394.399296
 524.263228,  394.111756
 524.268758,  393.824216
 524.274288,  393.536676
 524.279818,  393.249135
 524.285348,  392.961595
 524.290878,  392.673929
 524.296408,  392.386239
 524.301939,  392.098549
 524.307469,  391.810859
 524.312999,  391.523169
 524.318529,  391.235479
 524.324059,  390.947788
 524.329589,  390.660098
 524.335119,  390.372408
 524.340649,  390.084718
 524.346180,  389.797026
 524.351710,  389.509335
 524.357240,  389.221643
 524.362771,  388.933951
 524.368301,  388.646259
 524.373831,  388.358568
 524.379362,  388.070876
 524.384892,  387.783184
 524.390422,  387.495492
 524.395952,  387.207800
 524.401483,  386.920217
 524.407013,  386.632654
 524.412544,  386.345090
 524.418074,  386.057527
 524.423605,  385.769964
 524.429135,  385.482401
 524.434666,  385.194838
 524.440196,  384.907275
 524.445727,  384.619712
 524.451257,  384.332149
 524.456788,  384.044479
 524.462318,  383.756788
 524.467849,  383.469097
 524.473380,  383.181406
 524.478910,  382.893715
 524.484441,  382.606024
 524.489972,  382.318333
 524.495502,  382.030642
 524.501033,  381.742951
 524.506564,  381.455260
 524.512095,  381.167591
 524.517626,  380.879925
 524.523156,  380.592260
 524.528687,  380.304594
 524.534218,  380.016928
 524.539749,  379.729263
 524.545280,  379.441597
 524.550811,  379.153932
 524.556342,  378.866266
 524.561873,  378.578601
 524.567404,  378.291068
 524.572935,  378.003560
 524.578466,  377.716053
 524.583997,  377.428545
 524.589528,  377.141038
 524.595059,  376.853530
 524.600590,  376.566023
 524.606121,  376.278515
 524.611652,  375.991008
 524.617183,  375.703501
 524.622714,  375.415911
 524.628245,  375.128305
 524.633777,  374.840699
 524.639308,  374.553093
 524.644839,  374.265488
 524.650370,  373.977882
 524.655901,  373.690276
 524.661433,  373.402670
 524.666964,  373.115064
 524.672495,  372.827459
 524.678027,  372.539898
 524.683558,  372.252346
 524.689089,  371.964793
 524.694621,  371.677241
 524.700152,  371.389689
 524.705684,  371.102137
 524.711215,  370.814585
 524.716747,  370.527032
 524.722278,  370.239480
 524.727809,  369.951928
 524.733341,  369.664309
 524.738873,  369.376677
 524.744404,  369.089046
 524.749936,  368.801414
 524.755467,  368.513783
 524.760999,  368.226151
 524.766531,  367.938519
 524.772062,  367.650888
 524.777594,  367.363256
 524.783126,  367.075624
 524.788657,  366.787630
 524.794189,  366.499566
 524.799721,  366.211502
 524.805253,  365.923438
 524.810785,  365.635374
 524.816317,  365.347310
 524.821849,  365.059245
 524.827381,  364.771181
 524.832913,  364.483117
 524.838445,  364.195053
 524.843977,  363.907114
 524.849509,  363.619198
 524.855042,  363.331283
 524.860574,  363.043367
 524.866106,  362.755452
 524.871638,  362.467536
 524.877171,  362.179621
 524.882703,  361.891705
 524.888235,  361.603790
 524.893767,  361.315874
 524.899300,  361.028135
 524.904832,  360.740430
 524.910365,  360.452725
 524.915897,  360.165020
 524.921429,  359.877315
 524.926962,  359.589610
 524.932494,  359.301905
 524.938027,  359.014200
 524.943559,  358.726495
 524.949092,  358.438790
 524.954624,  358.151216
 524.960157,  357.863668
 524.965690,  357.576119
 524.971222,  357.288571
 524.976755,  357.001022
 524.982288,  356.713474
 524.987820,  356.425926
 524.993353,  356.138377
 524.998886,  355.850829
 525.004418,  355.563280
 525.009951,  355.275659
 525.015484,  354.988025
 525.021017,  354.700390
 525.026550,  354.412755
 525.032083,  354.125120
 525.037616,  353.837485
 525.043149,  353.549851
 525.048681,  353.262216
 525.054214,  352.974581
 525.059747,  352.686946
 525.065280,  352.399377
 525.070813,  352.111821
 525.076347,  351.824265
 525.081880,  351.536709
 525.087413,  351.249153
 525.092946,  350.961597
 525.098479,  350.674040
 525.104012,  350.386484
 525.109545,  350.098928
 525.115079,  349.811372
 525.120612,  349.523923
 525.126145,  349.236494
 525.131678,  348.949066
 525.137212,  348.661638
 525.142745,  348.374209
 525.148279,  348.086781
 525.153812,  347.799352
 525.159345,  347.511924
 525.164879,  347.224496
 525.170412,  346.937067
 525.175945,  346.649931
 525.181479,  346.362851
 525.187012,  346.075772
 525.192546,  345.788692
 525.198079,  345.501612
 525.203613,  345.214532
 525.209146,  344.927453
 525.214680,  344.640373
 525.220213,  344.353293
 525.225747,  344.066214
 525.231280,  343.779327
 525.236814,  343.492477
 525.242348,  343.205628
 525.247881,  342.918778
 525.253415,  342.631929
 525.258948,  342.345079
 525.264482,  342.058229
 525.270016,  341.771380
 525.275549,  341.484530
 525.281083,  341.197681
 525.286616,  340.910989
 525.292150,  340.624328
 525.297684,  340.337667
 525.303217,  340.051005
 525.308751,  339.764344
 525.314285,  339.477683
 525.319818,  339.191022
 525.325352,  338.904360
 525.330886,  338.617699
 525.336420,  338.331038
 525.341953,  338.044292
 525.347487,  337.757529
 525.353021,  337.470767
 525.358555,  337.184004
 525.364088,  336.897242
 525.369622,  336.610479
 525.375156,  336.323717
 525.380690,  336.036954
 525.386224,  335.750192
 525.391757,  335.463429
 525.397291,  335.176684
 525.402825,  334.889943
 525.408359,  334.603201
 525.413893,  334.316459
 525.419427,  334.029718
 525.424961,  333.742976
 525.430495,  333.456235
 525.436029,  333.169493
 525.441563,  332.882752
 525.447097,  332.596010
 525.452631,  332.309372
 525.458165,  332.022754
 525.463699,  331.736136
 525.469233,  331.449519
 525.474767,  331.162901
 525.480301,  330.876283
 525.485835,  330.589665
 525.491369,  330.303047
 525.496903,  330.016429
 525.502437,  329.729811
 525.507971,  329.443059
 525.513505,  329.156282
 525.519039,  328.869504
 525.524573,  328.582727
 525.530107,  328.295949
 525.535642,  328.009171
 525.541176,  327.722394
 525.546710,  327.435616
 525.552244,  327.148839
 525.557778,  326.862061
 525.563312,  326.575259
 525.568847,  326.288452
 525.574381,  326.001645
 525.579915,  325.714838
 525.585450,  325.428031
 525.590984,  325.141224
 525.596518,  324.854417
 525.602053,  324.567610
 525.607587,  324.280803
 525.613121,  323.993996
 525.618655,  323.707498
 525.624190,  323.421059
 525.629724,  323.134620
 525.635259,  322.848182
 525.640793,  322.561743
 525.646327,  322.275304
 525.651862,  321.988865
 525.657396,  321.702427
 525.662931,  321.415988
 525.668465,  321.129549
 525.673999,  320.843297
 525.679534,  320.557081
 525.685068,  320.270865
 525.690603,  319.984649
 525.696137,  319.698433
 525.701671,  319.412217
 525.707206,  319.126002
 525.712740,  318.839786
 525.718275,  318.553570
 525.723809,  318.267354
 525.729344,  317.981269
 525.734878,  317.695209
 525.740412,  317.409149
 525.745947,  317.123090
 525.751481,  316.837030
 525.757016,  316.550970
 525.762550,  316.264911
 525.768085,  315.978851
 525.773619,  315.692791
 525.779153,  315.406731
 525.784688,  315.120541
 525.790222,  314.834326
 525.795757,  314.548110
 525.801291,  314.261895
 525.806826,  313.975679
 525.812360,  313.689464
 525.817895,  313.403249
 525.823429,  313.117033
 525.828964,  312.830818
 525.834498,  312.544602
 525.840033,  312.258344
 525.845568,  311.972078
 525.851102,  311.685812
 525.856637,  311.399546
 525.862171,  311.113280
 525.867706,  310.827014
 525.873241,  310.540748
 525.878775,  310.254482
 525.884310,  309.968216
 525.889844,  309.681950
 525.895379,  309.395671
 525.900914,  309.109390
 525.906448,  308.823108
 525.911983,  308.536827
 525.917518,  308.250545
 525.923052,  307.964264
 525.928587,  307.677982
 525.934122,  307.391701
 525.939656,  307.105419
 525.945191,  306.819138
 525.950726,  306.532701
 525.956260,  306.246233
 525.961795,  305.959766
 525.967330,  305.673299
 525.972865,  305.386832
 525.978400,  305.100365
 525.983934,  304.813897
 525.989469,  304.527430
 525.995004,  304.240963
 526.000539,  303.954496
 526.006074,  303.668170
 526.011609,  303.381872
 526.017143,  303.095573
 526.022678,  302.809275
 526.028213,  302.522976
 526.033748,  302.236678
 526.039283,  301.950379
 526.044818,  301.664081
 526.050353,  301.377782
 526.055888,  301.091484
 526.061423,  300.805085
 526.066958,  300.518666
 526.072493,  300.232247
 526.078028,  299.945828
 526.083563,  299.659409
 526.089098,  299.372990
 526.094633,  299.086571
 526.100168,  298.800152
 526.105703,  298.513733
 526.111238,  298.227314
 526.116773,  297.940900
 526.122308,  297.654485
 526.127843,  297.368071
 526.133379,  297.081657
 526.138914,  296.795243
 526.144449,  296.508829
 526.149984,  296.222415
 526.155519,  295.936001
 526.161054,  295.649587
 526.166589,  295.363173
 526.172125,  295.076853
 526.177660,  294.790550
 526.183195,  294.504248
 526.188730,  294.217945
 526.194266,  293.931643
 526.199801,  293.645340
 526.205336,  293.359038
 526.210872,  293.072735
 526.216407,  292.786433
 526.221942,  292.500130
 526.227477,  292.213686
 526.233013,  291.927215
 526.238548,  291.640743
 526.244084,  291.354272
 526.249619,  291.067801
 526.255155,  290.781329
 526.260690,  290.494858
 526.266225,  290.208386
 526.271761,  289.921915
 526.277296,  289.635444
 526.282832,  289.348944
 526.288367,  289.062439
 526.293903,  288.775934
 526.299439,  288.489430
 526.304974,  288.202925
 526.310510,  287.916420
 526.316045,  287.629915
 526.321581,  287.343410
 526.327117,  287.056905
 526.332652,  286.770400
 526.338188,  286.484206
 526.343723,  286.198071
 526.349259,  285.911936
 526.354795,  285.625801
 526.360331,  285.339667
 526.365866,  285.053532
 526.371402,  284.767397
 526.376938,  284.481262
 526.382473,  284.195128
 526.388009,  283.908993
 526.393545,  283.623050
 526.399080,  283.337144
 526.404616,  283.051237
 526.410152,  282.765331
 526.415688,  282.479425
 526.421223,  282.193519
 526.426759,  281.907613
 526.432295,  281.621706
 526.437831,  281.335800
 526.443366,  281.049894
 526.448902,  280.764126
 526.454438,  280.478386
 526.459974,  280.192645
 526.465510,  279.906904
 526.471045,  279.621163
 526.476581,  279.335422
 526.482117,  279.049682
 526.487653,  278.763941
 526.493188,  278.478200
 526.498724,  278.192459
 526.504260,  277.906597
 526.509796,  277.620712
 526.515332,  277.334826
 526.520868,  277.048940
 526.526403,  276.763055
 526.531939,  276.477169
 526.537475,  276.191284
 526.543011,  275.905398
 526.548547,  275.619513
 526.554083,  275.333627
 526.559619,  275.047711
 526.565155,  274.761788
 526.570690,  274.475866
 526.576226,  274.189943
 526.581762,  273.904021
 526.587298,  273.618099
 526.592834,  273.332176
 526.598370,  273.046254
 526.603906,  272.760331
 526.609442,  272.474409
 526.614978,  272.188486
 526.620514,  271.902563
 526.626050,  271.616640
 526.631586,  271.330718
 526.637122,  271.044795
 526.642658,  270.758872
 526.648194,  270.472949
 526.653730,  270.187026
 526.659266,  269.901103
 526.664802,  269.615181
 526.670338,  269.329114
 526.675875,  269.043020
 526.681411,  268.756927
 526.686947,  268.470833
 526.692483,  268.184739
 526.698019,  267.898645
 526.703556,  267.612551
 526.709092,  267.326457
 526.714628,  267.040363
 526.720164,  266.754269
 526.725700,  266.468330
 526.731237,  266.182420
 526.736773,  265.896510
 526.742309,  265.610600
 526.747845,  265.324690
 526.753382,  265.038780
 526.758918,  264.752870
 526.764454,  264.466961
 526.769990,  264.181051
 526.775527,  263.895141
 526.781063,  263.609140
 526.786599,  263.323122
 526.792136,  263.037104
 526.797672,  262.751086
 526.803209,  262.465068
 526.808745,  262.179050
 526.814281,  261.893031
 526.819818,  261.607013
 526.825354,  261.320995
 526.830891,  261.034977
 526.836427,  260.748971
 526.841964,  260.462967
 526.847500,  260.176963
 526.853037,  259.890960
 526.858573,  259.604956
 526.864110,  259.318952
 526.869646,  259.032949
 526.875183,  258.746945
 526.880719,  258.460941
 526.886256,  258.174937
 526.891792,  257.889032
 526.897329,  257.603146
 526.902866,  257.317260
 526.908402,  257.031374
 526.913939,  256.745488
 526.919476,  256.459602
 526.925012,  256.173716
 526.930549,  255.887830
 526.936085,  255.601944
 526.941622,  255.316057
 526.947159,  255.030030
 526.952696,  254.743976
 526.958232,  254.457921
 526.963769,  254.171867
 526.969306,  253.885812
 526.974843,  253.599758
 526.980379,  253.313703
 526.985916,  253.027649
 526.991453,  252.741594
 526.996990,  252.455540
 527.002527,  252.169454
 527.008064,  251.883362
 527.013600,  251.597270
 527.019137,  251.311178
 527.024674,  251.025085
 527.030211,  250.738993
 527.035748,  250.452901
 527.041285,  250.166809
 527.046822,  249.880717
 527.052359,  249.594625
 527.057896,  249.308837
 527.063433,  249.023108
 527.068970,  248.737379
 527.074507,  248.451650
 527.080044,  248.165921
 527.085581,  247.880192
 527.091118,  247.594462
 527.096655,  247.308733
 527.102192,  247.023004
 527.107729,  246.737275
 527.113266,  246.451728
 527.118803,  246.166215
 527.124340,  245.880703
 527.129878,  245.595191
 527.135415,  245.309679
 527.140952,  245.024167
 527.146489,  244.738654
 527.152026,  244.453142
 527.157563,  244.167630
 527.163100,  243.882118
 527.168637,  243.596731
 527.174174,  243.311369
 527.179711,  243.026006
 527.185248,  242.740644
 527.190785,  242.455281
 527.196323,  242.169919
 527.201860,  241.884556
 527.207397,  241.599194
 527.212934,  241.313831
 527.218471,  241.028469
 527.224008,  240.742968
 527.229545,  240.457441
 527.235082,  240.171914
 527.240620,  239.886386
 527.246157,  239.600859
 527.251694,  239.315332
 527.257231,  239.029805
 527.262768,  238.744277
 527.268306,  238.458750
 527.273843,  238.173223
 527.279380,  237.887646
 527.284917,  237.602060
 527.290455,  237.316474
 527.295992,  237.030888
 527.301529,  236.745302
 527.307066,  236.459715
 527.312604,  236.174129
 527.318141,  235.888543
 527.323678,  235.602957
 527.329215,  235.317371
 527.334753,  235.031765
 527.340290,  234.746155
 527.345827,  234.460546
 527.351365,  234.174936
 527.356902,  233.889327
 527.362439,  233.603717
 527.367977,  233.318108
 527.373514,  233.032498
 527.379051,  232.746889
 527.384589,  232.461279
 527.390126,  232.175506
 527.395664,  231.889702
 527.401201,  231.603897
 527.406739,  231.318092
 527.412276,  231.032287
 527.417814,  230.746483
 527.423351,  230.460678
 527.428889,  230.174873
 527.434426,  229.889068
 527.439964,  229.603264
 527.445501,  229.317595
 527.451039,  229.031953
 527.456577,  228.746310
 527.462114,  228.460668
 527.467652,  228.175026
 527.473189,  227.889383
 527.478727,  227.603741
 527.484265,  227.318099
 527.489802,  227.032456
 527.495340,  226.746814
 527.500878,  226.461064
 527.506415,  226.175293
 527.511953,  225.889521
 527.517491,  225.603750
 527.523029,  225.317979
 527.528566,  225.032208
 527.534104,  224.746437
 527.539642,  224.460665
 527.545180,  224.174894
 527.550717,  223.889123
 527.556255,  223.603350
 527.561793,  223.317576
 527.567331,  223.031802
 527.572869,  222.746029
 527.578407,  222.460255
 527.583945,  222.174481
 527.589483,  221.888708
 527.595020,  221.602934
 527.600558,  221.317161
 527.606096,  221.031387
 527.611634,  220.745702
 527.617172,  220.460033
 527.622710,  220.174365
 527.628248,  219.888697
 527.633786,  219.603029
 527.639324,  219.317361
 527.644862,  219.031693
 527.650400,  218.746024
 527.655938,  218.460356
 527.661476,  218.174688
 527.667014,  217.888871
 527.672553,  217.603026
 527.678091,  217.317181
 527.683629,  217.031336
 527.689167,  216.745490
 527.694705,  216.459645
 527.700243,  216.173800
 527.705782,  215.887955
 527.711320,  215.602109
 527.716858,  215.316264
 527.722396,  215.030385
 527.727935,  214.744499
 527.733473,  214.458613
 527.739011,  214.172727
 527.744550,  213.886841
 527.750088,  213.600955
 527.755626,  213.315070
 527.761165,  213.029184
 527.766703,  212.743298
 527.772242,  212.457412
 527.777780,  212.171833
 527.783318,  211.886314
 527.788857,  211.600795
 527.794395,  211.315275
 527.799934,  211.029756
 527.805472,  210.744237
 527.811011,  210.458717
 527.816549,  210.173198
 527.822088,  209.887678
 527.827626,  209.602159
 527.833165,  209.316828
 527.838703,  209.031533
 527.844242,  208.746238
 527.849780,  208.460944
 527.855319,  208.175649
 527.860857,  207.890354
 527.866396,  207.605059
 527.871934,  207.319764
 527.877473,  207.034470
 527.883012,  206.749175
 527.888550,  206.464015
 527.894089,  206.178881
 527.899627,  205.893748
 527.905166,  205.608614
 527.910704,  205.323480
 527.916243,  205.038346
 527.921782,  204.753213
 527.927320,  204.468079
 527.932859,  204.182945
 527.938397,  203.897812
 527.943936,  203.612551
 527.949475,  203.327266
 527.955013,  203.041980
 527.960552,  202.756695
 527.966091,  202.471410
 527.971629,  202.186125
 527.977168,  201.900839
 527.982707,  201.615554
 527.988245,  201.330269
 527.993784,  201.044984
 527.999323,  200.759662
 528.004861,  200.474334
 528.010400,  200.189006
 528.015939,  199.903677
 528.021478,  199.618349
 528.027016,  199.333021
 528.032555,  199.047692
 528.038094,  198.762364
 528.043633,  198.477035
 528.049172,  198.191707
 528.054710,  197.906373
 528.060249,  197.621039
 528.065788,  197.335704
 528.071327,  197.050370
 528.076866,  196.765035
 528.082405,  196.479700
 528.087943,  196.194366
 528.093482,  195.909031
 528.099021,  195.623696
 528.104560,  195.338362
 528.110099,  195.052877
 528.115638,  194.767363
 528.121177,  194.481850
 528.126716,  194.196336
 528.132255,  193.910822
 528.137794,  193.625309
 528.143333,  193.339795
 528.148872,  193.054282
 528.154411,  192.768768
 528.159950,  192.483254
 528.165489,  192.197891
 528.171028,  191.912556
 528.176567,  191.627221
 528.182107,  191.341887
 528.187646,  191.056552
 528.193185,  190.771218
 528.198724,  190.485883
 528.204263,  190.200548
 528.209802,  189.915214
 528.215341,  189.629879
 528.220880,  189.344448
 528.226420,  189.058998
 528.231959,  188.773547
 528.237498,  188.488097
 528.243037,  188.202647
 528.248577,  187.917197
 528.254116,  187.631747
 528.259655,  187.346297
 528.265194,  187.060847
 528.270734,  186.775396
 528.276273,  186.489953
 528.281812,  186.204512
 528.287352,  185.919070
 528.292891,  185.633629
 528.298431,  185.348187
 528.303970,  185.062746
 528.309509,  184.777304
 528.315049,  184.491862
 528.320588,  184.206421
 528.326128,  183.920979
 528.331667,  183.635633
 528.337207,  183.350305
 528.342746,  183.064977
 528.348286,  182.779649
 528.353825,  182.494321
 528.359365,  182.208993
 528.364904,  181.923665
 528.370444,  181.638336
 528.375983,  181.353008
 528.381523,  181.067680
 528.387062,  180.782207
 528.392602,  180.496705
 528.398142,  180.211203
 528.403681,  179.925701
 528.409221,  179.640199
 528.414761,  179.354697
 528.420300,  179.069195
 528.425840,  178.783693
 528.431380,  178.498191
 528.436919,  178.212689
 528.442459,  177.927153
 528.447999,  177.641610
 528.453539,  177.356067
 528.459079,  177.070525
 528.464618,  176.784982
 528.470158,  176.499439
 528.475698,  176.213896
 528.481238,  175.928354
 528.486778,  175.642811
 528.492318,  175.357268
 528.497858,  175.072031
 528.503398,  174.786853
 528.508937,  174.501675
 528.514477,  174.216496
 528.520017,  173.931318
 528.525557,  173.646140
 528.531097,  173.360961
 528.536637,  173.075783
 528.542177,  172.790605
 528.547717,  172.505427
 528.553257,  172.220431
 528.558797,  171.935472
 528.564337,  171.650512
 528.569877,  171.365552
 528.575417,  171.080593
 528.580957,  170.795633
 528.586497,  170.510673
 528.592037,  170.225713
 528.597577,  169.940754
 528.603117,  169.655794
 528.608657,  169.370962
 528.614197,  169.086154
 528.619737,  168.801347
 528.625277,  168.516539
 528.630817,  168.231732
 528.636357,  167.946924
 528.641898,  167.662116
 528.647438,  167.377309
 528.652978,  167.092501
 528.658518,  166.807694
 528.664058,  166.522749
 528.669598,  166.237777
 528.675138,  165.952806
 528.680678,  165.667835
 528.686218,  165.382863
 528.691759,  165.097892
 528.697299,  164.812921
 528.702839,  164.527949
 528.708379,  164.242978
 528.713919,  163.958006
 528.719459,  163.672988
 528.725000,  163.387960
 528.730540,  163.102933
 528.736080,  162.817905
 528.741620,  162.532878
 528.747160,  162.247850
 528.752701,  161.962823
 528.758241,  161.677795
 528.763781,  161.392768
 528.769321,  161.107740
 528.774862,  160.822696
 528.780402,  160.537649
 528.785942,  160.252602
 528.791483,  159.967555
 528.797023,  159.682508
 528.802563,  159.397461
 528.808104,  159.112414
 528.813644,  158.827367
 528.819184,  158.542319
 528.824725,  158.257272
 528.830265,  157.972064
 528.835806,  157.686824
 528.841346,  157.401585
 528.846887,  157.116345
 528.852427,  156.831105
 528.857968,  156.545866
 528.863508,  156.260626
 528.869049,  155.975386
 528.874589,  155.690147
 528.880130,  155.404907
 528.885670,  155.119808
 528.891211,  154.834737
 528.896752,  154.549665
 528.902292,  154.264594
 528.907833,  153.979522
 528.913373,  153.694451
 528.918914,  153.409379
 528.924455,  153.124308
 528.929995,  152.839236
 528.935536,  152.554165
 528.941077,  152.268988
 528.946617,  151.983791
 528.952158,  151.698593
 528.957699,  151.413396
 528.963240,  151.128199
 528.968780,  150.843002
 528.974321,  150.557804
 528.979862,  150.272607
 528.985403,  149.987410
 528.990943,  149.702213
 528.996484,  149.417016
 529.002025,  149.131820
 529.007566,  148.846624
 529.013107,  148.561428
 529.018648,  148.276232
 529.024189,  147.991036
 529.029730,  147.705840
 529.035271,  147.420644
 529.040812,  147.135448
 529.046353,  146.850252
 529.051894,  146.565147
 529.057435,  146.280060
 529.062976,  145.994974
 529.068517,  145.709887
 529.074058,  145.424800
 529.079599,  145.139713
 529.085140,  144.854627
 529.090681,  144.569540
 529.096222,  144.284453
 529.101763,  143.999366
 529.107304,  143.714132
 529.112845,  143.428868
 529.118387,  143.143605
 529.123928,  142.858342
 529.129469,  142.573079
 529.135010,  142.287815
 529.140551,  142.002552
 529.146093,  141.717289
 529.151634,  141.432026
 529.157175,  141.146763
 529.162716,  140.861466
 529.168258,  140.576163
 529.173799,  140.290860
 529.179341,  140.005557
 529.184882,  139.720253
 529.190424,  139.434950
 529.195965,  139.149647
 529.201506,  138.864344
 529.207048,  138.579041
 529.212589,  138.293738
 529.218131,  138.008745
 529.223672,  137.723811
 529.229214,  137.438878
 529.234755,  137.153944
 529.240297,  136.869011
 529.245838,  136.584077
 529.251380,  136.299144
 529.256921,  136.014210
 529.262463,  135.729276
 529.268004,  135.444343
 529.273546,  135.159598
 529.279088,  134.874890
 529.284629,  134.590182
 529.290171,  134.305474
 529.295712,  134.020766
 529.301254,  133.736058
 529.306796,  133.451350
 529.312337,  133.166642
 529.317879,  132.881934
 529.323420,  132.597226
 529.328962,  132.312653
 529.334504,  132.028105
 529.340045,  131.743558
 529.345587,  131.459010
 529.351129,  131.174463
 529.356670,  130.889915
 529.362212,  130.605368
 529.367753,  130.320820
 529.373295,  130.036273
 529.378837,  129.751726
 529.384378,  129.467048
 529.389920,  129.182345
 529.395462,  128.897642
 529.401004,  128.612939
 529.406545,  128.328236
 529.412087,  128.043534
 529.417629,  127.758831
 529.423171,  127.474128
 529.428712,  127.189425
 529.434254,  126.904722
 529.439796,  126.619980
 529.445338,  126.335231
 529.450880,  126.050481
 529.456422,  125.765732
 529.461963,  125.480982
 529.467505,  125.196233
 529.473047,  124.911483
 529.478589,  124.626733
 529.484131,  124.341984
 529.489673,  124.057234
 529.495215,  123.772477
 529.500756,  123.487717
 529.506298,  123.202958
 529.511840,  122.918198
 529.517382,  122.633439
 529.522924,  122.348679
 529.528466,  122.063920
 529.534008,  121.779160
 529.539550,  121.494401
 529.545092,  121.209641
 529.550634,  120.924727
 529.556176,  120.639784
 529.561718,  120.354840
 529.567260,  120.069896
 529.572803,  119.784953
 529.578345,  119.500009
 529.583887,  119.215065
 529.589429,  118.930121
 529.594971,  118.645178
 529.600513,  118.360234
 529.606055,  118.075438
 529.611598,  117.790671
 529.617140,  117.505904
 529.622682,  117.221137
 529.628224,  116.936371
 529.633767,  116.651604
 529.639309,  116.366837
 529.644851,  116.082070
 529.650393,  115.797303
 529.655935,  115.512536
 529.661478,  115.227668
 529.667020,  114.942781
 529.672563,  114.657894
 529.678105,  114.373007
 529.683647,  114.088121
 529.689190,  113.803234
 529.694732,  113.518347
 529.700274,  113.233460
 529.705817,  112.948573
 529.711359,  112.663686
 529.716902,  112.378804
 529.722444,  112.093922
 529.727987,  111.809041
 529.733529,  111.524160
 529.739072,  111.239278
 529.744614,  110.954397
 529.750157,  110.669516
 529.755699,  110.384634
 529.761242,  110.099753
 529.766784,  109.814872
 529.772327,  109.530084
 529.777870,  109.245315
 529.783412,  108.960545
 529.788955,  108.675776
 529.794498,  108.391007
 529.800040,  108.106237
 529.805583,  107.821468
 529.811126,  107.536699
 529.816668,  107.251929
 529.822211,  106.967160
 529.827754,  106.682242
 529.833297,  106.397296
 529.838839,  106.112349
 529.844382,  105.827403
 529.849925,  105.542456
 529.855468,  105.257510
 529.861011,  104.972563
 529.866554,  104.687617
 529.872096,  104.402670
 529.877639,  104.117724
 529.883182,  103.832742
 529.888725,  103.547754
 529.894268,  103.262765
 529.899811,  102.977776
 529.905354,  102.692788
 529.910897,  102.407799
 529.916440,  102.122811
 529.921983,  101.837822
 529.927526,  101.552834
 529.933069,  101.267845
 529.938613,  100.983164
 529.944156,  100.698543
 529.949699,  100.413921
 529.955242,  100.129300
 529.960785,   99.844679
 529.966328,   99.560057
 529.971871,   99.275436
 529.977415,   98.990815
 529.982958,   98.706193
 529.988501,   98.421572
 529.994044,   98.137136
 529.999587,   97.852735
 530.005130,   97.568335
 530.010674,   97.283934
 530.016217,   96.999534
 530.021760,   96.715133
 530.027303,   96.430733
 530.032847,   96.146332
 530.038390,   95.861932
 530.043933,   95.577531
 530.049476,   95.293260
 530.055019,   95.009014
 530.060563,   94.724769
 530.066106,   94.440523
 530.071649,   94.156277
 530.077192,   93.872031
 530.082736,   93.587785
 530.088279,   93.303539
 530.093822,   93.019293
 530.099366,   92.735047
 530.104909,   92.450665
 530.110452,   92.166255
 530.115996,   91.881846
 530.121539,   91.597437
 530.127082,   91.313027
 530.132626,   91.028618
 530.138169,   90.744209
 530.143712,   90.459799
 530.149256,   90.175390
 530.154799,   89.890981
 530.160343,   89.606526
 530.165886,   89.322062
 530.171430,   89.037598
 530.176973,   88.753134
 530.182516,   88.468670
 530.188060,   88.184206
 530.193603,   87.899743
 530.199147,   87.615279
 530.204690,   87.330815
 530.210234,   87.046351
 530.215777,   86.761873
 530.221321,   86.477391
 530.226865,   86.192910
 530.232408,   85.908429
 530.237952,   85.623948
 530.243495,   85.339467
 530.249039,   85.054986
 530.254582,   84.770504
 530.260126,   84.486023
 530.265670,   84.201542
 530.271213,   83.916900
 530.276757,   83.632227
 530.282301,   83.347554
 530.287845,   83.062881
 530.293388,   82.778208
 530.298932,   82.493535
 530.304476,   82.208862
 530.310020,   81.924189
 530.315563,   81.639516
 530.321107,   81.354844
 530.326651,   81.070315
 530.332195,   80.785813
 530.337739,   80.501312
 530.343283,   80.216811
 530.348826,   79.932310
 530.354370,   79.647809
 530.359914,   79.363308
 530.365458,   79.078807
 530.371002,   78.794306
 530.376546,   78.509804
 530.382090,   78.225199
 530.387634,   77.940573
 530.393178,   77.655947
 530.398722,   77.371321
 530.404266,   77.086695
 530.409810,   76.802069
 530.415354,   76.517443
 530.420898,   76.232817
 530.426442,   75.948191
 530.431986,   75.663565
 530.437530,   75.378941
 530.443075,   75.094318
 530.448619,   74.809695
 530.454163,   74.525072
 530.459707,   74.240449
 530.465251,   73.955826
 530.470796,   73.671203
 530.476340,   73.386579
 530.481884,   73.101956
 530.487428,   72.817333
 530.492972,   72.532803
 530.498517,   72.248291
 530.504061,   71.963779
 530.509605,   71.679268
 530.515150,   71.394756
 530.520694,   71.110244
 530.526238,   70.825732
 530.531783,   70.541220
 530.537327,   70.256708
 530.542871,   69.972196
 530.548416,   69.687536
 530.553960,   69.402847
 530.559505,   69.118157
 530.565050,   68.833468
 530.570594,   68.548779
 530.576139,   68.264089
 530.581683,   67.979400
 530.587228,   67.694711
 530.592772,   67.410022
 530.598317,   67.125332
 530.603861,   66.840609
 530.609406,   66.555880
 530.614951,   66.271150
 530.620495,   65.986420
 530.626040,   65.701691
 530.631585,   65.416961
 530.637130,   65.132232
 530.642674,   64.847502
 530.648219,   64.562772
 530.653764,   64.278043
 530.659309,   63.993625
 530.664853,   63.709267
 530.670398,   63.424910
 530.675943,   63.140552
 530.681488,   62.856195
 530.687033,   62.571837
 530.692578,   62.287479
 530.698122,   62.003122
 530.703667,   61.718764
 530.709212,   61.434407
 530.714757,   61.150239
 530.720302,   60.866107
 530.725847,   60.581976
 530.731392,   60.297844
 530.736937,   60.013713
 530.742482,   59.729582
 530.748027,   59.445450
 530.753572,   59.161319
 530.759116,   58.877187
 530.764661,   58.593056
 530.770206,   58.309059
 530.775751,   58.025088
 530.781296,   57.741117
 530.786841,   57.457146
 530.792386,   57.173175
 530.797931,   56.889203
 530.803476,   56.605232
 530.809021,   56.321261
 530.814566,   56.037290
 530.820111,   55.753319
 530.825656,   55.469215
 530.831201,   55.185085
 530.836746,   54.900956
 530.842291,   54.616826
 530.847837,   54.332696
 530.853382,   54.048567
 530.858927,   53.764437
 530.864472,   53.480307
 530.870017,   53.196177
 530.875562,   52.912048
 530.881107,   52.627877
 530.886652,   52.343698
 530.892198,   52.059519
 530.897743,   51.775340
 530.903288,   51.491161
 530.908833,   51.206982
 530.914378,   50.922803
 530.919924,   50.638624
 530.925469,   50.354445
 530.931014,   50.070266
 530.936559,   49.786077
 530.942105,   49.501886
 530.947650,   49.217695
 530.953195,   48.933503
 530.958741,   48.649312
 530.964286,   48.365121
 530.969831,   48.080930
 530.975376,   47.796739
 530.980922,   47.512547
 530.986467,   47.228356
 530.992013,   46.944007
 530.997558,   46.659628
 531.003103,   46.375249
 531.008649,   46.090870
 531.014194,   45.806490
 531.019740,   45.522111
 531.025285,   45.237732
 531.030831,   44.953353
 531.036376,   44.668973
 531.041922,   44.384594
 531.047468,   44.100363
 531.053013,   43.816160
 531.058559,   43.531956
 531.064104,   43.247753
 531.069650,   42.963550
 531.075196,   42.679347
 531.080741,   42.395144
 531.086287,   42.110941
 531.091832,   41.826738
 531.097378,   41.542535
 531.102924,   41.258229
 531.108470,   40.973903
 531.114015,   40.689577
 531.119561,   40.405251
 531.125107,   40.120925
 531.130653,   39.836599
 531.136198,   39.552273
 531.141744,   39.267947
 531.147290,   38.983622
 531.152836,   38.699296
 531.158382,   38.414973
 531.163928,   38.130651
 531.169474,   37.846330
 531.175020,   37.562008
 531.180565,   37.277686
 531.186111,   36.993364
 531.191657,   36.709042
 531.197203,   36.424721
 531.202749,   36.140399
 531.208295,   35.856077
 531.213841,   35.571849
 531.219387,   35.287639
 531.224933,   35.003429
 531.230479,   34.719219
 531.236026,   34.435009
 531.241572,   34.150799
 531.247118,   33.866589
 531.252664,   33.582379
 531.258210,   33.298169
 531.263756,   33.013959
 531.269302,   32.729598
 531.274848,   32.445209
 531.280395,   32.160820
 531.285941,   31.876430
 531.291487,   31.592041
 531.297033,   31.307652
 531.302580,   31.023263
 531.308126,   30.738873
 531.313672,   30.454484
 531.319218,   30.170095
 531.324765,   29.885669
 531.330311,   29.601237
 531.335858,   29.316805
 531.341404,   29.032373
 531.346951,   28.747941
 531.352497,   28.463509
 531.358044,   28.179077
 531.363590,   27.894645
 531.369137,   27.610213
 531.374683,   27.325780
 531.380230,   27.041659
 531.385776,   26.757597
 531.391323,   26.473535
 531.396869,   26.189474
 531.402416,   25.905412
 531.407963,   25.621350
 531.413509,   25.337289
 531.419056,   25.053227
 531.424602,   24.769165
 531.430149,   24.485104
 531.435696,   24.201229
 531.441242,   23.917391
 531.446789,   23.633552
 531.452336,   23.349714
 531.457882,   23.065875
 531.463429,   22.782037
 531.468976,   22.498198
 531.474522,   22.214360
 531.480069,   21.930522
 531.485616,   21.646683
 531.491162,   21.362976
 531.496709,   21.079294
 531.502256,   20.795613
 531.507803,   20.511931
 531.513349,   20.228249
 531.518896,   19.944568
 531.524443,   19.660886
 531.529990,   19.377204
 531.535536,   19.093523
 531.541083,   18.809841
 531.546630,   18.526022
 531.552177,   18.242177
 531.557724,   17.958331
 531.563270,   17.674486
 531.568817,   17.390640
 531.574364,   17.106795
 531.579911,   16.822950
 531.585458,   16.539104
 531.591005,   16.255259
 531.596552,   15.971413
 531.602098,   15.687498
 531.607645,   15.403569
 531.610841,   15.240000
 531.616388,   14.956110
 531.621935,   14.672221
 531.627482,   14.388331
 531.633029,   14.104441
 531.638576,   13.820551
 531.644123,   13.536662
 531.649670,   13.252772
 531.655198,   12.969801
 531.660700,   12.688128
 531.666202,   12.406454
 531.671704,   12.124781
 531.677206,   11.843108
 531.682707,   11.561435
 531.688209,   11.279762
 531.693711,   10.998089
 531.699213,   10.716416
 531.704715,   10.434743
 531.710179,   10.155038
 531.715590,    9.878116
 531.721000,    9.601194
 531.726411,    9.324272
 531.731822,    9.047350
 531.737232,    8.770427
 531.742643,    8.493505
 531.748054,    8.216583
 531.753465,    7.939661
 531.758875,    7.662739
 531.764257,    7.387511
 531.769598,    7.114677
 531.774938,    6.841844
 531.780279,    6.569010
 531.785620,    6.296177
 531.789567,    6.094545
