Speed, Forces
  66.017828, 14711.369959
  66.773408, 14580.428251
  67.528988, 14458.547581
  68.284567, 14345.323257
  69.040147, 14240.333235
  69.795726, 14143.138116
  70.551306, 14053.281147
  71.306886, 13970.288220
  72.062465, 13894.338809
  72.818045, 13826.966142
  73.573625, 13765.386655
  74.329204, 13709.065501
  75.084784, 13660.143912
  75.840364, 13617.634916
  76.595943, 13579.162986
  77.351523, 13548.048520
  78.107103, 13522.006748
  78.862682, 13499.665885
  79.618262, 13485.289272
  80.373841, 13472.851144
  81.129421, 13468.248647
  81.885001, 13465.850718
  82.640580, 13470.053544
  83.396160, 13476.789088
  84.151740, 13489.803217
  84.907319, 13504.713446
  85.662899, 13526.527504
  86.418479, 13548.601564
  87.174058, 13579.186822
  87.929638, 13610.038330
  88.685218, 13646.672174
  89.440797, 13686.318896
  90.196377, 13727.805144
  90.951957, 13776.180751
  91.707536, 13824.959912
  92.463116, 13878.358707
  93.218695, 13935.847381
  93.974275, 13993.803923
  94.729855, 14057.612415
  95.485434, 14124.235960
  96.241014, 14191.388793
  96.996594, 14264.000007
  97.752173, 14339.754194
  98.507753, 14416.096198
  99.263333, 14495.799032
 100.018912, 14580.653601
 100.774492, 14666.151622
 101.530072, 14752.293097
 102.285651, 14845.029509
 103.041231, 14939.624364
 103.796810, 15034.915416
 104.552390, 15130.902664
 105.307970, 15234.427530
 106.063549, 15338.780051
 106.819129, 15443.878620
 107.574709, 15549.723237
 108.330288, 15661.617889
 109.085868, 15775.710747
 109.841448, 15890.596611
 110.597027, 16006.275482
 111.352607, 16123.947711
 112.108187, 16247.728867
 112.863766, 16372.347096
 113.619346, 16497.802398
 114.374926, 16624.094773
 115.130505, 16751.869157
 115.886085, 16886.130111
 116.641664, 17021.269313
 117.397244, 17157.286762
 118.152824, 17294.182458
 118.908403, 17431.956401
 119.663983, 17573.363885
 120.419563, 17718.976275
 121.175142, 17865.505193
 121.930722, 18012.950641
 122.686302, 18161.312617
 123.441881, 18310.591123
 124.197461, 18461.532999
 124.953041, 18618.479325
 125.708620, 18776.377568
 126.464200, 18935.227730
 127.219779, 19095.029810
 127.975359, 19255.783808
 128.730939, 19417.489724
 129.486518, 19580.147559
 130.242098, 19749.202741
 130.997678, 19919.382269
 131.753257, 20090.546213
 132.508837, 20262.694571
 133.264417, 20435.827345
 134.019996, 20609.944534
 134.775576, 20785.046138
 135.531156, 20961.132157
 136.286735, 21142.449247
 137.042315, 21325.858770
 137.797894, 21510.282314
 138.553474, 21695.719877
 139.309054, 21882.171459
 140.064633, 22069.637061
 140.820213, 22258.116683
