Speed, Forces
  62.577518, 29440.226180
  63.324403, 30147.179931
  64.071289, 30862.521381
  64.818175, 31586.250529
  65.565061, 32318.367375
  66.311946, 33058.871920
  67.058832, 33807.764163
  67.805718, 34565.044105
  68.552604, 35330.711745
  69.299489, 36104.767084
  70.046375, 36887.210121
  70.793261, 37524.137724
  71.540147, 37774.692472
  72.287032, 37696.845791
  73.033918, 30330.977945
  73.780804, 26208.780858
  74.527690, 24413.215716
  75.274575, 23396.445293
  76.021461, 22438.049042
  76.768347, 21858.645274
  77.515232, 21273.576883
  78.262118, 20787.305266
  79.009004, 20396.857987
  79.755890, 20002.702215
  80.502775, 19621.173244
  81.249661, 19312.653581
  81.996547, 19001.284763
  82.743433, 18687.066790
  83.490318, 18390.746097
  84.237204, 18135.531498
  84.984090, 17878.043971
  85.730976, 17618.283519
  86.477861, 17357.066675
  87.224747, 17150.224108
  87.971633, 16941.602780
  88.718519, 16731.202690
  89.465404, 16519.023839
  90.212290, 16312.909514
  90.959176, 16146.846668
  91.706062, 15979.414623
  92.452947, 15810.613378
  93.199833, 15640.442933
  93.946719, 15468.903288
  94.693604, 15326.728670
  95.440490, 15201.638570
  96.187376, 15075.565710
  96.934262, 14948.510091
  97.681147, 14820.471713
  98.428033, 14691.450576
  99.174919, 14574.718607
  99.921805, 14496.333918
 100.668690, 14417.361129
 101.415576, 14337.800240
 102.162462, 14257.651250
 102.909348, 14176.914161
 103.656233, 14095.588971
 104.403119, 14013.675681
 105.150005, 13966.239345
 105.896891, 13927.603287
 106.643776, 13888.693766
 107.390662, 13849.510782
 108.137548, 13810.054336
 108.884434, 13770.324427
 109.631319, 13730.321056
 110.378205, 13690.044222
 111.125091, 13649.493925
 111.871976, 13643.354354
 112.618862, 13640.924475
 113.365748, 13638.478427
 114.112634, 13636.016211
 114.859519, 13633.537827
 115.606405, 13631.043274
 116.353291, 13628.532553
 117.100177, 13626.005663
 117.847062, 13623.462604
 118.593948, 13620.903377
 119.340834, 13620.339444
 120.087720, 13654.547710
 120.834605, 13688.969397
 121.581491, 13723.604507
 122.328377, 13758.453038
 123.075263, 13793.514992
 123.822148, 13828.790368
 124.569034, 13864.279165
 125.315920, 13899.981385
 126.062806, 13935.897027
 126.809691, 13972.026091
 127.556577, 14008.368577
 128.303463, 14044.924485
 129.050348, 14081.693815
 129.797234, 14134.732927
 130.544120, 14211.253970
 131.291006, 14288.214071
 132.037891, 14365.613230
 132.784777, 14443.451447
 133.531663, 14521.728722
 134.278549, 14600.445055
 135.025434, 14679.600446
 135.772320, 14759.194895
 136.519206, 14839.228402
