Speed, Forces
  80.729451, 14711.369959
  81.270754, 14634.838041
  81.812056, 14559.344445
  82.353359, 14488.147672
  82.894662, 14419.148459
  83.435965, 14353.302022
  83.977267, 14290.367025
  84.518570, 14229.880158
  85.059873, 14172.561340
  85.601175, 14117.437320
  86.142478, 14065.268774
  86.683781, 14015.504924
  87.225084, 13968.002875
  87.766386, 13923.590559
  88.307689, 13880.253361
  88.848992, 13841.177989
  89.390295, 13801.863827
  89.931597, 13767.727151
  90.472900, 13733.764364
  91.014203, 13702.674158
  91.555506, 13674.035249
  92.096808, 13645.431295
  92.638111, 13622.082811
  93.179414, 13598.597497
  93.720717, 13577.289554
  94.262019, 13559.087257
  94.803322, 13540.780131
  95.344625, 13526.048517
  95.885928, 13513.009057
  96.427230, 13499.895777
  96.968533, 13490.985071
  97.509836, 13483.116165
  98.051138, 13475.203455
  98.592441, 13471.322497
  99.133744, 13468.622926
  99.675047, 13465.908574
 100.216349, 13466.230468
 100.757652, 13468.690079
 101.298955, 13471.162939
 101.840258, 13474.825047
 102.381560, 13482.424752
 102.922863, 13490.064744
 103.464166, 13497.745022
 104.005469, 13508.880467
 104.546771, 13521.658575
 105.088074, 13534.503016
 105.629377, 13547.413787
 106.170680, 13564.935414
 106.711982, 13582.905072
 107.253285, 13600.966115
 107.794588, 13619.118541
 108.335891, 13641.879629
 108.877193, 13665.042072
 109.418496, 13688.319959
 109.959799, 13711.713288
 110.501101, 13738.507553
 111.042404, 13766.852102
 111.583707, 13795.335161
 112.125010, 13823.956730
 112.666312, 13853.518323
 113.207615, 13887.022386
 113.748918, 13920.687033
 114.290221, 13954.512264
 114.831523, 13988.498079
 115.372826, 14024.144846
 115.914129, 14062.955584
 116.455432, 14101.947986
 116.996734, 14141.122054
 117.538037, 14180.477786
 118.079340, 14220.625516
 118.620643, 14264.736688
 119.161945, 14309.049613
 119.703248, 14353.564292
 120.244551, 14398.280723
 120.785854, 14443.198908
 121.327156, 14490.646333
 121.868459, 14540.257656
 122.409762, 14590.089828
 122.951064, 14640.142849
 123.492367, 14690.416718
 124.033670, 14740.911437
 124.574973, 14793.688945
 125.116275, 14848.800602
 125.657578, 14904.151211
 126.198881, 14959.740772
 126.740184, 15015.569284
 127.281486, 15071.636749
 127.822789, 15127.943165
 128.364092, 15188.243947
 128.905395, 15249.094314
 129.446697, 15310.200743
 129.988000, 15371.563234
 130.529303, 15433.181787
 131.070606, 15495.056402
 131.611908, 15557.187079
 132.153211, 15622.565258
 132.694514, 15689.151014
 133.235817, 15756.008950
 133.777119, 15823.139065
 134.318422, 15890.541359
