Speed, Forces
  51.485469, 29440.226180
  52.409085, 30505.977999
  53.332701, 31590.678753
  54.256317, 32694.328442
  55.179933, 33816.927066
  56.103549, 34958.474624
  57.027165, 36118.971116
  57.950781, 37298.416543
  58.874397, 37780.821897
  59.798014, 37034.310610
  60.721630, 26153.061609
  61.645246, 23872.073730
  62.568862, 22417.001022
  63.492478, 21543.680821
  64.416094, 20770.754798
  65.339710, 20182.256968
  66.263326, 19606.225010
  67.186942, 19141.221613
  68.110559, 18669.781592
  69.034175, 18248.670269
  69.957791, 17862.307264
  70.881407, 17470.809413
  71.805023, 17136.319800
  72.728639, 16821.901916
  73.652255, 16503.465571
  74.575871, 16217.417954
  75.499487, 15966.115503
  76.423104, 15711.719846
  77.346720, 15454.230983
  78.270336, 15253.268973
  79.193952, 15064.012967
  80.117568, 14872.536777
  81.041184, 14678.840402
  81.964800, 14527.729178
  82.888416, 14409.160710
  83.812032, 14289.263645
  84.735649, 14168.037983
  85.659265, 14045.483724
  86.582881, 13961.787767
  87.506497, 13903.565277
  88.430113, 13844.724999
  89.353729, 13785.266931
  90.277345, 13725.191075
  91.200961, 13664.497430
  92.124577, 13643.030101
  93.048194, 13639.368528
  93.971810, 13635.670427
  94.895426, 13631.935800
  95.819042, 13628.164645
  96.742658, 13624.356964
  97.666274, 13620.512756
  98.589890, 13642.725870
  99.513506, 13694.433150
 100.437122, 13746.622578
 101.360739, 13799.294156
 102.284355, 13852.447883
 103.207971, 13906.083759
 104.131587, 13960.201783
 105.055203, 14014.801957
 105.978819, 14069.884280
 106.902435, 14148.664861
 107.826051, 14263.965586
 108.749667, 14380.258203
 109.673284, 14497.542710
 110.596900, 14615.819109
 111.520516, 14735.087398
 112.444132, 14855.347577
 113.367748, 14976.599648
 114.291364, 15098.843610
 115.214980, 15222.079462
 116.138596, 15346.307205
 117.062212, 15471.526839
 117.985829, 15620.242784
 118.909445, 15793.559958
 119.833061, 15968.228603
 120.756677, 16144.248719
 121.680293, 16321.620306
 122.603909, 16500.343364
 123.527525, 16680.417893
 124.451141, 16861.843893
 125.374757, 17044.621363
 126.298374, 17228.750305
 127.221990, 17414.230717
 128.145606, 17601.062601
 129.069222, 17789.245955
 129.992838, 17978.780780
 130.916454, 18169.667076
 131.840070, 18361.904843
 132.763686, 18555.494081
 133.687302, 18784.533193
 134.610919, 19018.617832
 135.534535, 19254.314143
 136.458151, 19491.622125
 137.381767, 19730.541780
 138.305383, 19971.073106
 139.228999, 20213.216104
 140.152615, 20456.970774
 141.076231, 20702.337116
 141.999847, 20949.315130
 142.923464, 21197.904815
