Speed, Forces
  80.728537, 14711.036753
  81.269849, 14634.504389
  81.811161, 14559.010654
  82.352473, 14487.813439
  82.893784, 14418.814420
  83.435096, 14352.967550
  83.976408, 14290.033086
  84.517720, 14229.545800
  85.059032, 14172.227860
  85.600344, 14117.103440
  86.141656, 14064.936121
  86.682968, 14015.171893
  87.224280, 13967.671425
  87.765592, 13923.258757
  88.306904, 13879.923499
  88.848216, 13840.847804
  89.389528, 13801.533312
  89.930840, 13767.398979
  90.472152, 13733.435896
  91.013464, 13702.348399
  91.554776, 13673.709232
  92.096088, 13645.108355
  92.637400, 13621.759654
  93.178712, 13598.274118
  93.720024, 13576.969670
  94.261336, 13558.767195
  94.802648, 13540.459889
  95.343960, 13525.732193
  95.885272, 13512.692600
  96.426584, 13499.579186
  96.967896, 13490.672824
  97.509208, 13482.803835
  98.050520, 13474.891040
  98.591832, 13471.014856
  99.133144, 13468.315255
  99.674456, 13465.600873
 100.215768, 13465.927970
 100.757080, 13468.387609
 101.298392, 13470.860497
 101.839704, 13474.528239
 102.381016, 13482.128032
 102.922328, 13489.768114
 103.463639, 13497.448485
 104.004951, 13508.590053
 104.546263, 13521.368316
 105.087575, 13534.212914
 105.628887, 13547.123845
 106.170199, 13564.652086
 106.711511, 13582.621971
 107.252823, 13600.683243
 107.794135, 13618.835902
 108.335447, 13641.604094
 108.876759, 13664.766838
 109.418071, 13688.045031
 109.959383, 13711.438670
 110.500695, 13738.240525
 111.042007, 13766.585455
 111.583319, 13795.068899
 112.124631, 13823.690858
 112.665943, 13853.260523
 113.207255, 13886.765049
 113.748567, 13920.430165
 114.289879, 13954.255870
 114.831191, 13988.242164
 115.372503, 14023.897545
 115.913815, 14062.708838
 116.455127, 14101.701802
 116.996439, 14140.876438
 117.537751, 14180.232744
 118.079063, 14220.389623
 118.620375, 14264.501445
 119.161687, 14308.815028
 119.702999, 14353.330371
 120.244311, 14398.047475
 120.785623, 14442.966338
 121.326935, 14490.423507
 121.868247, 14540.035588
 122.409559, 14589.868526
 122.950871, 14639.922319
 123.492183, 14690.196970
 124.033494, 14740.692476
 124.574806, 14793.480312
 125.116118, 14848.592838
 125.657430, 14903.944324
 126.198742, 14959.534770
 126.740054, 15015.364176
 127.281366, 15071.432542
 127.822678, 15127.739868
 128.363990, 15188.051618
 128.905302, 15248.902977
 129.446614, 15310.010407
 129.987926, 15371.373908
 130.529238, 15432.993479
 131.070550, 15494.869122
 131.611862, 15557.000835
 132.153174, 15622.390601
 132.694486, 15688.977477
 133.235798, 15755.836541
 133.777110, 15822.967794
 134.318422, 15890.371236
