Speed, Forces
  67.059001, 29440.226180
  67.738389, 30039.777550
  68.417777, 30645.372479
  69.097165, 31257.010969
  69.776553, 31874.693018
  70.455941, 32498.418628
  71.135329, 33128.187798
  71.814717, 33764.000528
  72.494106, 34405.856818
  73.173494, 35053.756668
  73.852882, 35707.700078
  74.532270, 36367.687048
  75.211658, 37033.717578
  75.891046, 37532.837596
  76.570434, 37745.427282
  77.249822, 37861.345795
  77.929210, 36635.624524
  78.608598, 27912.613390
  79.287986, 25696.865038
  79.967375, 24283.706281
  80.646763, 23420.181977
  81.326151, 22549.352361
  82.005539, 22047.895095
  82.684927, 21553.195381
  83.364315, 21054.414155
  84.043703, 20701.351237
  84.723091, 20369.466953
  85.402479, 20034.910602
  86.081867, 19697.682181
  86.761256, 19431.365268
  87.440644, 19168.174184
  88.120032, 18902.930208
  88.799420, 18635.633340
  89.478808, 18387.781577
  90.158196, 18171.268937
  90.837584, 17953.118592
  91.516972, 17733.330544
  92.196360, 17511.904792
  92.875748, 17304.313449
  93.555136, 17128.465337
  94.234525, 16951.335581
  94.913913, 16772.924179
  95.593301, 16593.231132
  96.272689, 16412.256440
  96.952077, 16255.127445
  97.631465, 16113.849278
  98.310853, 15971.584565
  98.990241, 15828.333308
  99.669629, 15684.095506
 100.349017, 15538.871159
 101.028405, 15396.111694
 101.707794, 15290.459015
 102.387182, 15184.098233
 103.066570, 15077.029346
 103.745958, 14969.252356
 104.425346, 14860.767261
 105.104734, 14751.574062
 105.784122, 14641.672759
 106.463510, 14556.536696
 107.142898, 14489.922364
 107.822286, 14422.884291
 108.501674, 14355.422475
 109.181063, 14287.536918
 109.860451, 14219.227619
 110.539839, 14150.494579
 111.219227, 14081.337796
 111.898615, 14011.757272
 112.578003, 13971.158377
 113.257391, 13938.409823
 113.936779, 13905.464232
 114.616167, 13872.321604
 115.295555, 13838.981940
 115.974943, 13805.445238
 116.654332, 13771.711498
 117.333720, 13737.780722
 118.013108, 13703.652909
 118.692496, 13669.328058
 119.371884, 13644.899649
 120.051272, 13642.846887
 120.730660, 13640.782476
 121.410048, 13638.706415
 122.089436, 13636.618705
 122.768824, 13634.519344
 123.448213, 13632.408334
 124.127601, 13630.285674
 124.806989, 13628.151363
 125.486377, 13626.005403
 126.165765, 13623.847794
 126.845153, 13621.678534
 127.524541, 13619.497625
 128.203929, 13633.841791
 128.883317, 13662.937029
 129.562705, 13692.186044
 130.242093, 13721.588834
 130.921482, 13751.145401
 131.600870, 13780.855744
 132.280258, 13810.719864
 132.959646, 13840.737759
 133.639034, 13870.909431
 134.318422, 13901.234879
