Speed, Forces
  70.451227, 14711.369959
  71.140466, 14599.533948
  71.829706, 14493.994781
  72.518946, 14394.362659
  73.208185, 14300.235101
  73.897425, 14211.943780
  74.586664, 14131.010079
  75.275904, 14054.674020
  75.965144, 13982.488740
  76.654383, 13917.727747
  77.343623, 13857.203957
  78.032862, 13799.904864
  78.722102, 13750.474697
  79.411341, 13703.593739
  80.100581, 13661.758933
  80.789821, 13624.753466
  81.479060, 13590.463916
  82.168300, 13562.662518
  82.857539, 13535.946172
  83.546779, 13516.639380
  84.236019, 13497.511510
  84.925258, 13485.951818
  85.614498, 13474.415013
  86.303737, 13469.816876
  86.992977, 13465.861045
  87.682216, 13467.400876
  88.371456, 13471.003247
  89.060696, 13477.819418
  89.749935, 13488.944540
  90.439175, 13500.155428
  91.128414, 13518.737122
  91.817654, 13537.478074
  92.506894, 13559.382469
  93.196133, 13585.590559
  93.885373, 13611.993193
  94.574612, 13643.430958
  95.263852, 13677.276343
  95.953091, 13711.367490
  96.642331, 13751.084358
  97.331571, 13792.576963
  98.020810, 13834.364435
  98.710050, 13881.030057
  99.399289, 13930.160784
 100.088529, 13979.633371
 100.777769, 14031.841316
 101.467008, 14088.582048
 102.156248, 14145.709519
 102.845487, 14203.223730
 103.534727, 14266.280874
 104.223966, 14331.013979
 104.913206, 14396.176587
 105.602446, 14461.768701
 106.291685, 14533.853721
 106.980925, 14606.594344
 107.670164, 14679.805123
 108.359404, 14753.486058
 109.048644, 14832.650828
 109.737883, 14913.388754
 110.427123, 14994.635374
 111.116362, 15076.390688
 111.805602, 15160.560278
 112.494841, 15249.259930
 113.184081, 15338.504702
 113.873321, 15428.294593
 114.562560, 15518.629605
 115.251800, 15611.867708
 115.941039, 15709.047582
 116.630279, 15806.806887
 117.319519, 15905.145623
 118.008758, 16004.063792
 118.697998, 16103.695601
 119.387237, 16209.333795
 120.076477, 16315.583619
 120.765716, 16422.445073
 121.454956, 16529.918157
 122.144196, 16638.002870
 122.833435, 16747.121572
 123.522675, 16861.806199
 124.211914, 16977.132541
 124.901154, 17093.100598
 125.590394, 17209.710369
 126.279633, 17326.961856
 126.968873, 17444.855057
 127.658112, 17565.830615
 128.347352, 17690.202002
 129.036591, 17815.243075
 129.725831, 17940.953834
 130.415071, 18067.334279
 131.104310, 18194.384411
 131.793550, 18322.104229
 132.482789, 18450.843162
 133.172029, 18584.885622
 133.861269, 18719.623627
 134.550508, 18855.057177
 135.239748, 18991.186271
 135.928987, 19128.010909
 136.618227, 19265.531092
 137.307466, 19403.746819
 137.996706, 19542.658091
 138.685946, 19685.611090
