Speed, Forces
  75.333533, 14711.036753
  75.951570, 14617.329110
  76.569607, 14527.242854
  77.187644, 14440.416153
  77.805681, 14359.966371
  78.423718, 14282.944546
  79.041755, 14208.829040
  79.659792, 14141.151274
  80.277829, 14075.444204
  80.895867, 14014.595655
  81.513904, 13957.257038
  82.131941, 13902.801340
  82.749978, 13853.297538
  83.368015, 13805.256313
  83.986052, 13763.026936
  84.604089, 13721.412889
  85.222126, 13685.870797
  85.840163, 13650.687718
  86.458201, 13621.219020
  87.076238, 13592.461781
  87.694275, 13568.425833
  88.312312, 13546.080390
  88.930349, 13526.809802
  89.548386, 13510.853192
  90.166423, 13495.653820
  90.784460, 13486.054165
  91.402497, 13476.388936
  92.020534, 13470.921620
  92.638572, 13467.615999
  93.256609, 13464.658201
  93.874646, 13467.660989
  94.492683, 13470.683611
  95.110720, 13475.681965
  95.728757, 13484.993357
  96.346794, 13494.365060
  96.964831, 13506.330962
  97.582868, 13521.959906
  98.200905, 13537.688149
  98.818943, 13555.579496
  99.436980, 13577.521563
 100.055017, 13599.600432
 100.673054, 13622.321619
 101.291091, 13650.559004
 101.909128, 13678.969210
 102.527165, 13707.552236
 103.145202, 13739.872656
 103.763239, 13774.581532
 104.381277, 13809.497760
 104.999314, 13844.621339
 105.617351, 13885.144196
 106.235388, 13926.346099
 106.853425, 13967.788398
 107.471462, 14009.471094
 108.089499, 14056.710423
 108.707536, 14104.409054
 109.325573, 14152.379640
 109.943610, 14200.622182
 110.561648, 14253.002849
 111.179685, 14307.184076
 111.797722, 14361.667331
 112.415759, 14416.452614
 113.033796, 14472.310317
 113.651833, 14532.942174
 114.269870, 14593.904646
 114.887907, 14655.197732
 115.505944, 14716.821432
 116.123981, 14779.811688
 116.742019, 14847.202090
 117.360056, 14914.950207
 117.978093, 14983.056039
 118.596130, 15051.519584
 119.214167, 15120.340845
 119.832204, 15193.660041
 120.450241, 15268.175912
 121.068278, 15343.075111
 121.686315, 15418.357640
 122.304353, 15494.023497
 122.922390, 15570.072682
 123.540427, 15651.213991
 124.158464, 15732.864889
 124.776501, 15814.923244
 125.394538, 15897.389056
 126.012575, 15980.262324
 126.630612, 16063.543049
 127.248649, 16149.812387
 127.866686, 16238.581121
 128.484724, 16327.779953
 129.102761, 16417.408884
 129.720798, 16507.467914
 130.338835, 16597.957042
 130.956872, 16688.876269
 131.574909, 16782.315700
 132.192946, 16878.609581
 132.810983, 16975.354716
 133.429020, 17072.551106
 134.047057, 17170.198750
 134.665095, 17268.297648
 135.283132, 17366.847801
 135.901169, 17465.849208
 136.519206, 17567.843134
