Speed, Forces
  62.577518, 31355.742512
  63.324403, 31181.730146
  64.071289, 31007.717779
  64.818175, 30833.705413
  65.565061, 30659.693046
  66.311946, 30485.680680
  67.058832, 30311.668313
  67.805718, 30143.015573
  68.552604, 29976.217491
  69.299489, 29809.419408
  70.046375, 29642.621326
  70.793261, 29475.823244
  71.540147, 29309.025161
  72.287032, 29142.227079
  73.033918, 28975.428997
  73.780804, 28808.630914
  74.527690, 28641.832832
  75.274575, 28475.034750
  76.021461, 28308.236668
  76.768347, 28141.438585
  77.515232, 27974.640503
  78.262118, 27807.842421
  79.009004, 27661.325194
  79.755890, 27522.083432
  80.502775, 27382.841670
  81.249661, 27243.599908
  81.996547, 27104.358146
  82.743433, 26965.116385
  83.490318, 26825.874623
  84.237204, 26686.632861
  84.984090, 26547.391099
  85.730976, 26408.149337
  86.477861, 26268.907576
  87.224747, 26129.665814
  87.971633, 25990.424052
  88.718519, 25851.182290
  89.465404, 25711.940528
  90.212290, 25586.520187
  90.959176, 25466.237030
  91.706062, 25345.953873
  92.452947, 25225.670716
  93.199833, 25105.387558
  93.946719, 24985.104401
  94.693604, 24864.821244
  95.440490, 24744.538087
  96.187376, 24624.254929
  96.934262, 24503.971772
  97.681147, 24383.688615
  98.428033, 24263.405457
  99.174919, 24143.122300
  99.921805, 24022.839143
 100.668690, 23902.555986
 101.415576, 23791.659318
 102.162462, 23684.375197
 102.909348, 23577.091076
 103.656233, 23469.806955
 104.403119, 23362.522834
 105.150005, 23255.238713
 105.896891, 23147.954592
 106.643776, 23040.670471
 107.390662, 22933.386349
 108.137548, 22826.102228
 108.884434, 22718.818107
 109.631319, 22611.533986
 110.378205, 22504.249865
 111.125091, 22396.965744
 111.871976, 22289.681623
 112.618862, 22191.456671
 113.365748, 22096.840274
 114.112634, 22002.223877
 114.859519, 21907.607479
 115.606405, 21812.991082
 116.353291, 21718.374684
 117.100177, 21623.758287
 117.847062, 21529.141890
 118.593948, 21434.525492
 119.340834, 21339.909095
 120.087720, 21245.292697
 120.834605, 21150.676300
 121.581491, 21056.059902
 122.328377, 20961.443505
 123.075263, 20866.827108
 123.822148, 20780.594854
 124.569034, 20697.817163
 125.315920, 20615.039473
 126.062806, 20532.261782
 126.809691, 20449.484091
 127.556577, 20366.706400
 128.303463, 20283.928710
 129.050348, 20201.151019
 129.797234, 20118.373328
 130.544120, 20035.595637
 131.291006, 19952.817947
 132.037891, 19870.040256
 132.784777, 19787.262565
 133.531663, 19704.484875
 134.278549, 19621.707184
 135.025434, 19546.026250
 135.772320, 19473.368794
 136.519206, 19400.711338
