Speed, Forces
  70.451227, 32868.101797
  71.140466, 32701.805175
  71.829706, 32535.508554
  72.518946, 32369.211932
  73.208185, 32202.915311
  73.897425, 32036.618689
  74.586664, 31870.322068
  75.275904, 31704.025446
  75.965144, 31537.728825
  76.654383, 31371.432203
  77.343623, 31205.135582
  78.032862, 31038.838960
  78.722102, 30872.542339
  79.411341, 30706.245717
  80.100581, 30551.164997
  80.789821, 30404.388901
  81.479060, 30257.612806
  82.168300, 30110.836711
  82.857539, 29964.060616
  83.546779, 29817.284520
  84.236019, 29670.508425
  84.925258, 29523.732330
  85.614498, 29376.956234
  86.303737, 29230.180139
  86.992977, 29083.404044
  87.682216, 28936.627949
  88.371456, 28789.851853
  89.060696, 28643.075758
  89.749935, 28496.299663
  90.439175, 28349.523567
  91.128414, 28203.570815
  91.817654, 28071.934959
  92.506894, 27940.299102
  93.196133, 27808.663245
  93.885373, 27677.027388
  94.574612, 27545.391531
  95.263852, 27413.755675
  95.953091, 27282.119818
  96.642331, 27150.483961
  97.331571, 27018.848104
  98.020810, 26887.212247
  98.710050, 26755.576391
  99.399289, 26623.940534
 100.088529, 26492.304677
 100.777769, 26360.668820
 101.467008, 26229.032964
 102.156248, 26097.397107
 102.845487, 25972.098209
 103.534727, 25852.324879
 104.223966, 25732.551548
 104.913206, 25612.778218
 105.602446, 25493.004888
 106.291685, 25373.231557
 106.980925, 25253.458227
 107.670164, 25133.684897
 108.359404, 25013.911566
 109.048644, 24894.138236
 109.737883, 24774.364905
 110.427123, 24654.591575
 111.116362, 24534.818245
 111.805602, 24415.044914
 112.494841, 24295.271584
 113.184081, 24175.498254
 113.873321, 24055.945010
 114.562560, 23951.887494
 115.251800, 23847.829978
 115.941039, 23743.772461
 116.630279, 23639.714945
 117.319519, 23535.657429
 118.008758, 23431.599912
 118.697998, 23327.542396
 119.387237, 23223.484880
 120.076477, 23119.427364
 120.765716, 23015.369847
 121.454956, 22911.312331
 122.144196, 22807.254815
 122.833435, 22703.197298
 123.522675, 22599.139782
 124.211914, 22495.082266
 124.901154, 22391.024749
 125.590394, 22293.279142
 126.279633, 22202.003353
 126.968873, 22110.727563
 127.658112, 22019.451774
 128.347352, 21928.175985
 129.036591, 21836.900196
 129.725831, 21745.624407
 130.415071, 21654.348617
 131.104310, 21563.072828
 131.793550, 21471.797039
 132.482789, 21380.521250
 133.172029, 21289.245460
 133.861269, 21197.969671
 134.550508, 21106.693882
 135.239748, 21015.418093
 135.928987, 20924.142304
 136.618227, 20832.866514
 137.307466, 20751.473022
 137.996706, 20670.347214
 138.685946, 20589.221405
