Speed, Forces
  70.450429, 32868.294298
  71.139677, 32701.995732
  71.828924, 32535.697166
  72.518172, 32369.398600
  73.207420, 32203.100034
  73.896667, 32036.801468
  74.585915, 31870.502902
  75.275162, 31704.204336
  75.964410, 31537.905770
  76.653658, 31371.607204
  77.342905, 31205.308638
  78.032153, 31039.010072
  78.721401, 30872.711507
  79.410648, 30706.412941
  80.099896, 30551.310875
  80.789144, 30404.533063
  81.478391, 30257.755252
  82.167639, 30110.977440
  82.856887, 29964.199629
  83.546134, 29817.421817
  84.235382, 29670.644006
  84.924629, 29523.866194
  85.613877, 29377.088383
  86.303125, 29230.310571
  86.992372, 29083.532760
  87.681620, 28936.754948
  88.370868, 28789.977137
  89.060115, 28643.199325
  89.749363, 28496.421514
  90.438611, 28349.643702
  91.127858, 28203.677019
  91.817106, 28072.039623
  92.506354, 27940.402227
  93.195601, 27808.764831
  93.884849, 27677.127435
  94.574096, 27545.490039
  95.263344, 27413.852643
  95.952592, 27282.215247
  96.641839, 27150.577851
  97.331087, 27018.940455
  98.020335, 26887.303059
  98.709582, 26755.665663
  99.398830, 26624.028267
 100.088078, 26492.390871
 100.777325, 26360.753475
 101.466573, 26229.116079
 102.155821, 26097.478683
 102.845068, 25972.171034
 103.534316, 25852.396303
 104.223563, 25732.621572
 104.912811, 25612.846841
 105.602059, 25493.072110
 106.291306, 25373.297380
 106.980554, 25253.522649
 107.669802, 25133.747918
 108.359049, 25013.973187
 109.048297, 24894.198456
 109.737545, 24774.423725
 110.426792, 24654.648995
 111.116040, 24534.874264
 111.805288, 24415.099533
 112.494535, 24295.324802
 113.183783, 24175.550071
 113.873030, 24055.988812
 114.562278, 23951.930079
 115.251526, 23847.871346
 115.940773, 23743.812613
 116.630021, 23639.753880
 117.319269, 23535.695147
 118.008516, 23431.636414
 118.697764, 23327.577681
 119.387012, 23223.518948
 120.076259, 23119.460215
 120.765507, 23015.401482
 121.454755, 22911.342749
 122.144002, 22807.284016
 122.833250, 22703.225283
 123.522497, 22599.166550
 124.211745, 22495.107817
 124.900993, 22391.049084
 125.590240, 22293.299420
 126.279488, 22202.022563
 126.968736, 22110.745707
 127.657983, 22019.468850
 128.347231, 21928.191994
 129.036479, 21836.915137
 129.725726, 21745.638281
 130.414974, 21654.361424
 131.104222, 21563.084568
 131.793469, 21471.807712
 132.482717, 21380.530855
 133.171964, 21289.253999
 133.861212, 21197.977142
 134.550460, 21106.700286
 135.239707, 21015.423429
 135.928955, 20924.146573
 136.618203, 20832.869716
 137.307450, 20751.474920
 137.996698, 20670.348162
 138.685946, 20589.221405
