Speed, Forces
  66.017081, 37272.374328
  66.772668, 37035.847307
  67.528255, 36799.320286
  68.283842, 36562.793265
  69.039429, 36326.266244
  69.795017, 36111.368116
  70.550604, 35913.253286
  71.306191, 35715.138455
  72.061778, 35517.023625
  72.817365, 35318.908795
  73.572953, 35120.793964
  74.328540, 34922.679134
  75.084127, 34724.564304
  75.839714, 34526.449473
  76.595301, 34328.334643
  77.350889, 34130.219812
  78.106476, 33932.104982
  78.862063, 33733.990152
  79.617650, 33535.875321
  80.373237, 33337.760491
  81.128825, 33144.079850
  81.884412, 32962.914638
  82.639999, 32781.749426
  83.395586, 32600.584214
  84.151173, 32419.419002
  84.906761, 32238.253790
  85.662348, 32057.088578
  86.417935, 31875.923366
  87.173522, 31694.758154
  87.929109, 31513.592942
  88.684697, 31332.427730
  89.440284, 31151.262518
  90.195871, 30970.097306
  90.951458, 30788.932094
  91.707045, 30607.766882
  92.462632, 30426.601670
  93.218220, 30256.696050
  93.973807, 30087.257874
  94.729394, 29917.819698
  95.484981, 29748.381522
  96.240568, 29578.943346
  96.996156, 29409.505170
  97.751743, 29240.066994
  98.507330, 29070.628818
  99.262917, 28901.190642
 100.018504, 28731.752466
 100.774092, 28562.314290
 101.529679, 28392.876114
 102.285266, 28223.437938
 103.040853, 28053.999762
 103.796440, 27884.561585
 104.552028, 27720.510031
 105.307615, 27559.249810
 106.063202, 27397.989588
 106.818789, 27236.729366
 107.574376, 27075.469144
 108.329964, 26914.208922
 109.085551, 26752.948700
 109.841138, 26591.688479
 110.596725, 26430.428257
 111.352312, 26269.168035
 112.107900, 26107.907813
 112.863487, 25946.647591
 113.619074, 25785.387369
 114.374661, 25624.127148
 115.130248, 25462.866926
 115.885836, 25308.885056
 116.641423, 25168.001014
 117.397010, 25027.116972
 118.152597, 24886.232929
 118.908184, 24745.348887
 119.663772, 24604.464845
 120.419359, 24463.580803
 121.174946, 24322.696760
 121.930533, 24181.812718
 122.686120, 24040.928676
 123.441708, 23900.044633
 124.197295, 23759.160591
 124.952882, 23618.276549
 125.708469, 23477.392507
 126.464056, 23336.508464
 127.219644, 23196.464329
 127.975231, 23070.649840
 128.730818, 22944.835351
 129.486405, 22819.020862
 130.241992, 22693.206372
 130.997580, 22567.391883
 131.753167, 22441.577394
 132.508754, 22315.762905
 133.264341, 22189.948416
 134.019928, 22064.133927
 134.775515, 21938.319437
 135.531103, 21812.504948
 136.286690, 21686.690459
 137.042277, 21560.875970
 137.797864, 21435.061481
 138.553451, 21309.246991
 139.309039, 21191.780176
 140.064626, 21077.033079
 140.820213, 20962.285982
