Speed, Forces
  67.059001, 26843.425605
  67.738389, 26708.300424
  68.417777, 26573.175242
  69.097165, 26438.050061
  69.776553, 26302.924879
  70.455941, 26167.799697
  71.135329, 26032.674516
  71.814717, 25897.549334
  72.494106, 25762.424153
  73.173494, 25627.298971
  73.852882, 25492.173789
  74.532270, 25357.048608
  75.211658, 25221.923426
  75.891046, 25086.798245
  76.570434, 24951.673063
  77.249822, 24818.238428
  77.929210, 24703.871834
  78.608598, 24589.505240
  79.287986, 24475.138646
  79.967375, 24360.772052
  80.646763, 24246.405458
  81.326151, 24132.038864
  82.005539, 24017.672270
  82.684927, 23903.305676
  83.364315, 23788.939081
  84.043703, 23674.572487
  84.723091, 23560.205893
  85.402479, 23445.839299
  86.081867, 23331.472705
  86.761256, 23217.106111
  87.440644, 23102.739517
  88.120032, 22988.372923
  88.799420, 22888.540550
  89.478808, 22791.283119
  90.158196, 22694.025688
  90.837584, 22596.768258
  91.516972, 22499.510827
  92.196360, 22402.253396
  92.875748, 22304.995965
  93.555136, 22207.738534
  94.234525, 22110.481104
  94.913913, 22013.223673
  95.593301, 21915.966242
  96.272689, 21818.708811
  96.952077, 21721.451380
  97.631465, 21624.193949
  98.310853, 21526.936519
  98.990241, 21429.679088
  99.669629, 21340.953356
 100.349017, 21257.510941
 101.028405, 21174.068527
 101.707794, 21090.626112
 102.387182, 21007.183698
 103.066570, 20923.741283
 103.745958, 20840.298868
 104.425346, 20756.856454
 105.104734, 20673.414039
 105.784122, 20589.971625
 106.463510, 20506.529210
 107.142898, 20423.086795
 107.822286, 20339.644381
 108.501674, 20256.201966
 109.181063, 20172.759552
 109.860451, 20089.317137
 110.539839, 20009.402273
 111.219227, 19935.107575
 111.898615, 19860.812877
 112.578003, 19786.518180
 113.257391, 19712.223482
 113.936779, 19637.928784
 114.616167, 19563.634086
 115.295555, 19489.339389
 115.974943, 19415.044691
 116.654332, 19340.749993
 117.333720, 19266.455296
 118.013108, 19192.160598
 118.692496, 19117.865900
 119.371884, 19043.571202
 120.051272, 18969.276505
 120.730660, 18894.981807
 121.410048, 18822.093725
 122.089436, 18756.951401
 122.768824, 18691.809076
 123.448213, 18626.666752
 124.127601, 18561.524427
 124.806989, 18496.382102
 125.486377, 18431.239778
 126.165765, 18366.097453
 126.845153, 18300.955129
 127.524541, 18235.812804
 128.203929, 18170.670480
 128.883317, 18105.528155
 129.562705, 18040.385830
 130.242093, 17975.243506
 130.921482, 17910.101181
 131.600870, 17844.958857
 132.280258, 17779.816532
 132.959646, 17722.113258
 133.639034, 17665.041572
 134.318422, 17607.969887
