Speed, Forces
  54.838594, 40558.261286
  55.707095, 40348.803590
  56.575597, 40139.345893
  57.444098, 39929.888197
  58.312599, 39684.164896
  59.181100, 39412.291573
  60.049601, 39140.418250
  60.918103, 38868.544928
  61.786604, 38596.671605
  62.655105, 38324.798282
  63.523606, 38052.924959
  64.392107, 37781.051637
  65.260609, 37509.178314
  66.129110, 37237.304991
  66.997611, 36965.431668
  67.866112, 36693.558345
  68.734613, 36421.685023
  69.603115, 36161.684772
  70.471616, 35933.963909
  71.340117, 35706.243047
  72.208618, 35478.522185
  73.077119, 35250.801323
  73.945621, 35023.080460
  74.814122, 34795.359598
  75.682623, 34567.638736
  76.551124, 34339.917873
  77.419625, 34112.197011
  78.288127, 33884.476149
  79.156628, 33656.755286
  80.025129, 33429.034424
  80.893630, 33201.313562
  81.762131, 32992.233470
  82.630633, 32783.995155
  83.499134, 32575.756841
  84.367635, 32367.518527
  85.236136, 32159.280212
  86.104637, 31951.041898
  86.973139, 31742.803584
  87.841640, 31534.565270
  88.710141, 31326.326955
  89.578642, 31118.088641
  90.447143, 30909.850327
  91.315645, 30701.612013
  92.184146, 30493.373698
  93.052647, 30293.825219
  93.921148, 30099.066414
  94.789649, 29904.307609
  95.658151, 29709.548805
  96.526652, 29514.790000
  97.395153, 29320.031195
  98.263654, 29125.272390
  99.132155, 28930.513586
 100.000657, 28735.754781
 100.869158, 28540.995976
 101.737659, 28346.237172
 102.606160, 28151.478367
 103.474661, 27956.719562
 104.343163, 27765.086769
 105.211664, 27579.728022
 106.080165, 27394.369275
 106.948666, 27209.010527
 107.817167, 27023.651780
 108.685669, 26838.293033
 109.554170, 26652.934285
 110.422671, 26467.575538
 111.291172, 26282.216791
 112.159673, 26096.858044
 113.028175, 25911.499296
 113.896676, 25726.140549
 114.765177, 25540.781802
 115.633678, 25355.901394
 116.502179, 25193.963817
 117.370681, 25032.026240
 118.239182, 24870.088663
 119.107683, 24708.151086
 119.976184, 24546.213509
 120.844685, 24384.275932
 121.713187, 24222.338355
 122.581688, 24060.400778
 123.450189, 23898.463201
 124.318690, 23736.525624
 125.187191, 23574.588047
 126.055693, 23412.650470
 126.924194, 23250.712893
 127.792695, 23101.044255
 128.661196, 22956.428207
 129.529697, 22811.812158
 130.398199, 22667.196109
 131.266700, 22522.580060
 132.135201, 22377.964012
 133.003702, 22233.347963
 133.872203, 22088.731914
 134.740705, 21944.115865
 135.609206, 21799.499816
 136.477707, 21654.883768
 137.346208, 21510.267719
 138.214709, 21365.651670
 139.083211, 21226.075501
 139.951712, 21094.180741
 140.820213, 20962.285982
