Time, Acceleration
   0.000000, 35940.424471
   0.100000, 35902.251837
   0.200000, 35863.443281
   0.300000, 35824.561034
   0.400000, 35785.678788
   0.500000, 35746.796541
   0.600000, 35707.914295
   0.700000, 35669.032048
   0.800000, 35630.149802
   0.900000, 35591.267556
   1.000000, 35552.385309
   1.100000, 35513.503063
   1.200000, 35473.588802
   1.300000, 35433.545686
   1.400000, 35393.502569
   1.500000, 35353.459452
   1.600000, 35313.416335
   1.700000, 35273.373219
   1.800000, 35233.330102
   1.900000, 35193.286985
   2.000000, 35153.243868
   2.100000, 35113.200751
   2.200000, 35072.184758
   2.300000, 35031.047292
   2.400000, 34989.909826
   2.500000, 34948.772360
   2.600000, 34907.634894
   2.700000, 34866.497427
   2.800000, 34825.359961
   2.900000, 34784.222495
   3.000000, 34743.085029
   3.100000, 34701.947563
   3.200000, 34659.896852
   3.300000, 34617.732113
   3.400000, 34575.567375
   3.500000, 34533.402637
   3.600000, 34491.237898
   3.700000, 34449.073160
   3.800000, 34406.908422
   3.900000, 34364.743683
   4.000000, 34322.578945
   4.100000, 34280.414206
   4.200000, 34237.396161
   4.300000, 34194.271572
   4.400000, 34151.146983
   4.500000, 34108.022394
   4.600000, 34064.897805
   4.700000, 34021.773216
   4.800000, 33978.648627
   4.900000, 33935.524038
   5.000000, 33892.399449
   5.100000, 33849.274860
   5.200000, 33802.251847
   5.300000, 33754.742079
   5.400000, 33707.232311
   5.500000, 33659.722542
   5.600000, 33612.212774
   5.700000, 33564.703006
   5.800000, 33517.193238
   5.900000, 33469.683470
   6.000000, 33422.173701
   6.100000, 33374.663933
   6.200000, 33313.080509
   6.300000, 33249.739856
   6.400000, 33186.399204
   6.500000, 33123.058551
   6.600000, 33059.717898
   6.700000, 32996.377246
   6.800000, 32933.036593
   6.900000, 32869.695941
   7.000000, 32806.355288
   7.100000, 32743.014635
   7.200000, 32681.341293
   7.300000, 32619.876130
   7.400000, 32558.410966
   7.500000, 32496.945803
   7.600000, 32435.480640
   7.700000, 32374.015477
   7.800000, 32312.550314
   7.900000, 32251.085150
   8.000000, 32189.619987
   8.100000, 32128.154824
   8.200000, 32066.573533
   8.300000, 32004.977742
   8.400000, 31943.381952
   8.500000, 31881.786161
   8.600000, 31820.190371
   8.700000, 31758.594580
   8.800000, 31696.998789
   8.900000, 31635.402999
   9.000000, 31573.807208
   9.100000, 31512.211417
   9.200000, 31450.567342
   9.300000, 31388.917237
   9.400000, 31327.267133
   9.500000, 31265.617028
   9.600000, 31203.966924
   9.700000, 31142.316819
   9.800000, 31080.666715
   9.900000, 31019.016610
  10.000000, 30957.366506
  10.100000, 30895.716401
  10.200000, 30834.083351
  10.300000, 30772.452430
  10.400000, 30710.821508
  10.500000, 30649.190587
  10.600000, 30587.559666
  10.700000, 30525.928745
  10.800000, 30464.297824
  10.900000, 30402.666902
  11.000000, 30341.035981
  11.100000, 30279.405060
  11.200000, 30217.853948
  11.300000, 30156.312800
  11.400000, 30094.771653
  11.500000, 30033.230505
  11.600000, 29971.689358
  11.700000, 29910.148210
  11.800000, 29848.607063
  11.900000, 29787.065915
  12.000000, 29725.524768
  12.100000, 29663.983621
  12.200000, 29586.374301
  12.300000, 29506.758719
  12.400000, 29427.143138
  12.500000, 29347.527556
  12.600000, 29267.911974
  12.700000, 29188.296393
  12.800000, 29108.680811
  12.900000, 29029.065229
  13.000000, 28949.449648
  13.100000, 28869.834066
  13.200000, 28790.288527
  13.300000, 28710.751734
  13.400000, 28631.214940
  13.500000, 28551.678147
  13.600000, 28472.141354
  13.700000, 28392.604560
  13.800000, 28313.067767
  13.900000, 28233.530973
  14.000000, 28153.994180
  14.100000, 28074.457387
  14.200000, 27996.229288
  14.300000, 27918.164593
  14.400000, 27840.099898
  14.500000, 27762.035202
  14.600000, 27683.970507
  14.700000, 27605.905811
  14.800000, 27527.841116
  14.900000, 27449.776420
  15.000000, 27371.711725
  15.100000, 27293.647030
  15.200000, 27216.695685
  15.300000, 27139.883354
  15.400000, 27063.071022
  15.500000, 26986.258690
  15.600000, 26909.446358
  15.700000, 26832.634027
  15.800000, 26755.821695
  15.900000, 26679.009363
  16.000000, 26602.197031
  16.100000, 26525.384700
  16.200000, 26449.723296
  16.300000, 26374.205596
  16.400000, 26298.687896
  16.500000, 26223.170196
  16.600000, 26147.652496
  16.700000, 26072.134796
  16.800000, 25996.617096
  16.900000, 25921.099397
  17.000000, 25845.581697
  17.100000, 25770.063997
  17.200000, 25695.730284
  17.300000, 25621.544402
  17.400000, 25547.358521
  17.500000, 25473.172639
  17.600000, 25398.986758
  17.700000, 25324.800876
  17.800000, 25250.614995
  17.900000, 25176.429113
  18.000000, 25102.243232
  18.100000, 25028.057350
  18.200000, 24955.084180
  18.300000, 24882.262429
  18.400000, 24809.440678
  18.500000, 24736.618926
  18.600000, 24663.797175
  18.700000, 24590.975424
  18.800000, 24518.153672
  18.900000, 24445.331921
  19.000000, 24372.510170
  19.100000, 24299.688418
  19.200000, 24228.635955
  19.300000, 24157.804404
  19.400000, 24086.972853
  19.500000, 24016.141302
  19.600000, 23945.309752
  19.700000, 23874.478201
  19.800000, 23803.646650
  19.900000, 23732.815099
  20.000000, 23661.983548
  20.100000, 23591.151997
  20.200000, 23521.653054
  20.300000, 23452.320500
  20.400000, 23382.987945
  20.500000, 23313.655391
  20.600000, 23244.322836
  20.700000, 23174.990282
  20.800000, 23105.657727
  20.900000, 23036.325173
  21.000000, 22966.992618
  21.100000, 22897.660064
  21.200000, 22829.724691
  21.300000, 22761.963770
  21.400000, 22694.202848
  21.500000, 22626.441927
  21.600000, 22558.681006
  21.700000, 22490.920084
  21.800000, 22423.159163
  21.900000, 22355.398241
  22.000000, 22287.637320
  22.100000, 22219.876399
  22.200000, 22153.316758
  22.300000, 22086.907109
  22.400000, 22020.497460
  22.500000, 21954.087811
  22.600000, 21887.678162
  22.700000, 21821.268513
  22.800000, 21754.858864
  22.900000, 21688.449215
  23.000000, 21622.039566
  23.045050, 21592.122201
  23.145050, 21514.467933
  23.245050, 21413.568358
  23.345050, 21312.668783
  23.445050, 21211.769208
  23.545050, 21110.869632
  23.645050, 21009.970057
  23.745050, 20909.070482
  23.845050, 20808.170907
  23.945050, 20707.271332
  24.045050, 20606.371756
  24.145050, 20494.573694
  24.245050, 20361.572278
  24.345050, 20228.570862
  24.445050, 20095.569446
  24.545050, 19962.568030
  24.645050, 19829.566613
  24.745050, 19696.565197
  24.845050, 19563.563781
  24.945050, 19430.562365
  25.045050, 19297.560949
  25.145050, 19158.789235
  25.245050, 19008.791222
  25.345050, 18858.793209
  25.445050, 18708.795196
  25.545050, 18558.797184
  25.645050, 18408.799171
  25.745050, 18258.801158
  25.845050, 18108.803146
  25.945050, 17958.805133
  26.045050, 17808.807120
  26.111100, 17709.733022
  26.211100, 16469.611735
  26.311100, 15229.490447
  26.411100, 13989.369160
  26.511100, 12749.247873
  26.611100, 11509.126586
  26.711100, 10269.005299
  26.811100, 9028.884012
  26.911100, 7788.762724
  27.011100, 6548.641437
  27.111100, 5308.520150
  27.211100, 4550.920875
  27.311100, 3793.321600
  27.411100, 3035.722325
  27.511100, 2278.123051
  27.611100, 1520.523776
  27.711100,  851.105013
  27.811100,  181.686251
  27.911100, -487.732511
  28.011100, -1157.151274
  28.111100, -1826.570036
  28.211100, -2475.644660
  28.311100, -3124.719283
  28.411100, -3773.793907
  28.511100, -4422.868530
