Speed, Power
 122.702048, 3276.602460
 124.490940, 3299.287620
 126.279832, 3321.251856
 128.068724, 3342.495169
 129.857617, 3363.017558
 131.646509, 3382.819023
 133.435401, 3401.899565
 135.224293, 3421.200757
 137.013185, 3443.335497
 138.802077, 3464.866392
 140.590969, 3485.793442
 142.379861, 3506.116646
 144.168753, 3525.836005
 145.957646, 3544.951520
 147.746538, 3563.463189
 149.535430, 3581.371013
 151.324322, 3598.674992
 153.113214, 3615.375126
 154.902106, 3631.471414
 156.690998, 3646.963858
 158.479890, 3663.339303
 160.268782, 3679.955053
 162.057674, 3696.018619
 163.846567, 3711.530001
 165.635459, 3726.489200
 167.424351, 3740.896216
 169.213243, 3754.751048
 171.002135, 3768.053697
 172.791027, 3780.804162
 174.579919, 3793.002444
 176.368811, 3804.648542
 178.157703, 3815.742457
 179.946596, 3826.440027
 181.735488, 3838.246734
 183.524380, 3849.537001
 185.313272, 3860.310827
 187.102164, 3870.568214
 188.891056, 3880.309161
 190.679948, 3889.533668
 192.468840, 3898.241735
 194.257732, 3906.433362
 196.046624, 3914.108549
 197.835517, 3921.267296
 199.624409, 3927.909603
 201.413301, 3934.035470
 203.202193, 3940.386208
 204.991085, 3946.913872
 206.779977, 3952.950022
 208.568869, 3958.494659
 210.357761, 3963.547781
 212.146653, 3968.109389
 213.935546, 3972.179484
 215.724438, 3975.758064
 217.513330, 3978.845131
 219.302222, 3981.440684
 221.091114, 3983.544722
 222.880006, 3985.157247
 224.668898, 3986.278258
 226.457790, 3990.683823
 228.246682, 3994.813700
 230.035574, 3998.514170
 231.824467, 4001.785231
 233.613359, 4004.626883
 235.402251, 4007.039128
 237.191143, 4009.021964
 238.980035, 4010.575392
 240.768927, 4011.699412
 242.557819, 4012.394024
 244.346711, 4012.659227
 246.135603, 4012.495022
 247.924496, 4013.166708
 249.713388, 4015.358618
 251.502280, 4017.167051
 253.291172, 4018.592007
 255.080064, 4019.633486
 256.868956, 4020.291488
 258.657848, 4020.566013
 260.446740, 4020.457062
 262.235632, 4019.964633
 264.024524, 4019.088727
 265.813417, 4017.829345
 267.602309, 4016.186486
 269.391201, 4014.160149
 271.180093, 4013.883943
 272.968985, 4013.678398
 274.757877, 4013.123110
 276.546769, 4012.218078
 278.335661, 4010.963301
 280.124553, 4009.358781
 281.913446, 4007.404516
 283.702338, 4005.100508
 285.491230, 4002.446755
 287.280122, 3999.443259
 289.069014, 3996.090018
 290.857906, 3992.387034
 292.646798, 3988.565818
 294.435690, 3985.022893
 296.224582, 3981.140652
 298.013474, 3976.919094
 299.802367, 3972.358219
