Speed, Power
 130.942051, 3081.179256
 132.601814, 3098.756600
 134.261577, 3117.910176
 135.921339, 3136.868454
 137.581102, 3155.348399
 139.240865, 3173.350011
 140.900628, 3190.873290
 142.560391, 3207.918237
 144.220153, 3224.484850
 145.879916, 3240.573131
 147.539679, 3256.183079
 149.199442, 3271.314695
 150.859205, 3285.967977
 152.518968, 3300.142927
 154.178730, 3313.839544
 155.838493, 3328.495442
 157.498256, 3343.914727
 159.158019, 3358.911829
 160.817782, 3373.486746
 162.477544, 3387.639479
 164.137307, 3401.370028
 165.797070, 3414.678392
 167.456833, 3427.564572
 169.116596, 3440.028568
 170.776359, 3452.070380
 172.436121, 3463.690007
 174.095884, 3474.887450
 175.755647, 3485.662709
 177.415410, 3496.504917
 179.075173, 3508.789685
 180.734935, 3520.695817
 182.394698, 3532.223315
 184.054461, 3543.372177
 185.714224, 3554.142405
 187.373987, 3564.533997
 189.033750, 3574.546954
 190.693512, 3584.181276
 192.353275, 3593.436962
 194.013038, 3602.314014
 195.672801, 3610.812430
 197.332564, 3618.932211
 198.992326, 3626.673357
 200.652089, 3635.840384
 202.311852, 3644.918736
 203.971615, 3653.652574
 205.631378, 3662.041898
 207.291140, 3670.086707
 208.950903, 3677.787003
 210.610666, 3685.142785
 212.270429, 3692.154053
 213.930192, 3698.820807
 215.589955, 3705.143047
 217.249717, 3711.120773
 218.909480, 3716.753984
 220.569243, 3722.042682
 222.229006, 3728.620087
 223.888769, 3736.280832
 225.548531, 3743.642267
 227.208294, 3750.704394
 228.868057, 3757.467211
 230.527820, 3763.930719
 232.187583, 3770.094917
 233.847346, 3775.959806
 235.507108, 3781.525386
 237.166871, 3786.791657
 238.826634, 3791.758619
 240.486397, 3796.426271
 242.146160, 3800.794614
 243.805922, 3805.415715
 245.465685, 3811.907833
 247.125448, 3818.137407
 248.785211, 3824.104437
 250.444974, 3829.808923
 252.104737, 3835.250865
 253.764499, 3840.430263
 255.424262, 3845.347117
 257.084025, 3850.001426
 258.743788, 3854.393191
 260.403551, 3858.522413
 262.063313, 3862.389090
 263.723076, 3865.993222
 265.382839, 3869.334811
 267.042602, 3874.455314
 268.702365, 3879.647741
 270.362127, 3884.606819
 272.021890, 3889.332547
 273.681653, 3893.824927
 275.341416, 3898.083958
 277.001179, 3902.109640
 278.660942, 3905.901973
 280.320704, 3909.460957
 281.980467, 3912.786593
 283.640230, 3915.878879
 285.299993, 3918.737816
 286.959756, 3921.363405
 288.619518, 3924.785171
 290.279281, 3928.889098
 291.939044, 3932.781852
 293.598807, 3936.463431
 295.258570, 3939.933837
