Ground Distance, Angles
   0.000000,    0.000000
   0.000002,    0.000000
   0.000022,    0.000000
   0.000226,    0.000000
   0.001291,    0.000000
   0.005104,    0.000000
   0.015419,    0.000000
   0.034445,    0.000000
   0.060907,    0.000000
   0.095143,    0.000000
   0.136995,    0.000000
   0.186585,    0.000000
   0.244177,    0.000000
   0.309661,    0.000000
   0.383384,    0.000000
   0.464596,    0.000000
   0.554366,    0.000000
   0.651722,    0.000000
   0.759051,    0.000000
   0.873426,    0.000000
   0.998138,    0.000000
   1.131639,    0.000000
   1.272799,    0.000000
   1.424084,    0.000000
   1.584706,    0.000000
   1.753900,    0.000000
   1.934560,    0.000000
   2.125491,    0.000000
   2.328509,    0.000000
   2.540082,    0.000000
   2.763545,    0.000000
   2.997145,    0.000000
   3.243145,    0.000000
   3.497772,    0.000000
   3.765584,    0.000000
   4.044731,    0.000000
   4.336938,    0.000000
   4.640331,    0.000000
   4.956859,    0.000000
   5.285238,    0.000000
   5.628484,    0.000000
   5.984910,    0.000000
   6.357473,    0.000000
   6.746396,    0.000000
   7.150007,    0.000000
   7.565005,    0.000000
   7.990867,    0.000000
   8.439822,    0.000000
   8.899169,    0.000000
   9.372376,    0.000000
   9.860217,    0.000000
  10.360945,    0.000000
  10.878834,    0.000000
  11.423024,    0.000000
  11.984490,    0.000000
  12.551330,    0.000000
  13.138233,    0.000000
  13.737695,    0.000000
  14.359330,    0.000000
  15.000298,    0.000000
  15.664892,    0.000000
  16.343528,    0.000000
  17.042004,    0.000000
  17.765361,    0.000000
  18.515136,    0.000000
  19.280573,    0.000000
  20.056205,    0.000000
  20.855059,    0.000000
  21.677347,    0.000000
  22.515624,    0.000000
  23.386885,    0.000000
  24.272080,    0.000000
  25.182208,    0.000000
  26.121187,    0.000000
  27.075071,    0.000000
  28.047680,    0.000000
  29.048784,    0.000000
  30.075066,    0.000000
  31.120838,    0.000000
  32.182859,    0.000000
  33.281620,    0.000000
  34.405339,    0.000000
  35.540840,    0.000000
  36.712812,    0.000000
  37.909416,    0.000000
  39.126360,    0.000000
  40.361336,    0.000000
  41.614920,    0.000000
  42.913094,    0.000000
  44.228646,    0.000000
  45.571183,    0.000000
  46.949817,    0.000000
  48.352233,    0.000000
  49.785236,    0.000000
  51.250922,    0.000000
  52.731743,    0.000000
  54.235229,    0.000000
  55.773368,    0.000000
  57.337142,    0.000000
  58.926704,    0.000000
  60.565105,    0.000000
  62.231112,    0.000000
  63.915331,    0.000000
  65.645288,    0.000000
  67.388350,    0.000000
  69.159723,    0.000000
  70.960879,    0.000000
  72.786381,    0.000000
  74.663786,    0.000000
  76.571180,    0.000000
  78.497588,    0.000000
  80.470902,    0.000000
  82.471079,    0.000000
  84.520175,    0.000000
  84.602921,    0.000000
  84.617744,    0.000000
  84.635179,    0.000000
  84.655410,    0.000000
  84.659482,    0.000000
  84.666094,    0.000000
  84.666853,    0.000000
  84.667666,    0.000000
  84.668410,    0.000000
  84.675748,    0.000000
  84.730699,    0.000000
  84.989568,    0.000000
  85.835770,    0.000000
  87.587744,    0.000000
  89.529982,    0.000000
  91.502881,    0.000000
  93.503151,    0.000000
  95.531319,    0.000000
  97.583334,    0.000000
  99.671008,    0.000000
 101.785063,    0.000000
 103.930804,    0.000000
 106.099909,    0.000000
 108.312588,    0.000000
 110.549334,    0.000000
 112.817536,    0.000000
 115.102068,    0.000000
 117.406823,    0.000000
 119.753684,    0.000000
 122.137033,    0.000000
 124.565089,    0.000000
 127.020278,    0.000000
 129.495114,    0.000000
 131.999905,    0.000000
 134.539282,    0.000000
 137.128477,    0.000000
 139.743485,    0.000000
 142.366008,    0.000000
 145.033905,    0.000000
 147.760073,    0.000000
 150.503636,    0.000000
 153.279565,    0.000000
 156.085548,    0.000000
 158.934639,    0.000000
 161.823828,    0.000000
 164.725735,    0.000000
 167.680482,    0.000000
 170.657263,    0.000000
 173.662589,    0.000000
 176.713216,    0.000000
 179.810161,    0.000000
 182.935424,    0.000000
 186.088671,    0.000000
 189.277825,    0.000000
 192.509394,    0.000000
 195.796580,    0.000000
 199.081692,    0.000000
 202.420153,    0.000000
 205.792702,    0.000000
 209.185670,    0.000000
 212.621365,    0.000000
 216.106555,    0.000000
 219.641163,    0.000000
 223.204355,    0.000000
 226.810658,    0.000000
 230.442855,    0.000000
 234.110619,    0.000000
 237.820063,    0.000000
 241.569934,    0.000000
 245.372548,    0.000000
 249.194750,    0.000000
 253.050899,    0.000000
 256.972943,    0.000000
 260.926008,    0.000000
 264.908129,    0.000000
 268.955990,    0.000000
 273.008013,    0.000000
 277.106243,    0.000000
 281.252352,    0.000000
 285.438606,    0.000000
 289.670968,    0.000000
 293.919855,    0.000000
 298.236262,    0.000000
 302.568832,    0.000000
 306.962508,    0.000000
 311.390226,    0.000000
 315.849165,    0.000000
 320.332408,    0.000000
 324.879358,    0.000000
 329.463008,    0.000000
 334.094516,    0.000000
 338.773151,    0.000000
 343.503068,    0.000000
 348.282112,    0.000000
 349.241774,    0.000000
 349.904518,    0.000000
 350.429096,    0.000000
 352.285631,    0.000000
 352.324670,    0.000000
 352.368523,    0.000000
 352.377818,    0.000000
 352.393865,    0.000000
 352.398585,    0.000000
 352.407201,    0.000000
 352.409184,    0.000000
 352.410242,    0.000000
 352.410736,    0.000000
 352.411187,    0.000000
 352.415699,    0.000000
 352.451656,    0.000000
 352.647699,    0.000000
 353.396389,    0.000000
 355.889802,    0.000000
 360.198202,    0.000000
 364.673321,    0.000000
 369.174362,    0.000000
 373.725233,    0.000000
 378.299438,    0.000000
 382.928424,    0.000000
 387.585347,    0.000000
 392.272024,    0.000000
 396.973704,    0.000000
 401.734621,    0.000000
 406.527181,    0.000000
 411.361673,    0.000000
 416.208508,    0.000000
 421.116320,    0.000000
 426.065451,    0.000000
 431.045299,    0.000000
 436.071477,    0.000000
 441.139826,    0.000000
 446.253391,    0.000000
 451.402457,    0.000000
 456.570201,    0.000000
 461.785331,    0.000000
 467.046958,    0.000000
 472.359684,    0.000000
 477.697632,    0.000000
 483.063596,    0.000000
 488.475763,    0.000000
 493.942952,    0.000000
 499.422945,    0.000000
 504.924910,    0.000000
 510.504727,    0.000000
 516.108503,    0.000000
 521.753440,    0.000000
 527.427631,    0.000000
 533.155733,    0.000000
 538.905202,    0.000000
 544.739969,    0.000000
 550.597267,    0.000000
 556.475594,    0.000000
 562.410097,    0.000000
 568.378302,    0.000000
 574.391975,    0.000000
 580.466377,    0.000000
 586.542385,    0.000000
 592.664779,    0.000000
 598.825805,    0.000000
 605.029430,    0.000000
 611.284359,    0.000000
 617.584280,    0.000000
 623.907132,    0.000000
 630.273183,    0.000000
 636.680920,    0.000000
 643.139595,    0.000000
 649.645983,    0.000000
 656.191010,    0.000000
 662.767429,    0.000000
 669.410060,    0.000000
 676.084824,    0.000000
 682.798831,    0.000000
 689.563325,    0.000000
 696.373213,    0.000000
 703.214757,    0.000000
 710.085631,    0.000000
 716.991836,    0.000000
 723.959155,    0.000000
 730.962615,    0.000000
 738.012579,    0.000000
 745.087015,    0.000000
 752.209527,    0.000000
 759.363693,    0.000000
 766.572738,    0.000000
 773.829023,    0.000000
 781.129321,    0.000000
 788.493538,    0.000000
 795.867599,    0.000000
 803.303269,    0.000000
 810.790045,    0.000000
 818.304785,    0.000000
 825.873485,    0.000000
 833.499644,    0.000000
 835.028612,    0.000000
 836.213814,    0.000000
 837.001397,    0.000000
 837.602217,    0.000000
 837.705048,    0.000000
 837.730379,    0.000000
 837.771298,    0.000000
 837.781735,    0.000000
 837.802610,    0.000000
 837.809395,    0.000000
 837.810107,    0.000000
 837.810761,    0.000000
 837.817300,    0.000000
 837.879813,    0.000000
 838.342997,    0.000000
 840.957162,    0.000000
 847.843489,    0.000000
 854.768277,    0.000000
 861.730900,    0.000000
 868.721996,    0.000000
 875.748050,    0.000000
 882.803759,    0.000000
 889.916920,    0.000000
 897.058398,    0.000000
 904.227730,    0.000000
 911.433788,    0.000000
 918.677454,    0.000000
 925.949964,    0.000000
 933.253754,    0.000000
 940.607181,    0.000000
 947.982484,    0.000000
 955.419593,    0.000000
 962.905417,    0.000000
 970.418013,    0.000000
 977.939740,    0.000000
 985.512728,    0.000000
 993.118905,    0.000000
1000.753866,    0.000000
1008.433088,    0.000000
1016.157439,    0.000000
1023.918758,    0.000000
1031.710442,    0.000000
1039.533796,    0.000000
1047.416049,    0.000000
1055.333829,    0.000000
1063.303718,    0.000000
1071.293940,    0.000000
1079.319019,    0.000000
1087.374081,    0.000000
1095.474519,    0.000000
1103.618832,    0.000000
1111.803992,    0.000000
1120.018213,    0.000000
1128.275677,    0.000000
1136.571631,    0.000000
1144.924266,    0.000000
1153.312743,    0.000000
1161.709610,    0.000000
1170.148990,    0.000000
1178.620471,    0.000000
1187.147650,    0.000000
1195.720640,    0.000000
1204.309381,    0.000000
1212.971688,    0.000000
1221.662532,    0.000000
1230.374235,    0.000000
1239.129511,    0.000000
1247.908222,    0.000000
1256.734374,    0.000000
1265.613066,    0.000000
1274.517244,    0.000000
1283.456632,    0.000000
1292.428629,    0.000000
1301.449985,    0.000000
1310.525694,    0.000000
1319.632711,    0.000000
1328.762884,    0.000000
1337.976858,    0.000000
1347.199477,    0.000000
1356.478853,    0.000000
1365.783230,    0.000000
1375.127659,    0.000000
1384.506243,    0.000000
1393.926962,    0.000000
1403.396379,    0.000000
1412.902422,    0.000000
1422.448609,    0.000000
1432.020828,    0.000000
1441.655035,    0.000000
1451.290065,    0.000000
1460.980207,    0.000000
1470.716581,    0.000000
1480.496212,    0.000000
1490.297695,    0.000000
1500.148408,    0.000000
1510.056383,    0.000000
1519.976578,    0.000000
1529.953256,    0.000000
1539.957700,    0.000000
1550.004538,    0.000000
1560.094309,    0.000000
1570.211436,    0.000000
1580.400372,    0.000000
1590.617865,    0.000000
1600.890545,    0.000000
1602.948249,    0.000000
1604.567977,    0.000000
1605.883273,    0.000000
1607.041541,    0.000000
1608.024690,    0.000000
1608.881886,    0.000000
1609.023032,    0.000000
1609.185025,    0.000000
1609.441466,    0.000000
1609.464994,    0.000000
1609.475442,    0.000000
1609.484928,    0.000000
1609.579792,    0.000000
1610.277549,    0.000000
1617.262160,    0.000000
1627.580424,    0.000000
1637.947317,    0.000000
1648.350141,    0.000000
1658.778284,    0.000000
1669.258621,    0.000000
1679.766040,    0.000000
1690.315605,    0.000000
1700.911687,    0.000000
1711.546663,    0.000000
1722.228870,    0.000000
1732.966362,    0.000000
1743.717498,    0.000000
1754.534953,    0.000000
1765.368952,    0.000000
1776.249881,    0.000000
1787.171893,    0.000000
1798.143020,    0.000000
1809.154749,    0.000000
1820.190044,    0.000000
1831.292984,    0.000000
1842.434407,    0.000000
1853.598512,    0.000000
1864.815255,    0.000000
1876.061120,    0.000000
1887.354070,    0.000000
1898.675030,    0.000000
1910.070826,    0.000000
1921.483017,    0.000000
1932.953180,    0.000000
1944.455952,    0.000000
1955.984876,    0.000000
1967.549729,    0.000000
1979.157487,    0.000000
1990.824464,    0.000000
2002.526516,    0.000000
2014.249486,    0.000000
2026.050271,    0.000000
2037.887171,    0.000000
2049.754448,    0.000000
2061.673982,    0.000000
2073.613696,    0.000000
2085.598865,    0.000000
2097.655718,    0.000000
2109.729771,    0.000000
2121.858823,    0.000000
2134.009735,    0.000000
2146.219423,    0.000000
2158.479747,    0.000000
2170.758594,    0.000000
2183.099804,    0.000000
2195.488015,    0.000000
2207.891273,    0.000000
2220.337250,    0.000000
2232.834764,    0.000000
2245.348935,    0.000000
2257.930597,    0.000000
2270.532750,    0.000000
2283.198659,    0.000000
2295.900664,    0.000000
2308.660477,    0.000000
2321.454398,    0.000000
2334.277136,    0.000000
2347.157959,    0.000000
2360.083033,    0.000000
2373.030732,    0.000000
2386.042270,    0.000000
2399.066328,    0.000000
2412.164437,    0.000000
2425.282369,    0.000000
2438.457435,    0.000000
2451.648197,    0.000000
2464.891688,    0.000000
2478.194850,    0.000000
2491.532405,    0.000000
2504.913602,    0.000000
2516.689726,    0.000000
2518.330925,    0.000000
2531.764083,    0.000000
2545.269080,    0.000000
2558.824471,    0.000000
2572.423874,    0.000000
2586.045924,    0.000000
2599.722752,    0.000000
2613.429541,    0.000000
2627.164067,    0.000000
2640.948115,    0.000000
2654.795534,    0.000000
2668.665763,    0.000000
2682.582317,    0.000000
2696.566506,    0.000000
2710.566439,    0.000000
2724.600498,    0.000000
2738.676932,    0.000000
2752.793752,    0.000000
2766.934513,    0.000000
2781.117807,    0.000000
2783.959263,    0.000000
2786.170445,    0.000000
2788.072144,    0.000000
2789.593543,    0.000000
2789.965916,    0.000000
2790.622981,    0.000000
2790.741082,    0.000000
2790.912115,    0.000000
2790.960717,    0.000000
2790.970737,    0.000000
2790.976943,    0.000000
2790.982636,    0.000000
2791.039570,    0.000000
2791.515469,    0.000000
2793.852568,    0.000000
2807.585629,    0.000000
2822.372277,    0.000000
2837.188237,    0.000000
2852.008229,    0.000000
2866.872864,    0.000000
2881.796759,    0.000000
2896.736339,    0.000000
2911.704414,    0.000000
2926.724211,    0.000000
2941.762298,    0.000000
2956.815195,    0.000000
2971.884212,    0.000000
2987.024090,    0.000000
3002.217853,    0.000000
3017.407497,    0.000000
3032.613962,    0.000000
3047.887210,    0.000000
3063.143109,    0.000000
3064.324295,    0.002822
3065.507364,    0.005704
3066.684424,    0.008629
3067.868367,    0.011627
3069.053280,    0.014684
3070.235360,    0.017790
3071.419433,    0.020958
3072.600394,    0.024174
3073.785466,    0.027457
3074.975015,    0.030810
3076.166096,    0.034224
3077.357702,    0.037696
3078.551627,    0.041232
3079.744937,    0.044823
3080.938373,    0.048472
3082.131253,    0.052175
3083.319926,    0.055922
3084.518694,    0.059758
3085.713904,    0.063640
3086.913794,    0.067594
3088.113554,    0.071604
3089.313380,    0.075672
3090.517798,    0.079813
3091.720505,    0.084005
3092.926305,    0.088266
3094.132823,    0.092586
3095.339485,    0.096965
3096.542924,    0.101389
3097.752950,    0.105895
3098.964938,    0.110465
3100.170185,    0.115068
3101.384115,    0.119761
3102.599798,    0.124519
3103.814877,    0.129333
3105.023498,    0.134178
3106.240018,    0.139113
3107.461170,    0.144124
3108.683048,    0.149196
3109.899247,    0.154303
3111.125472,    0.159510
3112.346091,    0.164752
3113.574055,    0.170083
3114.804907,    0.175485
3116.035323,    0.180944
3117.266434,    0.186465
3118.500521,    0.192058
3119.730104,    0.197689
3120.963987,    0.203399
3122.200209,    0.209177
3123.426925,    0.214970
3124.665626,    0.220878
3125.899329,    0.226821
3127.137429,    0.232843
3128.386038,    0.238976
3129.628980,    0.245141
3130.878671,    0.251398
3132.130372,    0.257725
3133.381398,    0.264108
3134.627997,    0.270528
3135.880457,    0.277038
3137.128956,    0.283587
3138.381943,    0.290218
3139.639498,    0.296934
3140.896457,    0.303706
3142.161036,    0.310579
3143.427401,    0.317523
3144.696759,    0.324543
3145.958513,    0.331582
3147.225564,    0.338711
3148.491333,    0.345893
3149.758621,    0.353143
3151.031588,    0.360487
3152.309106,    0.367918
3153.582826,    0.375388
3154.857488,    0.382923
3156.133549,    0.390528
3157.415899,    0.398232
3158.696215,    0.405984
3159.974707,    0.413786
3161.257558,    0.421676
3162.548536,    0.429677
3163.839779,    0.437741
3165.129951,    0.445861
3166.418189,    0.454030
3167.716336,    0.462323
3169.013388,    0.470672
3170.317793,    0.479130
3171.617972,    0.487623
3172.922360,    0.496206
3174.236352,    0.504915
3175.545206,    0.513653
3176.857103,    0.522474
3178.170804,    0.531371
3179.491010,    0.540327
3180.817352,    0.549340
3182.141057,    0.558352
3183.459668,    0.567344
3184.786167,    0.576406
3186.111662,    0.585477
3187.433523,    0.594538
3188.759659,    0.603645
3190.089949,    0.612796
3191.422519,    0.621978
3192.759677,    0.631207
3194.095675,    0.640445
3195.427147,    0.649667
3196.772504,    0.659000
3198.119601,    0.668362
3199.466361,    0.677738
3200.810721,    0.687112
3202.155753,    0.696507
3203.506204,    0.705956
3204.857471,    0.715427
3206.218144,    0.724979
3207.579454,    0.734552
3208.934522,    0.744097
3210.290640,    0.753665
3211.661330,    0.763352
3213.026506,    0.773016
3214.395785,    0.782726
3215.769027,    0.792479
3217.148688,    0.802295
3218.517182,    0.812047
3219.896167,    0.821890
3221.268682,    0.831702
3222.651619,    0.841606
3224.035866,    0.851535
3225.421982,    0.861494
3226.810325,    0.871485
3228.203901,    0.881530
3229.600371,    0.891612
3230.994881,    0.901696
3232.395430,    0.911840
3233.796864,    0.922007
3235.205320,    0.932242
3236.612324,    0.942482
3238.017825,    0.952728
3239.426407,    0.963013
3240.834241,    0.973309
3242.238044,    0.983591
3243.653817,    0.993977
3245.071621,    1.004395
3246.496232,    1.014880
3247.921346,    1.025384
3249.339204,    1.035852
3250.770916,    1.046439
3252.193587,    1.056975
3253.614870,    1.067517
3255.055712,    1.078221
3256.493200,    1.088917
3257.926521,    1.099598
3259.373937,    1.110401
3260.819339,    1.121206
3262.265075,    1.132030
3263.721399,    1.142950
3265.177129,    1.153883
3266.637295,    1.164865
3268.091670,    1.175821
3269.550103,    1.186825
3271.024459,    1.197965
3272.495668,    1.209099
3273.967094,    1.220251
3275.444337,    1.231465
3276.914438,    1.242641
3278.388600,    1.253865
3279.665449,    1.263601
3279.866346,    1.265133
3281.346917,    1.276440
3282.836841,    1.287836
3284.335904,    1.299318
3285.832837,    1.310802
3287.324951,    1.322265
3288.826895,    1.333822
3290.323059,    1.345351
3291.837447,    1.357038
3293.348208,    1.368714
3294.866627,    1.380467
3296.384775,    1.392236
3297.906344,    1.404048
3299.431914,    1.415909
3300.959514,    1.427803
3302.496504,    1.439788
3304.033477,    1.451791
3305.581024,    1.463894
3307.114333,    1.475903
3308.657466,    1.488007
3310.201437,    1.500135
3311.748024,    1.512302
3313.293661,    1.524478
3314.845221,    1.536719
3316.403145,    1.549028
3317.961557,    1.561358
3319.531514,    1.573798
3321.111529,    1.586335
3322.680027,    1.598799
3324.255611,    1.611337
3325.829186,    1.623878
3327.410511,    1.636498
3328.987724,    1.649103
3330.574202,    1.661800
3332.175395,    1.674633
3333.772245,    1.687449
3335.375666,    1.700337
3336.973278,    1.713196
3338.579130,    1.726139
3340.182520,    1.739081
3341.786968,    1.752050
3343.394887,    1.765064
3345.012863,    1.778178
3346.640154,    1.791387
3348.271709,    1.804648
3349.906178,    1.817952
3351.540407,    1.831272
3353.172819,    1.844596
3354.802816,    1.857918
3356.443470,    1.871346
3358.088135,    1.884825
3359.736794,    1.898355
3361.389999,    1.911942
3363.041038,    1.925529
3364.696083,    1.939168
3366.363996,    1.952931
3368.029641,    1.966694
3369.696401,    1.980485
3371.382817,    1.994458
3373.063736,    2.008404
3374.754042,    2.022447
3376.429071,    2.036382
3378.114883,    2.050425
3379.797865,    2.064464
3381.484789,    2.078554
3383.186782,    2.092788
3384.888470,    2.107040
3386.588687,    2.121297
3388.291112,    2.135592
3389.991076,    2.149885
3391.700820,    2.164280
3393.423863,    2.178805
3395.147556,    2.193355
3396.891830,    2.208097
3398.615205,    2.222683
3400.347402,    2.237362
3402.092204,    2.252167
3403.829587,    2.266928
3405.586753,    2.281877
3407.343772,    2.296844
3409.094605,    2.311777
3410.837501,    2.326662
3412.580480,    2.341567
3414.352511,    2.356739
3416.127507,    2.371956
3417.888825,    2.387075
3419.667672,    2.402364
3421.437290,    2.417593
3423.223411,    2.432983
3425.022012,    2.448500
3426.828745,    2.464108
3428.618088,    2.479584
3430.403994,    2.495050
3432.201835,    2.510639
3434.014548,    2.526377
3435.834223,    2.542194
3437.649442,    2.557993
3439.481801,    2.573960
3441.293308,    2.589765
3443.110908,    2.605643
3444.949909,    2.621728
3446.788874,    2.637832
3448.599270,    2.653705
3450.443692,    2.669896
3452.282118,    2.686054
3454.141639,    2.702417
3455.983009,    2.718640
3457.835874,    2.734984
3459.698027,    2.751430
3461.546387,    2.767773
3463.391749,    2.784110
3465.267608,    2.800735
3467.145875,    2.817402
3469.026798,    2.834113
3470.909602,    2.850860
3472.797271,    2.867670
3474.667451,    2.884344
3476.549007,    2.901139
3478.460368,    2.918219
3480.337595,    2.935014
3482.247364,    2.952121
3484.166920,    2.969334
3486.077144,    2.986484
3487.997365,    3.003744
3489.904013,    3.020901
3491.830272,    3.038255
3493.763681,    3.055692
3495.696185,    3.073142
3497.620921,    3.090541
3499.547069,    3.107973
3501.507279,    3.125732
3503.439956,    3.143262
3505.376741,    3.160849
3507.309236,    3.178416
3509.276811,    3.196323
3511.230063,    3.214118
3513.179090,    3.231894
3515.130537,    3.249712
3517.086416,    3.267590
3519.049368,    3.285553
3521.025056,    3.303651
3523.014597,    3.321896
3524.991128,    3.340041
3526.982174,    3.358340
3528.964988,    3.376582
3530.957406,    3.394932
3532.935368,    3.413169
3534.922768,    3.431512
3536.936272,    3.450115
3538.948478,    3.468726
3540.949018,    3.487249
3542.948858,    3.505785
3544.944234,    3.524298
3546.962734,    3.543045
3549.012409,    3.562102
3551.030218,    3.580882
3553.057821,    3.599772
3555.069835,    3.618536
3557.101594,    3.637504
3559.124972,    3.656412
3561.156601,    3.675416
3563.193376,    3.694488
3565.224854,    3.713529
3567.306767,    3.733063
3569.345448,    3.752210
3571.396462,    3.771492
3573.467433,    3.790981
3575.516403,    3.810281
3577.569131,    3.829636
3579.631427,    3.849100
3581.705003,    3.868689
3583.759255,    3.888115
3585.824057,    3.907659
3587.895992,    3.927289
3589.973141,    3.946987
3592.063574,    3.966830
3594.133539,    3.986497
3596.218248,    4.006323
3598.322141,    4.026350
3600.398239,    4.046130
3602.479066,    4.065974
3604.574598,    4.085977
3606.677316,    4.106067
3608.785938,    4.126231
3610.888465,    4.146356
3612.998887,    4.166574
3615.116448,    4.186879
3617.262617,    4.207477
3619.389433,    4.227907
3621.513579,    4.248330
3623.606916,    4.268475
3625.718015,    4.288808
3627.853012,    4.309389
3630.014297,    4.330242
3632.122289,    4.350598
3634.240438,    4.371070
3636.382388,    4.391790
3638.504893,    4.412339
3640.656346,    4.433185
3642.805530,    4.454028
3644.944943,    4.474793
3647.097593,    4.495704
3649.239900,    4.516531
3651.403063,    4.537579
3653.560391,    4.558587
3655.709615,    4.579534
3657.866867,    4.600575
3660.026859,    4.621661
3662.173899,    4.642636
3664.331436,    4.663731
3666.512011,    4.685068
3668.687194,    4.706370
3670.872395,    4.727786
3673.042662,    4.749072
3675.211936,    4.770365
3677.414310,    4.792000
3679.603547,    4.813522
3681.794171,    4.835074
3683.986670,    4.856661
3686.194817,    4.878419
3688.389310,    4.900058
3690.578636,    4.921663
3692.764642,    4.943250
3694.957323,    4.964919
3697.160638,    4.986710
3699.369310,    5.008569
3701.581368,    5.030477
3703.815391,    5.052619
3706.028241,    5.074567
3708.241290,    5.096532
3710.442160,    5.118392
3712.664926,    5.140484
3714.872133,    5.162437
3717.110986,    5.184721
3719.332749,    5.206849
3721.552891,    5.228976
3723.784015,    5.251228
3726.013267,    5.273476
3728.231358,    5.295627
3730.478405,    5.318082
3732.724738,    5.340545
3734.955611,    5.362868
3737.203227,    5.385373
3739.435383,    5.407737
3741.670271,    5.430143
3743.912075,    5.452633
3746.153859,    5.475137
3748.398068,    5.497679
3750.667912,    5.520492
3752.926200,    5.543204
3755.189273,    5.565977
3757.437555,    5.588616
3759.682664,    5.611236
3761.942115,    5.634014
3764.188340,    5.656672
3766.433342,    5.679331
3768.702803,    5.702250
3770.976285,    5.725223
3773.267758,    5.748391
3775.564282,    5.771623
3777.844330,    5.794702
3780.124089,    5.817791
3782.420916,    5.841066
3784.722169,    5.864398
3786.986716,    5.887371
3789.267258,    5.910519
3791.507166,    5.933266
3793.786931,    5.956430
3796.073763,    5.979679
3798.377773,    6.003114
3800.646963,    6.026206
3802.938487,    6.049538
3805.254433,    6.073131
3807.554295,    6.096572
3808.817586,    6.109452
