Speed, Forces
 120.813582, 5367.604417
 122.614345, 4824.662683
 124.415109, 4565.568227
 126.215872, 4398.938157
 128.016636, 4258.731091
 129.817399, 4142.926110
 131.618163, 4039.612499
 133.418926, 3936.879864
 135.219690, 3850.172785
 137.020453, 3762.303260
 138.821217, 3678.153629
 140.621980, 3607.484433
 142.422744, 3535.904437
 144.223507, 3464.073460
 146.024271, 3407.807954
 147.825035, 3350.844279
 149.625798, 3293.182437
 151.426562, 3240.617556
 153.227325, 3196.931519
 155.028089, 3152.729039
 156.828852, 3108.010115
 158.629616, 3065.339313
 160.430379, 3035.454797
 162.231143, 3005.232947
 164.031906, 2974.673763
 165.832670, 2943.777244
 167.633433, 2916.046539
 169.434197, 2899.866017
 171.234960, 2883.512608
 173.035724, 2866.986313
 174.836488, 2850.287130
 176.637251, 2833.415061
 178.438015, 2820.854013
 180.238778, 2816.484018
 182.039542, 2812.070144
 183.840305, 2807.612389
 185.641069, 2803.110755
 187.441832, 2798.565241
 189.242596, 2793.975847
 191.043359, 2791.462806
 192.844123, 2798.398448
 194.644886, 2805.399158
 196.445650, 2812.464937
 198.246413, 2819.595784
 200.047177, 2826.791699
 201.847941, 2834.052682
 203.648704, 2841.378734
 205.449468, 2848.769854
 207.250231, 2858.323744
 209.050995, 2878.019632
 210.851758, 2897.885914
 212.652522, 2917.922590
 214.453285, 2938.129661
 216.254049, 2958.507125
 218.054812, 2979.054984
 219.855576, 2999.773237
 221.656339, 3020.661883
 223.457103, 3041.720924
 225.257867, 3062.950359
 227.058630, 3084.350188
 228.859394, 3109.776811
 230.660157, 3142.012278
 232.460921, 3174.500395
 234.261684, 3207.241160
 236.062448, 3240.234573
 237.863211, 3273.480635
 239.663975, 3306.979345
 241.464738, 3340.730704
 243.265502, 3374.734711
 245.066265, 3408.991367
 246.867029, 3443.500671
 248.667792, 3478.262623
 250.468556, 3513.277224
 252.269320, 3548.544474
 254.070083, 3584.064372
 255.870847, 3619.836918
 257.671610, 3655.862113
 259.472374, 3699.942998
 261.273137, 3744.744909
 263.073901, 3789.856674
 264.874664, 3835.278294
 266.675428, 3881.009769
 268.476191, 3927.051097
 270.276955, 3973.402281
 272.077718, 4020.063318
 273.878482, 4067.034210
 275.679245, 4114.314957
 277.480009, 4161.905558
 279.280773, 4209.806013
 281.081536, 4258.016323
 282.882300, 4306.536487
 284.683063, 4355.366505
 286.483827, 4404.506378
 288.284590, 4453.956106
 290.085354, 4503.715687
 291.886117, 4553.785124
 293.686881, 4604.164414
 295.487644, 4654.853559
 297.288408, 4705.852559
 299.089171, 4757.161413
