Speed, Forces
 152.957750, 5367.604417
 154.270915, 5007.726844
 155.584080, 4785.534342
 156.897246, 4636.431902
 158.210411, 4495.361299
 159.523577, 4415.643777
 160.836742, 4335.267323
 162.149907, 4254.231940
 163.463073, 4183.053475
 164.776238, 4124.042231
 166.089404, 4064.558821
 167.402569, 4004.603247
 168.715735, 3944.475600
 170.028900, 3894.735136
 171.342065, 3844.609027
 172.655231, 3794.097274
 173.968396, 3743.199876
 175.281562, 3692.762799
 176.594727, 3652.279313
 177.907893, 3611.493666
 179.221058, 3570.405859
 180.534223, 3529.015892
 181.847389, 3487.323764
 183.160554, 3450.211164
 184.473720, 3417.789103
 185.786885, 3385.135423
 187.100051, 3352.250124
 188.413216, 3319.133206
 189.726381, 3285.784669
 191.039547, 3253.475292
 192.352712, 3228.464321
 193.665878, 3203.282017
 194.979043, 3177.928383
 196.292209, 3152.403418
 197.605374, 3126.707121
 198.918539, 3100.839492
 200.231705, 3074.800533
 201.544870, 3056.074169
 202.858036, 3038.842020
 204.171201, 3021.497960
 205.484367, 3004.041988
 206.797532, 2986.474105
 208.110697, 2968.794311
 209.423863, 2951.002605
 210.737028, 2933.098987
 212.050194, 2917.348346
 213.363359, 2908.057867
 214.676525, 2898.710033
 215.989690, 2889.304843
 217.302855, 2879.842297
 218.616021, 2870.322396
 219.929186, 2860.745139
 221.242352, 2851.110526
 222.555517, 2841.418558
 223.868683, 2831.669234
 225.181848, 2822.248031
 226.495013, 2819.744478
 227.808179, 2817.226368
 229.121344, 2814.693700
 230.434510, 2812.146475
 231.747675, 2809.584693
 233.060840, 2807.008354
 234.374006, 2804.417458
 235.687171, 2801.812004
 237.000337, 2799.191993
 238.313502, 2796.557425
 239.626668, 2793.908300
 240.939833, 2791.244618
 242.252998, 2792.613808
 243.566164, 2796.606894
 244.879329, 2800.621567
 246.192495, 2804.657826
 247.505660, 2808.715671
 248.818826, 2812.795103
 250.131991, 2816.896122
 251.445156, 2821.018727
 252.758322, 2825.162919
 254.071487, 2829.328698
 255.384653, 2833.516063
 256.697818, 2837.725014
 258.010984, 2841.955552
 259.324149, 2846.207677
 260.637314, 2850.481388
 261.950480, 2854.776686
 263.263645, 2865.832929
 264.576811, 2877.194068
 265.889976, 2888.611735
 267.203142, 2900.085931
 268.516307, 2911.616655
 269.829472, 2923.203908
 271.142638, 2934.847690
 272.455803, 2946.548000
 273.768969, 2958.304839
 275.082134, 2970.118207
 276.395300, 2981.988103
 277.708465, 2993.914528
 279.021630, 3005.897481
 280.334796, 3017.936963
 281.647961, 3030.032974
 282.961127, 3042.185514
