Speed, Forces
 130.327887, 5367.604417
 131.979211, 4863.183336
 133.630536, 4643.657327
 135.281861, 4461.354697
 136.933185, 4343.055025
 138.584510, 4223.320083
 140.235835, 4132.616250
 141.887159, 4044.761761
 143.538484, 3955.878811
 145.189809, 3880.598526
 146.841133, 3806.322686
 148.492458, 3731.206842
 150.143783, 3664.034354
 151.795107, 3603.863212
 153.446432, 3543.033910
 155.097757, 3481.546448
 156.749081, 3430.335729
 158.400406, 3382.193907
 160.051731, 3333.547577
 161.703055, 3284.396738
 163.354380, 3240.557613
 165.005705, 3203.453771
 166.657029, 3165.976739
 168.308354, 3128.126516
 169.959679, 3089.903102
 171.611003, 3057.848393
 173.262328, 3032.393805
 174.913653, 3006.695453
 176.564977, 2980.753338
 178.216302, 2954.567459
 179.867627, 2928.137817
 181.518951, 2910.368460
 183.170276, 2896.573165
 184.821601, 2882.652938
 186.472925, 2868.607781
 188.124250, 2854.437693
 189.775575, 2840.142673
 191.426899, 2825.722722
 193.078224, 2819.536185
 194.729549, 2815.812896
 196.380873, 2812.057898
 198.032198, 2808.271192
 199.683523, 2804.452778
 201.334847, 2800.602656
 202.986172, 2796.720826
 204.637497, 2792.807287
 206.288821, 2792.175378
 207.940146, 2798.072713
 209.591471, 2804.017067
 211.242795, 2810.008440
 212.894120, 2816.046833
 214.545445, 2822.132246
 216.196769, 2828.264678
 217.848094, 2834.444130
 219.499419, 2840.670600
 221.150743, 2846.944091
 222.802068, 2853.264601
 224.453393, 2867.243255
 226.104717, 2884.041011
 227.756042, 2900.961897
 229.407367, 2918.005913
 231.058691, 2935.173059
 232.710016, 2952.463334
 234.361341, 2969.876739
 236.012665, 2987.413274
 237.663990, 3005.072939
 239.315315, 3022.855733
 240.966639, 3040.761657
 242.617964, 3058.790711
 244.269289, 3076.942894
 245.920613, 3095.218208
 247.571938, 3121.188256
 249.223263, 3148.650750
 250.874587, 3176.295812
 252.525912, 3204.123442
 254.177237, 3232.133640
 255.828561, 3260.326406
 257.479886, 3288.701740
 259.131211, 3317.259643
 260.782535, 3346.000113
 262.433860, 3374.923152
 264.085185, 3404.028759
 265.736509, 3433.316934
 267.387834, 3462.787678
 269.039159, 3492.440989
 270.690483, 3522.276869
 272.341808, 3552.295317
 273.993133, 3582.496333
 275.644457, 3612.879917
 277.295782, 3643.446069
 278.947107, 3677.934595
 280.598431, 3715.869503
 282.249756, 3754.028317
 283.901081, 3792.411037
 285.552405, 3831.017663
 287.203730, 3869.848196
 288.855055, 3908.902635
 290.506379, 3948.180980
 292.157704, 3987.683231
 293.809029, 4027.409388
