Speed, Forces
 120.813582, 8388.577520
 122.614345, 8323.539756
 124.415109, 8258.501992
 126.215872, 8193.464228
 128.016636, 8128.426464
 129.817399, 8063.388700
 131.618163, 7998.350936
 133.418926, 7933.313172
 135.219690, 7872.784529
 137.020453, 7819.399506
 138.821217, 7766.014482
 140.621980, 7712.629459
 142.422744, 7659.244436
 144.223507, 7605.859412
 146.024271, 7552.474389
 147.825035, 7499.089366
 149.625798, 7445.704342
 151.426562, 7392.319319
 153.227325, 7338.934296
 155.028089, 7285.549272
 156.828852, 7232.164249
 158.629616, 7185.289621
 160.430379, 7138.857011
 162.231143, 7092.424400
 164.031906, 7045.991790
 165.832670, 6999.559179
 167.633433, 6953.126569
 169.434197, 6906.693958
 171.234960, 6860.261348
 173.035724, 6813.828737
 174.836488, 6767.396127
 176.637251, 6720.963516
 178.438015, 6674.530905
 180.238778, 6629.442593
 182.039542, 6585.776703
 183.840305, 6542.110812
 185.641069, 6498.444922
 187.441832, 6454.779031
 189.242596, 6411.113140
 191.043359, 6367.447250
 192.844123, 6323.781359
 194.644886, 6280.115469
 196.445650, 6236.449578
 198.246413, 6192.783688
 200.047177, 6149.117797
 201.847941, 6105.448583
 203.648704, 6061.688669
 205.449468, 6017.928754
 207.250231, 5974.168840
 209.050995, 5930.408925
 210.851758, 5886.649011
 212.652522, 5842.889097
 214.453285, 5799.129182
 216.254049, 5755.369268
 218.054812, 5711.609353
 219.855576, 5667.849439
 221.656339, 5624.089525
 223.457103, 5580.329610
 225.257867, 5539.814234
 227.058630, 5501.602437
 228.859394, 5463.390639
 230.660157, 5425.178842
 232.460921, 5386.967044
 234.261684, 5348.755247
 236.062448, 5310.543449
 237.863211, 5272.331652
 239.663975, 5234.119854
 241.464738, 5195.908057
 243.265502, 5157.696259
 245.066265, 5119.484462
 246.867029, 5081.835719
 248.667792, 5047.817549
 250.468556, 5013.799379
 252.269320, 4979.781208
 254.070083, 4945.763038
 255.870847, 4911.744868
 257.671610, 4877.726698
 259.472374, 4843.708527
 261.273137, 4809.690357
 263.073901, 4775.672187
 264.874664, 4741.654017
 266.675428, 4707.635846
 268.476191, 4673.617676
 270.276955, 4641.757366
 272.077718, 4610.895263
 273.878482, 4580.033160
 275.679245, 4549.171057
 277.480009, 4518.308954
 279.280773, 4487.446851
 281.081536, 4456.584748
 282.882300, 4425.722644
 284.683063, 4394.860541
 286.483827, 4363.998438
 288.284590, 4333.136335
 290.085354, 4302.274232
 291.886117, 4271.618938
 293.686881, 4241.643732
 295.487644, 4211.668527
 297.288408, 4181.693321
 299.089171, 4151.718115
