Speed, Forces
  75.235582, 23876.340620
  76.056791, 21838.699317
  76.877999, 20927.842891
  77.699208, 20079.788340
  78.520416, 19611.310422
  79.341624, 19155.918329
  80.162833, 18704.193434
  80.984041, 18371.086464
  81.805250, 18034.584451
  82.626458, 17694.687395
  83.447667, 17388.133639
  84.268875, 17104.974251
  85.090084, 16819.041935
  85.911292, 16530.336691
  86.732501, 16282.375349
  87.553709, 16051.823513
  88.374918, 15819.099032
  89.196126, 15584.201905
  90.017335, 15363.824614
  90.838543, 15180.434928
  91.659752, 14995.379814
  92.480960, 14808.659272
  93.302169, 14620.273304
  94.123377, 14445.331612
  94.944586, 14303.516398
  95.765794, 14160.469248
  96.587003, 14016.190162
  97.408211, 13870.679139
  98.229420, 13723.936180
  99.050628, 13604.004316
  99.871837, 13506.544261
 100.693045, 13408.279521
 101.514254, 13309.210095
 102.335462, 13209.335984
 103.156671, 13108.657186
 103.977879, 13007.173703
 104.799087, 12945.222269
 105.620296, 12892.386240
 106.441504, 12839.137802
 107.262713, 12785.476955
 108.083921, 12731.403700
 108.905130, 12676.918036
 109.726338, 12622.019964
 110.547547, 12566.709482
 111.368755, 12543.525005
 112.189964, 12529.277520
 113.011172, 12514.925362
 113.832381, 12500.468533
 114.653589, 12485.907032
 115.474798, 12471.240859
 116.296006, 12456.470014
 117.117215, 12441.594497
 117.938423, 12426.614308
 118.759632, 12411.529448
 119.580840, 12433.823347
 120.402049, 12456.502767
 121.223257, 12479.337403
 122.044466, 12502.327254
 122.865674, 12525.472320
 123.686883, 12548.772602
 124.508091, 12572.228100
 125.329300, 12595.838813
 126.150508, 12619.604741
 126.971717, 12643.525885
 127.792925, 12667.602245
 128.614134, 12691.833820
 129.435342, 12743.469635
 130.256551, 12807.737699
 131.077759, 12872.412226
 131.898967, 12937.493215
 132.720176, 13002.980666
 133.541384, 13068.874580
 134.362593, 13135.174956
 135.183801, 13201.881794
 136.005010, 13268.995095
 136.826218, 13336.514857
 137.647427, 13404.441082
 138.468635, 13472.773770
 139.289844, 13541.512919
 140.111052, 13610.658531
 140.932261, 13680.210606
 141.753469, 13750.169142
 142.574678, 13839.949811
 143.395886, 13944.884787
 144.217095, 14050.422437
 145.038303, 14156.562762
 145.859512, 14263.305760
 146.680720, 14370.651432
 147.501929, 14478.599777
 148.323137, 14587.150797
 149.144346, 14696.304491
 149.965554, 14806.060858
 150.786763, 14916.419899
 151.607971, 15027.381615
 152.429180, 15138.946004
 153.250388, 15251.113067
 154.071597, 15363.882803
 154.892805, 15477.255214
 155.714014, 15591.230299
 156.535222, 15705.808057
