Speed, Forces
  71.374682, 21488.671713
  72.234890, 19511.895390
  73.095097, 18676.709109
  73.955305, 17929.468374
  74.815512, 17479.921167
  75.675720, 17025.175308
  76.535927, 16646.758835
  77.396135, 16313.454699
  78.256342, 15976.425404
  79.116549, 15665.173081
  79.976757, 15383.816708
  80.836964, 15099.417783
  81.697172, 14811.976305
  82.557379, 14580.888794
  83.417587, 14350.904632
  84.277794, 14118.536567
  85.138002, 13883.784599
  85.998209, 13700.366862
  86.858417, 13516.764572
  87.718624, 13331.334917
  88.578832, 13144.077896
  89.439039, 12976.969634
  90.299247, 12835.749943
  91.159454, 12693.178529
  92.019662, 12549.255390
  92.879869, 12403.980529
  93.740077, 12269.063966
  94.600284, 12172.406368
  95.460491, 12074.865840
  96.320699, 11976.442384
  97.180906, 11877.135998
  98.041114, 11776.946684
  98.901321, 11682.198561
  99.761529, 11629.945604
 100.621736, 11577.240138
 101.481944, 11524.082163
 102.342151, 11470.471678
 103.202359, 11416.408684
 104.062566, 11361.893182
 104.922774, 11306.925169
 105.782981, 11287.031104
 106.643189, 11272.850183
 107.503396, 11258.554414
 108.363604, 11244.143794
 109.223811, 11229.618325
 110.084019, 11214.978006
 110.944226, 11200.222838
 111.804433, 11185.352820
 112.664641, 11170.367952
 113.524848, 11192.527955
 114.385056, 11215.089283
 115.245263, 11237.820918
 116.105471, 11260.722861
 116.965678, 11283.795112
 117.825886, 11307.037671
 118.686093, 11330.450538
 119.546301, 11354.033712
 120.406508, 11377.787195
 121.266716, 11401.710985
 122.126923, 11425.805083
 122.987131, 11483.479400
 123.847338, 11547.466499
 124.707546, 11611.899582
 125.567753, 11676.778650
 126.427960, 11742.103702
 127.288168, 11807.874739
 128.148375, 11874.091760
 129.008583, 11940.754766
 129.868790, 12007.863757
 130.728998, 12075.418732
 131.589205, 12143.419692
 132.449413, 12211.866636
 133.309620, 12280.759565
 134.169828, 12350.098478
 135.030035, 12428.389685
 135.890243, 12532.523129
 136.750450, 12637.317848
 137.610658, 12742.773842
 138.470865, 12848.891111
 139.331073, 12955.669654
 140.191280, 13063.109472
 141.051488, 13171.210564
 141.911695, 13279.972932
 142.771902, 13389.396574
 143.632110, 13499.481491
 144.492317, 13610.227682
 145.352525, 13721.635149
 146.212732, 13833.703890
 147.072940, 13946.433905
 147.933147, 14059.825196
 148.793355, 14173.877761
 149.653562, 14288.591601
 150.513770, 14403.966716
 151.373977, 14520.003105
 152.234185, 14636.700769
 153.094392, 14779.172188
 153.954600, 14923.915137
 154.814807, 15069.469090
 155.675015, 15215.834047
 156.535222, 15363.010008
