Speed, Forces
  67.292628, 19101.002807
  68.194068, 17261.529186
  69.095508, 16434.731097
  69.996949, 15804.119048
  70.898389, 15357.961793
  71.799829, 14927.127726
  72.701270, 14599.246501
  73.602710, 14267.274437
  74.504150, 13951.413242
  75.405591, 13673.590058
  76.307031, 13392.425649
  77.208471, 13117.431125
  78.109912, 12891.897146
  79.011352, 12663.745247
  79.912792, 12432.975431
  80.814233, 12231.168344
  81.715673, 12050.259779
  82.617113, 11867.344466
  83.518554, 11682.422405
  84.419994, 11520.242201
  85.321435, 11380.484323
  86.222875, 11239.242030
  87.124315, 11096.515322
  88.025756, 10952.304198
  88.927196, 10847.812747
  89.828636, 10751.676624
  90.730077, 10654.570899
  91.631517, 10556.495572
  92.532957, 10457.450644
  93.434398, 10373.342580
  94.335838, 10321.587291
  95.237278, 10269.335072
  96.138719, 10216.585922
  97.040159, 10163.339844
  97.941599, 10109.596835
  98.843040, 10055.356897
  99.744480, 10032.719256
 100.645920, 10018.700577
 101.547361, 10004.555774
 102.448801, 9990.284848
 103.350241, 9975.887797
 104.251682, 9961.364623
 105.153122, 9946.715325
 106.054563, 9931.939903
 106.956003, 9947.018521
 107.857443, 9969.302703
 108.758884, 9991.773911
 109.660324, 10014.432145
 110.561764, 10037.277405
 111.463205, 10060.309691
 112.364645, 10083.529004
 113.266085, 10106.935342
 114.167526, 10130.528707
 115.068966, 10154.309098
 115.970406, 10208.714866
 116.871847, 10271.968021
 117.773287, 10335.710940
 118.674727, 10399.943623
 119.576168, 10464.666071
 120.477608, 10529.878284
 121.379048, 10595.580261
 122.280489, 10661.772003
 123.181929, 10728.453510
 124.083369, 10795.624781
 124.984810, 10863.285816
 125.886250, 10931.436617
 126.787691, 11000.077181
 127.689131, 11090.928849
 128.590571, 11194.156659
 129.492012, 11298.110657
 130.393452, 11402.790845
 131.294892, 11508.197221
 132.196333, 11614.329786
 133.097773, 11721.188539
 133.999213, 11828.773481
 134.900654, 11937.084612
 135.802094, 12046.121932
 136.703534, 12155.885440
 137.604975, 12266.375137
 138.506415, 12377.591022
 139.407855, 12489.533097
 140.309296, 12602.201360
 141.210736, 12715.595812
 142.112176, 12829.716452
 143.013617, 12944.563281
 143.915057, 13070.105418
 144.816498, 13212.737681
 145.717938, 13356.260560
 146.619378, 13500.674055
 147.520819, 13645.978166
 148.422259, 13792.172893
 149.323699, 13939.258236
 150.225140, 14087.234195
 151.126580, 14236.100771
 152.028020, 14385.857962
 152.929461, 14536.505769
 153.830901, 14688.044192
 154.732341, 14840.473232
 155.633782, 14993.792887
 156.535222, 15148.003159
