Ground distance, Vertical Forces
   0.000000,    0.000001
   0.000002,    0.000026
   0.000020,    0.000348
   0.000149,    0.002568
   0.000844,    0.014576
   0.009713,    0.167736
   0.028168,    0.486353
   0.056342,    0.972612
   0.094383,    1.628948
   0.142289,    2.455260
   0.200090,    3.451934
   0.268159,    4.625286
   0.345949,    5.965790
   0.433793,    7.479086
   0.532009,    9.170540
   0.641048,   11.047783
   0.760237,   13.099114
   0.891327,   15.354568
   1.033556,   17.800883
   1.188436,   20.463937
   1.355821,   23.341056
   1.536611,   26.447553
   1.727693,   29.729801
   1.931754,   33.233828
   2.149282,   36.967846
   2.378010,   40.892783
   2.620984,   45.060768
   2.877608,   49.461375
   3.153509,   54.190892
   3.438707,   59.078064
   3.740966,   64.255757
   4.059623,   69.712399
   4.393889,   75.434244
   4.743275,   81.412716
   5.114186,   87.757183
   5.492051,   94.218183
   5.892412,  101.061293
   6.309676,  108.190611
   6.750035,  115.711668
   7.206305,  123.501428
   7.683750,  131.649520
   8.181316,  140.137647
   8.694175,  148.883171
   9.226904,  157.963915
   9.791761,  167.588376
  10.369660,  177.430991
  10.965893,  187.581692
  11.596128,  198.306759
  12.246221,  209.365084
  12.915556,  220.745853
  13.609044,  232.532231
  14.316901,  244.557645
  15.049908,  257.004945
  15.806929,  269.854427
  16.596454,  283.249696
  17.415346,  297.136981
  18.248875,  311.266113
  19.108041,  325.823252
  19.995418,  340.851543
  20.914004,  356.401192
  21.853185,  372.292109
  22.822747,  388.689424
  23.814851,  405.460094
  24.865116,  423.205434
  25.923896,  441.085979
  27.015616,  459.513874
  28.133793,  478.379153
  29.296206,  497.981086
  30.487030,  518.052089
  31.709763,  538.650548
  32.970048,  559.870829
  34.257490,  581.537300
  35.561064,  603.464065
  36.911021,  626.159367
  38.292145,  649.366580
  39.706092,  673.112913
  41.157840,  697.481267
  42.650617,  722.524989
  44.157157,  747.786170
  45.725589,  774.070996
  47.329946,  800.943247
  48.963393,  828.287773
  50.635187,  856.258872
  52.352261,  884.971621
  54.118320,  914.486929
  55.917906,  944.545555
  57.744872,  975.044241
  59.616994, 1006.278950
  61.523746, 1038.073217
  63.471987, 1070.540605
  65.475558, 1103.910652
  67.509317, 1137.763676
  69.594558, 1172.453203
  71.705278, 1207.545834
  73.862824, 1243.395718
  76.042946, 1279.599182
  78.305883, 1317.155329
  80.599167, 1355.192001
  82.951353, 1394.181771
  83.046209, 1395.753590
  83.106241, 1396.748356
  83.116990, 1396.926471
  83.134144, 1397.210712
  83.138054, 1397.275497
  83.143877, 1397.371991
  83.145380, 1397.396893
  83.148167, 1397.443075
  83.148520, 1397.448918
  83.148681, 1397.451583
  83.148870, 1397.454721
  83.150764, 1397.486106
  83.168686, 1397.783074
  83.270623, 1399.472127
  83.637802, 1405.555672
  84.611401, 1421.683005
  86.663252, 1455.654168
  88.834568, 1491.578347
  91.064183, 1528.440747
  93.310257, 1565.548643
  95.601741, 1603.379552
  97.925010, 1641.707499
 100.279469, 1680.521845
 102.696125, 1720.332443
 105.133308, 1760.451674
 107.615798, 1801.286609
 110.136890, 1842.725766
 112.703281, 1884.878041
 115.304129, 1927.564253
 117.952271, 1970.993929
 120.629564, 2014.868498
 123.364964, 2059.661221
 126.124778, 2104.819191
 128.918452, 2150.496260
 131.746872, 2196.706018
 134.640861, 2243.950528
 137.554463, 2291.478332
 140.533308, 2340.032556
 143.546784, 2389.112733
 146.611432, 2438.987007
 149.723226, 2489.588397
 152.865924, 2540.651667
 156.076013, 2592.768211
 159.336865, 2645.666183
 162.620205, 2698.885881
 165.950770, 2752.827345
 169.327355, 2807.469680
 172.749832, 2862.809423
 176.203577, 2918.609038
 179.726005, 2975.471466
 183.297764, 3033.082440
 186.926440, 3091.562607
 190.595815, 3150.649135
 194.313799, 3210.468041
 198.083966, 3271.075289
 201.913472, 3332.584110
 205.787556, 3394.755768
 209.684288, 3457.237474
 213.629901, 3520.448889
 217.650563, 3584.807171
 221.712774, 3649.774184
 225.805521, 3715.172852
 229.968388, 3781.634088
 234.180051, 3848.815491
 238.451168, 3916.885358
 242.758664, 3985.474415
 247.126827, 4054.967934
 251.565275, 4125.516691
 256.021865, 4196.290562
 260.565438, 4268.381076
 265.158493, 4341.190917
 269.767105, 4414.181429
 274.478657, 4488.734624
 279.219609, 4563.684573
 284.036707, 4639.768562
 288.903532, 4716.567190
 293.813926, 4793.981831
 298.773188, 4872.094636
 303.805809, 4951.289263
 308.879200, 5031.051004
 314.033550, 5112.009615
 319.222980, 5193.442554
 324.457451, 5275.504992
 329.782751, 5358.912348
 335.173730, 5443.267889
 340.608162, 5528.222036
 341.703081, 5545.328595
 342.300649, 5554.663375
 342.817830, 5562.741611
 343.291670, 5570.142232
 343.637877, 5575.549043
 343.890063, 5579.487301
 344.191009, 5584.186789
 344.477612, 5588.662059
 344.536243, 5589.577555
 344.542376, 5589.673323
 344.545399, 5589.720512
 344.547730, 5589.756921
 344.549176, 5589.779492
 344.550191, 5589.795341
 344.550575, 5589.801335
 344.550967, 5589.807462
 344.554891, 5589.868734
 344.589506, 5590.409210
 344.829468, 5594.155926
 345.955447, 5611.734047
 349.838005, 5672.312744
 354.783882, 5749.407359
 359.776554, 5827.146942
 364.799297, 5905.269768
 369.896447, 5984.463391
 375.026014, 6064.073328
 380.182011, 6144.005811
 385.419988, 6225.119855
 390.695472, 6306.724357
 396.003406, 6388.739954
 401.376477, 6471.669819
 406.808472, 6555.415547
 412.286894, 6639.782378
 417.797561, 6724.550566
 423.374247, 6810.237750
 428.987193, 6896.384679
 434.634064, 6982.954390
 440.350477, 7070.490891
 446.124079, 7158.802382
 451.944290, 7247.725026
 457.809253, 7337.228730
 463.716589, 7427.275612
 469.714542, 7518.598283
 475.717817, 7609.896228
 481.782399, 7702.019852
 487.905078, 7794.917933
 494.073351, 7888.398741
 500.302603, 7982.693356
 506.589565, 8077.749852
 512.916678, 8173.300890
 519.287457, 8269.398043
 525.715141, 8366.239067
 532.220930, 8464.140518
 538.760423, 8562.431985
 545.367433, 8661.619728
 552.023937, 8761.430789
 558.721962, 8861.743958
 565.477730, 8962.800259
 572.302651, 9064.767730
 579.199938, 9167.691314
 586.138780, 9271.108921
 593.099393, 9374.724804
 600.136693, 9479.354536
 607.231285, 9584.706901
 614.388135, 9690.853199
 621.614912, 9797.904374
 628.861771, 9905.120411
 636.187540, 10013.369762
 643.555022, 10122.100324
 650.982245, 10231.576164
 658.461113, 10341.675753
 666.013824, 10452.723231
 673.631790, 10564.589353
 681.313151, 10677.244085
 689.030949, 10790.290151
 696.822082, 10904.265818
 704.652292, 11018.667692
 712.550370, 11133.914300
 720.511860, 11249.937855
 728.540887, 11366.795679
 736.586550, 11483.745489
 744.664240, 11601.010520
 752.831570, 11719.424639
 761.073598, 11838.767508
 769.393308, 11959.078965
 777.737308, 12079.584944
 786.148134, 12200.898112
 794.641046, 12323.235290
 803.185106, 12446.147978
 811.823576, 12570.255378
 812.169374, 12575.219986
 812.223947, 12576.003469
 812.239743, 12576.230238
 812.267541, 12576.629321
 812.275681, 12576.746181
 812.291324, 12576.970762
 812.294318, 12577.013744
 812.296329, 12577.042614
 812.297018, 12577.052510
 812.297706, 12577.062377
 812.304579, 12577.161049
 812.373311, 12578.147787
 812.813071, 12584.460749
 814.893083, 12614.312919
 820.376552, 12692.952930
 827.990033, 12802.000325
 835.606557, 12910.929527
 843.299934, 13020.794497
 851.021099, 13130.892113
 858.787743, 13241.473159
 866.603397, 13352.585810
 874.480459, 13464.403676
 882.386126, 13576.459120
 890.332303, 13688.919582
 898.310866, 13801.668659
 906.362434, 13915.277886
 914.447867, 14029.192488
 922.609831, 14144.010930
 930.822735, 14259.370070
 939.058992, 14374.880946
 947.330501, 14490.709490
 955.684869, 14607.519471
 964.067309, 14724.542250
 972.499789, 14842.082928
 980.993232, 14960.291129
 989.531865, 15078.944863
 998.119013, 15198.088270
1006.756088, 15317.738707
1015.431186, 15437.729389
1024.185142, 15558.622332
1032.945843, 15679.419828
1041.772523, 15800.937261
1050.659153, 15923.088536
1059.607585, 16045.896125
1068.580830, 16168.850602
1077.606296, 16292.325996
1086.683868, 16416.318344
1095.820722, 16540.923053
1104.995321, 16665.844248
1114.246368, 16791.606209
1123.553223, 16917.925055
1132.902386, 17044.615399
1142.308692, 17171.876020
1151.744102, 17299.325810
1161.240832, 17427.397988
1170.786855, 17555.927805
1180.379063, 17684.871317
1190.026643, 17814.349755
1199.729279, 17944.356310
1209.482570, 18074.829616
1219.296541, 18205.901197
1229.147084, 18337.246945
1239.073679, 18469.390664
1249.024090, 18601.634775
1259.045914, 18734.609815
1269.147107, 18868.417467
1279.260898, 19002.171320
1289.433597, 19136.482552
1299.677193, 19271.506270
1309.962271, 19406.852158
1320.282674, 19542.437775
1330.677583, 19678.775354
1341.125041, 19815.573834
1351.614534, 19952.693547
1362.141792, 20090.077168
1372.761205, 20228.431334
1383.423342, 20367.108738
1394.161096, 20506.534422
1404.932492, 20646.160902
1415.728512, 20785.870485
1426.595836, 20926.265208
1437.531819, 21067.307455
1448.541916, 21209.064021
1459.577439, 21350.905896
1470.665392, 21493.178752
1481.813895, 21635.984219
1493.004987, 21779.089991
1504.275332, 21922.962034
1515.618879, 22067.519260
1526.977975, 22212.025214
1538.421475, 22357.353697
1538.513175, 22358.517233
1538.539883, 22358.856125
1538.558337, 22359.090277
1538.566769, 22359.197268
1538.651092, 22360.267183
1538.736826, 22361.354988
1539.347458, 22369.102362
1542.578697, 22410.086600
1553.648368, 22550.338705
1565.154644, 22695.872596
1576.695527, 22841.589397
1588.297865, 22987.826109
1599.933256, 23134.222803
1611.633779, 23281.181054
1623.401739, 23428.726587
1635.217918, 23576.615843
1647.131078, 23725.455482
1659.082401, 23874.507400
1671.112043, 24024.269754
1683.146684, 24173.828187
1695.231104, 24323.738611
1707.388227, 24474.282558
1719.604182, 24625.285139
1731.886699, 24776.838973
1744.189706, 24928.373921
1756.564216, 25080.516491
1769.004965, 25233.198654
1781.517474, 25386.484815
1794.085251, 25540.169986
1806.724229, 25694.446073
1819.423213, 25849.173310
1832.151256, 26003.972954
1844.935296, 26159.171072
1857.770654, 26314.708574
1870.650615, 26470.502158
1883.609276, 26626.961477
1896.634341, 26783.934519
1909.719666, 26941.344326
1922.835524, 27098.831588
1936.042898, 27257.125784
1949.326628, 27416.040954
1962.652537, 27575.165606
1976.032606, 27734.640899
1989.475213, 27894.564156
2002.966887, 28054.772709
2016.478271, 28214.916998
2030.091822, 28375.971624
2043.765659, 28537.437056
2057.470167, 28698.961914
2070.980778, 28857.906058
2071.270326, 28861.309205
2085.101765, 29036.088181
2099.006734, 29792.312583
2112.957212, 30551.307436
2127.009483, 31312.535492
2141.140510, 32078.077739
2155.357027, 32846.969850
2169.597766, 33618.646346
2183.936151, 34391.483548
2198.307531, 35167.631975
2212.766641, 35945.118452
2227.318919, 36726.191633
2241.910735, 37510.278445
2256.563745, 38295.483005
2271.275106, 39082.601738
2286.035357, 39871.306937
2300.868782, 40661.536285
2315.735891, 41453.618234
2330.699086, 42246.919835
2345.663891, 43042.375016
2360.730516, 43837.807424
2375.813127, 44635.669284
2390.935206, 45433.041173
2406.130899, 46231.321997
2421.318202, 47030.426997
2436.579879, 47828.574373
2451.870836, 48628.044336
2467.205342, 49427.389494
2482.590103, 50227.209022
2483.626005, 50786.709345
2484.652803, 50839.794555
2485.688659, 50892.693466
2486.727585, 50945.940467
2487.764696, 50999.245755
2488.802592, 51052.481906
2489.843291, 51105.772683
2490.883736, 51159.137628
2491.921591, 51212.431623
2492.965292, 51265.712677
2494.008220, 51319.164527
2495.050612, 51372.560847
2496.094501, 51425.943357
2497.139417, 51479.374732
2498.179594, 51532.743332
2499.225345, 51586.019352
2500.270811, 51639.463345
2501.321992, 51692.971077
2502.373327, 51746.658245
2503.425181, 51800.338184
2504.475087, 51853.982761
2505.530325, 51907.626499
2506.583985, 51961.406880
2507.636355, 52015.089819
2508.692960, 52068.776160
2509.747450, 52122.551742
2510.806186, 52176.302152
2511.865125, 52230.179810
2512.924176, 52284.043767
2513.983144, 52337.887543
2515.038811, 52391.651364
2516.101262, 52445.390313
2517.164412, 52499.350774
2518.232141, 52553.387076
2519.292557, 52607.436861
2520.360948, 52661.342957
2521.427354, 52715.466125
2522.497534, 52769.559079
2523.567834, 52823.759000
2524.639867, 52877.966957
2525.713009, 52932.227715
2526.784034, 52986.466847
2527.856301, 53040.628953
2528.926410, 53094.773061
2530.003867, 53148.938525
2531.081745, 53203.336223
2532.163917, 53257.792725
2533.245619, 53312.361903
2534.331738, 53366.960963
2535.414825, 53421.634433
2536.492758, 53476.093885
2537.578105, 53530.472291
2538.655323, 53584.943467
2539.739971, 53639.232519
2540.827169, 53693.788495
2541.915195, 53748.417107
2543.007234, 53803.111466
2544.103314, 53857.979757
2545.196322, 53912.906819
2546.289946, 53967.711357
2547.385704, 54022.542903
2548.484679, 54077.470140
2549.587613, 54132.541431
2550.687689, 54187.670876
2551.792510, 54242.751079
2552.896819, 54297.953539
2554.003564, 54353.148163
2555.107673, 54408.352068
2556.211020, 54463.424415
2557.324567, 54518.605537
2558.437522, 54574.089911
2559.548763, 54629.495414
2560.660724, 54647.438864
2561.775207, 54665.403979
2562.893101, 54683.404904
2564.014104, 54701.436574
2565.135827, 54719.460437
2566.258118, 54737.474001
2567.382246, 54755.497524
2568.507485, 54773.519264
2569.632053, 54791.510651
2570.760474, 54809.543929
2571.889204, 54827.562329
2573.020424, 54845.600579
2574.147920, 54863.559582
2575.278374, 54881.545744
2576.411198, 54899.549577
2577.546958, 54917.579870
2578.680797, 54935.559472
2579.818526, 54953.580468
2580.958597, 54971.618109
2582.101066, 54989.673129
2583.243031, 55007.699605
2584.387050, 55025.737822
2585.533110, 55043.787444
2586.680898, 55061.843417
2587.832128, 55079.932517
2588.977695, 55097.911704
2590.125982, 55115.912621
2591.276904, 55133.933732
2592.426910, 55151.919374
2593.583662, 55169.989195
2594.742363, 55188.067961
2595.896169, 55206.048954
2597.052274, 55224.044312
2598.213713, 55242.101070
2599.377663, 55260.175045
2600.542565, 55278.241932
2601.710723, 55296.337299
2602.872038, 55314.304775
2604.038933, 55332.336593
2605.213145, 55350.459163
2606.389048, 55368.585396
2607.564389, 55386.680477
2608.738220, 55404.729836
2609.918839, 55422.860908
2611.097645, 55440.941427
2612.278834, 55459.035670
2613.454644, 55477.024830
2614.634233, 55495.049015
2614.870629, 55498.658403
2615.415718, 55506.977548
2615.459512, 55507.645727
2615.487609, 55508.074394
2615.510471, 55508.423176
2615.527357, 55508.680787
2615.534263, 55508.786132
2615.537219, 55508.831232
2615.540075, 55508.874807
2615.542669, 55508.914374
2615.560664, 55509.188888
2615.648270, 55510.525281
2615.905499, 55514.448434
2617.025610, 55531.519333
2618.215672, 55549.633855
2619.406013, 55567.729435
2620.593717, 55585.761769
2621.785024, 55603.825571
2622.981010, 55621.936841
2624.175130, 55639.996378
2625.374261, 55658.108063
2626.573873, 55676.203262
2627.776941, 55694.326693
2628.987591, 55712.540188
2630.192901, 55730.649202
2631.388157, 55748.583376
2632.593210, 55766.640505
2633.809827, 55784.846404
2635.024905, 55803.004672
2636.238625, 55821.118042
2637.454302, 55839.235963
2638.673922, 55857.387793
2639.892384, 55875.497511
2641.115042, 55893.644568
2642.341653, 55911.825067
2643.570439, 55930.012433
2644.799421, 55948.177258
2646.035194, 55966.416790
2647.271625, 55984.640212
2648.503658, 56002.773107
2649.739760, 56020.940072
2650.974201, 56039.056776
2652.210928, 56057.181088
2653.449793, 56075.310663
2654.699128, 56093.567018
2655.681319, 56107.900951
2655.950831, 56111.831290
2657.194779, 56129.955921
2658.449752, 56148.214399
2659.695956, 56166.318630
2660.952456, 56184.545523
2662.209663, 56202.755543
2663.465781, 56220.922699
2664.728824, 56239.162641
2665.992393, 56257.382708
2667.261270, 56275.651602
2668.528924, 56293.875140
2669.796867, 56312.075061
2671.068924, 56330.306057
2672.348890, 56348.622110
2673.624142, 56366.842429
2674.906172, 56385.131126
2676.187943, 56403.387541
2677.471162, 56421.635925
2678.757606, 56439.901342
2680.048608, 56458.202419
2681.333411, 56476.386699
2682.627813, 56494.677625
2683.927846, 56513.018565
2685.222099, 56531.248491
2686.518818, 56549.483646
2687.824646, 56567.817005
2689.132447, 56586.147968
2690.440490, 56604.452148
2691.756635, 56622.839224
2693.062242, 56641.048812
2694.381735, 56659.421422
2695.706313, 56677.833808
2697.020270, 56696.067798
2698.343539, 56714.400016
2699.671316, 56732.763383
2701.003170, 56751.151597
2702.334220, 56769.497110
2703.659090, 56787.726044
2704.993638, 56806.056420
2706.338484, 56824.496011
2707.684703, 56842.921970
2709.028708, 56861.285196
2710.375441, 56879.653163
2711.721449, 56897.978658
2713.074622, 56916.368831
2714.432328, 56934.787446
2715.795869, 56953.251732
2717.150284, 56971.559194
2718.511193, 56989.921029
2719.875792, 57008.298960
2721.239922, 57026.636838
2722.604960, 57044.953116
2723.979632, 57063.364461
2725.364746, 57081.880872
2726.740612, 57100.239063
2728.112392, 57118.508370
2729.497741, 57136.923515
2730.878068, 57155.237026
2732.268473, 57173.649007
2733.661153, 57192.055604
2735.051921, 57210.401437
2736.447667, 57228.777223
2737.852741, 57247.239660
2739.260816, 57265.705074
2740.672566, 57284.182013
2742.073862, 57302.485767
2743.489557, 57320.940791
2744.904225, 57339.345423
2746.322276, 57357.756886
2747.732726, 57376.032695
2749.162140, 57394.516592
2750.587791, 57412.914030
2752.016793, 57431.316796
2753.449589, 57449.730262
2754.878072, 57468.050220
2756.319815, 57486.501651
2757.761736, 57504.916533
2759.210637, 57523.381395
2760.652301, 57541.715046
2762.101592, 57560.106452
2763.550827, 57578.457736
2765.008909, 57596.881264
2766.466962, 57615.264458
2767.924553, 57633.601839
2769.393121, 57652.036846
2770.858075, 57670.385968
2772.326220, 57688.734419
2773.791934, 57707.011841
2775.270006, 57725.402215
2776.742624, 57743.683578
2778.230421, 57762.111628
2779.706634, 57780.354672
2781.187810, 57798.617443
2782.687519, 57817.066197
2784.179125, 57835.372809
2785.670616, 57853.635594
2787.178251, 57872.052930
2788.681769, 57890.376740
2790.194469, 57908.768826
2791.692975, 57926.945166
2793.201703, 57945.202015
2794.711152, 57963.423903
2796.217761, 57981.567886
2797.744043, 57999.904309
2799.275948, 58018.263219
2800.811402, 58036.619311
2802.339582, 58054.843308
2803.880791, 58073.177046
2805.426098, 58091.513450
2806.977213, 58109.872334
2808.516986, 58128.050908
2810.066231, 58146.294953
2811.624227, 58164.595093
2813.172856, 58182.738500
2814.734125, 58200.982820
2816.296760, 58219.195608
2817.854468, 58237.303653
2819.422728, 58255.486574
2820.989696, 58273.606584
2822.557111, 58291.683781
2824.124744, 58309.715441
2825.707598, 58327.873397
2827.290665, 58345.984698
2828.861710, 58363.909882
2830.442822, 58381.901007
2832.039075, 58400.014601
2833.638967, 58418.119206
2835.230450, 58436.078675
2836.824786, 58454.020285
2838.428499, 58472.016850
2840.034900, 58489.992674
2841.638528, 58507.886611
2843.258397, 58525.910126
2844.891038, 58544.023198
2846.518485, 58562.026072
2848.158082, 58580.110220
2849.800196, 58598.168637
2851.425522, 58615.989674
2853.062825, 58633.888896
2854.708353, 58651.824265
2856.349311, 58669.656086
2857.990129, 58687.432694
2859.634475, 58705.193592
2861.284153, 58722.957790
2862.948511, 58740.824904
2864.602554, 58758.526337
2866.265924, 58776.272320
2867.921605, 58793.881160
2869.591804, 58811.588651
2871.263813, 58829.259194
2872.932347, 58846.836975
2874.620027, 58864.559451
2876.299273, 58882.136410
2877.985970, 58899.734126
2879.674078, 58917.289080
2881.350947, 58934.670169
2883.040445, 58952.124679
2884.738765, 58969.612118
2886.424603, 58986.913262
2888.117845, 59004.232416
2889.828786, 59021.673521
2891.527626, 59038.932477
2893.241475, 59056.284476
2894.951127, 59073.534469
2896.664614, 59090.763469
2898.396217, 59108.113851
2900.128121, 59125.406104
2901.842585, 59142.463944
2903.584163, 59159.730085
2905.302403, 59176.704101
2907.025893, 59193.669309
2908.754840, 59210.627124
2910.498973, 59227.671840
2912.237353, 59244.598257
2913.994367, 59261.643090
2915.739134, 59278.506367
2917.493055, 59295.395047
2919.264720, 59312.390344
2921.019635, 59329.161240
2922.777985, 59345.901327
2924.541926, 59362.630587
2926.297294, 59379.214788
2928.075583, 59395.950643
2929.849517, 59412.580401
2931.620143, 59429.114226
2933.399255, 59445.661930
2935.185342, 59462.208546
2936.972923, 59478.702780
2938.749604, 59495.030739
2940.540411, 59511.422198
2942.356911, 59527.980741
2944.175859, 59544.492844
2945.990742, 59560.899414
2947.813580, 59577.308861
2949.626723, 59593.562318
2951.442860, 59609.773885
2953.264809, 59625.968155
2955.077180, 59642.008494
2956.893881, 59658.018260
2958.712365, 59673.974591
2960.548649, 59690.016878
2962.374196, 59705.895336
2964.232303, 59721.985267
2966.076029, 59737.879077
2967.904622, 59753.571958
2969.772301, 59769.527760
2971.630089, 59785.326312
2973.472624, 59800.923450
2975.330974, 59816.582078
2977.199085, 59832.249632
2979.052294, 59847.719524
2980.917291, 59863.214683
2982.797441, 59878.761432
2984.647492, 59893.986411
2986.529347, 59909.398908
2988.387586, 59924.544501
2990.269983, 59939.812491
2992.136950, 59954.881215
2994.023279, 59970.031195
2995.903905, 59985.060278
2997.792885, 60000.080572
2999.670846, 60014.938168
3001.554168, 60029.762929
3003.465106, 60044.728018
3005.354960, 60059.451600
3007.254252, 60074.172130
3009.143456, 60088.738265
3011.025446, 60103.173168
3012.914564, 60117.586788
3014.831367, 60132.133829
3016.724928, 60146.427468
3018.640627, 60160.810284
3020.550980, 60175.074864
3022.468985, 60189.318072
3024.371123, 60203.365717
3026.291879, 60217.472262
3028.204620, 60231.441405
3030.126772, 60245.400298
3032.073293, 60259.455411
3033.993742, 60273.242602
3035.925252, 60287.029331
3037.872019, 60300.843884
3039.826480, 60314.631103
3041.775861, 60328.300663
3043.729015, 60341.914684
3045.669431, 60355.358603
3047.632037, 60368.873780
3049.601011, 60382.349395
3051.566190, 60395.715705
3053.519741, 60408.920353
3055.486983, 60422.134313
3057.440777, 60435.175236
3059.409104, 60448.229778
3061.358815, 60461.078290
3063.326544, 60473.962199
3065.295207, 60486.768397
3067.275445, 60499.565257
3069.255845, 60512.278234
3071.220597, 60524.806787
3073.211868, 60537.419074
3075.177330, 60549.783565
3077.161926, 60562.183387
3079.160342, 60574.583172
3081.137490, 60586.765646
3083.122527, 60598.911294
3085.125489, 60611.079810
3087.127576, 60623.155833
3089.120756, 60635.091514
3091.127068, 60647.018521
3093.136829, 60658.878166
3095.136533, 60670.591138
3097.129602, 60682.178550
3099.129162, 60693.716682
3101.137937, 60705.220193
3103.141007, 60716.603369
3105.161106, 60727.994630
3107.181625, 60739.299126
3109.195026, 60750.475102
3111.205105, 60761.544279
3113.238370, 60772.651282
3115.272635, 60783.673277
3117.302074, 60794.578920
3119.335097, 60805.413454
3121.380838, 60816.224438
3123.407728, 60826.845409
3125.441032, 60837.409570
3127.486598, 60847.946009
3129.513205, 60858.294339
3131.558949, 60868.649043
3133.611059, 60878.943730
3135.665288, 60889.156495
3137.725058, 60899.303803
3139.767135, 60909.271985
3141.830857, 60919.252770
3143.883538, 60929.087330
3145.931364, 60938.806350
3148.003081, 60948.544937
3150.070994, 60958.171521
3152.138996, 60967.704441
3154.195098, 60977.089208
3156.264649, 60986.441402
3158.327756, 60995.670612
3160.377933, 61004.749122
3162.362524, 61013.449016
