Speed, Power
 124.979743, 1935.969357
 126.745628, 1948.165622
 128.511513, 1959.907979
 130.277398, 1971.196428
 132.043283, 1982.030969
 133.809168, 1992.411602
 135.575053, 2002.338327
 137.340938, 2012.687234
 139.106824, 2023.853294
 140.872709, 2034.620945
 142.638594, 2044.990188
 144.404479, 2054.961023
 146.170364, 2064.533449
 147.936249, 2073.707467
 149.702134, 2082.483076
 151.468019, 2090.860277
 153.233904, 2098.839070
 154.999789, 2106.419455
 156.765674, 2113.601431
 158.531560, 2120.384998
 160.297445, 2128.483844
 162.063330, 2136.590537
 163.829215, 2144.345525
 165.595100, 2151.748807
 167.360985, 2158.800383
 169.126870, 2165.500253
 170.892755, 2171.848418
 172.658640, 2177.844877
 174.424525, 2183.489630
 176.190410, 2188.782678
 177.956296, 2193.724020
 179.722181, 2198.313656
 181.488066, 2202.996837
 183.253951, 2208.806957
 185.019836, 2214.303023
 186.785721, 2219.485036
 188.551606, 2224.352995
 190.317491, 2228.906900
 192.083376, 2233.146750
 193.849261, 2237.072548
 195.615146, 2240.684291
 197.381031, 2243.981980
 199.146917, 2246.965615
 200.912802, 2249.635197
 202.678687, 2251.990725
 204.444572, 2255.168724
 206.210457, 2258.687557
 207.976342, 2261.923328
 209.742227, 2264.876039
 211.508112, 2267.545687
 213.273997, 2269.932274
 215.039882, 2272.035800
 216.805767, 2273.856264
 218.571653, 2275.393667
 220.337538, 2276.648009
 222.103423, 2277.619289
 223.869308, 2278.307507
 225.635193, 2278.837488
 227.401078, 2281.339514
 229.166963, 2283.595953
 230.932848, 2285.606806
 232.698733, 2287.372074
 234.464618, 2288.891755
 236.230503, 2290.165851
 237.996389, 2291.194360
 239.762274, 2291.977284
 241.528159, 2292.514621
 243.294044, 2292.806372
 245.059929, 2292.852538
 246.825814, 2292.653118
 248.591699, 2292.756801
 250.357584, 2293.265812
 252.123469, 2293.546323
 253.889354, 2293.598334
 255.655239, 2293.421844
 257.421124, 2293.016854
 259.187010, 2292.383363
 260.952895, 2291.521373
 262.718780, 2290.430882
 264.484665, 2289.111891
 266.250550, 2287.564399
 268.016435, 2285.788407
 269.782320, 2283.783915
 271.548205, 2281.978276
 273.314090, 2280.013180
 275.079975, 2277.826038
 276.845860, 2275.416849
 278.611746, 2272.785614
 280.377631, 2269.932332
 282.143516, 2266.857003
 283.909401, 2263.559628
 285.675286, 2260.040207
 287.441171, 2256.298739
 289.207056, 2252.335224
 290.972941, 2248.149663
 292.738826, 2243.708273
 294.504711, 2238.957383
 296.270596, 2233.982979
 298.036482, 2228.785061
 299.802367, 2223.363629
