Speed, Power
 142.617114, 2591.111533
 144.112352, 2492.726404
 145.607590, 2380.329983
 147.102827, 2305.232702
 148.598065, 2261.528996
 150.093303, 2224.710728
 151.588540, 2192.727818
 153.083778, 2174.025355
 154.579016, 2154.083330
 156.074253, 2134.718416
 157.569491, 2122.867897
 159.064728, 2110.051669
 160.559966, 2096.260319
 162.055204, 2085.538314
 163.550441, 2077.310337
 165.045679, 2068.291178
 166.540917, 2058.473416
 168.036154, 2051.230705
 169.531392, 2046.751030
 171.026630, 2041.639238
 172.521867, 2035.889612
 174.017105, 2029.496437
 175.512342, 2028.229840
 177.007580, 2026.917261
 178.502818, 2025.109101
 179.998055, 2022.801073
 181.493293, 2019.988889
 182.988531, 2021.360339
 184.483768, 2024.141196
 185.979006, 2026.569285
 187.474244, 2028.641682
 188.969481, 2030.355459
 190.464719, 2031.707693
 191.959956, 2037.890819
 193.455194, 2045.809745
 194.950432, 2053.531017
 196.445669, 2061.053073
 197.940907, 2068.374352
 199.436145, 2075.493293
 200.931382, 2082.408333
 202.426620, 2093.644575
 203.921858, 2106.660159
 205.417095, 2119.613198
 206.912333, 2132.503226
 208.407570, 2145.329775
 209.902808, 2158.092375
 211.398046, 2170.790558
 212.893283, 2183.423858
 214.388521, 2198.021574
 215.883759, 2216.507907
 217.378996, 2235.054886
 218.874234, 2253.662938
 220.369472, 2272.332493
 221.864709, 2291.063978
 223.359947, 2309.857822
 224.855184, 2328.714453
 226.350422, 2347.634299
 227.845660, 2366.617789
 229.340897, 2386.511085
 230.836135, 2411.758027
 232.331373, 2437.191599
 233.826610, 2462.813030
 235.321848, 2488.623552
 236.817086, 2514.624397
 238.312323, 2540.816795
 239.807561, 2567.201977
 241.302798, 2593.781175
 242.798036, 2620.555619
 244.293274, 2647.526542
 245.788511, 2674.695173
 247.283749, 2702.062744
 248.778987, 2731.763967
 250.274224, 2766.613916
 251.769462, 2801.795716
 253.264700, 2837.311382
 254.759937, 2873.162930
 256.255175, 2909.352377
 257.750412, 2945.881740
 259.245650, 2982.753033
 260.740888, 3019.968274
 262.236125, 3057.529478
 263.731363, 3095.438662
 265.226601, 3133.697843
 266.721838, 3172.309035
 268.217076, 3211.274256
 269.712314, 3250.595522
 271.207551, 3290.274848
 272.702789, 3330.314252
 274.198026, 3373.589311
 275.693264, 3420.420880
 277.188502, 3467.718801
 278.683739, 3515.485643
 280.178977, 3563.723974
 281.674215, 3612.436362
 283.169452, 3661.625375
 284.664690, 3711.293580
 286.159928, 3761.443548
 287.655165, 3812.077844
 289.150403, 3863.199038
 290.645640, 3914.809698
