Speed, Power
 152.830626, 1630.611900
 154.175369, 1637.419969
 155.520113, 1644.083700
 156.864856, 1650.603092
 158.209600, 1656.978145
 159.554343, 1663.208860
 160.899087, 1669.295237
 162.243830, 1675.237275
 163.588574, 1681.034975
 164.933317, 1686.688336
 166.278061, 1692.197359
 167.622804, 1697.562044
 168.967548, 1702.782390
 170.312291, 1707.858397
 171.657035, 1712.790067
 173.001778, 1717.577398
 174.346522, 1723.295872
 175.691265, 1729.415855
 177.036009, 1735.416893
 178.380752, 1741.298986
 179.725496, 1747.062134
 181.070239, 1752.706337
 182.414983, 1758.231595
 183.759726, 1763.637909
 185.104470, 1768.925278
 186.449213, 1774.093702
 187.793957, 1779.143181
 189.138700, 1784.073715
 190.483444, 1788.885305
 191.828187, 1793.577949
 193.172931, 1798.151649
 194.517674, 1802.610588
 195.862418, 1808.262534
 197.207161, 1813.814068
 198.551905, 1819.265192
 199.896648, 1824.615904
 201.241392, 1829.866205
 202.586135, 1835.016094
 203.930879, 1840.065573
 205.275622, 1845.014640
 206.620366, 1849.863296
 207.965109, 1854.611541
 209.309853, 1859.259374
 210.654596, 1863.806797
 211.999340, 1868.253808
 213.344083, 1872.600408
 214.688827, 1876.846597
 216.033570, 1881.393450
 217.378314, 1886.648927
 218.723057, 1891.819275
 220.067801, 1896.904495
 221.412544, 1901.904587
 222.757288, 1906.819551
 224.102031, 1911.649388
 225.446775, 1916.394096
 226.791518, 1921.053676
 228.136262, 1925.628129
 229.481005, 1930.117453
 230.825749, 1934.521649
 232.170492, 1938.840718
 233.515236, 1943.074658
 234.859979, 1947.223471
 236.204723, 1951.287155
 237.549466, 1955.855753
 238.894210, 1960.644570
 240.238953, 1965.358511
 241.583697, 1969.997575
 242.928440, 1974.561762
 244.273184, 1979.051072
 245.617927, 1983.465506
 246.962671, 1987.805063
 248.307414, 1992.069743
 249.652158, 1996.259547
 250.996901, 2000.374474
 252.341645, 2004.414524
 253.686388, 2008.379697
 255.031132, 2012.269993
 256.375875, 2016.085413
 257.720619, 2019.825956
 259.065362, 2024.122350
 260.410106, 2028.352849
 261.754849, 2032.515170
 263.099592, 2036.609311
 264.444336, 2040.635273
 265.789079, 2044.593057
 267.133823, 2048.482662
 268.478566, 2052.304087
 269.823310, 2056.057334
 271.168053, 2059.742402
 272.512797, 2063.359291
 273.857540, 2066.908001
 275.202284, 2070.388532
 276.547027, 2073.800884
 277.891771, 2077.145058
 279.236514, 2080.489579
 280.581258, 2083.908039
 281.926001, 2087.260371
 283.270745, 2090.546576
 284.615488, 2093.766653
 285.960232, 2096.920604
