Speed, Forces
 139.439872, 3288.993670
 140.741085, 3266.691939
 142.042298, 3244.033494
 143.343512, 3222.527341
 144.644725, 3202.085219
 145.945938, 3183.277982
 147.247152, 3165.541199
 148.548365, 3148.669049
 149.849578, 3133.175864
 151.150791, 3118.787666
 152.452005, 3105.048798
 153.753218, 3092.867161
 155.054431, 3081.368069
 156.355645, 3070.792240
 157.656858, 3061.399023
 158.958071, 3052.437291
 160.259285, 3045.008306
 161.560498, 3037.725724
 162.861711, 3032.052248
 164.162924, 3026.440277
 165.464138, 3022.376858
 166.765351, 3018.281359
 168.066564, 3015.817828
 169.367778, 3013.343786
 170.668991, 3012.200527
 171.970204, 3011.343334
 173.271418, 3011.340009
 174.572631, 3012.092475
 175.873844, 3013.041006
 177.175057, 3015.393362
 178.476271, 3017.763059
 179.777484, 3021.037829
 181.078697, 3025.006348
 182.379911, 3029.003486
 183.681124, 3034.359373
 184.982337, 3039.950825
 186.283551, 3045.590750
 187.584764, 3052.758148
 188.885977, 3059.975437
 190.187190, 3067.242617
 191.488404, 3075.963447
 192.789617, 3084.805605
 194.090830, 3093.707645
 195.392044, 3103.681346
 196.693257, 3114.143536
 197.994470, 3124.675169
 199.295684, 3135.594701
 200.596897, 3147.668217
 201.898110, 3159.820305
 203.199323, 3172.050965
 204.500537, 3185.035416
 205.801750, 3198.794953
 207.102963, 3212.641764
 208.404177, 3226.575847
 209.705390, 3241.227795
 211.006603, 3256.673450
 212.307817, 3272.214648
 213.609030, 3287.851389
 214.910243, 3303.747615
 216.211456, 3320.874322
 217.512670, 3338.104413
 218.813883, 3355.437888
 220.115096, 3372.874746
 221.416310, 3390.926911
 222.717523, 3409.835241
 224.018736, 3428.854365
 225.319950, 3447.984283
 226.621163, 3467.224995
 227.922376, 3486.890035
 229.223589, 3507.578564
 230.524803, 3528.384868
 231.826016, 3549.308948
 233.127229, 3570.350802
 234.428443, 3591.510432
 235.729656, 3613.507811
 237.030869, 3636.092994
 238.332083, 3658.802502
 239.633296, 3681.636337
 240.934509, 3704.594497
 242.235722, 3727.676982
 243.536936, 3751.311314
 244.838149, 3775.791070
 246.139362, 3800.401273
 247.440576, 3825.141922
 248.741789, 3850.013018
 250.043002, 3875.014560
 251.344216, 3900.146548
 252.645429, 3925.900792
 253.946642, 3952.401439
 255.247855, 3979.038224
 256.549069, 4005.811146
 257.850282, 4032.720204
 259.151495, 4059.765400
 260.452709, 4086.946733
 261.753922, 4114.264204
 263.055135, 4142.444888
 264.356349, 4171.100787
 265.657562, 4199.898084
 266.958775, 4228.836778
 268.259988, 4257.916871
