Speed, Forces
 150.837183, 3288.993670
 151.973707, 3271.303706
 153.110231, 3252.572057
 154.246756, 3234.635784
 155.383280, 3217.821687
 156.519805, 3201.388858
 157.656329, 3186.211230
 158.792853, 3171.499477
 159.929378, 3157.644402
 161.065902, 3144.546584
 162.202426, 3132.018190
 163.338951, 3120.422121
 164.475475, 3109.222853
 165.611999, 3099.011303
 166.748524, 3089.141923
 167.885048, 3080.192614
 169.021572, 3071.652205
 170.158097, 3063.837814
 171.294621, 3056.623774
 172.431145, 3049.811933
 173.567670, 3043.919982
 174.704194, 3037.989323
 175.840718, 3033.397447
 176.977243, 3028.791948
 178.113767, 3024.906065
 179.250291, 3021.617799
 180.386816, 3018.308617
 181.523340, 3016.308360
 182.659864, 3014.315278
 183.796389, 3012.698387
 184.932913, 3012.009835
 186.069438, 3011.317039
 187.205962, 3011.218635
 188.342486, 3011.825030
 189.479011, 3012.435095
 190.615535, 3013.651668
 191.752059, 3015.553345
 192.888584, 3017.466327
 194.025108, 3019.784275
 195.161632, 3022.979045
 196.298157, 3026.192475
 197.434681, 3029.424564
 198.571205, 3033.871258
 199.707730, 3038.380144
 200.844254, 3042.914763
 201.980778, 3047.983971
 203.117303, 3053.780800
 204.253827, 3059.610154
 205.390351, 3065.472036
 206.526876, 3072.130773
 207.663400, 3079.244546
 208.799924, 3086.397359
 209.936449, 3093.589212
 211.072973, 3101.536607
 212.209497, 3109.967231
 213.346022, 3118.443128
 214.482546, 3126.964297
 215.619071, 3135.882661
 216.755595, 3145.626678
 217.892119, 3155.421920
 219.028644, 3165.268388
 220.165168, 3175.166081
 221.301692, 3185.873799
 222.438217, 3196.981285
 223.574741, 3208.145669
 224.711265, 3219.366951
 225.847790, 3230.645131
 226.984314, 3242.741862
 228.120838, 3255.213416
 229.257363, 3267.747259
 230.393887, 3280.343393
 231.530411, 3293.001816
 232.666936, 3306.061992
 233.803460, 3319.894007
 234.939984, 3333.793423
 236.076509, 3347.760241
 237.213033, 3361.794461
 238.349557, 3375.896082
 239.486082, 3390.551948
 240.622606, 3405.808846
 241.759130, 3421.137977
 242.895655, 3436.539341
 244.032179, 3452.012938
 245.168704, 3467.558768
 246.305228, 3483.276165
 247.441752, 3499.955033
 248.578277, 3516.710684
 249.714801, 3533.543120
 250.851325, 3550.452339
 251.987850, 3567.438342
 253.124374, 3584.501130
 254.260898, 3601.740670
 255.397423, 3619.914602
 256.533947, 3638.169589
 257.670471, 3656.505631
 258.806996, 3674.922727
 259.943520, 3693.420878
 261.080044, 3712.000084
 262.216569, 3730.660344
 263.353093, 3749.756213
