Speed, Forces
 120.132798, 3288.993670
 121.725604, 3256.862940
 123.318409, 3225.765039
 124.911215, 3197.165268
 126.504020, 3170.965490
 128.096826, 3147.062364
 129.689631, 3125.347338
 131.282437, 3105.706653
 132.875242, 3088.375745
 134.468048, 3073.048091
 136.060853, 3059.539093
 137.653659, 3047.716764
 139.246464, 3037.443908
 140.839270, 3029.366079
 142.432075, 3022.819265
 144.024881, 3017.508084
 145.617686, 3014.005850
 147.210492, 3012.068968
 148.803297, 3011.021762
 150.396103, 3012.089164
 151.988908, 3014.018509
 153.581714, 3017.376232
 155.174519, 3022.059290
 156.767325, 3027.716899
 158.360130, 3034.915210
 159.952936, 3042.877060
 161.545741, 3052.336539
 163.138547, 3062.601780
 164.731352, 3074.052718
 166.324158, 3086.615290
 167.916963, 3099.772354
 169.509769, 3114.620991
 171.102574, 3129.609811
 172.695380, 3146.301450
 174.288185, 3163.578291
 175.880991, 3181.318406
 177.473796, 3200.860716
 179.066602, 3220.579207
 180.659407, 3241.092783
 182.252213, 3263.065680
 183.845018, 3285.231454
 185.437824, 3308.082826
 187.030629, 3332.484999
 188.623435, 3357.095876
 190.216240, 3381.915458
 191.809046, 3408.640456
 193.401851, 3435.686447
 194.994657, 3462.956101
 196.587462, 3491.006967
 198.180268, 3520.470267
 199.773073, 3550.171324
 201.365879, 3580.110138
 202.958684, 3610.867569
 204.551490, 3642.973545
 206.144295, 3675.330502
 207.737101, 3707.938440
 209.329906, 3740.797358
 210.922712, 3775.468249
 212.515517, 3810.471524
 214.108323, 3845.738135
 215.701128, 3881.268083
 217.293934, 3917.189012
 218.886739, 3954.818606
 220.479545, 3992.723025
 222.072350, 4030.902269
 223.665156, 4069.356337
 225.257962, 4108.085230
 226.850767, 4148.023583
 228.443573, 4188.819972
 230.036378, 4229.901806
 231.629184, 4271.269085
 233.221989, 4312.921809
 234.814795, 4354.859977
 236.407600, 4397.724090
 238.000406, 4441.685453
 239.593211, 4485.942012
 241.186017, 4530.493769
 242.778822, 4575.340722
 244.371628, 4620.482872
 245.964433, 4665.920220
 247.557239, 4712.180607
 249.150044, 4759.593578
 250.742850, 4807.310631
 252.335655, 4855.331765
 253.928461, 4903.656980
 255.521266, 4952.286276
 257.114072, 5001.219653
 258.706877, 5050.457111
 260.299683, 5100.266497
 261.892488, 5151.426139
 263.485294, 5202.897877
 265.078099, 5254.681713
 266.670905, 5306.777645
 268.263710, 5359.185675
 269.856516, 5411.905803
 271.449321, 5464.938027
 273.042127, 5518.282349
 274.634932, 5571.938767
 276.227738, 5626.623586
 277.820543, 5682.147419
