Speed, Forces
 120.132798, 8886.805998
 121.725604, 8822.049613
 123.318409, 8757.293228
 124.911215, 8692.536843
 126.504020, 8627.780457
 128.096826, 8563.024072
 129.689631, 8498.267687
 131.282437, 8433.511302
 132.875242, 8371.746301
 134.468048, 8315.208514
 136.060853, 8258.670727
 137.653659, 8202.132940
 139.246464, 8145.595152
 140.839270, 8089.057365
 142.432075, 8032.519578
 144.024881, 7975.981791
 145.617686, 7919.444004
 147.210492, 7862.906216
 148.803297, 7806.368429
 150.396103, 7749.830642
 151.988908, 7693.292855
 153.581714, 7636.755067
 155.174519, 7580.217280
 156.767325, 7523.679493
 158.360130, 7467.141706
 159.952936, 7410.603919
 161.545741, 7354.066131
 163.138547, 7297.528344
 164.731352, 7240.990557
 166.324158, 7189.910652
 167.916963, 7142.477876
 169.509769, 7095.045101
 171.102574, 7047.612325
 172.695380, 7000.179550
 174.288185, 6952.746774
 175.880991, 6905.313999
 177.473796, 6857.881223
 179.066602, 6810.448448
 180.659407, 6763.015673
 182.252213, 6715.582897
 183.845018, 6668.150122
 185.437824, 6620.717346
 187.030629, 6573.284571
 188.623435, 6525.851795
 190.216240, 6478.419020
 191.809046, 6430.986244
 193.401851, 6383.553469
 194.994657, 6336.120693
 196.587462, 6288.687918
 198.180268, 6241.255142
 199.773073, 6200.330104
 201.365879, 6160.691990
 202.958684, 6121.053875
 204.551490, 6081.415760
 206.144295, 6041.777646
 207.737101, 6002.139531
 209.329906, 5962.501417
 210.922712, 5922.863302
 212.515517, 5883.225187
 214.108323, 5843.587073
 215.701128, 5803.948958
 217.293934, 5764.310843
 218.886739, 5724.672729
 220.479545, 5685.034614
 222.072350, 5645.396500
 223.665156, 5605.758385
 225.257962, 5566.120270
 226.850767, 5526.482156
 228.443573, 5486.844041
 230.036378, 5447.205926
 231.629184, 5408.040294
 233.221989, 5375.117728
 234.814795, 5342.195161
 236.407600, 5309.272595
 238.000406, 5276.350029
 239.593211, 5243.427463
 241.186017, 5210.504896
 242.778822, 5177.582330
 244.371628, 5144.659764
 245.964433, 5111.737198
 247.557239, 5078.814631
 249.150044, 5045.892065
 250.742850, 5012.969499
 252.335655, 4980.046932
 253.928461, 4947.124366
 255.521266, 4914.201800
 257.114072, 4881.279234
 258.706877, 4848.356667
 260.299683, 4815.434101
 261.892488, 4782.511535
 263.485294, 4749.588969
 265.078099, 4717.727149
 266.670905, 4688.273158
 268.263710, 4658.819168
 269.856516, 4629.365178
 271.449321, 4599.911187
 273.042127, 4570.457197
 274.634932, 4541.003206
 276.227738, 4511.549216
 277.820543, 4482.095226
