Time, Speed
   0.000000,    0.000367
   0.001667,    0.366320
   0.003333,    0.730513
   0.005000,    1.094443
   0.006667,    1.458373
   0.008333,    1.822303
   0.010000,    2.186233
   0.011667,    2.550163
   0.013333,    2.914093
   0.015000,    3.278023
   0.016667,    3.641953
   0.018333,    4.005883
   0.020000,    4.365904
   0.021667,    4.725437
   0.023333,    5.084970
   0.025000,    5.444503
   0.026667,    5.804036
   0.028333,    6.163569
   0.030000,    6.523102
   0.031667,    6.882635
   0.033333,    7.242168
   0.035000,    7.601702
   0.036667,    7.957207
   0.038333,    8.312209
   0.040000,    8.667211
   0.041667,    9.022214
   0.043333,    9.377216
   0.045000,    9.732218
   0.046667,   10.087220
   0.048333,   10.442223
   0.050000,   10.797225
   0.051667,   11.152227
   0.053333,   11.503090
   0.055000,   11.853437
   0.056667,   12.203783
   0.058333,   12.554130
   0.060000,   12.904476
   0.061667,   13.254822
   0.063333,   13.605169
   0.065000,   13.955515
   0.066667,   14.305861
   0.068333,   14.656208
   0.070000,   15.002312
   0.071667,   15.347886
   0.073333,   15.693460
   0.075000,   16.039034
   0.076667,   16.384608
   0.078333,   16.730182
   0.080000,   17.075757
   0.081667,   17.421331
   0.083333,   17.766905
   0.085000,   18.112479
   0.086667,   18.453202
   0.088333,   18.793319
   0.090000,   19.133436
   0.091667,   19.473553
   0.093333,   19.813670
   0.095000,   20.153787
   0.096667,   20.493904
   0.098333,   20.834021
   0.100000,   21.174139
   0.101667,   21.514256
   0.103333,   21.848390
   0.105000,   22.181778
   0.106667,   22.515166
   0.108333,   22.848554
   0.110000,   23.181942
   0.111667,   23.515329
   0.113333,   23.848717
   0.115000,   24.182105
   0.116667,   24.515493
   0.118333,   24.848880
   0.120000,   25.176237
   0.121667,   25.502839
   0.123333,   25.829442
   0.125000,   26.156045
   0.126667,   26.482648
   0.128333,   26.809251
   0.130000,   27.135854
   0.131667,   27.462457
   0.133333,   27.789060
   0.135000,   28.115663
   0.136667,   28.436220
   0.138333,   28.756023
   0.140000,   29.075826
   0.141667,   29.395629
   0.143333,   29.715432
   0.145000,   30.035235
   0.146667,   30.355038
   0.148333,   30.674841
   0.150000,   30.994644
   0.151667,   31.314447
   0.153333,   31.628201
   0.155000,   31.941199
   0.156667,   32.254197
   0.158333,   32.567195
   0.160000,   32.880193
   0.161667,   33.193190
   0.163333,   33.506188
   0.165000,   33.819186
   0.166667,   34.132184
   0.168333,   34.445182
   0.170000,   34.752134
   0.171667,   35.058332
   0.173333,   35.364529
   0.175000,   35.670726
   0.176667,   35.976923
   0.178333,   36.283121
   0.180000,   36.589318
   0.181667,   36.895515
   0.183333,   37.201712
   0.185000,   37.507910
   0.186667,   37.807200
   0.188333,   38.105627
   0.190000,   38.404055
   0.191667,   38.702482
   0.193333,   39.000910
   0.195000,   39.299338
   0.196667,   39.597765
   0.198333,   39.896193
   0.200000,   40.194621
   0.201667,   40.493048
   0.203333,   40.783647
   0.205000,   41.073269
   0.206667,   41.362891
   0.208333,   41.652513
   0.210000,   41.942134
   0.211667,   42.231756
   0.213333,   42.521378
   0.215000,   42.811000
   0.216667,   43.100622
   0.218333,   43.390243
   0.220000,   43.672156
   0.221667,   43.953105
   0.223333,   44.234055
   0.225000,   44.515005
   0.226667,   44.795955
   0.228333,   45.076904
   0.230000,   45.357854
   0.231667,   45.638804
   0.233333,   45.919753
   0.235000,   46.200703
   0.236667,   46.474074
   0.238333,   46.746500
   0.240000,   47.018925
   0.241667,   47.291350
   0.243333,   47.563775
   0.245000,   47.836200
   0.246667,   48.108625
   0.248333,   48.381050
   0.250000,   48.653475
   0.251667,   48.925900
   0.253333,   49.190883
   0.255000,   49.454937
   0.256667,   49.718991
   0.258333,   49.983044
   0.260000,   50.247098
   0.261667,   50.511151
   0.263333,   50.775205
   0.265000,   51.039259
   0.266667,   51.303312
   0.268333,   51.567366
   0.270000,   51.824118
   0.271667,   52.079958
   0.273333,   52.335799
   0.275000,   52.591639
   0.276667,   52.847479
   0.278333,   53.103320
   0.280000,   53.359160
   0.281667,   53.615000
   0.283333,   53.870841
   0.285000,   54.126681
   0.286667,   54.375365
   0.288333,   54.623155
   0.290000,   54.870945
   0.291667,   55.118735
   0.293333,   55.366525
   0.295000,   55.614315
   0.296667,   55.862105
   0.298333,   56.109895
   0.300000,   56.357686
   0.301667,   56.605476
   0.303333,   56.847568
   0.305000,   57.088948
   0.306667,   57.330329
   0.308333,   57.571710
   0.310000,   57.813090
   0.311667,   58.054471
   0.312369,   58.156231
   0.314036,   58.393765
   0.315703,   58.631299
   0.317369,   58.868833
   0.319036,   59.103797
   0.320703,   59.333053
   0.322369,   59.562309
   0.324036,   59.791566
   0.325703,   60.020822
   0.327369,   60.250078
   0.329036,   60.479335
   0.330703,   60.708591
   0.332369,   60.937847
   0.334036,   61.167104
   0.335703,   61.392076
   0.337369,   61.607539
   0.339036,   61.823003
   0.340703,   62.038466
   0.342369,   62.253929
   0.344036,   62.469392
   0.345703,   62.684855
   0.347369,   62.900318
   0.349036,   63.115781
   0.350703,   63.331244
   0.352369,   63.541891
   0.354036,   63.741846
   0.355703,   63.941801
   0.357369,   64.141756
   0.359036,   64.341711
   0.360703,   64.541667
   0.362369,   64.741622
   0.364036,   64.941577
   0.365703,   65.141532
   0.367369,   65.341487
   0.368518,   65.479341
   0.370185,   65.603015
   0.371852,   65.726689
   0.373518,   65.850363
   0.375185,   65.974036
   0.376852,   66.097710
   0.378518,   66.221384
   0.380185,   66.345058
   0.381852,   66.468731
   0.383518,   66.592405
   0.385185,   66.716079
   0.386852,   66.778708
   0.388518,   66.841338
   0.390185,   66.903967
   0.391852,   66.966597
   0.393518,   67.029226
   0.395185,   67.058929
   0.396852,   67.088633
   0.398518,   67.118336
   0.400185,   67.148039
   0.401852,   67.177742
   0.403518,   67.173022
   0.405185,   67.168302
   0.406852,   67.163583
   0.408518,   67.158863
   0.410185,   67.154143
   0.410185,   87.455556
   1.604481,   87.455556
   2.823272,   87.455556
   4.081386,   87.455556
   5.429985,   87.455556
   6.915721,   87.455556
   8.560390,   87.455556
  10.397371,   87.455556
  12.485334,   87.455556
  14.968358,   87.455556
  14.968358,   98.210127
  15.830802,   98.210127
  16.693245,   98.210127
  17.555688,   98.210127
  18.418132,   98.210127
  19.280575,   98.210127
  20.143018,   98.210127
  21.005461,   98.210127
  21.867905,   98.210127
  22.730348,   98.210127
  23.592791,   98.210127
  24.455235,   98.210127
  25.317678,   98.210127
  26.180121,   98.210127
  27.042565,   98.210127
  27.905008,   98.210127
  28.767451,   98.210127
  29.629895,   98.210127
  30.492338,   98.210127
  31.354781,   98.210127
  32.217225,   98.210127
  33.079668,   98.210127
  33.942111,   98.210127
  34.804555,   98.210127
  35.666998,   98.210127
  36.529441,   98.210127
  37.391885,   98.210127
  38.254328,   98.210127
  39.116771,   98.210127
  39.979215,   98.210127
  39.979215,  113.177778
  41.139143,  113.177778
  42.301874,  113.177778
  43.463193,  113.177778
  44.619342,  113.177778
  45.768081,  113.177778
  46.905098,  113.177778
  48.026307,  113.177778
  49.143709,  113.177778
  50.253604,  113.177778
  50.253604,   87.455556
  50.833005,   87.455556
  51.418049,   87.455556
  52.008556,   87.455556
  52.607292,   87.455556
  53.225054,   87.455556
  53.871173,   87.455556
  54.548638,   87.455556
  55.259779,   87.455556
  56.006440,   87.455556
  56.006440,   73.176150
  57.858634,   73.144206
  59.711637,   73.112260
  61.565449,   73.080313
  63.420072,   73.048363
  65.275506,   73.016413
  67.131752,   72.984460
  68.988810,   72.952506
  70.846682,   72.920551
  72.705368,   72.888594
  72.705368,  113.177778
  73.351774,  113.177778
  73.988012,  113.177778
  74.626788,  113.177778
  75.268241,  113.177778
  75.912514,  113.177778
  76.559398,  113.177778
  77.208755,  113.177778
  77.860123,  113.177778
  78.512585,  113.177778
  78.512585,   73.176150
  83.512585,   73.144206
  88.512585,   73.112260
  93.512585,   73.080313
  98.512585,   73.048363
 103.512585,   73.016413
 108.512585,   72.984460
 113.512585,   72.952506
 118.512585,   72.920551
 123.512585,   72.888594
 123.512585,   48.837056
 123.514252,   59.826582
 123.515918,   59.827768
 123.517585,   59.828955
 123.519252,   59.830098
 123.520918,   59.831233
 123.522585,   59.832368
 123.524252,   59.833503
 123.525918,   59.834638
 123.527585,   59.835773
 123.529252,   59.836908
 123.530918,   59.838043
 123.532585,   59.839178
 123.534252,   59.840313
 123.535918,   59.841430
 123.537585,   59.842544
 123.539252,   59.843659
 123.540918,   59.844773
 123.542585,   59.845887
 123.544252,   59.847001
 123.545918,   59.848115
 123.547585,   59.849229
 123.549252,   59.850344
 123.550918,   59.851458
 123.552585,   59.852570
 123.554252,   59.853682
 123.555918,   59.854794
 123.557585,   59.855906
 123.559252,   59.857018
 123.560918,   59.858130
 123.562585,   59.859242
 123.564252,   59.860354
 123.565918,   59.861466
 123.567585,   59.862578
 123.569252,   59.863605
 123.570918,   59.864616
 123.572585,   59.865627
 123.574252,   59.866638
 123.575918,   59.867649
 123.577585,   59.868660
 123.579252,   59.869671
 123.580918,   59.870681
 123.582585,   59.871692
 123.584252,   59.872703
 123.585918,   59.873787
 123.587585,   59.874885
 123.589252,   59.875983
 123.590918,   59.877082
 123.592585,   59.878180
 123.594252,   59.879278
 123.595918,   59.880376
 123.597585,   59.881474
 123.599252,   59.882572
 123.600918,   59.883670
 123.602585,   59.884739
 123.604252,   59.885803
 123.605918,   59.886866
 123.607585,   59.887930
 123.609252,   59.888993
 123.610918,   59.890056
 123.612585,   59.891120
 123.614252,   59.892183
 123.615918,   59.893247
 123.617585,   59.894310
 123.619252,   59.895377
 123.620918,   59.896446
 123.622585,   59.897514
 123.624252,   59.898582
 123.625918,   59.899651
 123.627585,   59.900719
 123.629252,   59.901787
 123.630918,   59.902855
 123.632585,   59.903924
 123.634252,   59.904992
 123.635918,   59.906099
 123.637585,   59.907214
 123.639252,   59.908329
 123.640918,   59.909444
 123.642585,   59.910559
 123.644252,   59.911674
 123.645918,   59.912789
 123.647585,   59.913904
 123.649252,   59.915019
 123.650918,   59.916134
 123.652585,   59.917212
 123.654252,   59.918283
 123.655918,   59.919354
 123.657585,   59.920426
 123.659252,   59.921497
 123.660918,   59.922568
 123.662585,   59.923639
 123.664252,   59.924711
 123.665918,   59.925782
 123.667585,   59.926853
 123.669252,   59.927923
 123.670918,   59.928993
 123.672585,   59.930062
 123.674252,   59.931132
 123.675918,   59.932201
 123.677585,   59.933271
 123.679252,   59.934341
 123.680918,   59.935410
 123.682585,   59.936480
 123.684252,   59.937549
 123.685918,   59.938537
 123.687585,   59.939509
 123.689252,   59.940480
 123.690918,   59.941452
 123.692585,   59.942423
 123.694252,   59.943395
 123.695918,   59.944367
 123.697585,   59.945338
 123.699252,   59.946310
 123.700918,   59.947282
 123.702585,   59.948238
 123.704252,   59.949192
 123.705918,   59.950145
 123.707585,   59.951099
 123.709252,   59.952053
 123.710918,   59.953006
 123.712585,   59.953960
 123.714252,   59.954913
 123.715918,   59.955867
 123.717585,   59.956821
 123.719252,   59.957770
 123.720918,   59.958719
 123.722585,   59.959668
 123.724252,   59.960617
 123.725918,   59.961566
 123.727585,   59.962515
 123.729252,   59.963464
 123.730918,   59.964413
 123.732585,   59.965362
 123.734252,   59.966311
 123.735918,   59.967297
 123.737585,   59.968291
 123.739252,   59.969286
 123.740918,   59.970280
 123.742585,   59.971274
 123.744252,   59.972268
 123.745918,   59.973262
 123.747585,   59.974256
 123.749252,   59.975250
 123.750918,   59.976244
 123.752585,   59.977201
 123.754252,   59.978151
 123.755918,   59.979100
 123.757585,   59.980050
 123.759252,   59.981000
 123.760918,   59.981949
 123.762585,   59.982899
 123.764252,   59.983848
 123.765918,   59.984798
 123.767585,   59.985748
 123.769252,   59.986700
 123.770918,   59.987653
 123.772585,   59.988605
 123.774252,   59.989558
 123.775918,   59.990511
 123.777585,   59.991463
 123.779252,   59.992416
 123.780918,   59.993369
 123.782585,   59.994321
 123.784252,   59.995274
 123.785918,   59.996271
 123.787585,   59.997276
 123.789252,   59.998281
 123.790918,   59.999287
 123.792585,   60.000292
 123.794252,   60.001297
 123.795918,   60.002302
 123.797585,   60.003307
 123.799252,   60.004313
 123.800918,   60.005318
 123.802585,   60.006291
 123.804252,   60.007258
 123.805918,   60.008225
 123.807585,   60.009192
 123.809252,   60.010159
 123.810918,   60.011127
 123.812585,   60.012094
 123.814252,   60.013061
 123.815918,   60.014028
 123.817585,   60.014995
 123.819252,   60.015969
 123.820918,   60.016944
 123.822585,   60.017920
 123.824252,   60.018895
 123.825918,   60.019870
 123.827585,   60.020846
 123.829252,   60.021821
 123.830918,   60.022796
 123.832585,   60.023772
 123.834252,   60.024747
 123.835918,   60.025769
 123.837585,   60.026801
 123.839252,   60.027832
 123.840918,   60.028864
 123.842585,   60.029895
 123.844252,   60.030927
 123.845918,   60.031958
 123.847585,   60.032989
 123.849252,   60.034021
 123.850918,   60.035052
 123.852585,   60.036053
 123.854252,   60.037048
 123.855918,   60.038043
 123.857585,   60.039038
 123.859252,   60.040034
 123.860918,   60.041029
 123.862585,   60.042024
 123.864252,   60.043019
 123.865918,   60.044014
 123.867585,   60.045009
 123.869252,   60.046011
 123.870918,   60.047015
 123.872585,   60.048018
 123.874252,   60.049022
 123.875918,   60.050025
 123.877585,   60.051029
 123.879252,   60.052032
 123.880918,   60.053036
 123.882585,   60.054040
 123.884252,   60.055043
 123.885918,   60.056092
 123.887585,   60.057151
 123.889252,   60.058209
 123.890918,   60.059267
 123.892585,   60.060325
 123.894252,   60.061383
 123.895918,   60.062441
 123.897585,   60.063500
 123.899252,   60.064558
 123.900918,   60.065616
 123.902585,   60.066641
 123.904252,   60.067660
 123.905918,   60.068679
 123.907585,   60.069697
 123.909252,   60.070716
 123.910918,   60.071735
 123.912585,   60.072754
 123.914252,   60.073773
 123.915918,   60.074791
 123.917585,   60.075810
 123.919252,   60.076832
 123.920918,   60.077855
 123.922585,   60.078878
 123.924252,   60.079901
 123.925918,   60.080924
 123.927585,   60.081947
 123.929252,   60.082970
 123.930918,   60.083993
 123.932585,   60.085016
 123.934252,   60.086039
 123.935918,   60.087103
 123.937585,   60.088176
 123.939252,   60.089248
 123.940918,   60.090321
 123.942585,   60.091394
 123.944252,   60.092466
 123.945918,   60.093539
 123.947585,   60.094611
 123.949252,   60.095684
 123.950918,   60.096756
 123.952585,   60.097791
 123.954252,   60.098818
 123.955918,   60.099846
 123.957585,   60.100873
 123.959252,   60.101901
 123.960918,   60.102928
 123.962585,   60.103956
 123.964252,   60.104983
 123.965918,   60.106010
 123.967585,   60.107038
 123.969252,   60.108064
 123.970918,   60.109089
 123.972585,   60.110115
 123.974252,   60.111141
 123.975918,   60.112166
 123.977585,   60.113192
 123.979252,   60.114217
 123.980918,   60.115243
 123.982585,   60.116269
 123.984252,   60.117294
 123.985918,   60.118357
 123.987585,   60.119426
 123.989252,   60.120496
 123.990918,   60.121566
 123.992585,   60.122635
 123.994252,   60.123705
 123.995918,   60.124775
 123.997585,   60.125844
 123.999252,   60.126914
 124.000918,   60.127983
 124.002585,   60.129011
 124.004252,   60.130030
 124.005918,   60.131049
 124.007585,   60.132068
 124.009252,   60.133088
 124.010918,   60.134107
 124.012585,   60.135126
 124.014252,   60.136145
 124.015918,   60.137164
 124.017585,   60.138184
 124.019252,   60.139312
 124.020918,   60.140461
 124.022585,   60.141610
 124.024252,   60.142760
 124.025918,   60.143909
 124.027585,   60.145058
 124.029252,   60.146207
 124.030918,   60.147357
 124.032585,   60.148506
 124.034252,   60.149655
 124.035918,   60.150818
 124.037585,   60.151984
 124.039252,   60.153150
 124.040918,   60.154316
 124.042585,   60.155482
 124.044252,   60.156648
 124.045918,   60.157814
 124.047585,   60.158979
 124.049252,   60.160145
 124.050918,   60.161311
 124.052585,   60.162422
 124.054252,   60.163522
 124.055918,   60.164622
 124.057585,   60.165722
 124.059252,   60.166822
 124.060918,   60.167922
 124.062585,   60.169022
 124.064252,   60.170122
 124.065918,   60.171222
 124.067585,   60.172322
 124.069252,   60.173402
 124.070918,   60.174479
 124.072585,   60.175555
 124.074252,   60.176632
 124.075918,   60.177708
 124.077585,   60.178785
 124.079252,   60.179861
 124.080918,   60.180938
 124.082585,   60.182015
 124.084252,   60.183091
 124.085918,   60.184165
 124.087585,   60.185238
 124.089252,   60.186311
 124.090918,   60.187384
 124.092585,   60.188457
 124.094252,   60.189531
 124.095918,   60.190604
 124.097585,   60.191677
 124.099252,   60.192750
 124.100918,   60.193823
 124.102585,   60.194930
 124.104252,   60.196043
 124.105918,   60.197156
 124.107585,   60.198269
 124.109252,   60.199382
 124.110918,   60.200495
 124.112585,   60.201608
 124.114252,   60.202721
 124.115918,   60.203834
 124.117585,   60.204947
 124.119252,   60.206018
 124.120918,   60.207081
 124.122585,   60.208143
 124.124252,   60.209206
 124.125918,   60.210269
 124.127585,   60.211332
 124.129252,   60.212395
 124.130918,   60.213458
 124.132585,   60.214521
 124.134252,   60.215583
 124.135918,   60.216641
 124.137585,   60.217698
 124.139252,   60.218755
 124.140918,   60.219812
 124.142585,   60.220869
 124.144252,   60.221926
 124.145918,   60.222983
 124.147585,   60.224040
 124.149252,   60.225098
 124.150918,   60.226155
 124.152585,   60.227126
 124.154252,   60.228082
 124.155918,   60.229037
 124.157585,   60.229993
 124.159252,   60.230948
 124.160918,   60.231904
 124.162585,   60.232859
 124.164252,   60.233815
 124.165918,   60.234770
 124.167585,   60.235726
 124.169252,   60.236666
 124.170918,   60.237603
 124.172585,   60.238540
 124.174252,   60.239477
 124.175918,   60.240414
 124.177585,   60.241350
 124.179252,   60.242287
 124.180918,   60.243224
 124.182585,   60.244161
 124.184252,   60.245098
 124.185918,   60.246033
 124.187585,   60.246966
 124.189252,   60.247900
 124.190918,   60.248834
 124.192585,   60.249768
 124.194252,   60.250701
 124.195918,   60.251635
 124.197585,   60.252569
 124.199252,   60.253503
 124.200918,   60.254436
 124.202585,   60.255411
 124.204252,   60.256394
 124.205918,   60.257377
 124.207585,   60.258360
 124.209252,   60.259343
 124.210918,   60.260325
 124.212585,   60.261308
 124.214252,   60.262291
 124.215918,   60.263274
 124.217585,   60.264257
 124.219252,   60.265206
 124.220918,   60.266148
 124.222585,   60.267091
 124.224252,   60.268033
 124.225918,   60.268976
 124.227585,   60.269918
 124.229252,   60.270861
 124.230918,   60.271803
 124.232585,   60.272746
 124.234252,   60.273688
 124.235918,   60.274639
 124.237585,   60.275590
 124.239252,   60.276542
 124.240918,   60.277493
 124.242585,   60.278445
 124.244252,   60.279396
 124.245918,   60.280348
 124.247585,   60.281299
 124.249252,   60.282251
 124.250918,   60.283203
 124.252585,   60.284204
 124.254252,   60.285215
 124.255918,   60.286226
 124.257585,   60.287238
 124.259252,   60.288249
 124.260918,   60.289260
 124.262585,   60.290271
 124.264252,   60.291282
 124.265918,   60.292293
 124.267585,   60.293304
 124.269252,   60.294289
 124.270918,   60.295268
 124.272585,   60.296247
 124.274252,   60.297226
 124.275918,   60.298206
 124.277585,   60.299185
 124.279252,   60.300164
 124.280918,   60.301143
 124.282585,   60.302123
 124.284252,   60.303102
 124.285918,   60.303996
 124.287585,   60.304873
 124.289252,   60.305750
 124.290918,   60.306628
 124.292585,   60.307505
 124.294252,   60.308383
 124.295918,   60.309260
 124.297585,   60.310137
 124.299252,   60.311015
 124.300918,   60.311892
 124.302585,   60.312758
 124.304252,   60.313622
 124.305918,   60.314486
 124.307585,   60.315349
 124.309252,   60.316213
 124.310918,   60.317077
 124.312585,   60.317941
 124.314252,   60.318805
 124.315918,   60.319669
 124.317585,   60.320532
 124.319252,   60.321402
 124.320918,   60.322272
 124.322585,   60.323142
 124.324252,   60.324012
 124.325918,   60.324883
 124.327585,   60.325753
 124.329252,   60.326623
 124.330918,   60.327493
 124.332585,   60.328364
 124.334252,   60.329234
 124.335918,   60.330157
 124.337585,   60.331089
 124.339252,   60.332022
 124.340918,   60.332955
 124.342585,   60.333888
 124.344252,   60.334821
 124.345918,   60.335753
 124.347585,   60.336686
 124.349252,   60.337619
 124.350918,   60.338552
 124.352585,   60.339464
 124.354252,   60.340373
 124.355918,   60.341281
 124.357585,   60.342189
 124.359252,   60.343098
 124.360918,   60.344006
 124.362585,   60.344915
 124.364252,   60.345823
 124.365918,   60.346731
 124.367585,   60.347640
 124.369252,   60.348607
 124.370918,   60.349586
 124.372585,   60.350565
 124.374252,   60.351545
 124.375918,   60.352524
 124.377585,   60.353503
 124.379252,   60.354482
 124.380918,   60.355461
 124.382585,   60.356440
 124.384252,   60.357419
 124.385918,   60.358368
 124.387585,   60.359312
 124.389252,   60.360255
 124.390918,   60.361199
 124.392585,   60.362143
 124.394252,   60.363086
 124.395918,   60.364030
 124.397585,   60.364974
 124.399252,   60.365917
 124.400918,   60.366861
 124.402585,   60.367805
 124.404252,   60.368750
 124.405918,   60.369694
 124.407585,   60.370638
 124.409252,   60.371582
 124.410918,   60.372527
 124.412585,   60.373471
 124.414252,   60.374415
 124.415918,   60.375360
 124.417585,   60.376304
 124.419252,   60.377292
 124.420918,   60.378289
 124.422585,   60.379286
 124.424252,   60.380283
 124.425918,   60.381281
 124.427585,   60.382278
 124.429252,   60.383275
 124.430918,   60.384272
 124.432585,   60.385269
 124.434252,   60.386266
 124.435918,   60.387231
 124.437585,   60.388190
 124.439252,   60.389149
 124.440918,   60.390108
 124.442585,   60.391068
 124.444252,   60.392027
 124.445918,   60.392986
 124.447585,   60.393945
 124.449252,   60.394904
 124.450918,   60.395863
 124.452585,   60.396832
 124.454252,   60.397802
 124.455918,   60.398772
 124.457585,   60.399742
 124.459252,   60.400713
 124.460918,   60.401683
 124.462585,   60.402653
 124.464252,   60.403623
 124.465918,   60.404594
 124.467585,   60.405564
 124.469252,   60.406585
 124.470918,   60.407616
 124.472585,   60.408647
 124.474252,   60.409679
 124.475918,   60.410710
 124.477585,   60.411741
 124.479252,   60.412772
 124.480918,   60.413803
 124.482585,   60.414834
 124.484252,   60.415866
 124.485918,   60.416870
 124.487585,   60.417869
 124.489252,   60.418868
 124.490918,   60.419868
 124.492585,   60.420867
 124.494252,   60.421866
 124.495918,   60.422865
 124.497585,   60.423865
 124.499252,   60.424864
 124.500918,   60.425863
 124.502585,   60.426776
 124.504252,   60.427672
 124.505918,   60.428568
 124.507585,   60.429464
 124.509252,   60.430360
 124.510918,   60.431256
 124.512585,   60.432152
 124.514252,   60.433048
 124.515918,   60.433944
 124.517585,   60.434840
 124.519252,   60.435724
 124.520918,   60.436604
 124.522585,   60.437485
 124.524252,   60.438366
 124.525918,   60.439247
 124.527585,   60.440128
 124.529252,   60.441009
 124.530918,   60.441890
 124.532585,   60.442771
 124.534252,   60.443652
 124.535918,   60.444536
 124.537585,   60.445421
 124.539252,   60.446307
 124.540918,   60.447192
 124.542585,   60.448077
 124.544252,   60.448962
 124.545918,   60.449847
 124.547585,   60.450733
 124.549252,   60.451618
 124.550918,   60.452503
 124.552585,   60.453439
 124.554252,   60.454384
 124.555918,   60.455329
 124.557585,   60.456275
 124.559252,   60.457220
 124.560918,   60.458166
 124.562585,   60.459111
 124.564252,   60.460056
 124.565918,   60.461002
 124.567585,   60.461947
 124.569252,   60.462870
 124.570918,   60.463788
 124.572585,   60.464705
 124.574252,   60.465623
 124.575918,   60.466541
 124.577585,   60.467459
 124.579252,   60.468377
 124.580918,   60.469295
 124.582585,   60.470213
 124.584252,   60.471131
 124.585918,   60.472105
 124.587585,   60.473091
 124.589252,   60.474077
 124.590918,   60.475062
 124.592585,   60.476048
 124.594252,   60.477034
 124.595918,   60.478020
 124.597585,   60.479005
 124.599252,   60.479991
 124.600918,   60.480977
 124.602585,   60.481930
 124.604252,   60.482877
 124.605918,   60.483825
 124.607585,   60.484772
 124.609252,   60.485719
 124.610918,   60.486666
 124.612585,   60.487613
 124.614252,   60.488561
 124.615918,   60.489508
 124.617585,   60.490455
 124.619252,   60.491400
 124.620918,   60.492343
 124.622585,   60.493287
 124.624252,   60.494231
 124.625918,   60.495175
 124.627585,   60.496119
 124.629252,   60.497063
 124.630918,   60.498007
 124.632585,   60.498951
 124.634252,   60.499895
 124.635918,   60.500880
 124.637585,   60.501872
 124.639252,   60.502865
 124.640918,   60.503858
 124.642585,   60.504851
 124.644252,   60.505843
 124.645918,   60.506836
 124.647585,   60.507829
 124.649252,   60.508822
 124.650918,   60.509815
 124.652585,   60.510774
 124.654252,   60.511728
 124.655918,   60.512681
 124.657585,   60.513634
 124.659252,   60.514588
 124.660918,   60.515541
 124.662585,   60.516494
 124.664252,   60.517448
 124.665918,   60.518401
 124.667585,   60.519354
 124.669252,   60.520315
 124.670918,   60.521276
 124.672585,   60.522238
 124.674252,   60.523200
 124.675918,   60.524161
 124.677585,   60.525123
 124.679252,   60.526085
 124.680918,   60.527046
 124.682585,   60.528008
 124.684252,   60.528970
 124.685918,   60.529981
 124.687585,   60.531003
 124.689252,   60.532024
 124.690918,   60.533045
 124.692585,   60.534067
 124.694252,   60.535088
 124.695918,   60.536109
 124.697585,   60.537131
 124.699252,   60.538152
 124.700918,   60.539173
 124.702585,   60.540169
 124.704252,   60.541160
 124.705918,   60.542150
 124.707585,   60.543141
 124.709252,   60.544132
 124.710918,   60.545122
 124.712585,   60.546113
 124.714252,   60.547104
 124.715918,   60.548094
 124.717585,   60.549085
 124.719252,   60.549990
 124.720918,   60.550879
 124.722585,   60.551768
 124.724252,   60.552657
 124.725918,   60.553546
 124.727585,   60.554436
 124.729252,   60.555325
 124.730918,   60.556214
 124.732585,   60.557103
 124.734252,   60.557992
 124.735918,   60.558869
 124.737585,   60.559743
 124.739252,   60.560618
 124.740918,   60.561493
 124.742585,   60.562368
 124.744252,   60.563243
 124.745918,   60.564118
 124.747585,   60.564992
 124.749252,   60.565867
 124.750918,   60.566742
 124.752585,   60.567622
 124.754252,   60.568502
 124.755918,   60.569383
 124.757585,   60.570263
 124.759252,   60.571144
 124.760918,   60.572024
 124.762585,   60.572905
 124.764252,   60.573786
 124.765918,   60.574666
 124.767585,   60.575547
 124.769252,   60.576480
 124.770918,   60.577423
 124.772585,   60.578366
 124.774252,   60.579310
 124.775918,   60.580253
 124.777585,   60.581196
 124.779252,   60.582139
 124.780918,   60.583083
 124.782585,   60.584026
 124.784252,   60.584969
 124.785918,   60.585893
 124.787585,   60.586813
 124.789252,   60.587733
 124.790918,   60.588653
 124.792585,   60.589573
 124.794252,   60.590494
 124.795918,   60.591414
 124.797585,   60.592334
 124.799252,   60.593254
 124.800918,   60.594174
 124.802585,   60.595152
 124.804252,   60.596142
 124.805918,   60.597132
 124.807585,   60.598122
 124.809252,   60.599112
 124.810918,   60.600101
 124.812585,   60.601091
 124.814252,   60.602081
 124.815918,   60.603071
 124.817585,   60.604060
 124.819252,   60.605022
 124.820918,   60.605979
 124.822585,   60.606936
 124.824252,   60.607892
 124.825918,   60.608849
 124.827585,   60.609805
 124.829252,   60.610762
 124.830918,   60.611719
 124.832585,   60.612675
 124.834252,   60.613632
 124.835918,   60.614588
 124.837585,   60.615545
 124.839252,   60.616501
 124.840918,   60.617458
 124.842585,   60.618414
 124.844252,   60.619371
 124.845918,   60.620327
 124.847585,   60.621284
 124.849252,   60.622240
 124.850918,   60.623197
 124.852585,   60.624197
 124.854252,   60.625207
 124.855918,   60.626216
 124.857585,   60.627225
 124.859252,   60.628234
 124.860918,   60.629243
 124.862585,   60.630252
 124.864252,   60.631261
 124.865918,   60.632270
 124.867585,   60.633279
 124.869252,   60.634258
 124.870918,   60.635230
 124.872585,   60.636202
 124.874252,   60.637174
 124.875918,   60.638146
 124.877585,   60.639119
 124.879252,   60.640091
 124.880918,   60.641063
 124.882585,   60.642035
 124.884252,   60.643008
 124.885918,   60.643988
 124.887585,   60.644971
 124.889252,   60.645953
 124.890918,   60.646936
 124.892585,   60.647918
 124.894252,   60.648901
 124.895918,   60.649883
 124.897585,   60.650866
 124.899252,   60.651848
 124.900918,   60.652831
 124.902585,   60.653864
 124.904252,   60.654907
 124.905918,   60.655951
 124.907585,   60.656994
 124.909252,   60.658037
 124.910918,   60.659081
 124.912585,   60.660124
 124.914252,   60.661167
 124.915918,   60.662211
 124.917585,   60.663254
 124.919252,   60.664271
 124.920918,   60.665284
 124.922585,   60.666296
 124.924252,   60.667308
 124.925918,   60.668320
 124.927585,   60.669333
 124.929252,   60.670345
 124.930918,   60.671357
 124.932585,   60.672370
 124.934252,   60.673382
 124.935918,   60.674308
 124.937585,   60.675217
 124.939252,   60.676126
 124.940918,   60.677035
 124.942585,   60.677943
 124.944252,   60.678852
 124.945918,   60.679761
 124.947585,   60.680670
 124.949252,   60.681579
 124.950918,   60.682488
 124.952585,   60.683384
 124.954252,   60.684276
 124.955918,   60.685169
 124.957585,   60.686062
 124.959252,   60.686955
 124.960918,   60.687847
 124.962585,   60.688740
 124.964252,   60.689633
 124.965918,   60.690526
 124.967585,   60.691418
 124.969252,   60.692314
 124.970918,   60.693210
 124.972585,   60.694105
 124.974252,   60.695001
 124.975918,   60.695897
 124.977585,   60.696793
 124.979252,   60.697689
 124.980918,   60.698585
 124.982585,   60.699481
 124.984252,   60.700377
 124.985918,   60.701323
 124.987585,   60.702279
 124.989252,   60.703234
 124.990918,   60.704190
 124.992585,   60.705146
 124.994252,   60.706102
 124.995918,   60.707057
 124.997585,   60.708013
 124.999252,   60.708969
 125.000918,   60.709925
 125.002585,   60.710858
 125.004252,   60.711787
 125.005918,   60.712716
 125.007585,   60.713645
 125.009252,   60.714574
 125.010918,   60.715504
 125.012585,   60.716433
 125.014252,   60.717362
 125.015918,   60.718291
 125.017585,   60.719220
 125.019252,   60.720205
 125.020918,   60.721200
 125.022585,   60.722196
 125.024252,   60.723192
 125.025918,   60.724187
 125.027585,   60.725183
 125.029252,   60.726179
 125.030918,   60.727175
 125.032585,   60.728170
 125.034252,   60.729166
 125.035918,   60.730131
 125.037585,   60.731090
 125.039252,   60.732049
 125.040918,   60.733008
 125.042585,   60.733967
 125.044252,   60.734926
 125.045918,   60.735885
 125.047585,   60.736844
 125.049252,   60.737803
 125.050918,   60.738762
 125.052585,   60.739718
 125.054252,   60.740674
 125.055918,   60.741630
 125.057585,   60.742586
 125.059252,   60.743542
 125.060918,   60.744498
 125.062585,   60.745454
 125.064252,   60.746410
 125.065918,   60.747366
 125.067585,   60.748322
 125.069252,   60.749320
 125.070918,   60.750327
 125.072585,   60.751333
 125.074252,   60.752340
 125.075918,   60.753346
 125.077585,   60.754353
 125.079252,   60.755359
 125.080918,   60.756366
 125.082585,   60.757372
 125.084252,   60.758379
 125.085918,   60.759352
 125.087585,   60.760320
 125.089252,   60.761288
 125.090918,   60.762255
 125.092585,   60.763223
 125.094252,   60.764190
 125.095918,   60.765158
 125.097585,   60.766126
 125.099252,   60.767093
 125.100918,   60.768061
 125.102585,   60.769036
 125.104252,   60.770013
 125.105918,   60.770990
 125.107585,   60.771967
 125.109252,   60.772944
 125.110918,   60.773921
 125.112585,   60.774897
 125.114252,   60.775874
 125.115918,   60.776851
 125.117585,   60.777828
 125.119252,   60.778856
 125.120918,   60.779894
 125.122585,   60.780932
 125.124252,   60.781969
 125.125918,   60.783007
 125.127585,   60.784045
 125.129252,   60.785083
 125.130918,   60.786121
 125.132585,   60.787158
 125.134252,   60.788196
 125.135918,   60.789208
 125.137585,   60.790215
 125.139252,   60.791223
 125.140918,   60.792230
 125.142585,   60.793237
 125.144252,   60.794244
 125.145918,   60.795251
 125.147585,   60.796258
 125.149252,   60.797265
 125.150918,   60.798272
 125.152585,   60.799193
 125.154252,   60.800098
 125.155918,   60.801002
 125.157585,   60.801906
 125.159252,   60.802811
 125.160918,   60.803715
 125.162585,   60.804619
 125.164252,   60.805524
 125.165918,   60.806428
 125.167585,   60.807332
 125.169252,   60.808225
 125.170918,   60.809114
 125.172585,   60.810004
 125.174252,   60.810894
 125.175918,   60.811784
 125.177585,   60.812673
 125.179252,   60.813563
 125.180918,   60.814453
 125.182585,   60.815343
 125.184252,   60.816232
 125.185918,   60.817127
 125.187585,   60.818022
 125.189252,   60.818917
 125.190918,   60.819812
 125.192585,   60.820707
 125.194252,   60.821602
 125.195918,   60.822498
 125.197585,   60.823393
 125.199252,   60.824288
 125.200918,   60.825183
 125.202585,   60.826131
 125.204252,   60.827089
 125.205918,   60.828047
 125.207585,   60.829004
 125.209252,   60.829962
 125.210918,   60.830920
 125.212585,   60.831878
 125.214252,   60.832836
 125.215918,   60.833794
 125.217585,   60.834752
 125.219252,   60.835689
 125.220918,   60.836623
 125.222585,   60.837557
 125.224252,   60.838490
 125.225918,   60.839424
 125.227585,   60.840358
 125.229252,   60.841291
 125.230918,   60.842225
 125.232585,   60.843158
 125.234252,   60.844092
 125.235918,   60.845084
 125.237585,   60.846087
 125.239252,   60.847090
 125.240918,   60.848094
 125.242585,   60.849097
 125.244252,   60.850100
 125.245918,   60.851103
 125.247585,   60.852106
 125.249252,   60.853110
 125.250918,   60.854113
 125.252585,   60.855087
 125.254252,   60.856056
 125.255918,   60.857025
 125.257585,   60.857993
 125.259252,   60.858962
 125.260918,   60.859931
 125.262585,   60.860900
 125.264252,   60.861868
 125.265918,   60.862837
 125.267585,   60.863806
 125.269252,   60.864774
 125.270918,   60.865741
 125.272585,   60.866709
 125.274252,   60.867677
 125.275918,   60.868644
 125.277585,   60.869612
 125.279252,   60.870580
 125.280918,   60.871548
 125.282585,   60.872515
 125.284252,   60.873483
 125.285918,   60.874495
 125.287585,   60.875515
 125.289252,   60.876535
 125.290918,   60.877555
 125.292585,   60.878575
 125.294252,   60.879595
 125.295918,   60.880615
 125.297585,   60.881635
 125.299252,   60.882655
 125.300918,   60.883675
 125.302585,   60.884664
 125.304252,   60.885646
 125.305918,   60.886628
 125.307585,   60.887610
 125.309252,   60.888592
 125.310918,   60.889574
 125.312585,   60.890556
 125.314252,   60.891538
 125.315918,   60.892520
 125.317585,   60.893502
 125.319252,   60.894493
 125.320918,   60.895485
 125.322585,   60.896477
 125.324252,   60.897468
 125.325918,   60.898460
 125.327585,   60.899452
 125.329252,   60.900444
 125.330918,   60.901436
 125.332585,   60.902428
 125.334252,   60.903420
 125.335918,   60.904463
 125.337585,   60.905516
 125.339252,   60.906570
 125.340918,   60.907623
 125.342585,   60.908676
 125.344252,   60.909729
 125.345918,   60.910782
 125.347585,   60.911835
 125.349252,   60.912888
 125.350918,   60.913942
 125.352585,   60.914968
 125.354252,   60.915990
 125.355918,   60.917012
 125.357585,   60.918033
 125.359252,   60.919055
 125.360918,   60.920077
 125.362585,   60.921098
 125.364252,   60.922120
 125.365918,   60.923142
 125.367585,   60.924163
 125.369252,   60.925097
 125.370918,   60.926014
 125.372585,   60.926932
 125.374252,   60.927849
 125.375918,   60.928766
 125.377585,   60.929683
 125.379252,   60.930601
 125.380918,   60.931518
 125.382585,   60.932435
 125.384252,   60.933352
 125.385918,   60.934256
 125.387585,   60.935157
 125.389252,   60.936058
 125.390918,   60.936959
 125.392585,   60.937860
 125.394252,   60.938761
 125.395918,   60.939662
 125.397585,   60.940563
 125.399252,   60.941464
 125.400918,   60.942365
 125.402585,   60.943270
 125.404252,   60.944174
 125.405918,   60.945079
 125.407585,   60.945984
 125.409252,   60.946888
 125.410918,   60.947793
 125.412585,   60.948698
 125.414252,   60.949602
 125.415918,   60.950507
 125.417585,   60.951412
 125.419252,   60.952368
 125.420918,   60.953333
 125.422585,   60.954299
 125.424252,   60.955265
 125.425918,   60.956231
 125.427585,   60.957197
 125.429252,   60.958162
 125.430918,   60.959128
 125.432585,   60.960094
 125.434252,   60.961060
 125.435918,   60.962004
 125.437585,   60.962943
 125.439252,   60.963882
 125.440918,   60.964822
 125.442585,   60.965761
 125.444252,   60.966701
 125.445918,   60.967640
 125.447585,   60.968580
 125.449252,   60.969519
 125.450918,   60.970459
 125.452585,   60.971455
 125.454252,   60.972463
 125.455918,   60.973470
 125.457585,   60.974478
 125.459252,   60.975485
 125.460918,   60.976493
 125.462585,   60.977500
 125.464252,   60.978508
 125.465918,   60.979515
 125.467585,   60.980523
 125.469252,   60.981500
 125.470918,   60.982471
 125.472585,   60.983442
 125.474252,   60.984413
 125.475918,   60.985384
 125.477585,   60.986355
 125.479252,   60.987326
 125.480918,   60.988298
 125.482585,   60.989269
 125.484252,   60.990240
 125.485918,   60.991209
 125.487585,   60.992178
 125.489252,   60.993146
 125.490918,   60.994115
 125.492585,   60.995084
 125.494252,   60.996052
 125.495918,   60.997021
 125.497585,   60.997990
 125.499252,   60.998959
 125.500918,   60.999927
 125.502585,   61.000939
 125.504252,   61.001960
 125.505918,   61.002980
 125.507585,   61.004000
 125.509252,   61.005021
 125.510918,   61.006041
 125.512585,   61.007062
 125.514252,   61.008082
 125.515918,   61.009102
 125.517585,   61.010123
 125.519252,   61.011110
 125.520918,   61.012092
 125.522585,   61.013073
 125.524252,   61.014055
 125.525918,   61.015037
 125.527585,   61.016018
 125.529252,   61.017000
 125.530918,   61.017981
 125.532585,   61.018963
 125.534252,   61.019944
 125.535918,   61.020934
 125.537585,   61.021925
 125.539252,   61.022916
 125.540918,   61.023908
 125.542585,   61.024899
 125.544252,   61.025890
 125.545918,   61.026881
 125.547585,   61.027873
 125.549252,   61.028864
 125.550918,   61.029855
 125.552585,   61.030898
 125.554252,   61.031951
 125.555918,   61.033005
 125.557585,   61.034058
 125.559252,   61.035111
 125.560918,   61.036164
 125.562585,   61.037217
 125.564252,   61.038270
 125.565918,   61.039323
 125.567585,   61.040376
 125.569252,   61.041403
 125.570918,   61.042425
 125.572585,   61.043447
 125.574252,   61.044470
 125.575918,   61.045492
 125.577585,   61.046514
 125.579252,   61.047536
 125.580918,   61.048558
 125.582585,   61.049580
 125.584252,   61.050602
 125.585918,   61.051537
 125.587585,   61.052455
 125.589252,   61.053373
 125.590918,   61.054291
 125.592585,   61.055209
 125.594252,   61.056127
 125.595918,   61.057045
 125.597585,   61.057963
 125.599252,   61.058881
 125.600918,   61.059799
 125.602585,   61.060705
 125.604252,   61.061608
 125.605918,   61.062511
 125.607585,   61.063414
 125.609252,   61.064317
 125.610918,   61.065220
 125.612585,   61.066123
 125.614252,   61.067026
 125.615918,   61.067929
 125.617585,   61.068832
 125.619252,   61.069739
 125.620918,   61.070648
 125.622585,   61.071556
 125.624252,   61.072464
 125.625918,   61.073372
 125.627585,   61.074280
 125.629252,   61.075188
 125.630918,   61.076096
 125.632585,   61.077004
 125.634252,   61.077913
 125.635918,   61.078873
 125.637585,   61.079845
 125.639252,   61.080816
 125.640918,   61.081787
 125.642585,   61.082758
 125.644252,   61.083729
 125.645918,   61.084700
 125.647585,   61.085671
 125.649252,   61.086642
 125.650918,   61.087613
 125.652585,   61.088563
 125.654252,   61.089510
 125.655918,   61.090456
 125.657585,   61.091402
 125.659252,   61.092348
 125.660918,   61.093294
 125.662585,   61.094240
 125.664252,   61.095186
 125.665918,   61.096132
 125.667585,   61.097078
 125.669252,   61.098083
 125.670918,   61.099099
 125.672585,   61.100114
 125.674252,   61.101130
 125.675918,   61.102146
 125.677585,   61.103162
 125.679252,   61.104178
 125.680918,   61.105194
 125.682585,   61.106210
 125.684252,   61.107226
 125.685918,   61.108212
 125.687585,   61.109192
 125.689252,   61.110173
 125.690918,   61.111153
 125.692585,   61.112134
 125.694252,   61.113114
 125.695918,   61.114095
 125.697585,   61.115075
 125.699252,   61.116056
 125.700918,   61.117036
 125.702585,   61.118015
 125.704252,   61.118994
 125.705918,   61.119973
 125.707585,   61.120952
 125.709252,   61.121931
 125.710918,   61.122910
 125.712585,   61.123889
 125.714252,   61.124868
 125.715918,   61.125847
 125.717585,   61.126826
 125.719252,   61.127849
 125.720918,   61.128881
 125.722585,   61.129912
 125.724252,   61.130944
 125.725918,   61.131976
 125.727585,   61.133007
 125.729252,   61.134039
 125.730918,   61.135070
 125.732585,   61.136102
 125.734252,   61.137133
 125.735918,   61.138133
 125.737585,   61.139125
 125.739252,   61.140118
 125.740918,   61.141111
 125.742585,   61.142104
 125.744252,   61.143097
 125.745918,   61.144089
 125.747585,   61.145082
 125.749252,   61.146075
 125.750918,   61.147068
 125.752585,   61.148069
 125.754252,   61.149071
 125.755918,   61.150074
 125.757585,   61.151077
 125.759252,   61.152079
 125.760918,   61.153082
 125.762585,   61.154084
 125.764252,   61.155087
 125.765918,   61.156090
 125.767585,   61.157092
 125.769252,   61.158147
 125.770918,   61.159211
 125.772585,   61.160276
 125.774252,   61.161340
 125.775918,   61.162404
 125.777585,   61.163469
 125.779252,   61.164533
 125.780918,   61.165598
 125.782585,   61.166662
 125.784252,   61.167727
 125.785918,   61.168764
 125.787585,   61.169797
 125.789252,   61.170830
 125.790918,   61.171862
 125.792585,   61.172895
 125.794252,   61.173928
 125.795918,   61.174960
 125.797585,   61.175993
 125.799252,   61.177025
 125.800918,   61.178058
 125.802585,   61.179002
 125.804252,   61.179929
 125.805918,   61.180857
 125.807585,   61.181784
 125.809252,   61.182711
 125.810918,   61.183638
 125.812585,   61.184565
 125.814252,   61.185492
 125.815918,   61.186420
 125.817585,   61.187347
 125.819252,   61.188260
 125.820918,   61.189172
 125.822585,   61.190083
 125.824252,   61.190994
 125.825918,   61.191905
 125.827585,   61.192816
 125.829252,   61.193727
 125.830918,   61.194638
 125.832585,   61.195549
 125.834252,   61.196460
 125.835918,   61.197374
 125.837585,   61.198290
 125.839252,   61.199205
 125.840918,   61.200120
 125.842585,   61.201035
 125.844252,   61.201950
 125.845918,   61.202865
 125.847585,   61.203780
 125.849252,   61.204695
 125.850918,   61.205610
 125.852585,   61.206577
 125.854252,   61.207554
 125.855918,   61.208532
 125.857585,   61.209509
 125.859252,   61.210486
 125.860918,   61.211463
 125.862585,   61.212441
 125.864252,   61.213418
 125.865918,   61.214395
 125.867585,   61.215372
 125.869252,   61.216328
 125.870918,   61.217279
 125.872585,   61.218230
 125.874252,   61.219181
 125.875918,   61.220132
 125.877585,   61.221083
 125.879252,   61.222034
 125.880918,   61.222984
 125.882585,   61.223935
 125.884252,   61.224886
 125.885918,   61.225895
 125.887585,   61.226916
 125.889252,   61.227936
 125.890918,   61.228956
 125.892585,   61.229976
 125.894252,   61.230997
 125.895918,   61.232017
 125.897585,   61.233037
 125.899252,   61.234057
 125.900918,   61.235077
 125.902585,   61.236067
 125.904252,   61.237051
 125.905918,   61.238035
 125.907585,   61.239018
 125.909252,   61.240002
 125.910918,   61.240986
 125.912585,   61.241970
 125.914252,   61.242954
 125.915918,   61.243937
 125.917585,   61.244921
 125.919252,   61.245903
 125.920918,   61.246885
 125.922585,   61.247867
 125.924252,   61.248848
 125.925918,   61.249830
 125.927585,   61.250812
 125.929252,   61.251793
 125.930918,   61.252775
 125.932585,   61.253757
 125.934252,   61.254738
 125.935918,   61.255764
 125.937585,   61.256798
 125.939252,   61.257833
 125.940918,   61.258867
 125.942585,   61.259901
 125.944252,   61.260935
 125.945918,   61.261969
 125.947585,   61.263004
 125.949252,   61.264038
 125.950918,   61.265072
 125.952585,   61.266073
 125.954252,   61.267069
 125.955918,   61.268064
 125.957585,   61.269059
 125.959252,   61.270054
 125.960918,   61.271049
 125.962585,   61.272044
 125.964252,   61.273039
 125.965918,   61.274034
 125.967585,   61.275030
 125.969252,   61.276033
 125.970918,   61.277038
 125.972585,   61.278043
 125.974252,   61.279048
 125.975918,   61.280053
 125.977585,   61.281059
 125.979252,   61.282064
 125.980918,   61.283069
 125.982585,   61.284074
 125.984252,   61.285079
 125.985918,   61.286137
 125.987585,   61.287204
 125.989252,   61.288272
 125.990918,   61.289340
 125.992585,   61.290407
 125.994252,   61.291475
 125.995918,   61.292543
 125.997585,   61.293610
 125.999252,   61.294678
 126.000918,   61.295746
 126.002585,   61.296787
 126.004252,   61.297823
 126.005918,   61.298859
 126.007585,   61.299896
 126.009252,   61.300932
 126.010918,   61.301968
 126.012585,   61.303004
 126.014252,   61.304041
 126.015918,   61.305077
 126.017585,   61.306113
 126.019252,   61.307061
 126.020918,   61.307992
 126.022585,   61.308923
 126.024252,   61.309854
 126.025918,   61.310785
 126.027585,   61.311715
 126.029252,   61.312646
 126.030918,   61.313577
 126.032585,   61.314508
 126.034252,   61.315439
 126.035918,   61.316357
 126.037585,   61.317273
 126.039252,   61.318188
 126.040918,   61.319104
 126.042585,   61.320019
 126.044252,   61.320935
 126.045918,   61.321850
 126.047585,   61.322766
 126.049252,   61.323681
 126.050918,   61.324597
 126.052585,   61.325516
 126.054252,   61.326437
 126.055918,   61.327357
 126.057585,   61.328277
 126.059252,   61.329198
 126.060918,   61.330118
 126.062585,   61.331039
 126.064252,   61.331959
 126.065918,   61.332879
 126.067585,   61.333800
 126.069252,   61.334773
 126.070918,   61.335757
 126.072585,   61.336741
 126.074252,   61.337725
 126.075918,   61.338708
 126.077585,   61.339692
 126.079252,   61.340676
 126.080918,   61.341660
 126.082585,   61.342644
 126.084252,   61.343627
 126.085918,   61.344606
 126.087585,   61.345584
 126.088545,   61.346147
 126.090212,   61.347099
 126.091879,   61.348051
 126.093545,   61.349003
 126.095212,   61.349955
 126.096879,   61.350907
 126.098545,   61.351859
 126.100212,   61.352811
 126.101879,   61.312225
 126.103545,   61.212927
 126.105212,   61.113630
 126.106879,   61.014332
 126.108545,   60.915034
 126.110212,   60.815737
 126.111879,   60.716439
 126.113545,   60.617141
 126.115212,   60.517844
 126.116879,   60.418546
 126.118545,   60.318611
 126.120212,   60.217775
 126.121879,   60.116940
 126.123545,   60.016104
 126.125212,   59.915268
 126.126879,   59.814432
 126.128545,   59.713597
 126.130212,   59.612761
 126.131879,   59.511925
 126.133545,   59.411089
 126.135212,   59.309770
 126.136879,   59.207769
 126.138545,   59.105768
 126.140212,   59.003766
 126.141879,   58.901765
 126.143110,   58.826383
