Time, Speed
   0.000000,    0.000331
   0.001667,    0.330986
   0.003333,    0.660050
   0.005000,    0.988876
   0.006667,    1.317703
   0.008333,    1.646529
   0.010000,    1.975355
   0.011667,    2.304182
   0.013333,    2.633008
   0.015000,    2.961835
   0.016667,    3.290661
   0.018333,    3.619487
   0.020000,    3.944782
   0.021667,    4.269636
   0.023333,    4.594489
   0.025000,    4.919343
   0.026667,    5.244196
   0.028333,    5.569050
   0.030000,    5.893904
   0.031667,    6.218757
   0.033333,    6.543611
   0.035000,    6.868464
   0.036667,    7.189679
   0.038333,    7.510438
   0.040000,    7.831198
   0.041667,    8.151958
   0.043333,    8.472718
   0.045000,    8.793478
   0.046667,    9.114238
   0.048333,    9.434997
   0.050000,    9.755757
   0.051667,   10.076517
   0.053333,   10.393537
   0.055000,   10.710090
   0.056667,   11.026643
   0.058333,   11.343196
   0.060000,   11.659749
   0.061667,   11.976302
   0.063333,   12.292855
   0.065000,   12.609408
   0.066667,   12.925961
   0.068333,   13.242514
   0.070000,   13.555234
   0.071667,   13.867475
   0.073333,   14.179716
   0.075000,   14.491957
   0.076667,   14.804198
   0.078333,   15.116439
   0.080000,   15.428681
   0.081667,   15.740922
   0.083333,   16.053163
   0.085000,   16.365404
   0.086667,   16.673262
   0.088333,   16.980572
   0.090000,   17.287882
   0.091667,   17.595193
   0.093333,   17.902503
   0.095000,   18.209814
   0.096667,   18.517124
   0.098333,   18.824435
   0.100000,   19.131745
   0.101667,   19.439055
   0.103333,   19.740960
   0.105000,   20.042191
   0.106667,   20.343421
   0.108333,   20.644651
   0.110000,   20.945881
   0.111667,   21.247112
   0.113333,   21.548342
   0.115000,   21.849572
   0.116667,   22.150802
   0.118333,   22.452032
   0.120000,   22.747813
   0.121667,   23.042912
   0.123333,   23.338012
   0.125000,   23.633112
   0.126667,   23.928212
   0.128333,   24.223311
   0.130000,   24.518411
   0.131667,   24.813511
   0.133333,   25.108611
   0.135000,   25.403711
   0.136667,   25.693348
   0.138333,   25.982304
   0.140000,   26.271260
   0.141667,   26.560216
   0.143333,   26.849171
   0.145000,   27.138127
   0.146667,   27.427083
   0.148333,   27.716039
   0.150000,   28.004994
   0.151667,   28.293950
   0.153333,   28.577440
   0.155000,   28.860247
   0.156667,   29.143054
   0.158333,   29.425861
   0.160000,   29.708668
   0.161667,   29.991475
   0.163333,   30.274283
   0.165000,   30.557090
   0.166667,   30.839897
   0.168333,   31.122704
   0.170000,   31.400048
   0.171667,   31.676711
   0.173333,   31.953373
   0.175000,   32.230035
   0.176667,   32.506698
   0.178333,   32.783360
   0.180000,   33.060023
   0.181667,   33.336685
   0.183333,   33.613347
   0.185000,   33.890010
   0.186667,   34.160431
   0.188333,   34.430073
   0.190000,   34.699715
   0.191667,   34.969358
   0.193333,   35.239000
   0.195000,   35.508642
   0.196667,   35.778284
   0.198333,   36.047926
   0.200000,   36.317569
   0.201667,   36.587211
   0.203333,   36.849780
   0.205000,   37.111465
   0.206667,   37.373151
   0.208333,   37.634837
   0.210000,   37.896523
   0.211667,   38.158208
   0.213333,   38.419894
   0.215000,   38.681580
   0.216667,   38.943265
   0.218333,   39.204951
   0.220000,   39.459671
   0.221667,   39.713521
   0.223333,   39.967371
   0.225000,   40.221222
   0.226667,   40.475072
   0.228333,   40.728922
   0.230000,   40.982772
   0.231667,   41.236622
   0.233333,   41.490472
   0.235000,   41.744323
   0.236667,   41.991325
   0.238333,   42.237473
   0.240000,   42.483621
   0.241667,   42.729769
   0.243333,   42.975917
   0.245000,   43.222064
   0.246667,   43.468212
   0.248333,   43.714360
   0.250000,   43.960508
   0.251667,   44.206656
   0.253333,   44.446079
   0.255000,   44.684663
   0.256667,   44.923247
   0.258333,   45.161830
   0.260000,   45.400414
   0.261667,   45.638998
   0.263333,   45.877582
   0.265000,   46.116166
   0.266667,   46.354749
   0.268333,   46.593333
   0.270000,   46.825320
   0.271667,   47.056483
   0.273333,   47.287645
   0.275000,   47.518808
   0.276667,   47.749971
   0.278333,   47.981133
   0.280000,   48.212296
   0.281667,   48.443459
   0.283333,   48.674622
   0.285000,   48.905784
   0.286667,   49.130481
   0.288333,   49.354370
   0.290000,   49.578259
   0.291667,   49.802148
   0.293333,   50.026037
   0.295000,   50.249926
   0.296667,   50.473815
   0.298333,   50.697704
   0.300000,   50.921593
   0.301667,   51.145482
   0.303333,   51.364223
   0.305000,   51.582321
   0.306667,   51.800418
   0.308333,   52.018516
   0.310000,   52.236614
   0.311667,   52.454712
   0.312369,   52.546656
   0.314036,   52.761278
   0.315703,   52.975901
   0.317369,   53.190523
   0.319036,   53.402823
   0.320703,   53.609966
   0.322369,   53.817109
   0.324036,   54.024251
   0.325703,   54.231394
   0.327369,   54.438537
   0.329036,   54.645680
   0.330703,   54.852823
   0.332369,   55.059966
   0.334036,   55.267109
   0.335703,   55.470382
   0.337369,   55.665062
   0.339036,   55.859742
   0.340703,   56.054422
   0.342369,   56.249102
   0.344036,   56.443783
   0.345703,   56.638463
   0.347369,   56.833143
   0.349036,   57.027823
   0.350703,   57.222503
   0.352369,   57.412832
   0.354036,   57.593500
   0.355703,   57.774168
   0.357369,   57.954836
   0.359036,   58.135504
   0.360703,   58.316172
   0.362369,   58.496840
   0.364036,   58.677508
   0.365703,   58.858176
   0.367369,   59.038844
   0.368518,   59.163402
   0.370185,   59.275589
   0.371852,   59.387777
   0.373518,   59.499965
   0.375185,   59.612153
   0.376852,   59.724341
   0.378518,   59.836529
   0.380185,   59.948717
   0.381852,   60.060905
   0.383518,   60.173092
   0.385185,   60.285280
   0.386852,   60.343036
   0.388518,   60.400792
   0.390185,   60.458548
   0.391852,   60.516303
   0.393518,   60.574059
   0.395185,   60.602576
   0.396852,   60.631092
   0.398518,   60.659608
   0.400185,   60.688125
   0.401852,   60.716641
   0.403518,   60.714594
   0.405185,   60.712548
   0.406852,   60.710502
   0.408518,   60.708455
   0.410185,   60.706409
   0.410185,   87.503763
   1.604481,   89.967214
   2.823272,   92.533500
   4.081386,   95.208356
   5.429985,   97.997918
   6.915721,  100.908760
   8.560390,  103.947929
  10.397371,  107.122990
  12.485334,  110.442068
  14.968358,  113.913899
  14.968358,  127.922102
  15.830802,  127.922102
  16.693245,  127.922102
  17.555688,  127.922102
  18.418132,  127.922102
  19.280575,  127.922102
  20.143018,  127.922102
  21.005461,  127.922102
  21.867905,  127.922102
  22.730348,  127.922102
  23.592791,  127.922102
  24.455235,  127.922102
  25.317678,  127.922102
  26.180121,  127.922102
  27.042565,  127.922102
  27.905008,  127.922102
  28.767451,  127.922102
  29.629895,  127.922102
  30.492338,  127.922102
  31.354781,  127.922102
  32.217225,  127.922102
  33.079668,  127.922102
  33.942111,  127.922102
  34.804555,  127.922102
  35.666998,  127.922102
  36.529441,  127.922102
  37.391885,  127.922102
  38.254328,  127.922102
  39.116771,  127.922102
  39.979215,  127.922102
  39.979215,  147.417988
  41.139143,  143.305049
  42.301874,  139.357963
  43.463193,  135.568025
  44.619342,  131.927090
  45.768081,  128.427532
  46.905098,  125.062203
  48.026307,  121.824398
  49.143709,  118.707823
  50.253604,  115.706566
  50.253604,   89.409619
  50.833005,   90.670642
  51.418049,   91.957865
  52.008556,   93.272009
  52.607292,   94.613823
  53.225054,   95.984080
  53.871173,   97.383579
  54.548638,   98.813148
  55.259779,  100.273646
  56.006440,  101.765960
  56.006440,   85.150007
  57.858634,   85.112836
  59.711637,   85.075663
  61.565449,   85.038488
  63.420072,   85.001311
  65.275506,   84.964132
  67.131752,   84.926951
  68.988810,   84.889768
  70.846682,   84.852584
  72.705368,   84.815398
  72.705368,  131.697125
  73.351774,  129.765895
  73.988012,  127.875839
  74.626788,  126.025808
  75.268241,  124.214692
  75.912514,  122.441419
  76.559398,  120.704953
  77.208755,  119.004296
  77.860123,  117.338478
  78.512585,  115.706566
  78.512585,   85.150007
  83.512585,   85.112836
  88.512585,   85.075663
  93.512585,   85.038488
  98.512585,   85.001311
 103.512585,   84.964132
 108.512585,   84.926951
 113.512585,   84.889768
 118.512585,   84.852584
 123.512585,   84.815398
 123.512585,   55.260439
 123.514252,   55.260762
 123.515918,   55.261083
 123.517585,   55.261404
 123.519252,   55.261685
 123.520918,   55.261959
 123.522585,   55.262232
 123.524252,   55.262506
 123.525918,   55.262779
 123.527585,   55.263053
 123.529252,   55.263327
 123.530918,   55.263600
 123.532585,   55.263874
 123.534252,   55.264148
 123.535918,   55.264405
 123.537585,   55.264660
 123.539252,   55.264915
 123.540918,   55.265170
 123.542585,   55.265425
 123.544252,   55.265680
 123.545918,   55.265935
 123.547585,   55.266190
 123.549252,   55.266445
 123.550918,   55.266700
 123.552585,   55.266953
 123.554252,   55.267206
 123.555918,   55.267459
 123.557585,   55.267712
 123.559252,   55.267965
 123.560918,   55.268218
 123.562585,   55.268471
 123.564252,   55.268724
 123.565918,   55.268977
 123.567585,   55.269230
 123.569252,   55.269405
 123.570918,   55.269566
 123.572585,   55.269726
 123.574252,   55.269887
 123.575918,   55.270047
 123.577585,   55.270207
 123.579252,   55.270368
 123.580918,   55.270528
 123.582585,   55.270689
 123.584252,   55.270849
 123.585918,   55.271077
 123.587585,   55.271318
 123.589252,   55.271559
 123.590918,   55.271800
 123.592585,   55.272040
 123.594252,   55.272281
 123.595918,   55.272522
 123.597585,   55.272763
 123.599252,   55.273004
 123.600918,   55.273245
 123.602585,   55.273458
 123.604252,   55.273667
 123.605918,   55.273876
 123.607585,   55.274084
 123.609252,   55.274293
 123.610918,   55.274501
 123.612585,   55.274710
 123.614252,   55.274918
 123.615918,   55.275127
 123.617585,   55.275336
 123.619252,   55.275548
 123.620918,   55.275761
 123.622585,   55.275975
 123.624252,   55.276188
 123.625918,   55.276401
 123.627585,   55.276614
 123.629252,   55.276828
 123.630918,   55.277041
 123.632585,   55.277254
 123.634252,   55.277467
 123.635918,   55.277716
 123.637585,   55.277972
 123.639252,   55.278228
 123.640918,   55.278484
 123.642585,   55.278740
 123.644252,   55.278996
 123.645918,   55.279251
 123.647585,   55.279507
 123.649252,   55.279763
 123.650918,   55.280019
 123.652585,   55.280241
 123.654252,   55.280456
 123.655918,   55.280672
 123.657585,   55.280887
 123.659252,   55.281103
 123.660918,   55.281319
 123.662585,   55.281534
 123.664252,   55.281750
 123.665918,   55.281965
 123.667585,   55.282181
 123.669252,   55.282395
 123.670918,   55.282609
 123.672585,   55.282823
 123.674252,   55.283038
 123.675918,   55.283252
 123.677585,   55.283466
 123.679252,   55.283680
 123.680918,   55.283894
 123.682585,   55.284108
 123.684252,   55.284323
 123.685918,   55.284462
 123.687585,   55.284586
 123.689252,   55.284711
 123.690918,   55.284835
 123.692585,   55.284960
 123.694252,   55.285084
 123.695918,   55.285209
 123.697585,   55.285334
 123.699252,   55.285458
 123.700918,   55.285583
 123.702585,   55.285694
 123.704252,   55.285802
 123.705918,   55.285911
 123.707585,   55.286019
 123.709252,   55.286128
 123.710918,   55.286236
 123.712585,   55.286345
 123.714252,   55.286453
 123.715918,   55.286561
 123.717585,   55.286670
 123.719252,   55.286775
 123.720918,   55.286880
 123.722585,   55.286984
 123.724252,   55.287089
 123.725918,   55.287193
 123.727585,   55.287298
 123.729252,   55.287402
 123.730918,   55.287507
 123.732585,   55.287611
 123.734252,   55.287716
 123.735918,   55.287855
 123.737585,   55.288001
 123.739252,   55.288147
 123.740918,   55.288293
 123.742585,   55.288439
 123.744252,   55.288584
 123.745918,   55.288730
 123.747585,   55.288876
 123.749252,   55.289022
 123.750918,   55.289168
 123.752585,   55.289279
 123.754252,   55.289384
 123.755918,   55.289489
 123.757585,   55.289594
 123.759252,   55.289699
 123.760918,   55.289804
 123.762585,   55.289909
 123.764252,   55.290013
 123.765918,   55.290118
 123.767585,   55.290223
 123.769252,   55.290331
 123.770918,   55.290439
 123.772585,   55.290547
 123.774252,   55.290655
 123.775918,   55.290763
 123.777585,   55.290871
 123.779252,   55.290979
 123.780918,   55.291087
 123.782585,   55.291195
 123.784252,   55.291303
 123.785918,   55.291451
 123.787585,   55.291607
 123.789252,   55.291763
 123.790918,   55.291919
 123.792585,   55.292075
 123.794252,   55.292231
 123.795918,   55.292387
 123.797585,   55.292543
 123.799252,   55.292699
 123.800918,   55.292855
 123.802585,   55.292982
 123.804252,   55.293102
 123.805918,   55.293223
 123.807585,   55.293344
 123.809252,   55.293465
 123.810918,   55.293585
 123.812585,   55.293706
 123.814252,   55.293827
 123.815918,   55.293948
 123.817585,   55.294068
 123.819252,   55.294196
 123.820918,   55.294324
 123.822585,   55.294453
 123.824252,   55.294582
 123.825918,   55.294710
 123.827585,   55.294839
 123.829252,   55.294967
 123.830918,   55.295096
 123.832585,   55.295225
 123.834252,   55.295353
 123.835918,   55.295525
 123.837585,   55.295704
 123.839252,   55.295884
 123.840918,   55.296064
 123.842585,   55.296244
 123.844252,   55.296423
 123.845918,   55.296603
 123.847585,   55.296783
 123.849252,   55.296963
 123.850918,   55.297142
 123.852585,   55.297294
 123.854252,   55.297440
 123.855918,   55.297586
 123.857585,   55.297732
 123.859252,   55.297879
 123.860918,   55.298025
 123.862585,   55.298171
 123.864252,   55.298317
 123.865918,   55.298463
 123.867585,   55.298609
 123.869252,   55.298762
 123.870918,   55.298916
 123.872585,   55.299070
 123.874252,   55.299225
 123.875918,   55.299379
 123.877585,   55.299533
 123.879252,   55.299687
 123.880918,   55.299841
 123.882585,   55.299995
 123.884252,   55.300149
 123.885918,   55.300345
 123.887585,   55.300549
 123.889252,   55.300753
 123.890918,   55.300957
 123.892585,   55.301161
 123.894252,   55.301365
 123.895918,   55.301569
 123.897585,   55.301773
 123.899252,   55.301977
 123.900918,   55.302181
 123.902585,   55.302354
 123.904252,   55.302522
 123.905918,   55.302689
 123.907585,   55.302857
 123.909252,   55.303024
 123.910918,   55.303192
 123.912585,   55.303359
 123.914252,   55.303527
 123.915918,   55.303694
 123.917585,   55.303862
 123.919252,   55.304033
 123.920918,   55.304205
 123.922585,   55.304376
 123.924252,   55.304548
 123.925918,   55.304719
 123.927585,   55.304891
 123.929252,   55.305063
 123.930918,   55.305234
 123.932585,   55.305406
 123.934252,   55.305577
 123.935918,   55.305787
 123.937585,   55.306004
 123.939252,   55.306221
 123.940918,   55.306437
 123.942585,   55.306654
 123.944252,   55.306871
 123.945918,   55.307088
 123.947585,   55.307305
 123.949252,   55.307522
 123.950918,   55.307738
 123.952585,   55.307920
 123.954252,   55.308096
 123.955918,   55.308271
 123.957585,   55.308446
 123.959252,   55.308621
 123.960918,   55.308797
 123.962585,   55.308972
 123.964252,   55.309147
 123.965918,   55.309322
 123.967585,   55.309498
 123.969252,   55.309672
 123.970918,   55.309846
 123.972585,   55.310019
 123.974252,   55.310193
 123.975918,   55.310367
 123.977585,   55.310541
 123.979252,   55.310715
 123.980918,   55.310889
 123.982585,   55.311063
 123.984252,   55.311237
 123.985918,   55.311444
 123.987585,   55.311658
 123.989252,   55.311872
 123.990918,   55.312086
 123.992585,   55.312300
 123.994252,   55.312515
 123.995918,   55.312729
 123.997585,   55.312943
 123.999252,   55.313157
 124.000918,   55.313371
 124.002585,   55.313546
 124.004252,   55.313713
 124.005918,   55.313881
 124.007585,   55.314049
 124.009252,   55.314216
 124.010918,   55.314384
 124.012585,   55.314552
 124.014252,   55.314719
 124.015918,   55.314887
 124.017585,   55.315055
 124.019252,   55.315322
 124.020918,   55.315609
 124.022585,   55.315896
 124.024252,   55.316183
 124.025918,   55.316470
 124.027585,   55.316757
 124.029252,   55.317044
 124.030918,   55.317331
 124.032585,   55.317618
 124.034252,   55.317905
 124.035918,   55.318204
 124.037585,   55.318505
 124.039252,   55.318806
 124.040918,   55.319106
 124.042585,   55.319407
 124.044252,   55.319708
 124.045918,   55.320009
 124.047585,   55.320310
 124.049252,   55.320611
 124.050918,   55.320912
 124.052585,   55.321163
 124.054252,   55.321403
 124.055918,   55.321644
 124.057585,   55.321884
 124.059252,   55.322125
 124.060918,   55.322366
 124.062585,   55.322606
 124.064252,   55.322847
 124.065918,   55.323087
 124.067585,   55.323328
 124.069252,   55.323551
 124.070918,   55.323771
 124.072585,   55.323990
 124.074252,   55.324210
 124.075918,   55.324429
 124.077585,   55.324649
 124.079252,   55.324868
 124.080918,   55.325088
 124.082585,   55.325307
 124.084252,   55.325527
 124.085918,   55.325744
 124.087585,   55.325961
 124.089252,   55.326177
 124.090918,   55.326394
 124.092585,   55.326611
 124.094252,   55.326827
 124.095918,   55.327044
 124.097585,   55.327261
 124.099252,   55.327477
 124.100918,   55.327694
 124.102585,   55.327941
 124.104252,   55.328194
 124.105918,   55.328447
 124.107585,   55.328700
 124.109252,   55.328953
 124.110918,   55.329206
 124.112585,   55.329459
 124.114252,   55.329712
 124.115918,   55.329965
 124.117585,   55.330218
 124.119252,   55.330432
 124.120918,   55.330639
 124.122585,   55.330846
 124.124252,   55.331053
 124.125918,   55.331260
 124.127585,   55.331467
 124.129252,   55.331674
 124.130918,   55.331881
 124.132585,   55.332088
 124.134252,   55.332295
 124.135918,   55.332498
 124.137585,   55.332700
 124.139252,   55.332901
 124.140918,   55.333103
 124.142585,   55.333305
 124.144252,   55.333507
 124.145918,   55.333709
 124.147585,   55.333911
 124.149252,   55.334112
 124.150918,   55.334314
 124.152585,   55.334439
 124.154252,   55.334548
 124.155918,   55.334657
 124.157585,   55.334767
 124.159252,   55.334876
 124.160918,   55.334986
 124.162585,   55.335095
 124.164252,   55.335204
 124.165918,   55.335314
 124.167585,   55.335423
 124.169252,   55.335519
 124.170918,   55.335611
 124.172585,   55.335704
 124.174252,   55.335797
 124.175918,   55.335890
 124.177585,   55.335983
 124.179252,   55.336076
 124.180918,   55.336169
 124.182585,   55.336262
 124.184252,   55.336354
 124.185918,   55.336445
 124.187585,   55.336536
 124.189252,   55.336626
 124.190918,   55.336716
 124.192585,   55.336807
 124.194252,   55.336897
 124.195918,   55.336988
 124.197585,   55.337078
 124.199252,   55.337168
 124.200918,   55.337259
 124.202585,   55.337387
 124.204252,   55.337522
 124.205918,   55.337657
 124.207585,   55.337792
 124.209252,   55.337927
 124.210918,   55.338062
 124.212585,   55.338197
 124.214252,   55.338332
 124.215918,   55.338467
 124.217585,   55.338602
 124.219252,   55.338706
 124.220918,   55.338804
 124.222585,   55.338902
 124.224252,   55.339000
 124.225918,   55.339098
 124.227585,   55.339196
 124.229252,   55.339294
 124.230918,   55.339392
 124.232585,   55.339490
 124.234252,   55.339589
 124.235918,   55.339694
 124.237585,   55.339800
 124.239252,   55.339907
 124.240918,   55.340013
 124.242585,   55.340120
 124.244252,   55.340227
 124.245918,   55.340333
 124.247585,   55.340440
 124.249252,   55.340546
 124.250918,   55.340653
 124.252585,   55.340805
 124.254252,   55.340966
 124.255918,   55.341126
 124.257585,   55.341287
 124.259252,   55.341448
 124.260918,   55.341609
 124.262585,   55.341769
 124.264252,   55.341930
 124.265918,   55.342091
 124.267585,   55.342252
 124.269252,   55.342388
 124.270918,   55.342519
 124.272585,   55.342650
 124.274252,   55.342782
 124.275918,   55.342913
 124.277585,   55.343044
 124.279252,   55.343176
 124.280918,   55.343307
 124.282585,   55.343438
 124.284252,   55.343569
 124.285918,   55.343623
 124.287585,   55.343662
 124.289252,   55.343700
 124.290918,   55.343739
 124.292585,   55.343778
 124.294252,   55.343817
 124.295918,   55.343855
 124.297585,   55.343894
 124.299252,   55.343933
 124.300918,   55.343971
 124.302585,   55.344000
 124.304252,   55.344027
 124.305918,   55.344054
 124.307585,   55.344081
 124.309252,   55.344107
 124.310918,   55.344134
 124.312585,   55.344161
 124.314252,   55.344188
 124.315918,   55.344215
 124.317585,   55.344241
 124.319252,   55.344273
 124.320918,   55.344307
 124.322585,   55.344340
 124.324252,   55.344373
 124.325918,   55.344406
 124.327585,   55.344439
 124.329252,   55.344472
 124.330918,   55.344505
 124.332585,   55.344538
 124.334252,   55.344571
 124.335918,   55.344652
 124.337585,   55.344742
 124.339252,   55.344832
 124.340918,   55.344922
 124.342585,   55.345012
 124.344252,   55.345101
 124.345918,   55.345191
 124.347585,   55.345281
 124.349252,   55.345371
 124.350918,   55.345461
 124.352585,   55.345532
 124.354252,   55.345600
 124.355918,   55.345667
 124.357585,   55.345734
 124.359252,   55.345802
 124.360918,   55.345869
 124.362585,   55.345936
 124.364252,   55.346004
 124.365918,   55.346071
 124.367585,   55.346139
 124.369252,   55.346260
 124.370918,   55.346392
 124.372585,   55.346524
 124.374252,   55.346656
 124.375918,   55.346788
 124.377585,   55.346920
 124.379252,   55.347052
 124.380918,   55.347184
 124.382585,   55.347316
 124.384252,   55.347448
 124.385918,   55.347552
 124.387585,   55.347651
 124.389252,   55.347750
 124.390918,   55.347849
 124.392585,   55.347948
 124.394252,   55.348047
 124.395918,   55.348146
 124.397585,   55.348245
 124.399252,   55.348344
 124.400918,   55.348443
 124.402585,   55.348543
 124.404252,   55.348643
 124.405918,   55.348743
 124.407585,   55.348843
 124.409252,   55.348943
 124.410918,   55.349043
 124.412585,   55.349143
 124.414252,   55.349243
 124.415918,   55.349343
 124.417585,   55.349443
 124.419252,   55.349583
 124.420918,   55.349731
 124.422585,   55.349878
 124.424252,   55.350026
 124.425918,   55.350174
 124.427585,   55.350322
 124.429252,   55.350470
 124.430918,   55.350618
 124.432585,   55.350765
 124.434252,   55.350913
 124.435918,   55.351032
 124.437585,   55.351145
 124.439252,   55.351258
 124.440918,   55.351371
 124.442585,   55.351484
 124.444252,   55.351597
 124.445918,   55.351711
 124.447585,   55.351824
 124.449252,   55.351937
 124.450918,   55.352050
 124.452585,   55.352172
 124.454252,   55.352295
 124.455918,   55.352418
 124.457585,   55.352542
 124.459252,   55.352665
 124.460918,   55.352789
 124.462585,   55.352912
 124.464252,   55.353035
 124.465918,   55.353159
 124.467585,   55.353282
 124.469252,   55.353452
 124.470918,   55.353631
 124.472585,   55.353809
 124.474252,   55.353988
 124.475918,   55.354167
 124.477585,   55.354346
 124.479252,   55.354524
 124.480918,   55.354703
 124.482585,   55.354882
 124.484252,   55.355060
 124.485918,   55.355214
 124.487585,   55.355364
 124.489252,   55.355513
 124.490918,   55.355662
 124.492585,   55.355811
 124.494252,   55.355961
 124.495918,   55.356110
 124.497585,   55.356259
 124.499252,   55.356408
 124.500918,   55.356558
 124.502585,   55.356629
 124.504252,   55.356684
 124.505918,   55.356740
 124.507585,   55.356795
 124.509252,   55.356851
 124.510918,   55.356907
 124.512585,   55.356962
 124.514252,   55.357018
 124.515918,   55.357074
 124.517585,   55.357129
 124.519252,   55.357174
 124.520918,   55.357216
 124.522585,   55.357258
 124.524252,   55.357301
 124.525918,   55.357343
 124.527585,   55.357385
 124.529252,   55.357428
 124.530918,   55.357470
 124.532585,   55.357512
 124.534252,   55.357555
 124.535918,   55.357601
 124.537585,   55.357647
 124.539252,   55.357694
 124.540918,   55.357740
 124.542585,   55.357787
 124.544252,   55.357834
 124.545918,   55.357880
 124.547585,   55.357927
 124.549252,   55.357973
 124.550918,   55.358020
 124.552585,   55.358112
 124.554252,   55.358214
 124.555918,   55.358315
 124.557585,   55.358416
 124.559252,   55.358518
 124.560918,   55.358619
 124.562585,   55.358720
 124.564252,   55.358822
 124.565918,   55.358923
 124.567585,   55.359024
 124.569252,   55.359104
 124.570918,   55.359180
 124.572585,   55.359256
 124.574252,   55.359332
 124.575918,   55.359408
 124.577585,   55.359484
 124.579252,   55.359560
 124.580918,   55.359635
 124.582585,   55.359711
 124.584252,   55.359787
 124.585918,   55.359915
 124.587585,   55.360053
 124.589252,   55.360191
 124.590918,   55.360329
 124.592585,   55.360467
 124.594252,   55.360605
 124.595918,   55.360743
 124.597585,   55.360881
 124.599252,   55.361018
 124.600918,   55.361156
 124.602585,   55.361264
 124.604252,   55.361366
 124.605918,   55.361469
 124.607585,   55.361571
 124.609252,   55.361673
 124.610918,   55.361775
 124.612585,   55.361877
 124.614252,   55.361979
 124.615918,   55.362081
 124.617585,   55.362183
 124.619252,   55.362283
 124.620918,   55.362383
 124.622585,   55.362482
 124.624252,   55.362582
 124.625918,   55.362681
 124.627585,   55.362781
 124.629252,   55.362881
 124.630918,   55.362980
 124.632585,   55.363080
 124.634252,   55.363179
 124.635918,   55.363316
 124.637585,   55.363460
 124.639252,   55.363603
 124.640918,   55.363747
 124.642585,   55.363891
 124.644252,   55.364035
 124.645918,   55.364179
 124.647585,   55.364323
 124.649252,   55.364467
 124.650918,   55.364610
 124.652585,   55.364724
 124.654252,   55.364832
 124.655918,   55.364939
 124.657585,   55.365047
 124.659252,   55.365155
 124.660918,   55.365262
 124.662585,   55.365370
 124.664252,   55.365478
 124.665918,   55.365586
 124.667585,   55.365693
 124.669252,   55.365808
 124.670918,   55.365923
 124.672585,   55.366039
 124.674252,   55.366154
 124.675918,   55.366270
 124.677585,   55.366385
 124.679252,   55.366501
 124.680918,   55.366617
 124.682585,   55.366732
 124.684252,   55.366848
 124.685918,   55.367009
 124.687585,   55.367178
 124.689252,   55.367348
 124.690918,   55.367517
 124.692585,   55.367687
 124.694252,   55.367857
 124.695918,   55.368026
 124.697585,   55.368196
 124.699252,   55.368365
 124.700918,   55.368535
 124.702585,   55.368681
 124.704252,   55.368822
 124.705918,   55.368964
 124.707585,   55.369105
 124.709252,   55.369246
 124.710918,   55.369388
 124.712585,   55.369529
 124.714252,   55.369670
 124.715918,   55.369812
 124.717585,   55.369953
 124.719252,   55.370017
 124.720918,   55.370066
 124.722585,   55.370116
 124.724252,   55.370165
 124.725918,   55.370214
 124.727585,   55.370263
 124.729252,   55.370313
 124.730918,   55.370362
 124.732585,   55.370411
 124.734252,   55.370461
 124.735918,   55.370499
 124.737585,   55.370536
 124.739252,   55.370573
 124.740918,   55.370610
 124.742585,   55.370647
 124.744252,   55.370683
 124.745918,   55.370720
 124.747585,   55.370757
 124.749252,   55.370794
 124.750918,   55.370830
 124.752585,   55.370872
 124.754252,   55.370914
 124.755918,   55.370957
 124.757585,   55.370999
 124.759252,   55.371042
 124.760918,   55.371084
 124.762585,   55.371126
 124.764252,   55.371169
 124.765918,   55.371211
 124.767585,   55.371254
 124.769252,   55.371344
 124.770918,   55.371443
 124.772585,   55.371542
 124.774252,   55.371641
 124.775918,   55.371740
 124.777585,   55.371839
 124.779252,   55.371939
 124.780918,   55.372038
 124.782585,   55.372137
 124.784252,   55.372236
 124.785918,   55.372317
 124.787585,   55.372395
 124.789252,   55.372473
 124.790918,   55.372551
 124.792585,   55.372629
 124.794252,   55.372706
 124.795918,   55.372784
 124.797585,   55.372862
 124.799252,   55.372940
 124.800918,   55.373017
 124.802585,   55.373148
 124.804252,   55.373290
 124.805918,   55.373431
 124.807585,   55.373572
 124.809252,   55.373714
 124.810918,   55.373855
 124.812585,   55.373996
 124.814252,   55.374138
 124.815918,   55.374279
 124.817585,   55.374420
 124.819252,   55.374535
 124.820918,   55.374646
 124.822585,   55.374756
 124.824252,   55.374867
 124.825918,   55.374977
 124.827585,   55.375087
 124.829252,   55.375198
 124.830918,   55.375308
 124.832585,   55.375419
 124.834252,   55.375529
 124.835918,   55.375640
 124.837585,   55.375750
 124.839252,   55.375861
 124.840918,   55.375971
 124.842585,   55.376082
 124.844252,   55.376193
 124.845918,   55.376303
 124.847585,   55.376414
 124.849252,   55.376525
 124.850918,   55.376635
 124.852585,   55.376786
 124.854252,   55.376944
 124.855918,   55.377102
 124.857585,   55.377261
 124.859252,   55.377419
 124.860918,   55.377577
 124.862585,   55.377735
 124.864252,   55.377894
 124.865918,   55.378052
 124.867585,   55.378210
 124.869252,   55.378340
 124.870918,   55.378464
 124.872585,   55.378589
 124.874252,   55.378713
 124.875918,   55.378838
 124.877585,   55.378962
 124.879252,   55.379087
 124.880918,   55.379211
 124.882585,   55.379336
 124.884252,   55.379460
 124.885918,   55.379592
 124.887585,   55.379726
 124.889252,   55.379860
 124.890918,   55.379994
 124.892585,   55.380128
 124.894252,   55.380262
 124.895918,   55.380396
 124.897585,   55.380530
 124.899252,   55.380664
 124.900918,   55.380798
 124.902585,   55.380979
 124.904252,   55.381168
 124.905918,   55.381357
 124.907585,   55.381546
 124.909252,   55.381735
 124.910918,   55.381924
 124.912585,   55.382113
 124.914252,   55.382302
 124.915918,   55.382491
 124.917585,   55.382680
 124.919252,   55.382845
 124.920918,   55.383005
 124.922585,   55.383166
 124.924252,   55.383326
 124.925918,   55.383486
 124.927585,   55.383647
 124.929252,   55.383807
 124.930918,   55.383968
 124.932585,   55.384128
 124.934252,   55.384289
 124.935918,   55.384371
 124.937585,   55.384438
 124.939252,   55.384505
 124.940918,   55.384572
 124.942585,   55.384639
 124.944252,   55.384706
 124.945918,   55.384773
 124.947585,   55.384840
 124.949252,   55.384907
 124.950918,   55.384974
 124.952585,   55.385029
 124.954252,   55.385082
 124.955918,   55.385135
 124.957585,   55.385187
 124.959252,   55.385240
 124.960918,   55.385293
 124.962585,   55.385346
 124.964252,   55.385398
 124.965918,   55.385451
 124.967585,   55.385504
 124.969252,   55.385559
 124.970918,   55.385615
 124.972585,   55.385671
 124.974252,   55.385727
 124.975918,   55.385783
 124.977585,   55.385839
 124.979252,   55.385895
 124.980918,   55.385951
 124.982585,   55.386007
 124.984252,   55.386063
 124.985918,   55.386164
 124.987585,   55.386275
 124.989252,   55.386385
 124.990918,   55.386495
 124.992585,   55.386605
 124.994252,   55.386715
 124.995918,   55.386825
 124.997585,   55.386935
 124.999252,   55.387045
 125.000918,   55.387156
 125.002585,   55.387245
 125.004252,   55.387331
 125.005918,   55.387416
 125.007585,   55.387502
 125.009252,   55.387588
 125.010918,   55.387673
 125.012585,   55.387759
 125.014252,   55.387844
 125.015918,   55.387930
 125.017585,   55.388015
 125.019252,   55.388152
 125.020918,   55.388298
 125.022585,   55.388444
 125.024252,   55.388591
 125.025918,   55.388737
 125.027585,   55.388883
 125.029252,   55.389029
 125.030918,   55.389175
 125.032585,   55.389322
 125.034252,   55.389468
 125.035918,   55.389586
 125.037585,   55.389698
 125.039252,   55.389810
 125.040918,   55.389922
 125.042585,   55.390034
 125.044252,   55.390147
 125.045918,   55.390259
 125.047585,   55.390371
 125.049252,   55.390483
 125.050918,   55.390596
 125.052585,   55.390706
 125.054252,   55.390816
 125.055918,   55.390925
 125.057585,   55.391035
 125.059252,   55.391145
 125.060918,   55.391255
 125.062585,   55.391365
 125.064252,   55.391475
 125.065918,   55.391584
 125.067585,   55.391694
 125.069252,   55.391842
 125.070918,   55.391998
 125.072585,   55.392153
 125.074252,   55.392309
 125.075918,   55.392464
 125.077585,   55.392620
 125.079252,   55.392775
 125.080918,   55.392931
 125.082585,   55.393086
 125.084252,   55.393242
 125.085918,   55.393367
 125.087585,   55.393487
 125.089252,   55.393607
 125.090918,   55.393727
 125.092585,   55.393847
 125.094252,   55.393967
 125.095918,   55.394087
 125.097585,   55.394207
 125.099252,   55.394327
 125.100918,   55.394447
 125.102585,   55.394574
 125.104252,   55.394703
 125.105918,   55.394831
 125.107585,   55.394960
 125.109252,   55.395089
 125.110918,   55.395217
 125.112585,   55.395346
 125.114252,   55.395475
 125.115918,   55.395603
 125.117585,   55.395732
 125.119252,   55.395907
 125.120918,   55.396090
 125.122585,   55.396274
 125.124252,   55.396457
 125.125918,   55.396641
 125.127585,   55.396825
 125.129252,   55.397008
 125.130918,   55.397192
 125.132585,   55.397376
 125.134252,   55.397559
 125.135918,   55.397719
 125.137585,   55.397875
 125.139252,   55.398030
 125.140918,   55.398185
 125.142585,   55.398341
 125.144252,   55.398496
 125.145918,   55.398652
 125.147585,   55.398807
 125.149252,   55.398962
 125.150918,   55.399118
 125.152585,   55.399195
 125.154252,   55.399258
 125.155918,   55.399321
 125.157585,   55.399384
 125.159252,   55.399446
 125.160918,   55.399509
 125.162585,   55.399572
 125.164252,   55.399634
 125.165918,   55.399697
 125.167585,   55.399760
 125.169252,   55.399812
 125.170918,   55.399861
 125.172585,   55.399911
 125.174252,   55.399961
 125.175918,   55.400011
 125.177585,   55.400061
 125.179252,   55.400111
 125.180918,   55.400161
 125.182585,   55.400211
 125.184252,   55.400261
 125.185918,   55.400315
 125.187585,   55.400370
 125.189252,   55.400425
 125.190918,   55.400480
 125.192585,   55.400536
 125.194252,   55.400591
 125.195918,   55.400646
 125.197585,   55.400701
 125.199252,   55.400756
 125.200918,   55.400811
 125.202585,   55.400914
 125.204252,   55.401026
 125.205918,   55.401137
 125.207585,   55.401249
 125.209252,   55.401361
 125.210918,   55.401473
 125.212585,   55.401584
 125.214252,   55.401696
 125.215918,   55.401808
 125.217585,   55.401920
 125.219252,   55.402013
 125.220918,   55.402102
 125.222585,   55.402192
 125.224252,   55.402281
 125.225918,   55.402371
 125.227585,   55.402460
 125.229252,   55.402550
 125.230918,   55.402639
 125.232585,   55.402728
 125.234252,   55.402818
 125.235918,   55.402960
 125.237585,   55.403113
 125.239252,   55.403266
 125.240918,   55.403418
 125.242585,   55.403571
 125.244252,   55.403724
 125.245918,   55.403876
 125.247585,   55.404029
 125.249252,   55.404182
 125.250918,   55.404334
 125.252585,   55.404460
 125.254252,   55.404581
 125.255918,   55.404701
 125.257585,   55.404822
 125.259252,   55.404943
 125.260918,   55.405063
 125.262585,   55.405184
 125.264252,   55.405305
 125.265918,   55.405425
 125.267585,   55.405546
 125.269252,   55.405666
 125.270918,   55.405786
 125.272585,   55.405906
 125.274252,   55.406026
 125.275918,   55.406146
 125.277585,   55.406266
 125.279252,   55.406387
 125.280918,   55.406507
 125.282585,   55.406627
 125.284252,   55.406747
 125.285918,   55.406907
 125.287585,   55.407074
 125.289252,   55.407241
 125.290918,   55.407409
 125.292585,   55.407576
 125.294252,   55.407743
 125.295918,   55.407911
 125.297585,   55.408078
 125.299252,   55.408245
 125.300918,   55.408413
 125.302585,   55.408551
 125.304252,   55.408683
 125.305918,   55.408816
 125.307585,   55.408949
 125.309252,   55.409081
 125.310918,   55.409214
 125.312585,   55.409347
 125.314252,   55.409479
 125.315918,   55.409612
 125.317585,   55.409745
 125.319252,   55.409885
 125.320918,   55.410027
 125.322585,   55.410169
 125.324252,   55.410310
 125.325918,   55.410452
 125.327585,   55.410594
 125.329252,   55.410736
 125.330918,   55.410878
 125.332585,   55.411019
 125.334252,   55.411161
 125.335918,   55.411349
 125.337585,   55.411546
 125.339252,   55.411743
 125.340918,   55.411940
 125.342585,   55.412137
 125.344252,   55.412334
 125.345918,   55.412531
 125.347585,   55.412728
 125.349252,   55.412925
 125.350918,   55.413122
 125.352585,   55.413294
 125.354252,   55.413462
 125.355918,   55.413631
 125.357585,   55.413799
 125.359252,   55.413967
 125.360918,   55.414135
 125.362585,   55.414303
 125.364252,   55.414471
 125.365918,   55.414639
 125.367585,   55.414807
 125.369252,   55.414896
 125.370918,   55.414970
 125.372585,   55.415044
 125.374252,   55.415118
 125.375918,   55.415192
 125.377585,   55.415266
 125.379252,   55.415340
 125.380918,   55.415414
 125.382585,   55.415488
 125.384252,   55.415562
 125.385918,   55.415624
 125.387585,   55.415684
 125.389252,   55.415744
 125.390918,   55.415803
 125.392585,   55.415863
 125.394252,   55.415923
 125.395918,   55.415983
 125.397585,   55.416043
 125.399252,   55.416102
 125.400918,   55.416162
 125.402585,   55.416225
 125.404252,   55.416289
 125.405918,   55.416352
 125.407585,   55.416416
 125.409252,   55.416479
 125.410918,   55.416542
 125.412585,   55.416606
 125.414252,   55.416669
 125.415918,   55.416733
 125.417585,   55.416796
 125.419252,   55.416906
 125.420918,   55.417024
 125.422585,   55.417143
 125.424252,   55.417261
 125.425918,   55.417380
 125.427585,   55.417499
 125.429252,   55.417617
 125.430918,   55.417736
 125.432585,   55.417854
 125.434252,   55.417973
 125.435918,   55.418071
 125.437585,   55.418165
 125.439252,   55.418260
 125.440918,   55.418354
 125.442585,   55.418448
 125.444252,   55.418543
 125.445918,   55.418637
 125.447585,   55.418732
 125.449252,   55.418826
 125.450918,   55.418920
 125.452585,   55.419066
 125.454252,   55.419223
 125.455918,   55.419379
 125.457585,   55.419535
 125.459252,   55.419691
 125.460918,   55.419847
 125.462585,   55.420003
 125.464252,   55.420159
 125.465918,   55.420315
 125.467585,   55.420471
 125.469252,   55.420599
 125.470918,   55.420722
 125.472585,   55.420844
 125.474252,   55.420967
 125.475918,   55.421089
 125.477585,   55.421212
 125.479252,   55.421334
 125.480918,   55.421457
 125.482585,   55.421579
 125.484252,   55.421701
 125.485918,   55.421822
 125.487585,   55.421943
 125.489252,   55.422064
 125.490918,   55.422184
 125.492585,   55.422305
 125.494252,   55.422426
 125.495918,   55.422546
 125.497585,   55.422667
 125.499252,   55.422788
 125.500918,   55.422908
 125.502585,   55.423068
 125.504252,   55.423235
 125.505918,   55.423402
 125.507585,   55.423569
 125.509252,   55.423737
 125.510918,   55.423904
 125.512585,   55.424071
 125.514252,   55.424238
 125.515918,   55.424405
 125.517585,   55.424572
 125.519252,   55.424710
 125.520918,   55.424842
 125.522585,   55.424973
 125.524252,   55.425105
 125.525918,   55.425237
 125.527585,   55.425369
 125.529252,   55.425501
 125.530918,   55.425632
 125.532585,   55.425764
 125.534252,   55.425896
 125.535918,   55.426035
 125.537585,   55.426176
 125.539252,   55.426317
 125.540918,   55.426458
 125.542585,   55.426599
 125.544252,   55.426740
 125.545918,   55.426881
 125.547585,   55.427021
 125.549252,   55.427162
 125.550918,   55.427303
 125.552585,   55.427491
 125.554252,   55.427687
 125.555918,   55.427883
 125.557585,   55.428080
 125.559252,   55.428276
 125.560918,   55.428473
 125.562585,   55.428669
 125.564252,   55.428866
 125.565918,   55.429062
 125.567585,   55.429258
 125.569252,   55.429431
 125.570918,   55.429599
 125.572585,   55.429767
 125.574252,   55.429935
 125.575918,   55.430103
 125.577585,   55.430271
 125.579252,   55.430439
 125.580918,   55.430607
 125.582585,   55.430775
 125.584252,   55.430943
 125.585918,   55.431033
 125.587585,   55.431108
 125.589252,   55.431182
 125.590918,   55.431257
 125.592585,   55.431331
 125.594252,   55.431405
 125.595918,   55.431480
 125.597585,   55.431554
 125.599252,   55.431629
 125.600918,   55.431703
 125.602585,   55.431767
 125.604252,   55.431828
 125.605918,   55.431890
 125.607585,   55.431951
 125.609252,   55.432012
 125.610918,   55.432074
 125.612585,   55.432135
 125.614252,   55.432197
 125.615918,   55.432258
 125.617585,   55.432319
 125.619252,   55.432385
 125.620918,   55.432451
 125.622585,   55.432518
 125.624252,   55.432584
 125.625918,   55.432650
 125.627585,   55.432716
 125.629252,   55.432783
 125.630918,   55.432849
 125.632585,   55.432915
 125.634252,   55.432982
 125.635918,   55.433096
 125.637585,   55.433219
 125.639252,   55.433341
 125.640918,   55.433464
 125.642585,   55.433587
 125.644252,   55.433710
 125.645918,   55.433833
 125.647585,   55.433956
 125.649252,   55.434079
 125.650918,   55.434202
 125.652585,   55.434306
 125.654252,   55.434406
 125.655918,   55.434506
 125.657585,   55.434606
 125.659252,   55.434706
 125.660918,   55.434806
 125.662585,   55.434906
 125.664252,   55.435006
 125.665918,   55.435106
 125.667585,   55.435206
 125.669252,   55.435359
 125.670918,   55.435522
 125.672585,   55.435686
 125.674252,   55.435849
 125.675918,   55.436012
 125.677585,   55.436175
 125.679252,   55.436338
 125.680918,   55.436502
 125.682585,   55.436665
 125.684252,   55.436828
 125.685918,   55.436964
 125.687585,   55.437094
 125.689252,   55.437225
 125.690918,   55.437355
 125.692585,   55.437486
 125.694252,   55.437616
 125.695918,   55.437747
 125.697585,   55.437877
 125.699252,   55.438008
 125.700918,   55.438138
 125.702585,   55.438268
 125.704252,   55.438398
 125.705918,   55.438527
 125.707585,   55.438657
 125.709252,   55.438786
 125.710918,   55.438916
 125.712585,   55.439045
 125.714252,   55.439175
 125.715918,   55.439304
 125.717585,   55.439434
 125.719252,   55.439603
 125.720918,   55.439780
 125.722585,   55.439956
 125.724252,   55.440133
 125.725918,   55.440310
 125.727585,   55.440487
 125.729252,   55.440663
 125.730918,   55.440840
 125.732585,   55.441017
 125.734252,   55.441194
 125.735918,   55.441341
 125.737585,   55.441483
 125.739252,   55.441624
 125.740918,   55.441766
 125.742585,   55.441907
 125.744252,   55.442049
 125.745918,   55.442190
 125.747585,   55.442332
 125.749252,   55.442473
 125.750918,   55.442615
 125.752585,   55.442764
 125.754252,   55.442915
 125.755918,   55.443065
 125.757585,   55.443216
 125.759252,   55.443366
 125.760918,   55.443517
 125.762585,   55.443668
 125.764252,   55.443818
 125.765918,   55.443969
 125.767585,   55.444119
 125.769252,   55.444317
 125.770918,   55.444523
 125.772585,   55.444729
 125.774252,   55.444935
 125.775918,   55.445141
 125.777585,   55.445347
 125.779252,   55.445553
 125.780918,   55.445759
 125.782585,   55.445965
 125.784252,   55.446171
 125.785918,   55.446353
 125.787585,   55.446530
 125.789252,   55.446707
 125.790918,   55.446884
 125.792585,   55.447061
 125.794252,   55.447238
 125.795918,   55.447415
 125.797585,   55.447592
 125.799252,   55.447770
 125.800918,   55.447947
 125.802585,   55.448044
 125.804252,   55.448127
 125.805918,   55.448209
 125.807585,   55.448291
 125.809252,   55.448374
 125.810918,   55.448456
 125.812585,   55.448538
 125.814252,   55.448621
 125.815918,   55.448703
 125.817585,   55.448785
 125.819252,   55.448856
 125.820918,   55.448924
 125.822585,   55.448993
 125.824252,   55.449061
 125.825918,   55.449129
 125.827585,   55.449198
 125.829252,   55.449266
 125.830918,   55.449334
 125.832585,   55.449402
 125.834252,   55.449471
 125.835918,   55.449542
 125.837585,   55.449615
 125.839252,   55.449687
 125.840918,   55.449759
 125.842585,   55.449831
 125.844252,   55.449904
 125.845918,   55.449976
 125.847585,   55.450048
 125.849252,   55.450120
 125.850918,   55.450193
 125.852585,   55.450312
 125.854252,   55.450440
 125.855918,   55.450568
 125.857585,   55.450696
 125.859252,   55.450824
 125.860918,   55.450952
 125.862585,   55.451080
 125.864252,   55.451209
 125.865918,   55.451337
 125.867585,   55.451465
 125.869252,   55.451573
 125.870918,   55.451677
 125.872585,   55.451781
 125.874252,   55.451885
 125.875918,   55.451989
 125.877585,   55.452093
 125.879252,   55.452197
 125.880918,   55.452301
 125.882585,   55.452405
 125.884252,   55.452510
 125.885918,   55.452666
 125.887585,   55.452833
 125.889252,   55.452999
 125.890918,   55.453166
 125.892585,   55.453333
 125.894252,   55.453499
 125.895918,   55.453666
 125.897585,   55.453833
 125.899252,   55.453999
 125.900918,   55.454166
 125.902585,   55.454305
 125.904252,   55.454438
 125.905918,   55.454571
 125.907585,   55.454704
 125.909252,   55.454837
 125.910918,   55.454970
 125.912585,   55.455103
 125.914252,   55.455236
 125.915918,   55.455369
 125.917585,   55.455502
 125.919252,   55.455634
 125.920918,   55.455766
 125.922585,   55.455897
 125.924252,   55.456029
 125.925918,   55.456160
 125.927585,   55.456292
 125.929252,   55.456424
 125.930918,   55.456555
 125.932585,   55.456687
 125.934252,   55.456818
 125.935918,   55.456989
 125.937585,   55.457168
 125.939252,   55.457347
 125.940918,   55.457525
 125.942585,   55.457704
 125.944252,   55.457883
 125.945918,   55.458061
 125.947585,   55.458240
 125.949252,   55.458419
 125.950918,   55.458598
 125.952585,   55.458747
 125.954252,   55.458890
 125.955918,   55.459033
 125.957585,   55.459176
 125.959252,   55.459319
 125.960918,   55.459463
 125.962585,   55.459606
 125.964252,   55.459749
 125.965918,   55.459892
 125.967585,   55.460036
 125.969252,   55.460186
 125.970918,   55.460339
 125.972585,   55.460491
 125.974252,   55.460644
 125.975918,   55.460796
 125.977585,   55.460949
 125.979252,   55.461101
 125.980918,   55.461254
 125.982585,   55.461406
 125.984252,   55.461558
 125.985918,   55.461758
 125.987585,   55.461966
 125.989252,   55.462175
 125.990918,   55.462383
 125.992585,   55.462592
 125.994252,   55.462800
 125.995918,   55.463009
 125.997585,   55.463217
 125.999252,   55.463426
 126.000918,   55.463634
 126.002585,   55.463819
 126.004252,   55.463999
 126.005918,   55.464178
 126.007585,   55.464358
 126.009252,   55.464538
 126.010918,   55.464718
 126.012585,   55.464898
 126.014252,   55.465078
 126.015918,   55.465257
 126.017585,   55.465437
 126.019252,   55.465538
 126.020918,   55.465623
 126.022585,   55.465709
 126.024252,   55.465794
 126.025918,   55.465880
 126.027585,   55.465965
 126.029252,   55.466050
 126.030918,   55.466136
 126.032585,   55.466221
 126.034252,   55.466307
 126.035918,   55.466381
 126.037585,   55.466453
 126.039252,   55.466525
 126.040918,   55.466597
 126.042585,   55.466669
 126.044252,   55.466741
 126.045918,   55.466813
 126.047585,   55.466885
 126.049252,   55.466957
 126.050918,   55.467029
 126.052585,   55.467105
 126.054252,   55.467182
 126.055918,   55.467259
 126.057585,   55.467335
 126.059252,   55.467412
 126.060918,   55.467489
 126.062585,   55.467566
 126.064252,   55.467642
 126.065918,   55.467719
 126.067585,   55.467796
 126.069252,   55.467920
 126.070918,   55.468054
 126.072585,   55.468188
 126.074252,   55.468321
 126.075918,   55.468455
 126.077585,   55.468588
 126.079252,   55.468722
 126.080918,   55.468856
 126.082585,   55.468989
 126.084252,   55.469123
 126.085918,   55.469251
 126.087585,   55.469379
 126.088545,   55.469453
 126.090212,   55.469557
 126.091879,   55.469662
 126.093545,   55.469766
 126.095212,   55.469871
 126.096879,   55.469976
 126.098545,   55.470080
 126.100212,   55.470185
 126.101879,   55.432742
 126.103545,   55.342228
 126.105212,   55.251714
 126.106879,   55.161200
 126.108545,   55.070686
 126.110212,   54.980172
 126.111879,   54.889658
 126.113545,   54.799144
 126.115212,   54.708630
 126.116879,   54.618116
 126.118545,   54.527041
 126.120212,   54.435173
 126.121879,   54.343305
 126.123545,   54.251438
 126.125212,   54.159570
 126.126879,   54.067702
 126.128545,   53.975835
 126.130212,   53.883967
 126.131879,   53.792099
 126.133545,   53.700232
 126.135212,   53.607939
 126.136879,   53.515047
 126.138545,   53.422155
 126.140212,   53.329262
 126.141879,   53.236370
 126.143110,   53.167720
