Time, Fuel Used
   0.000000,    0.000000
   0.100000,    0.014361
   0.200000,    0.028722
   0.300000,    0.043083
   0.400000,    0.057446
   0.500000,    0.071808
   0.600000,    0.086171
   0.700000,    0.100533
   0.800000,    0.114896
   0.900000,    0.129259
   1.000000,    0.143621
   1.100000,    0.157984
   1.200000,    0.172346
   1.300000,    0.186709
   1.400000,    0.201074
   1.500000,    0.215439
   1.600000,    0.229804
   1.700000,    0.244169
   1.800000,    0.258534
   1.900000,    0.272899
   2.000000,    0.287264
   2.100000,    0.301629
   2.200000,    0.315994
   2.300000,    0.330359
   2.400000,    0.344726
   2.500000,    0.359094
   2.600000,    0.373461
   2.700000,    0.387829
   2.800000,    0.402196
   2.900000,    0.416564
   3.000000,    0.430931
   3.100000,    0.445299
   3.200000,    0.459666
   3.300000,    0.474033
   3.400000,    0.488403
   3.500000,    0.502773
   3.600000,    0.517143
   3.700000,    0.531513
   3.800000,    0.545883
   3.900000,    0.560253
   4.000000,    0.574622
   4.100000,    0.588992
   4.200000,    0.603362
   4.300000,    0.617732
   4.400000,    0.632104
   4.500000,    0.646476
   4.600000,    0.660849
   4.700000,    0.675221
   4.800000,    0.689593
   4.900000,    0.703966
   5.000000,    0.718338
   5.100000,    0.732710
   5.200000,    0.747083
   5.300000,    0.761455
   5.400000,    0.775829
   5.500000,    0.790204
   5.600000,    0.804579
   5.700000,    0.818954
   5.800000,    0.833328
   5.900000,    0.847703
   6.000000,    0.862078
   6.100000,    0.876452
   6.200000,    0.890827
   6.300000,    0.905202
   6.400000,    0.919579
   6.500000,    0.933956
   6.600000,    0.948333
   6.700000,    0.962710
   6.800000,    0.977087
   6.900000,    0.991464
   7.000000,    1.005842
   7.100000,    1.020219
   7.200000,    1.034596
   7.300000,    1.048973
   7.400000,    1.063352
   7.500000,    1.077732
   7.600000,    1.092111
   7.700000,    1.106491
   7.800000,    1.120870
   7.900000,    1.135250
   8.000000,    1.149630
   8.100000,    1.164009
   8.200000,    1.178389
   8.300000,    1.192768
   8.400000,    1.207150
   8.500000,    1.221532
   8.600000,    1.235914
   8.700000,    1.250296
   8.800000,    1.264678
   8.900000,    1.279060
   9.000000,    1.293442
   9.100000,    1.307824
   9.200000,    1.322206
   9.300000,    1.336587
   9.400000,    1.350972
   9.500000,    1.365356
   9.600000,    1.379740
   9.700000,    1.394125
   9.800000,    1.408509
   9.900000,    1.422893
  10.000000,    1.437278
  10.100000,    1.451662
  10.200000,    1.466046
  10.300000,    1.480431
  10.400000,    1.494817
  10.500000,    1.509204
  10.600000,    1.523591
  10.700000,    1.537978
  10.800000,    1.552364
  10.900000,    1.566751
  11.000000,    1.581138
  11.100000,    1.595525
  11.200000,    1.609911
  11.300000,    1.624298
  11.400000,    1.638687
  11.500000,    1.653076
  11.600000,    1.667465
  11.700000,    1.681855
  11.800000,    1.696244
  11.900000,    1.710633
  12.000000,    1.725022
  12.100000,    1.739411
  12.200000,    1.753800
  12.300000,    1.768189
  12.400000,    1.782581
  12.500000,    1.796972
  12.600000,    1.811364
  12.700000,    1.825755
  12.800000,    1.840147
  12.900000,    1.854538
  13.000000,    1.868930
  13.100000,    1.883322
  13.200000,    1.897713
  13.300000,    1.912105
  13.400000,    1.926498
  13.500000,    1.940892
  13.600000,    1.955286
  13.700000,    1.969680
  13.800000,    1.984074
  13.900000,    1.998468
  14.000000,    2.012862
  14.100000,    2.027256
  14.200000,    2.041650
  14.300000,    2.056044
  14.400000,    2.070440
  14.500000,    2.084836
  14.600000,    2.099232
  14.700000,    2.113629
  14.800000,    2.128025
  14.900000,    2.142421
  15.000000,    2.156818
  15.100000,    2.171214
  15.200000,    2.185610
  15.300000,    2.200007
  15.400000,    2.214405
  15.500000,    2.228804
  15.600000,    2.243202
  15.700000,    2.257601
  15.800000,    2.272000
  15.900000,    2.286399
  16.000000,    2.300797
  16.100000,    2.315196
  16.200000,    2.329595
  16.300000,    2.343993
  16.400000,    2.358394
  16.500000,    2.372795
  16.600000,    2.387196
  16.700000,    2.401597
  16.800000,    2.415998
  16.900000,    2.430399
  17.000000,    2.444801
  17.100000,    2.459202
  17.200000,    2.473603
  17.300000,    2.488004
  17.400000,    2.502407
  17.500000,    2.516810
  17.600000,    2.531214
  17.700000,    2.545617
  17.800000,    2.560021
  17.900000,    2.574424
  18.000000,    2.588828
  18.100000,    2.603231
  18.200000,    2.617634
  18.300000,    2.632038
  18.400000,    2.646444
  18.500000,    2.660849
  18.600000,    2.675255
  18.700000,    2.689661
  18.800000,    2.704067
  18.900000,    2.718473
  19.000000,    2.732878
  19.100000,    2.747284
  19.200000,    2.761690
  19.300000,    2.776096
  19.400000,    2.790504
  19.500000,    2.804912
  19.600000,    2.819320
  19.700000,    2.833728
  19.800000,    2.848136
  19.900000,    2.862545
  20.000000,    2.876953
  20.100000,    2.891361
  20.200000,    2.905769
  20.300000,    2.920177
  20.400000,    2.934588
  20.500000,    2.948998
  20.600000,    2.963409
  20.700000,    2.977819
  20.800000,    2.992230
  20.900000,    3.006640
  21.000000,    3.021051
  21.100000,    3.035461
  21.200000,    3.049872
  21.300000,    3.064283
  21.400000,    3.078695
  21.500000,    3.093108
  21.600000,    3.107521
  21.700000,    3.121934
  21.800000,    3.136347
  21.900000,    3.150760
  22.000000,    3.165173
  22.100000,    3.179586
  22.200000,    3.193998
  22.300000,    3.208411
  22.400000,    3.222826
  22.500000,    3.237242
  22.600000,    3.251657
  22.700000,    3.266072
  22.800000,    3.280488
  22.900000,    3.294903
  23.000000,    3.309318
  23.100000,    3.323733
  23.200000,    3.338149
  23.300000,    3.352564
  23.400000,    3.366981
  23.500000,    3.381399
  23.600000,    3.395816
  23.700000,    3.410234
  23.800000,    3.424652
  23.900000,    3.439069
  24.000000,    3.453487
  24.100000,    3.467905
  24.200000,    3.482322
  24.300000,    3.496740
  24.400000,    3.511160
  24.500000,    3.525580
  24.600000,    3.540000
  24.700000,    3.554420
  24.800000,    3.568840
  24.900000,    3.583259
  25.000000,    3.597679
  25.100000,    3.612099
  25.200000,    3.626519
  25.300000,    3.640939
  25.400000,    3.655362
  25.500000,    3.669784
  25.600000,    3.684206
  25.700000,    3.698629
  25.800000,    3.713051
  25.900000,    3.727473
  26.000000,    3.741896
  26.100000,    3.756318
  26.200000,    3.770740
  26.300000,    3.785163
  26.400000,    3.799587
  26.500000,    3.814012
  26.600000,    3.828436
  26.700000,    3.842861
  26.800000,    3.857286
  26.900000,    3.871711
  27.000000,    3.886135
  27.100000,    3.900560
  27.200000,    3.914985
  27.300000,    3.929409
  27.400000,    3.943836
  27.500000,    3.958263
  27.600000,    3.972690
  27.700000,    3.987117
  27.800000,    4.001544
  27.900000,    4.015971
  28.000000,    4.030398
  28.100000,    4.044825
  28.200000,    4.059252
  28.300000,    4.073679
  28.400000,    4.088109
  28.500000,    4.102538
  28.600000,    4.116967
  28.700000,    4.131397
  28.800000,    4.145826
  28.900000,    4.160256
  29.000000,    4.174685
  29.100000,    4.189114
  29.200000,    4.203544
  29.300000,    4.217973
  29.400000,    4.232405
  29.500000,    4.246836
  29.600000,    4.261268
  29.700000,    4.275700
  29.800000,    4.290132
  29.900000,    4.304563
  30.000000,    4.318995
  30.100000,    4.333427
  30.200000,    4.347859
  30.300000,    4.362290
  30.400000,    4.376724
  30.500000,    4.391158
  30.600000,    4.405592
  30.700000,    4.420027
  30.800000,    4.434461
  30.900000,    4.448895
  31.000000,    4.463329
  31.100000,    4.477763
  31.200000,    4.492197
  31.300000,    4.506631
  31.400000,    4.521067
  31.500000,    4.535504
  31.600000,    4.549940
  31.700000,    4.564376
  31.800000,    4.578813
  31.900000,    4.593249
  32.000000,    4.607686
  32.100000,    4.622122
  32.200000,    4.636559
  32.300000,    4.650995
  32.400000,    4.665434
  32.500000,    4.679872
  32.600000,    4.694311
  32.700000,    4.708750
  32.800000,    4.723189
  32.900000,    4.737627
  33.000000,    4.752066
  33.100000,    4.766505
  33.200000,    4.780944
  33.300000,    4.795382
  33.400000,    4.809823
  33.500000,    4.824264
  33.600000,    4.838705
  33.700000,    4.853147
  33.800000,    4.867588
  33.900000,    4.882029
  34.000000,    4.896470
  34.100000,    4.910911
  34.200000,    4.925352
  34.300000,    4.939793
  34.400000,    4.954236
  34.500000,    4.968680
  34.600000,    4.983123
  34.700000,    4.997567
  34.800000,    5.012010
  34.900000,    5.026453
  35.000000,    5.040897
  35.100000,    5.055340
  35.200000,    5.069784
  35.300000,    5.084227
  35.400000,    5.098673
  35.500000,    5.113118
  35.600000,    5.127564
  35.700000,    5.142010
  35.800000,    5.156456
  35.900000,    5.170901
  36.000000,    5.185347
  36.100000,    5.199793
  36.200000,    5.214239
  36.300000,    5.228684
  36.400000,    5.243132
  36.500000,    5.257580
  36.600000,    5.272028
  36.700000,    5.286477
  36.800000,    5.300925
  36.900000,    5.315373
  37.000000,    5.329821
  37.100000,    5.344269
  37.200000,    5.358717
  37.300000,    5.373165
  37.400000,    5.387615
  37.500000,    5.402066
  37.600000,    5.416516
  37.700000,    5.430966
  37.800000,    5.445417
  37.900000,    5.459867
  38.000000,    5.474318
  38.100000,    5.488768
  38.200000,    5.503218
  38.300000,    5.517669
  38.400000,    5.532121
  38.500000,    5.546574
  38.600000,    5.561027
  38.700000,    5.575480
  38.800000,    5.589932
  38.900000,    5.604385
  39.000000,    5.618838
  39.100000,    5.633290
  39.200000,    5.647743
  39.300000,    5.662196
  39.400000,    5.676651
  39.500000,    5.691106
  39.600000,    5.705561
  39.700000,    5.720016
  39.800000,    5.734471
  39.900000,    5.748926
  40.000000,    5.763381
  40.100000,    5.777836
  40.200000,    5.792291
  40.300000,    5.806746
  40.400000,    5.821203
  40.500000,    5.835660
  40.600000,    5.850118
  40.700000,    5.864575
  40.800000,    5.879032
  40.900000,    5.893490
  41.000000,    5.907947
  41.100000,    5.922404
  41.200000,    5.936862
  41.300000,    5.951319
  41.400000,    5.965778
  41.500000,    5.980238
  41.600000,    5.994698
  41.700000,    6.009157
  41.800000,    6.023617
  41.900000,    6.038077
  42.000000,    6.052536
  42.100000,    6.066996
  42.200000,    6.081456
  42.300000,    6.095915
  42.400000,    6.110377
  42.500000,    6.124839
  42.600000,    6.139301
  42.700000,    6.153763
  42.800000,    6.168225
  42.900000,    6.182687
  43.000000,    6.197149
  43.100000,    6.211611
  43.200000,    6.226073
  43.300000,    6.240535
  43.400000,    6.254999
  43.500000,    6.269463
  43.600000,    6.283927
  43.700000,    6.298391
  43.800000,    6.312856
  43.900000,    6.327320
  44.000000,    6.341784
  44.100000,    6.356248
  44.200000,    6.370713
  44.300000,    6.385177
  44.400000,    6.399643
  44.500000,    6.414110
  44.600000,    6.428576
  44.700000,    6.443043
  44.800000,    6.457509
  44.900000,    6.471976
  45.000000,    6.486442
  45.100000,    6.500909
  45.200000,    6.515376
  45.300000,    6.529842
  45.400000,    6.544311
  45.500000,    6.558780
  45.600000,    6.573248
  45.700000,    6.587717
  45.800000,    6.602186
  45.900000,    6.616655
  46.000000,    6.631124
  46.100000,    6.645593
  46.200000,    6.660062
  46.300000,    6.674530
  46.400000,    6.689001
  46.500000,    6.703473
  46.600000,    6.717944
  46.700000,    6.732415
  46.800000,    6.746886
  46.900000,    6.761357
  47.000000,    6.775828
  47.100000,    6.790299
  47.200000,    6.804770
  47.300000,    6.819242
  47.400000,    6.833715
  47.500000,    6.848188
  47.600000,    6.862662
  47.700000,    6.877135
  47.800000,    6.891609
  47.900000,    6.906082
  48.000000,    6.920555
  48.100000,    6.935029
  48.200000,    6.949502
  48.300000,    6.963976
  48.400000,    6.978451
  48.500000,    6.992927
  48.600000,    7.007403
  48.700000,    7.021878
  48.800000,    7.036354
  48.900000,    7.050830
  49.000000,    7.065305
  49.100000,    7.079781
  49.200000,    7.094257
  49.300000,    7.108733
  49.400000,    7.123210
  49.500000,    7.137688
  49.600000,    7.152166
  49.700000,    7.166644
  49.800000,    7.181122
  49.900000,    7.195600
  50.000000,    7.210078
  50.100000,    7.224556
  50.200000,    7.239034
  50.300000,    7.253512
  50.400000,    7.267993
  50.500000,    7.282473
  50.600000,    7.296953
  50.700000,    7.311433
  50.800000,    7.325914
  50.900000,    7.340394
  51.000000,    7.354874
  51.100000,    7.369355
  51.200000,    7.383835
  51.300000,    7.398315
  51.400000,    7.412798
  51.500000,    7.427280
  51.600000,    7.441763
  51.700000,    7.456245
  51.800000,    7.470728
  51.900000,    7.485210
  52.000000,    7.499693
  52.100000,    7.514175
  52.200000,    7.528658
  52.300000,    7.543141
  52.400000,    7.557625
  52.500000,    7.572110
  52.600000,    7.586595
  52.700000,    7.601080
  52.800000,    7.615565
  52.900000,    7.630050
  53.000000,    7.644534
  53.100000,    7.659019
  53.200000,    7.673504
  53.300000,    7.687989
  53.400000,    7.702476
  53.500000,    7.716963
  53.600000,    7.731450
  53.700000,    7.745937
  53.800000,    7.760424
  53.900000,    7.774911
  54.000000,    7.789399
  54.100000,    7.803886
  54.200000,    7.818373
  54.300000,    7.832860
  54.400000,    7.847349
  54.500000,    7.861839
  54.600000,    7.876328
  54.700000,    7.890817
  54.800000,    7.905307
  54.900000,    7.919796
  55.000000,    7.934286
  55.100000,    7.948775
  55.200000,    7.963264
  55.300000,    7.977754
  55.400000,    7.992245
  55.500000,    8.006737
  55.600000,    8.021229
  55.700000,    8.035720
  55.800000,    8.050212
  55.900000,    8.064704
  56.000000,    8.079195
  56.100000,    8.093687
  56.200000,    8.108179
  56.300000,    8.122670
  56.400000,    8.137164
  56.500000,    8.151658
  56.600000,    8.166152
  56.700000,    8.180646
  56.800000,    8.195140
  56.900000,    8.209634
  57.000000,    8.224128
  57.100000,    8.238622
  57.200000,    8.253116
  57.300000,    8.267609
  57.400000,    8.282106
  57.500000,    8.296602
  57.600000,    8.311098
  57.700000,    8.325594
  57.800000,    8.340090
  57.900000,    8.354587
  58.000000,    8.369083
  58.100000,    8.383579
  58.200000,    8.398075
  58.300000,    8.412571
  58.400000,    8.427070
  58.500000,    8.441568
  58.600000,    8.456067
  58.700000,    8.470565
  58.800000,    8.485064
  58.900000,    8.499562
  59.000000,    8.514061
  59.100000,    8.528559
  59.200000,    8.543057
  59.300000,    8.557556
  59.400000,    8.572056
  59.500000,    8.586557
  59.600000,    8.601058
  59.700000,    8.615559
  59.800000,    8.630059
  59.900000,    8.644560
  60.000000,    8.659061
  60.100000,    8.673562
  60.200000,    8.688062
  60.300000,    8.702563
  60.400000,    8.717066
  60.500000,    8.731569
  60.600000,    8.746072
  60.700000,    8.760575
  60.800000,    8.775078
  60.900000,    8.789581
  61.000000,    8.804084
  61.100000,    8.818587
  61.200000,    8.833090
  61.300000,    8.847593
  61.400000,    8.862098
  61.500000,    8.876603
  61.600000,    8.891108
  61.700000,    8.905613
  61.800000,    8.920119
  61.900000,    8.934624
  62.000000,    8.949129
  62.100000,    8.963634
  62.200000,    8.978140
  62.300000,    8.992645
  62.400000,    9.007152
  62.500000,    9.021660
  62.600000,    9.036167
  62.700000,    9.050675
  62.800000,    9.065182
  62.900000,    9.079690
  63.000000,    9.094197
  63.100000,    9.108705
  63.200000,    9.123212
  63.300000,    9.137720
  63.400000,    9.152229
  63.500000,    9.166739
  63.600000,    9.181249
  63.700000,    9.195758
  63.800000,    9.210268
  63.900000,    9.224778
  64.000000,    9.239288
  64.100000,    9.253797
  64.200000,    9.268307
  64.300000,    9.282817
  64.400000,    9.297329
  64.500000,    9.311840
  64.600000,    9.326352
  64.700000,    9.340864
  64.800000,    9.355376
  64.900000,    9.369888
  65.000000,    9.384400
  65.100000,    9.398912
  65.200000,    9.413424
  65.300000,    9.427936
  65.400000,    9.442450
  65.500000,    9.456965
  65.600000,    9.471479
  65.700000,    9.485993
  65.800000,    9.500507
  65.900000,    9.515021
  66.000000,    9.529536
  66.100000,    9.544050
  66.200000,    9.558564
  66.300000,    9.573078
  66.400000,    9.587595
  66.500000,    9.602111
  66.600000,    9.616628
  66.700000,    9.631144
  66.800000,    9.645660
  66.900000,    9.660177
  67.000000,    9.674693
  67.100000,    9.689210
  67.200000,    9.703726
  67.300000,    9.718243
  67.400000,    9.732761
  67.500000,    9.747280
  67.600000,    9.761799
  67.700000,    9.776317
  67.800000,    9.790836
  67.900000,    9.805355
  68.000000,    9.819873
  68.100000,    9.834392
  68.200000,    9.848911
  68.300000,    9.863429
  68.400000,    9.877950
  68.500000,    9.892471
  68.600000,    9.906992
  68.700000,    9.921513
  68.800000,    9.936034
  68.900000,    9.950555
  69.000000,    9.965076
  69.100000,    9.979596
  69.200000,    9.994117
  69.300000,   10.008638
  69.400000,   10.023161
  69.500000,   10.037684
  69.600000,   10.052208
  69.700000,   10.066731
  69.800000,   10.081254
  69.900000,   10.095777
  70.000000,   10.110300
  70.100000,   10.124823
  70.200000,   10.139347
  70.300000,   10.153870
  70.400000,   10.168395
  70.500000,   10.182920
  70.600000,   10.197446
  70.700000,   10.211971
  70.800000,   10.226496
  70.900000,   10.241022
  71.000000,   10.255547
  71.100000,   10.270073
  71.200000,   10.284598
  71.300000,   10.299123
  71.400000,   10.313651
  71.500000,   10.328178
  71.600000,   10.342706
  71.700000,   10.357233
  71.800000,   10.371761
  71.900000,   10.386289
  72.000000,   10.400816
  72.100000,   10.415344
  72.200000,   10.429871
  72.300000,   10.444399
  72.400000,   10.458929
  72.500000,   10.473458
  72.600000,   10.487988
  72.700000,   10.502518
  72.800000,   10.517048
  72.900000,   10.531577
  73.000000,   10.546107
  73.100000,   10.560637
  73.200000,   10.575167
  73.300000,   10.589696
  73.400000,   10.604228
  73.500000,   10.618760
  73.600000,   10.633292
  73.700000,   10.647824
  73.800000,   10.662356
  73.900000,   10.676888
  74.000000,   10.691420
  74.100000,   10.705952
  74.200000,   10.720484
  74.300000,   10.735016
  74.400000,   10.749550
  74.500000,   10.764084
  74.600000,   10.778618
  74.700000,   10.793153
  74.800000,   10.807687
  74.900000,   10.822221
  75.000000,   10.836755
  75.100000,   10.851289
  75.200000,   10.865823
  75.300000,   10.880358
  75.400000,   10.894894
  75.500000,   10.909430
  75.600000,   10.923967
  75.700000,   10.938503
  75.800000,   10.953039
  75.900000,   10.967576
  76.000000,   10.982112
  76.100000,   10.996648
  76.200000,   11.011185
  76.300000,   11.025721
  76.400000,   11.040260
  76.500000,   11.054798
  76.600000,   11.069337
  76.700000,   11.083875
  76.800000,   11.098414
  76.900000,   11.112952
  77.000000,   11.127491
  77.100000,   11.142029
  77.200000,   11.156568
  77.300000,   11.171107
  77.400000,   11.185647
  77.500000,   11.200188
  77.600000,   11.214729
  77.700000,   11.229269
  77.800000,   11.243810
  77.900000,   11.258351
  78.000000,   11.272892
  78.100000,   11.287432
  78.200000,   11.301973
  78.300000,   11.316514
  78.400000,   11.331057
  78.500000,   11.345600
  78.600000,   11.360143
  78.700000,   11.374686
  78.800000,   11.389229
  78.900000,   11.403772
  79.000000,   11.418315
  79.100000,   11.432858
  79.200000,   11.447401
  79.300000,   11.461944
  79.400000,   11.476489
  79.500000,   11.491034
  79.600000,   11.505579
  79.700000,   11.520124
  79.800000,   11.534670
  79.900000,   11.549215
  80.000000,   11.563760
  80.100000,   11.578305
  80.200000,   11.592850
  80.300000,   11.607396
  80.400000,   11.621943
  80.500000,   11.636490
  80.600000,   11.651038
  80.700000,   11.665585
  80.800000,   11.680133
  80.900000,   11.694680
  81.000000,   11.709228
  81.100000,   11.723775
  81.200000,   11.738323
  81.300000,   11.752870
  81.400000,   11.767420
  81.500000,   11.781969
  81.600000,   11.796519
  81.700000,   11.811069
  81.800000,   11.825618
  81.900000,   11.840168
  82.000000,   11.854718
  82.100000,   11.869268
  82.200000,   11.883817
  82.300000,   11.898367
  82.400000,   11.912919
  82.500000,   11.927471
  82.600000,   11.942023
  82.700000,   11.956575
  82.800000,   11.971127
  82.900000,   11.985679
  83.000000,   12.000231
  83.100000,   12.014783
  83.200000,   12.029334
  83.300000,   12.043886
  83.400000,   12.058440
  83.500000,   12.072995
  83.600000,   12.087549
  83.700000,   12.102103
  83.800000,   12.116657
  83.900000,   12.131211
  84.000000,   12.145766
  84.100000,   12.160320
  84.200000,   12.174874
  84.300000,   12.189428
  84.400000,   12.203984
  84.500000,   12.218541
  84.600000,   12.233097
  84.700000,   12.247654
  84.800000,   12.262210
  84.900000,   12.276767
  85.000000,   12.291323
  85.100000,   12.305880
  85.200000,   12.320436
  85.300000,   12.334993
  85.400000,   12.349551
  85.500000,   12.364110
  85.600000,   12.378669
  85.700000,   12.393228
  85.800000,   12.407786
  85.900000,   12.422345
  86.000000,   12.436904
  86.100000,   12.451462
  86.200000,   12.466021
  86.300000,   12.480580
  86.400000,   12.495141
  86.500000,   12.509702
  86.600000,   12.524263
  86.700000,   12.538824
  86.800000,   12.553385
  86.900000,   12.567946
  87.000000,   12.582507
  87.100000,   12.597068
  87.200000,   12.611629
  87.300000,   12.626190
  87.400000,   12.640753
  87.500000,   12.655316
  87.600000,   12.669880
  87.700000,   12.684443
  87.800000,   12.699006
  87.900000,   12.713569
  88.000000,   12.728133
  88.100000,   12.742696
  88.200000,   12.757259
  88.300000,   12.771822
  88.400000,   12.786388
  88.500000,   12.800953
  88.600000,   12.815519
  88.700000,   12.830085
  88.800000,   12.844650
  88.900000,   12.859216
  89.000000,   12.873781
  89.100000,   12.888347
  89.200000,   12.902913
  89.300000,   12.917478
  89.400000,   12.932046
  89.500000,   12.946614
  89.600000,   12.961182
  89.700000,   12.975749
  89.800000,   12.990317
  89.900000,   13.004885
  90.000000,   13.019453
  90.100000,   13.034021
  90.200000,   13.048589
  90.300000,   13.063157
  90.400000,   13.077727
  90.500000,   13.092297
  90.600000,   13.106867
  90.700000,   13.121437
  90.800000,   13.136008
  90.900000,   13.150578
  91.000000,   13.165148
  91.100000,   13.179718
  91.200000,   13.194288
  91.300000,   13.208859
  91.400000,   13.223431
  91.500000,   13.238004
  91.600000,   13.252576
  91.700000,   13.267149
  91.800000,   13.281721
  91.900000,   13.296294
  92.000000,   13.310866
  92.100000,   13.325439
  92.200000,   13.340011
  92.300000,   13.354584
  92.400000,   13.369158
  92.500000,   13.383733
  92.600000,   13.398308
  92.700000,   13.412883
  92.800000,   13.427458
  92.900000,   13.442033
  93.000000,   13.456607
  93.100000,   13.471182
  93.200000,   13.485757
  93.300000,   13.500332
  93.400000,   13.514909
  93.500000,   13.529486
  93.600000,   13.544063
  93.700000,   13.558640
  93.800000,   13.573217
  93.900000,   13.587794
  94.000000,   13.602372
  94.100000,   13.616949
  94.200000,   13.631526
  94.300000,   13.646103
  94.400000,   13.660682
  94.500000,   13.675262
  94.600000,   13.689841
  94.700000,   13.704420
  94.800000,   13.719000
  94.900000,   13.733579
  95.000000,   13.748159
  95.100000,   13.762738
  95.200000,   13.777317
  95.300000,   13.791897
  95.400000,   13.806478
  95.500000,   13.821060
  95.600000,   13.835642
  95.700000,   13.850223
  95.800000,   13.864805
  95.900000,   13.879387
  96.000000,   13.893968
  96.100000,   13.908550
  96.200000,   13.923132
  96.300000,   13.937713
  96.400000,   13.952297
  96.500000,   13.966881
  96.600000,   13.981465
  96.700000,   13.996049
  96.800000,   14.010633
  96.900000,   14.025217
  97.000000,   14.039801
  97.100000,   14.054385
  97.200000,   14.068969
  97.300000,   14.083553
  97.400000,   14.098139
  97.500000,   14.112725
  97.600000,   14.127311
  97.700000,   14.141898
  97.800000,   14.156484
  97.900000,   14.171070
  98.000000,   14.185656
  98.100000,   14.200242
  98.200000,   14.214829
  98.300000,   14.229415
  98.400000,   14.244003
  98.500000,   14.258592
  98.600000,   14.273180
  98.700000,   14.287769
  98.800000,   14.302357
  98.900000,   14.316946
  99.000000,   14.331535
  99.100000,   14.346123
  99.200000,   14.360712
  99.300000,   14.375300
  99.400000,   14.389891
  99.500000,   14.404482
  99.600000,   14.419073
  99.700000,   14.433663
  99.800000,   14.448254
  99.900000,   14.462845
 100.000000,   14.477436
 100.100000,   14.492027
 100.200000,   14.506618
 100.300000,   14.521208
 100.400000,   14.535801
 100.500000,   14.550394
 100.600000,   14.564988
 100.700000,   14.579581
 100.800000,   14.594174
 100.900000,   14.608767
 101.000000,   14.623360
 101.100000,   14.637953
 101.200000,   14.652546
 101.300000,   14.667139
 101.400000,   14.681735
 101.500000,   14.696330
 101.600000,   14.710925
 101.700000,   14.725521
 101.800000,   14.740116
 101.900000,   14.754712
 102.000000,   14.769307
 102.100000,   14.783902
 102.200000,   14.798498
 102.300000,   14.813093
 102.400000,   14.827691
 102.500000,   14.842288
 102.600000,   14.856886
 102.700000,   14.871484
 102.800000,   14.886081
 102.900000,   14.900679
 103.000000,   14.915277
 103.100000,   14.929874
 103.200000,   14.944472
 103.300000,   14.959070
 103.400000,   14.973670
 103.500000,   14.988270
 103.600000,   15.002869
 103.700000,   15.017469
 103.800000,   15.032069
 103.900000,   15.046669
 104.000000,   15.061269
 104.100000,   15.075869
 104.200000,   15.090469
 104.300000,   15.105069
 104.400000,   15.119671
 104.500000,   15.134273
 104.600000,   15.148875
 104.700000,   15.163478
 104.800000,   15.178080
 104.900000,   15.192682
 105.000000,   15.207284
 105.100000,   15.221886
 105.200000,   15.236489
 105.300000,   15.251091
 105.400000,   15.265695
 105.500000,   15.280299
 105.600000,   15.294904
 105.700000,   15.309508
 105.800000,   15.324113
 105.900000,   15.338717
 106.000000,   15.353322
 106.100000,   15.367926
 106.200000,   15.382531
 106.300000,   15.397135
 106.400000,   15.411742
 106.500000,   15.426348
 106.600000,   15.440955
 106.700000,   15.455562
 106.800000,   15.470169
 106.900000,   15.484775
 107.000000,   15.499382
 107.100000,   15.513989
 107.200000,   15.528596
 107.300000,   15.543202
 107.400000,   15.557811
 107.500000,   15.572420
 107.600000,   15.587029
 107.700000,   15.601638
 107.800000,   15.616247
 107.900000,   15.630857
 108.000000,   15.645466
 108.100000,   15.660075
 108.200000,   15.674684
 108.300000,   15.689293
 108.400000,   15.703904
 108.500000,   15.718515
 108.600000,   15.733126
 108.700000,   15.747738
 108.800000,   15.762349
 108.900000,   15.776960
 109.000000,   15.791572
 109.100000,   15.806183
 109.200000,   15.820794
 109.300000,   15.835405
 109.400000,   15.850019
 109.500000,   15.864632
 109.600000,   15.879246
 109.700000,   15.893860
 109.800000,   15.908473
 109.900000,   15.923087
 110.000000,   15.937700
 110.100000,   15.952314
 110.200000,   15.966927
 110.300000,   15.981541
 110.400000,   15.996157
 110.500000,   16.010772
 110.600000,   16.025388
 110.700000,   16.040004
 110.800000,   16.054620
 110.900000,   16.069236
 111.000000,   16.083851
 111.100000,   16.098467
 111.200000,   16.113083
 111.300000,   16.127699
 111.400000,   16.142317
 111.500000,   16.156935
 111.600000,   16.171553
 111.700000,   16.186171
 111.800000,   16.200789
 111.900000,   16.215407
 112.000000,   16.230025
 112.100000,   16.244643
 112.200000,   16.259261
 112.300000,   16.273879
 112.400000,   16.288499
 112.500000,   16.303120
 112.600000,   16.317740
 112.700000,   16.332360
 112.800000,   16.346981
 112.900000,   16.361601
 113.000000,   16.376221
 113.100000,   16.390842
 113.200000,   16.405462
 113.300000,   16.420082
 113.400000,   16.434704
 113.500000,   16.449327
 113.600000,   16.463950
 113.700000,   16.478572
 113.800000,   16.493195
 113.900000,   16.507817
 114.000000,   16.522440
 114.100000,   16.537062
 114.200000,   16.551685
 114.300000,   16.566307
 114.400000,   16.580932
 114.500000,   16.595557
 114.600000,   16.610182
 114.700000,   16.624806
 114.800000,   16.639431
 114.900000,   16.654056
 115.000000,   16.668681
 115.100000,   16.683306
 115.200000,   16.697931
 115.300000,   16.712555
 115.400000,   16.727182
 115.500000,   16.741809
 115.600000,   16.756436
 115.700000,   16.771064
 115.800000,   16.785691
 115.900000,   16.800318
 116.000000,   16.814945
 116.100000,   16.829572
 116.200000,   16.844199
 116.300000,   16.858826
 116.400000,   16.873455
 116.500000,   16.888084
 116.600000,   16.902714
 116.700000,   16.917343
 116.800000,   16.931972
 116.900000,   16.946602
 117.000000,   16.961231
 117.100000,   16.975860
 117.200000,   16.990490
 117.300000,   17.005119
 117.400000,   17.019750
 117.500000,   17.034382
 117.600000,   17.049014
 117.700000,   17.063645
 117.800000,   17.078277
 117.900000,   17.092908
 118.000000,   17.107540
 118.100000,   17.122171
 118.200000,   17.136803
 118.300000,   17.151434
 118.400000,   17.166068
 118.500000,   17.180702
 118.600000,   17.195336
 118.700000,   17.209969
 118.800000,   17.224603
 118.900000,   17.239237
 119.000000,   17.253871
 119.100000,   17.268505
 119.200000,   17.283138
 119.300000,   17.297772
 119.400000,   17.312408
 119.500000,   17.327044
 119.600000,   17.341680
 119.700000,   17.356316
 119.800000,   17.370952
 119.900000,   17.385588
 120.000000,   17.400224
 120.100000,   17.414860
 120.200000,   17.429496
 120.300000,   17.444132
 120.400000,   17.458770
 120.500000,   17.473408
 120.600000,   17.488047
 120.700000,   17.502685
 120.800000,   17.517323
 120.900000,   17.531961
 121.000000,   17.546599
 121.100000,   17.561238
 121.200000,   17.575876
 121.300000,   17.590514
 121.400000,   17.605154
 121.500000,   17.619795
 121.600000,   17.634435
 121.700000,   17.649076
 121.800000,   17.663716
 121.900000,   17.678357
 122.000000,   17.692997
 122.100000,   17.707637
 122.200000,   17.722278
 122.300000,   17.736918
 122.400000,   17.751561
 122.500000,   17.766204
 122.600000,   17.780846
 122.700000,   17.795489
 122.800000,   17.810132
 122.900000,   17.824774
 123.000000,   17.839417
 123.100000,   17.854060
 123.200000,   17.868702
 123.300000,   17.883345
 123.400000,   17.897990
 123.500000,   17.912635
 123.600000,   17.927280
 123.700000,   17.941925
 123.800000,   17.956570
 123.900000,   17.971215
 124.000000,   17.985860
 124.100000,   18.000504
 124.200000,   18.015149
 124.300000,   18.029794
 124.400000,   18.044441
 124.500000,   18.059088
 124.600000,   18.073736
 124.700000,   18.088383
 124.800000,   18.103030
 124.900000,   18.117677
 125.000000,   18.132324
 125.100000,   18.146971
 125.200000,   18.161619
 125.300000,   18.176266
 125.400000,   18.190915
 125.500000,   18.205564
 125.600000,   18.220214
 125.700000,   18.234863
 125.800000,   18.249512
 125.900000,   18.264162
 126.000000,   18.278811
 126.100000,   18.293461
 126.200000,   18.308110
 126.300000,   18.322759
 126.400000,   18.337411
 126.500000,   18.352062
 126.600000,   18.366714
 126.700000,   18.381365
 126.800000,   18.396017
 126.900000,   18.410669
 127.000000,   18.425320
 127.100000,   18.439972
 127.200000,   18.454623
 127.300000,   18.469275
 127.400000,   18.483929
 127.500000,   18.498582
 127.600000,   18.513236
 127.700000,   18.527890
 127.800000,   18.542544
 127.900000,   18.557198
 128.000000,   18.571851
 128.100000,   18.586505
 128.200000,   18.601159
 128.300000,   18.615813
 128.400000,   18.630468
 128.500000,   18.645124
 128.600000,   18.659780
 128.700000,   18.674436
 128.800000,   18.689092
 128.900000,   18.703748
 129.000000,   18.718404
 129.100000,   18.733060
 129.200000,   18.747716
 129.300000,   18.762372
 129.400000,   18.777030
 129.500000,   18.791688
 129.600000,   18.806347
 129.700000,   18.821005
 129.800000,   18.835663
 129.900000,   18.850321
 130.000000,   18.864979
 130.100000,   18.879638
 130.200000,   18.894296
 130.300000,   18.908954
 130.400000,   18.923614
 130.500000,   18.938275
 130.600000,   18.952935
 130.700000,   18.967595
 130.800000,   18.982256
 130.900000,   18.996916
 131.000000,   19.011577
 131.100000,   19.026237
 131.200000,   19.040898
 131.300000,   19.055558
 131.400000,   19.070220
 131.500000,   19.084883
 131.600000,   19.099546
 131.700000,   19.114208
 131.800000,   19.128871
 131.900000,   19.143534
 132.000000,   19.158196
 132.100000,   19.172859
 132.200000,   19.187522
 132.300000,   19.202184
 132.400000,   19.216849
 132.500000,   19.231514
 132.600000,   19.246179
 132.700000,   19.260843
 132.800000,   19.275508
 132.900000,   19.290173
 133.000000,   19.304838
 133.100000,   19.319503
 133.200000,   19.334168
 133.300000,   19.348832
 133.400000,   19.363499
 133.500000,   19.378166
 133.600000,   19.392833
 133.700000,   19.407501
 133.800000,   19.422168
 133.900000,   19.436835
 134.000000,   19.451502
 134.100000,   19.466169
 134.200000,   19.480836
 134.300000,   19.495503
 134.400000,   19.510172
 134.500000,   19.524841
 134.600000,   19.539510
 134.700000,   19.554180
 134.800000,   19.568849
 134.900000,   19.583518
 135.000000,   19.598187
 135.100000,   19.612857
 135.200000,   19.627526
 135.300000,   19.642195
 135.400000,   19.656866
 135.500000,   19.671538
 135.600000,   19.686209
 135.700000,   19.700881
 135.800000,   19.715552
 135.900000,   19.730223
 136.000000,   19.744895
 136.100000,   19.759566
 136.200000,   19.774238
 136.300000,   19.788909
 136.400000,   19.803582
 136.500000,   19.818256
 136.600000,   19.832930
 136.700000,   19.847603
 136.800000,   19.862277
 136.900000,   19.876950
 137.000000,   19.891624
 137.100000,   19.906298
 137.200000,   19.920971
 137.300000,   19.935645
 137.400000,   19.950320
 137.500000,   19.964996
 137.600000,   19.979672
 137.700000,   19.994348
 137.800000,   20.009024
 137.900000,   20.023699
 138.000000,   20.038375
 138.100000,   20.053051
 138.200000,   20.067727
 138.300000,   20.082403
 138.400000,   20.097080
 138.500000,   20.111758
 138.600000,   20.126436
 138.700000,   20.141114
 138.800000,   20.155792
 138.900000,   20.170470
 139.000000,   20.185148
 139.100000,   20.199826
 139.200000,   20.214504
 139.300000,   20.229182
 139.400000,   20.243862
 139.500000,   20.258543
 139.600000,   20.273223
 139.700000,   20.287903
 139.800000,   20.302583
 139.900000,   20.317263
 140.000000,   20.331944
 140.100000,   20.346624
 140.200000,   20.361304
 140.300000,   20.375984
 140.400000,   20.390666
 140.500000,   20.405349
 140.600000,   20.420031
 140.700000,   20.434714
 140.800000,   20.449396
 140.900000,   20.464078
 141.000000,   20.478761
 141.100000,   20.493443
 141.200000,   20.508126
 141.300000,   20.522808
 141.400000,   20.537492
 141.500000,   20.552177
 141.600000,   20.566862
 141.700000,   20.581546
 141.800000,   20.596231
 141.900000,   20.610915
 142.000000,   20.625600
 142.100000,   20.640284
 142.200000,   20.654969
 142.300000,   20.669654
 142.400000,   20.684340
 142.500000,   20.699027
 142.600000,   20.713714
 142.700000,   20.728400
 142.800000,   20.743087
 142.900000,   20.757774
 143.000000,   20.772461
 143.100000,   20.787147
 143.200000,   20.801834
 143.300000,   20.816521
 143.400000,   20.831210
 143.500000,   20.845899
 143.600000,   20.860587
 143.700000,   20.875276
 143.800000,   20.889965
 143.900000,   20.904654
 144.000000,   20.919343
 144.100000,   20.934032
 144.200000,   20.948721
 144.300000,   20.963410
 144.400000,   20.978101
 144.500000,   20.992792
 144.600000,   21.007483
 144.700000,   21.022174
 144.800000,   21.036865
 144.900000,   21.051556
 145.000000,   21.066247
 145.100000,   21.080938
 145.200000,   21.095629
 145.300000,   21.110320
 145.400000,   21.125013
 145.500000,   21.139707
 145.600000,   21.154400
 145.700000,   21.169093
 145.800000,   21.183786
 145.900000,   21.198480
 146.000000,   21.213173
 146.100000,   21.227866
 146.200000,   21.242559
 146.300000,   21.257253
 146.400000,   21.271948
 146.500000,   21.286643
 146.600000,   21.301339
 146.700000,   21.316034
 146.800000,   21.330730
 146.900000,   21.345425
 147.000000,   21.360121
 147.100000,   21.374816
 147.200000,   21.389511
 147.300000,   21.404207
 147.400000,   21.418904
 147.500000,   21.433602
 147.600000,   21.448300
 147.700000,   21.462997
 147.800000,   21.477695
 147.900000,   21.492392
 148.000000,   21.507090
 148.100000,   21.521788
 148.200000,   21.536485
 148.300000,   21.551183
 148.400000,   21.565883
 148.500000,   21.580582
 148.600000,   21.595282
 148.700000,   21.609982
 148.800000,   21.624682
 148.900000,   21.639382
 149.000000,   21.654081
 149.100000,   21.668781
 149.200000,   21.683481
 149.300000,   21.698181
 149.354332,   21.706168
 149.454332,   21.720870
 149.554332,   21.735572
 149.654332,   21.750274
 149.754332,   21.764976
 149.854332,   21.779678
 149.954332,   21.794380
 150.054332,   21.809082
 150.154332,   21.823784
 150.254332,   21.838486
 150.354332,   21.849286
 150.454332,   21.855592
 150.554332,   21.861897
 150.654332,   21.868203
 150.754332,   21.874509
 150.854332,   21.880815
 150.954332,   21.887121
 151.054332,   21.893427
 151.154332,   21.899733
 151.254332,   21.906039
 151.354332,   21.912341
 151.454332,   21.918639
 151.554332,   21.924937
 151.654332,   21.931236
 151.754332,   21.937534
 151.854332,   21.943832
 151.954332,   21.950130
 152.054332,   21.956428
 152.154332,   21.962727
 152.254332,   21.969025
 152.354332,   21.975320
 152.454332,   21.981613
 152.476287,   21.982995
 152.576287,   21.989282
 152.676287,   21.995569
 152.776287,   22.001856
 152.876287,   22.008143
 152.976287,   22.014430
 153.076287,   22.020718
 153.176287,   22.027005
 153.276287,   22.033292
 153.376287,   22.035007
 153.476287,   22.034614
 153.576287,   22.034220
 153.676287,   22.033827
 153.776287,   22.033433
 153.876287,   22.033040
 153.976287,   22.032646
 154.076287,   22.032253
 154.176287,   22.031859
 154.276287,   22.031466
 154.376287,   22.028076
 154.476287,   22.023304
 154.576287,   22.018532
 154.676287,   22.013760
 154.776287,   22.008989
 154.876287,   22.004217
 154.976287,   21.999445
 155.076287,   21.994673
 155.117536,   21.992705
 155.217536,   21.984302
 155.317536,   21.976713
 155.417536,   21.976713
 155.517536,   21.976713
 155.617536,   21.976713
 155.717536,   21.976713
 155.817536,   21.976713
 155.917536,   21.976713
 156.017536,   21.976713
 156.117536,   21.976713
 156.217536,   21.976713
 156.317536,   21.976713
 156.417536,   21.976713
 156.517536,   21.976713
 156.617536,   21.976713
 156.717536,   21.976713
 156.817536,   21.976713
 156.917536,   21.976713
 157.017536,   21.976713
 157.117536,   21.976713
 157.217536,   21.976713
 157.317536,   21.976713
 157.417536,   21.976713
 157.517536,   21.976713
 157.617536,   21.976713
 157.717536,   21.976713
 157.817536,   21.976713
 157.917536,   21.976713
 158.017536,   21.976713
 158.117536,   21.976713
 158.217536,   21.976713
 158.317536,   21.976713
 158.417536,   21.976713
 158.517536,   21.976713
 158.617536,   21.976713
 158.717536,   21.976713
 158.817536,   21.976713
 158.917536,   21.976713
 159.017536,   21.976713
 159.117536,   21.976713
 159.217536,   21.976713
 159.317536,   21.976713
 159.417536,   21.976713
 159.517536,   21.976713
 159.617536,   21.976713
 159.717536,   21.976713
 159.817536,   21.976713
 159.917536,   21.976713
 160.017536,   21.976713
 160.117536,   21.976713
 160.217536,   21.976713
 160.317536,   21.976713
 160.417536,   21.976713
 160.517536,   21.976713
 160.617536,   21.976713
 160.717536,   21.976713
 160.817536,   21.976713
 160.917536,   21.976713
 161.017536,   21.976713
 161.117536,   21.976713
 161.217536,   21.976713
 161.317536,   21.976713
 161.417536,   21.976713
 161.517536,   21.976713
 161.617536,   21.976713
 161.717536,   21.976713
 161.817536,   21.976713
 161.917536,   21.976713
 162.017536,   21.976713
 162.117536,   21.976713
 162.217536,   21.976713
 162.317536,   21.976713
 162.417536,   21.976713
 162.517536,   21.976713
 162.617536,   21.976713
 162.717536,   21.976713
 162.817536,   21.976713
 162.917536,   21.976713
 163.017536,   21.976713
 163.117536,   21.976713
 163.217536,   21.976713
 163.317536,   21.976713
 163.417536,   21.976713
 163.517536,   21.976713
 163.617536,   21.976713
 163.717536,   21.976713
 163.817536,   21.976713
 163.917536,   21.976713
 164.017536,   21.976713
 164.117536,   21.976713
 164.217536,   21.976713
 164.317536,   21.976713
 164.417536,   21.976713
 164.517536,   21.976713
 164.617536,   21.976713
 164.717536,   21.976713
 164.817536,   21.976713
 164.917536,   21.976713
 165.017536,   21.976713
 165.117536,   21.976713
 165.217536,   21.976713
 165.317536,   21.976713
 165.417536,   21.976713
 165.517536,   21.976713
 165.617536,   21.976713
 165.717536,   21.976713
 165.817536,   21.976713
 165.917536,   21.976713
 166.017536,   21.976713
 166.117536,   21.976713
 166.217536,   21.976713
 166.317536,   21.976713
 166.417536,   21.976713
 166.517536,   21.976713
 166.617536,   21.976713
 166.717536,   21.976713
 166.817536,   21.976713
 166.917536,   21.976713
 167.017536,   21.976713
 167.117536,   21.976713
 167.217536,   21.976713
 167.317536,   21.976713
 167.417536,   21.976713
 167.517536,   21.976713
 167.617536,   21.976713
 167.717536,   21.976713
 167.817536,   21.976713
 167.917536,   21.976713
 168.017536,   21.976713
 168.117536,   21.976713
 168.217536,   21.976713
 168.317536,   21.976713
 168.417536,   21.976713
 168.489490,   21.976713
