Speed, Forces
  66.731742, 21794.798804
  67.584436, 20618.039423
  68.437130, 19660.376755
  69.289824, 19089.975702
  70.142517, 18512.511726
  70.995211, 18086.778235
  71.847905, 17698.235376
  72.700599, 17305.053749
  73.553292, 16954.631304
  74.405986, 16636.929834
  75.258680, 16315.566517
  76.111374, 15990.541355
  76.964067, 15728.722546
  77.816761, 15470.601604
  78.669455, 15209.636666
  79.522148, 14945.827730
  80.374842, 14729.465450
  81.227536, 14528.685279
  82.080230, 14325.786278
  82.932923, 14120.768448
  83.785617, 13913.631787
  84.638311, 13763.254044
  85.491005, 13616.923463
  86.343698, 13469.126056
  87.196392, 13319.861821
  88.049086, 13169.130759
  88.901780, 13032.274096
  89.754473, 12941.150637
  90.607167, 12849.157348
  91.459861, 12756.294227
  92.312555, 12662.561274
  93.165248, 12567.958491
  94.017942, 12472.485876
  94.870636, 12404.717876
  95.723330, 12369.987241
  96.576023, 12334.945845
  97.428717, 12299.593687
  98.281411, 12263.930769
  99.134104, 12227.957089
  99.986798, 12191.672649
 100.839492, 12155.077447
 101.692186, 12124.992227
 102.544879, 12139.768648
 103.397573, 12154.668453
 104.250267, 12169.691642
 105.102961, 12184.838215
 105.955654, 12200.108171
 106.808348, 12215.501511
 107.661042, 12231.018234
 108.513736, 12246.658342
 109.366429, 12262.421833
 110.219123, 12278.308707
 111.071817, 12320.621615
 111.924511, 12383.038637
 112.777204, 12445.933000
 113.629898, 12509.304703
 114.482592, 12573.153747
 115.335286, 12637.480132
 116.187979, 12702.283857
 117.040673, 12767.564923
 117.893367, 12833.323330
 118.746060, 12899.559077
 119.598754, 12966.272165
 120.451448, 13033.462593
 121.304142, 13101.130362
 122.156835, 13169.275472
 123.009529, 13261.139000
 123.862223, 13371.504804
 124.714917, 13482.633014
 125.567610, 13594.523630
 126.420304, 13707.176651
 127.272998, 13820.592079
 128.125692, 13934.769912
 128.978385, 14049.710151
 129.831079, 14165.412796
 130.683773, 14281.877846
 131.536467, 14399.105303
 132.389160, 14517.095165
 133.241854, 14635.847433
 134.094548, 14755.362107
 134.947241, 14875.639187
 135.799935, 14996.678672
 136.652629, 15118.480563
 137.505323, 15241.044861
 138.358016, 15364.371564
 139.210710, 15488.460672
 140.063404, 15639.859439
 140.916098, 15802.646308
 141.768791, 15966.421203
 142.621485, 16131.184122
 143.474179, 16296.935066
 144.326873, 16463.674034
 145.179566, 16631.401028
 146.032260, 16800.116045
 146.884954, 16969.819088
 147.737648, 17140.510156
 148.590341, 17312.189248
 149.443035, 17484.856364
 150.295729, 17658.511506
 151.148423, 17833.154672
