Speed, Forces
  61.424411, 23310.205772
  62.358152, 20932.800851
  63.291893, 19784.802837
  64.225634, 19069.787610
  65.159375, 18447.901007
  66.093116, 17949.206775
  67.026857, 17490.665567
  67.960598, 17046.156254
  68.894339, 16661.154827
  69.828080, 16270.899785
  70.761821, 15913.497703
  71.695562, 15599.516807
  72.629303, 15281.419918
  73.563043, 14981.371876
  74.496784, 14731.254979
  75.430525, 14477.983354
  76.364266, 14221.556998
  77.298007, 14009.820199
  78.231748, 13815.502321
  79.165489, 13618.851224
  80.099230, 13419.866906
  81.032971, 13258.609039
  81.966712, 13125.623946
  82.900453, 12991.115247
  83.834194, 12855.082943
  84.767935, 12717.527032
  85.701675, 12628.417711
  86.635416, 12556.409124
  87.569157, 12483.620235
  88.502898, 12410.051046
  89.436639, 12335.701557
  90.370380, 12260.571767
  91.304121, 12239.868559
  92.237862, 12220.486595
  93.171603, 12200.907426
  94.105344, 12181.131051
  95.039085, 12161.157472
  95.972826, 12140.986686
  96.906566, 12120.618696
  97.840307, 12148.640996
  98.774048, 12179.720162
  99.707789, 12211.094523
 100.641530, 12242.764081
 101.575271, 12274.728835
 102.509012, 12306.988785
 103.442753, 12339.543931
 104.376494, 12372.394273
 105.310235, 12411.550972
 106.243976, 12498.809054
 107.177717, 12586.837401
 108.111458, 12675.636013
 109.045198, 12765.204891
 109.978939, 12855.544034
 110.912680, 12946.653442
 111.846421, 13038.533116
 112.780162, 13131.183055
 113.713903, 13224.603260
 114.647644, 13318.793730
 115.581385, 13413.754465
 116.515126, 13534.453114
 117.448867, 13677.491317
 118.382608, 13821.671240
 119.316349, 13966.992882
 120.250089, 14113.456244
 121.183830, 14261.061325
 122.117571, 14409.808125
 123.051312, 14559.696646
 123.985053, 14710.726885
 124.918794, 14862.898844
 125.852535, 15016.212522
 126.786276, 15170.667920
 127.720017, 15326.265038
 128.653758, 15483.003875
 129.587499, 15640.884431
 130.521240, 15799.906707
 131.454981, 15976.121980
 132.388721, 16173.954000
 133.322462, 16373.186272
 134.256203, 16573.818797
 135.189944, 16775.851573
 136.123685, 16979.284602
 137.057426, 17184.117883
 137.991167, 17390.351415
 138.924908, 17597.985201
 139.858649, 17807.019238
 140.792390, 18017.453527
 141.726131, 18229.288068
 142.659872, 18442.522862
 143.593612, 18657.157908
 144.527353, 18873.193206
 145.461094, 19090.628755
 146.394835, 19309.464558
 147.328576, 19529.700612
 148.262317, 19751.336918
 149.196058, 19974.373477
 150.129799, 20198.810287
 151.063540, 20424.647350
 151.997281, 20651.884665
 152.931022, 20880.522232
 153.864763, 21110.560051
