Speed, Forces
  77.767248, 23310.205772
  78.452102, 21709.382364
  79.136956, 20751.829454
  79.821809, 20087.286546
  80.506663, 19489.215009
  81.191517, 19133.589886
  81.876371, 18774.952345
  82.561225, 18413.302387
  83.246079, 18115.184386
  83.930933, 17851.689756
  84.615786, 17586.036274
  85.300640, 17318.223938
  85.985494, 17064.582052
  86.670348, 16842.331315
  87.355202, 16618.317425
  88.040056, 16392.540383
  88.724910, 16165.000189
  89.409763, 15960.744772
  90.094617, 15779.713593
  90.779471, 15597.301057
  91.464325, 15413.507163
  92.149179, 15228.331911
  92.834033, 15044.656862
  93.518887, 14900.610580
  94.203740, 14755.505548
  94.888594, 14609.341764
  95.573448, 14462.119230
  96.258302, 14313.837945
  96.943156, 14164.497910
  97.628010, 14048.370222
  98.312864, 13936.353111
  98.997717, 13823.552953
  99.682571, 13709.969749
 100.367425, 13595.603499
 101.052279, 13480.454204
 101.737133, 13364.521862
 102.421987, 13277.714094
 103.106841, 13200.986955
 103.791694, 13123.748482
 104.476548, 13045.998675
 105.161402, 12967.737535
 105.846256, 12888.965062
 106.531110, 12809.681255
 107.215964, 12729.886115
 107.900818, 12664.847371
 108.585671, 12623.457279
 109.270525, 12581.805312
 109.955379, 12539.891471
 110.640233, 12497.715755
 111.325087, 12455.278164
 112.009941, 12412.578699
 112.694795, 12369.617359
 113.379648, 12326.394144
 114.064502, 12282.909055
 114.749356, 12253.642450
 115.434210, 12242.520095
 116.119064, 12231.331557
 116.803918, 12220.076835
 117.488772, 12208.755930
 118.173625, 12197.368841
 118.858479, 12185.915569
 119.543333, 12174.396113
 120.228187, 12162.810473
 120.913041, 12151.158650
 121.597895, 12139.440643
 122.282749, 12127.656452
 122.967602, 12125.061016
 123.652456, 12142.898869
 124.337310, 12160.835792
 125.022164, 12178.871786
 125.707018, 12197.006849
 126.391872, 12215.240982
 127.076726, 12233.574185
 127.761579, 12252.006458
 128.446433, 12270.537801
 129.131287, 12289.168214
 129.816141, 12307.897697
 130.500995, 12326.726250
 131.185849, 12345.653873
 131.870702, 12364.680566
 132.555556, 12383.806329
 133.240410, 12405.005068
 133.925264, 12455.427607
 134.610118, 12506.108652
 135.294972, 12557.048204
 135.979826, 12608.246263
 136.664679, 12659.702829
 137.349533, 12711.417901
 138.034387, 12763.391481
 138.719241, 12815.623567
 139.404095, 12868.114160
 140.088949, 12920.863259
 140.773803, 12973.870866
 141.458656, 13027.136979
 142.143510, 13080.661599
 142.828364, 13134.444726
 143.513218, 13188.486360
 144.198072, 13242.786500
 144.882926, 13297.345147
 145.567780, 13352.162301
