Speed, Forces
  71.677696, 23310.205772
  72.452504, 21343.292868
  73.227312, 20450.219924
  74.002120, 19630.520326
  74.776928, 19165.770558
  75.551736, 18725.468580
  76.326543, 18281.438805
  77.101351, 17959.390456
  77.876159, 17634.089430
  78.650967, 17305.535729
  79.425775, 17003.718209
  80.200583, 16730.072856
  80.975391, 16453.771016
  81.750199, 16174.812691
  82.525007, 15927.448567
  83.299815, 15704.733599
  84.074623, 15479.937382
  84.849431, 15253.059917
  85.624239, 15031.110434
  86.399047, 14854.028348
  87.173855, 14675.351076
  87.948662, 14495.078617
  88.723470, 14313.210971
  89.498278, 14133.903561
  90.273086, 13997.035729
  91.047894, 13858.988107
  91.822702, 13719.760694
  92.597510, 13579.353490
  93.372318, 13437.766496
  94.147126, 13308.531544
  94.921934, 13214.533618
  95.696742, 13119.765283
  96.471550, 13024.226538
  97.246358, 12927.917382
  98.021166, 12830.837817
  98.795973, 12732.987842
  99.570781, 12657.056591
 100.345589, 12606.154516
 101.120397, 12554.857881
 101.895205, 12503.166689
 102.670013, 12451.080938
 103.444821, 12398.600629
 104.219629, 12345.725761
 104.994437, 12292.456335
 105.769245, 12253.549006
 106.544053, 12239.886789
 107.318861, 12226.124856
 108.093669, 12212.263206
 108.868477, 12198.301840
 109.643285, 12184.240757
 110.418092, 12170.079957
 111.192900, 12155.819440
 111.967708, 12141.459207
 112.742516, 12126.999256
 113.517324, 12130.100301
 114.292132, 12152.043881
 115.066940, 12174.136726
 115.841748, 12196.378837
 116.616556, 12218.770214
 117.391364, 12241.310856
 118.166172, 12264.000764
 118.940980, 12286.839937
 119.715788, 12309.828376
 120.490596, 12332.966081
 121.265403, 12356.253051
 122.040211, 12379.689287
 122.815019, 12405.640771
 123.589827, 12467.572733
 124.364635, 12529.894178
 125.139443, 12592.605108
 125.914251, 12655.705521
 126.689059, 12719.195419
 127.463867, 12783.074800
 128.238675, 12847.343666
 129.013483, 12912.002016
 129.788291, 12977.049849
 130.563099, 13042.487167
 131.337907, 13108.313969
 132.112715, 13174.530254
 132.887522, 13241.136024
 133.662330, 13308.131278
 134.437138, 13375.516015
 135.211946, 13443.290237
 135.986754, 13537.370873
 136.761562, 13638.983272
 137.536370, 13741.172980
 138.311178, 13843.939997
 139.085986, 13947.284324
 139.860794, 14051.205960
 140.635602, 14155.704906
 141.410410, 14260.781161
 142.185218, 14366.434725
 142.960026, 14472.665600
 143.734834, 14579.473783
 144.509641, 14686.859276
 145.284449, 14794.822079
 146.059257, 14903.362191
 146.834065, 15012.479612
 147.608873, 15122.174343
 148.383681, 15232.446383
