Speed, Forces
  61.424411, 37541.431040
  62.358152, 37249.833913
  63.291893, 36958.236786
  64.225634, 36666.639660
  65.159375, 36375.042533
  66.093116, 36083.445407
  67.026857, 35791.848280
  67.960598, 35500.251154
  68.894339, 35208.654027
  69.828080, 34951.945320
  70.761821, 34712.593312
  71.695562, 34473.241303
  72.629303, 34233.889295
  73.563043, 33994.537287
  74.496784, 33755.185279
  75.430525, 33515.833270
  76.364266, 33276.481262
  77.298007, 33037.129254
  78.231748, 32797.777246
  79.165489, 32558.425238
  80.099230, 32319.073229
  81.032971, 32089.547249
  81.966712, 31881.366417
  82.900453, 31673.185585
  83.834194, 31465.004753
  84.767935, 31256.823921
  85.701675, 31048.643089
  86.635416, 30840.462257
  87.569157, 30632.281424
  88.502898, 30424.100592
  89.436639, 30215.919760
  90.370380, 30007.738928
  91.304121, 29799.558096
  92.237862, 29591.377264
  93.171603, 29395.137938
  94.105344, 29199.361708
  95.039085, 29003.585478
  95.972826, 28807.809248
  96.906566, 28612.033018
  97.840307, 28416.256788
  98.774048, 28220.480558
  99.707789, 28024.704328
 100.641530, 27828.928098
 101.575271, 27633.151868
 102.509012, 27437.375638
 103.442753, 27241.599408
 104.376494, 27045.565982
 105.310235, 26849.368196
 106.243976, 26653.170409
 107.177717, 26456.972623
 108.111458, 26260.774837
 109.045198, 26064.577051
 109.978939, 25868.379265
 110.912680, 25672.181479
 111.846421, 25475.983692
 112.780162, 25279.785906
 113.713903, 25083.588120
 114.647644, 24887.390334
 115.581385, 24697.599008
 116.515126, 24526.276231
 117.448867, 24354.953453
 118.382608, 24183.630676
 119.316349, 24012.307899
 120.250089, 23840.985121
 121.183830, 23669.662344
 122.117571, 23498.339566
 123.051312, 23327.016789
 123.985053, 23155.694012
 124.918794, 22984.371234
 125.852535, 22813.048457
 126.786276, 22641.725679
 127.720017, 22487.418672
 128.653758, 22334.898042
 129.587499, 22182.377413
 130.521240, 22029.856783
 131.454981, 21877.336154
 132.388721, 21724.815524
 133.322462, 21572.294895
 134.256203, 21419.774265
 135.189944, 21267.253636
 136.123685, 21114.733006
 137.057426, 20962.212377
 137.991167, 20809.691747
 138.924908, 20664.988062
 139.858649, 20526.617674
 140.792390, 20388.247287
 141.726131, 20249.876899
 142.659872, 20111.506512
 143.593612, 19973.136124
 144.527353, 19834.765737
 145.461094, 19696.395349
 146.394835, 19558.024962
 147.328576, 19419.654574
 148.262317, 19281.284187
 149.196058, 19142.913799
 150.129799, 19005.338174
 151.063540, 18870.944196
 151.997281, 18736.550218
 152.931022, 18602.156240
 153.864763, 18467.762262
