Speed, Forces
  66.261704, 31951.445498
  67.119145, 31724.985566
  67.976587, 31498.525634
  68.834029, 31294.389261
  69.691470, 31090.415850
  70.548912, 30886.442439
  71.406353, 30682.469027
  72.263795, 30478.495616
  73.121237, 30274.522205
  73.978678, 30070.548794
  74.836120, 29866.575383
  75.693561, 29662.601971
  76.551003, 29458.628560
  77.408445, 29254.655149
  78.265886, 29050.681738
  79.123328, 28846.708327
  79.980769, 28668.790786
  80.838211, 28498.287329
  81.695653, 28327.783873
  82.553094, 28157.280417
  83.410536, 27986.776960
  84.267977, 27816.273504
  85.125419, 27645.770048
  85.982861, 27475.266591
  86.840302, 27304.763135
  87.697744, 27134.259679
  88.555185, 26963.756222
  89.412627, 26793.252766
  90.270069, 26622.749310
  91.127510, 26464.881449
  91.984952, 26316.773108
  92.842393, 26168.664767
  93.699835, 26020.556426
  94.557277, 25872.448085
  95.414718, 25724.339745
  96.272160, 25576.231404
  97.129601, 25428.123063
  97.987043, 25280.014722
  98.844485, 25131.906381
  99.701926, 24983.798040
 100.559368, 24835.689699
 101.416810, 24687.581358
 102.274251, 24544.718209
 103.131693, 24411.598500
 103.989134, 24278.478792
 104.846576, 24145.359083
 105.704018, 24012.239375
 106.561459, 23879.119667
 107.418901, 23745.999958
 108.276342, 23612.880250
 109.133784, 23479.760542
 109.991226, 23346.640833
 110.848667, 23213.521125
 111.706109, 23080.401416
 112.563550, 22947.281708
 113.420992, 22816.902043
 114.278434, 22703.979367
 115.135875, 22591.056692
 115.993317, 22478.134016
 116.850758, 22365.211340
 117.708200, 22252.288664
 118.565642, 22139.365988
 119.423083, 22026.443313
 120.280525, 21913.520637
 121.137966, 21800.597961
 121.995408, 21687.675285
 122.852850, 21574.752609
 123.710291, 21461.829933
 124.567733, 21348.907258
 125.425174, 21250.677777
 126.282616, 21153.701731
 127.140058, 21056.725686
 127.997499, 20959.749640
 128.854941, 20862.773595
 129.712382, 20765.797549
 130.569824, 20668.821503
 131.427266, 20571.845458
 132.284707, 20474.869412
 133.142149, 20377.893367
 133.999590, 20280.917321
 134.857032, 20183.941275
 135.714474, 20086.965230
 136.571915, 19998.475930
 137.429357, 19913.501746
 138.286798, 19828.527561
 139.144240, 19743.553377
 140.001682, 19658.579192
 140.859123, 19573.605008
 141.716565, 19488.630823
 142.574006, 19403.656639
 143.431448, 19318.682454
 144.288890, 19233.708270
 145.146331, 19148.734085
 146.003773, 19063.759901
 146.861215, 18978.785716
 147.718656, 18897.279963
 148.576098, 18819.343254
 149.433539, 18741.406544
 150.290981, 18663.469835
 151.148423, 18585.533125
