Time, Speed
   0.000100,    0.000266
   0.000739,    0.001964
   0.003192,    0.008483
   0.010823,    0.028766
   0.024250,    0.064451
   0.044979,    0.119530
   0.074596,    0.198210
   0.104330,    0.277181
   0.134065,    0.356132
   0.163869,    0.435244
   0.193707,    0.514427
   0.223662,    0.593897
   0.253643,    0.673417
   0.283578,    0.752790
   0.313608,    0.832394
   0.343852,    0.912545
   0.374432,    0.993563
   0.404940,    1.074366
   0.435592,    1.155531
   0.466691,    1.237854
   0.497414,    1.319158
   0.529078,    1.402929
   0.560516,    1.486077
   0.592142,    1.569699
   0.624137,    1.654273
   0.655967,    1.738384
   0.688174,    1.823466
   0.720414,    1.908610
   0.753287,    1.995399
   0.786414,    2.082833
   0.819995,    2.171437
   0.853135,    2.258851
   0.886634,    2.347184
   0.920841,    2.437354
   0.954798,    2.526837
   0.989673,    2.618712
   1.024534,    2.710517
   1.059484,    2.802526
   1.094625,    2.895009
   1.130411,    2.989159
   1.165938,    3.082594
   1.201923,    3.177200
   1.238205,    3.272559
   1.275068,    3.369407
   1.311728,    3.465690
   1.348703,    3.562765
   1.386149,    3.661044
   1.424187,    3.760837
   1.461956,    3.859893
   1.500069,    3.959810
   1.538712,    4.061082
   1.577467,    4.162609
   1.616273,    4.264234
   1.655379,    4.366603
   1.694971,    4.470207
   1.734403,    4.573352
   1.774730,    4.678797
   1.815592,    4.785600
   1.856419,    4.892266
   1.897659,    4.999971
   1.939041,    5.108003
   1.980834,    5.217062
   2.022645,    5.326127
   2.064926,    5.436368
   2.106899,    5.545764
   2.149625,    5.657076
   2.193047,    5.770150
   2.236232,    5.882562
   2.279402,    5.994886
   2.322643,    6.107348
   2.366789,    6.222113
   2.411165,    6.337424
   2.456015,    6.453918
   2.501098,    6.570961
   2.546355,    6.688406
   2.591792,    6.806261
   2.637439,    6.924611
   2.684018,    7.045320
   2.730133,    7.164769
   2.776082,    7.283734
   2.823102,    7.405416
   2.870268,    7.527416
   2.917732,    7.650130
   2.965183,    7.772750
   3.013174,    7.896704
   3.061135,    8.020524
   3.109731,    8.145918
   3.158504,    8.271709
   3.207347,    8.397614
   3.256583,    8.524471
   3.305757,    8.651104
   3.355815,    8.779947
   3.405625,    8.908087
   3.455790,    9.037071
   3.506213,    9.166653
   3.557356,    9.298016
   3.608053,    9.428165
   3.659440,    9.560014
   3.711312,    9.693036
   3.762869,    9.825182
   3.814583,    9.957654
   3.867039,   10.091956
   3.919497,   10.226190
   3.972588,   10.361968
   4.025604,   10.497477
   4.078972,   10.633810
   4.132362,   10.770120
   4.185896,   10.906724
   4.239578,   11.043624
   4.293863,   11.181984
   4.348175,   11.320333
   4.402931,   11.459733
   4.457796,   11.599328
   4.468696,   11.627051
   4.496557,   11.697898
   4.508012,   11.727020
   4.509220,   11.730091
   4.510310,   11.732863
   4.510506,   11.733361
   4.510756,   11.733998
   4.510834,   11.734196
   4.510865,   11.734274
   4.510923,   11.734420
   4.510975,   11.734554
   4.511391,   11.735611
   4.514157,   11.742641
   4.524471,   11.768859
   4.555916,   11.848765
   4.605748,   11.975323
   4.656405,   12.103891
   4.707250,   12.232845
   4.758623,   12.363051
   4.809774,   12.492600
   4.861251,   12.622887
   4.913371,   12.754707
   4.965261,   12.885853
   5.017644,   13.018149
   5.069824,   13.149838
   5.122355,   13.282320
   5.175074,   13.415177
   5.228246,   13.549080
   5.281518,   13.683135
   5.335039,   13.817718
   5.388215,   13.951335
   5.441821,   14.085935
   5.495693,   14.221100
   5.549678,   14.356446
   5.603959,   14.492434
   5.658515,   14.629008
   5.713207,   14.765818
   5.768044,   14.902884
   5.823043,   15.040250
   5.878092,   15.177636
   5.933668,   15.316228
   5.989215,   15.454641
   6.045085,   15.593750
   6.101050,   15.732986
   6.156999,   15.872072
   6.213502,   16.012423
   6.269654,   16.151794
   6.325922,   16.291339
   6.383068,   16.432948
   6.439848,   16.573536
   6.496596,   16.713933
   6.553449,   16.854473
   6.611126,   16.996937
   6.668936,   17.139609
   6.726692,   17.282031
   6.784484,   17.424424
   6.842519,   17.567298
   6.900806,   17.710671
   6.959133,   17.854022
   7.017999,   17.998576
   7.076878,   18.143041
   7.135810,   18.287510
   7.195003,   18.432497
   7.254191,   18.577346
   7.313764,   18.723012
   7.373505,   18.868961
   7.433077,   19.014373
   7.493001,   19.160514
   7.553127,   19.307022
   7.613492,   19.453982
   7.673910,   19.600941
   7.734608,   19.748448
   7.795320,   19.895859
   7.856409,   20.044052
   7.917519,   20.192164
   7.978831,   20.340630
   8.040451,   20.489707
   8.101960,   20.638380
   8.163769,   20.787641
   8.225548,   20.936694
   8.287654,   21.086398
   8.349751,   21.235939
   8.411896,   21.385461
   8.474337,   21.535552
   8.537248,   21.686635
   8.600186,   21.837638
   8.663153,   21.988567
   8.726096,   22.139298
   8.789266,   22.290427
   8.852834,   22.442366
   8.916386,   22.594120
   8.980208,   22.746370
   9.044045,   22.898511
   9.108006,   23.050798
   9.172268,   23.203655
   9.236911,   23.357267
   9.249870,   23.388042
   9.265511,   23.425182
   9.277010,   23.452479
   9.278818,   23.456769
   9.280724,   23.461293
   9.282348,   23.465150
   9.282704,   23.465994
   9.283137,   23.467021
   9.283653,   23.468245
   9.283774,   23.468534
   9.283782,   23.468553
   9.283790,   23.468571
   9.283864,   23.468747
   9.284509,   23.470277
   9.288256,   23.479172
   9.307371,   23.524527
   9.363057,   23.656569
   9.422298,   23.796888
   9.481505,   23.936970
   9.540633,   24.076712
   9.600077,   24.217045
   9.659647,   24.357517
   9.719624,   24.498789
   9.779516,   24.639703
   9.839362,   24.780349
   9.899473,   24.921459
   9.959487,   25.062181
  10.019705,   25.203220
  10.080113,   25.344544
  10.140655,   25.486018
  10.201390,   25.627782
  10.262201,   25.769557
  10.323268,   25.911764
  10.384243,   26.053594
  10.445349,   26.195563
  10.506763,   26.338080
  10.568376,   26.480891
  10.629953,   26.623450
  10.691696,   26.766224
  10.753431,   26.908812
  10.815267,   27.051464
  10.877362,   27.194544
  10.939382,   27.337280
  11.001731,   27.480600
  11.064139,   27.623885
  11.126811,   27.767601
  11.189399,   27.910952
  11.252238,   28.054705
  11.315359,   28.198924
  11.378302,   28.342563
  11.441609,   28.486856
  11.504788,   28.630679
  11.568209,   28.774875
  11.631504,   28.918610
  11.695111,   29.062872
  11.758820,   29.207189
  11.822557,   29.351387
  11.886602,   29.496103
  11.950778,   29.640932
  12.014773,   29.785170
  12.079125,   29.930032
  12.143633,   30.075063
  12.208314,   30.220296
  12.272901,   30.365136
  12.337696,   30.510256
  12.402519,   30.655253
  12.467787,   30.801057
  12.533070,   30.946708
  12.598294,   31.092039
  12.663551,   31.237256
  12.728981,   31.382671
  12.794388,   31.527845
  12.860095,   31.673494
  12.925961,   31.819306
  12.991897,   31.965081
  13.058068,   32.111182
  13.124488,   32.257640
  13.190474,   32.402949
  13.256712,   32.548620
  13.323212,   32.694673
  13.389439,   32.839932
  13.456111,   32.985975
  13.522940,   33.132164
  13.589825,   33.278278
  13.656840,   33.424480
  13.723915,   33.570615
  13.791368,   33.717374
  13.858631,   33.863522
  13.926211,   34.010159
  13.993640,   34.156265
  14.061210,   34.302481
  14.129172,   34.449340
  14.196735,   34.595139
  14.264687,   34.741572
  14.332756,   34.888058
  14.401015,   35.034748
  14.469410,   35.181525
  14.472152,   35.187405
  14.474755,   35.192987
  14.477556,   35.198993
  14.478069,   35.200093
  14.478653,   35.201345
  14.478839,   35.201744
  14.479116,   35.202338
  14.479256,   35.202638
  14.479313,   35.202760
  14.479333,   35.202803
  14.479343,   35.202823
  14.479359,   35.202858
  14.479373,   35.202889
  14.479520,   35.203204
  14.480843,   35.206040
  14.487932,   35.221239
  14.516597,   35.282663
  14.578121,   35.414350
  14.639312,   35.545120
  14.700765,   35.676246
  14.762494,   35.807756
  14.824222,   35.939058
  14.885858,   36.069960
  14.947570,   36.200817
  15.009573,   36.332086
  15.071507,   36.463001
  15.133456,   36.593743
  15.195598,   36.724684
  15.257749,   36.855437
  15.320171,   36.986552
  15.382701,   37.117685
  15.445211,   37.248565
  15.507791,   37.379384
  15.570479,   37.510218
  15.633369,   37.641262
  15.696463,   37.772519
  15.759475,   37.903395
  15.822432,   38.033946
  15.885562,   38.164642
  15.948654,   38.295048
  16.012014,   38.425795
  16.075440,   38.556466
  16.138817,   38.686821
  16.202289,   38.817160
  16.265978,   38.947729
  16.329778,   39.078312
  16.393513,   39.208544
  16.457513,   39.339105
  16.521607,   39.469640
  16.585775,   39.600109
  16.650009,   39.730494
  16.714333,   39.860845
  16.778693,   39.991051
  16.843218,   40.121374
  16.907712,   40.251414
  16.972429,   40.381686
  17.037082,   40.511609
  17.101812,   40.641468
  17.166835,   40.771696
  17.231997,   40.901979
  17.297105,   41.031933
  17.362169,   41.161580
  17.427373,   41.291282
  17.492619,   41.420848
  17.557983,   41.550427
  17.623576,   41.680237
  17.689245,   41.809974
  17.754891,   41.939442
  17.820694,   42.068994
  17.886553,   42.198434
  17.952506,   42.327834
  18.018581,   42.457249
  18.084705,   42.586533
  18.151062,   42.716047
  18.217245,   42.844996
  18.283555,   42.973967
  18.349984,   43.102942
  18.416614,   43.232082
  18.483392,   43.361279
  18.550324,   43.490545
  18.617287,   43.619642
  18.684148,   43.748314
  18.751244,   43.877210
  18.818336,   44.005866
  18.885524,   44.134480
  18.952729,   44.262895
  19.020056,   44.391313
  19.087540,   44.519800
  19.155050,   44.648106
  19.222587,   44.776232
  19.290356,   44.904566
  19.358093,   45.032608
  19.425921,   45.160589
  19.493812,   45.288458
  19.561860,   45.416389
  19.629932,   45.544133
  19.698168,   45.671950
  19.766496,   45.799707
  19.834876,   45.927326
  19.903302,   46.054795
  19.971820,   46.182203
  20.040470,   46.309621
  20.109302,   46.437140
  20.178113,   46.564383
  20.246961,   46.691461
  20.315764,   46.818217
  20.329607,   46.843693
  20.378716,   46.933990
  20.379269,   46.935006
  20.380151,   46.936627
  20.380294,   46.936890
  20.380382,   46.937052
  20.380417,   46.937116
  20.380452,   46.937181
  20.380801,   46.937822
  20.384003,   46.943705
  20.399918,   46.972938
  20.460659,   47.084392
  20.529468,   47.210429
  20.598515,   47.336663
  20.667406,   47.462376
  20.736640,   47.588478
  20.805793,   47.714192
  20.875130,   47.840002
  20.944509,   47.965652
  21.014028,   48.091314
  21.083573,   48.216785
  21.153259,   48.342270
  21.222942,   48.467510
  21.292877,   48.592961
  21.362872,   48.718280
  21.432864,   48.843351
  21.502998,   48.968435
  21.573212,   49.093421
  21.643393,   49.218107
  21.713690,   49.342757
  21.784048,   49.467272
  21.854552,   49.591806
  21.925141,   49.716245
  21.995868,   49.840684
  22.066473,   49.964667
  22.137251,   50.088708
  22.208077,   50.212592
  22.279047,   50.336485
  22.349989,   50.460085
  22.421073,   50.583688
  22.492261,   50.707228
  22.563536,   50.830673
  22.634903,   50.954034
  22.706269,   51.077148
  22.777783,   51.200273
  22.849410,   51.323346
  22.921139,   51.446348
  22.992914,   51.569183
  23.064842,   51.692033
  23.136757,   51.814615
  23.208783,   51.937137
  23.280891,   52.059554
  23.352968,   52.181671
  23.425355,   52.304066
  23.497683,   52.426113
  23.570041,   52.547962
  23.642485,   52.669710
  23.715007,   52.791340
  23.787591,   52.912826
  23.860399,   53.034438
  23.933266,   53.155900
  24.006153,   53.277147
  24.079121,   53.398278
  24.152098,   53.519176
  24.225333,   53.640252
  24.298444,   53.760874
  24.371753,   53.881571
  24.445105,   54.002090
  24.518631,   54.122644
  24.592077,   54.242817
  24.665704,   54.363035
  24.739413,   54.483136
  24.813266,   54.603220
  24.887275,   54.723306
  24.961232,   54.843055
  25.035253,   54.962658
  25.109496,   55.082366
  25.183619,   55.201629
  25.257915,   55.320918
  25.332409,   55.440271
  25.406849,   55.559285
  25.481378,   55.678190
  25.556013,   55.797010
  25.630621,   55.915535
  25.705344,   56.033990
  25.780175,   56.152362
  25.855083,   56.270602
  25.930100,   56.388761
  26.005213,   56.506817
  26.080313,   56.624600
  26.155560,   56.742359
  26.230803,   56.859856
  26.306198,   56.977338
  26.381754,   57.094816
  26.441786,   57.187974
  26.457361,   57.212118
  26.533023,   57.329253
  26.608785,   57.446299
  26.684568,   57.563129
  26.760377,   57.679745
  26.836405,   57.796439
  26.912328,   57.912711
  26.988387,   58.028921
  27.064596,   58.145089
  27.140675,   58.260781
  27.216868,   58.376367
  27.293195,   58.491871
  27.369674,   58.607312
  27.384960,   58.630349
  27.399588,   58.652381
  27.411806,   58.670776
  27.412193,   58.671359
  27.412210,   58.671384
  27.412227,   58.671409
  27.412394,   58.671660
  27.413805,   58.673784
  27.422600,   58.687019
  27.456725,   58.738340
  27.534498,   58.855105
  27.613696,   58.973703
  27.692963,   59.092091
  27.772229,   59.210160
  27.851585,   59.328041
  27.930891,   59.445522
  28.010203,   59.562683
  28.089467,   59.679441
  28.168885,   59.796088
  28.248265,   59.912340
  28.327715,   60.028350
  28.407204,   60.144068
  28.486787,   60.259573
  28.566394,   60.374757
  28.646011,   60.489597
  28.725560,   60.603979
  28.805032,   60.717885
  28.884658,   60.831648
  28.964182,   60.944895
  29.043774,   61.057866
  29.123383,   61.170489
  29.202976,   61.282709
  29.282694,   61.394725
  29.362325,   61.506240
  29.368358,   61.514515
  29.374384,   61.522772
  29.380396,   61.531002
  29.386433,   61.539259
  29.392467,   61.547505
  29.398498,   61.555740
  29.404560,   61.564008
  29.410618,   61.572262
  29.416653,   61.580478
  29.422726,   61.588738
  29.428775,   61.596957
  29.434848,   61.605201
  29.440899,   61.613406
  29.446967,   61.621626
  29.453055,   61.629865
  29.459151,   61.638106
  29.465236,   61.646324
  29.471347,   61.654568
  29.477438,   61.662777
  29.483551,   61.671007
  29.489675,   61.679244
  29.495808,   61.687482
  29.501946,   61.695720
  29.508042,   61.703892
  29.514092,   61.711993
  29.520243,   61.720221
  29.526372,   61.728409
  29.532514,   61.736606
  29.538674,   61.744818
  29.544823,   61.753004
  29.551000,   61.761219
  29.557175,   61.769422
  29.563341,   61.777603
  29.569540,   61.785818
  29.575698,   61.793969
  29.581902,   61.802171
  29.588119,   61.810380
  29.594314,   61.818550
  29.600501,   61.826698
  29.606672,   61.834817
  29.612839,   61.842920
  29.619083,   61.851113
  29.625325,   61.859293
  29.631577,   61.867475
  29.637822,   61.875638
  29.644053,   61.883772
  29.650331,   61.891957
  29.656611,   61.900132
  29.662902,   61.908312
  29.669197,   61.916485
  29.675453,   61.924598
  29.681735,   61.932731
  29.688045,   61.940891
  29.694375,   61.949063
  29.700699,   61.957218
  29.707027,   61.965365
  29.713335,   61.973476
  29.719670,   61.981609
  29.726007,   61.989733
  29.732384,   61.997897
  29.738736,   62.006016
  29.745096,   62.014133
  29.751469,   62.022255
  29.757842,   62.030364
  29.764253,   62.038510
  29.770662,   62.046640
  29.777036,   62.054713
  29.783427,   62.062795
  29.789875,   62.070937
  29.796300,   62.079037
  29.802724,   62.087121
  29.809207,   62.095267
  29.815632,   62.103327
  29.822129,   62.111465
  29.828647,   62.119614
  29.835080,   62.127644
  29.841555,   62.135713
  29.848039,   62.143779
  29.854534,   62.151845
  29.860974,   62.159829
  29.867491,   62.167898
  29.874030,   62.175983
  29.880620,   62.184120
  29.887192,   62.192222
  29.893753,   62.200299
  29.900258,   62.208297
  29.906862,   62.216404
  29.913428,   62.224454
  29.920033,   62.232540
  29.926595,   62.240561
  29.933218,   62.248646
  29.939842,   62.256720
  29.946483,   62.264803
  29.953099,   62.272844
  29.959722,   62.280881
  29.966373,   62.288941
  29.973044,   62.297014
  29.979673,   62.305022
  29.986351,   62.313079
  29.993073,   62.321176
  29.999802,   62.329270
  30.006476,   62.337286
  30.013168,   62.345310
  30.019879,   62.353346
  30.026624,   62.361410
  30.033365,   62.369457
  30.040065,   62.377442
  30.046817,   62.385478
  30.053591,   62.393527
  30.060309,   62.401496
  30.067074,   62.409510
  30.073874,   62.417551
  30.080652,   62.425556
  30.087489,   62.433616
  30.094279,   62.441608
  30.101128,   62.449657
  30.107965,   62.457679
  30.114803,   62.465689
  30.121666,   62.473715
  30.128522,   62.481720
  30.135393,   62.489730
  30.142262,   62.497724
  30.149131,   62.505705
  30.156032,   62.513710
  30.162974,   62.521749
  30.169862,   62.529713
  30.176823,   62.537748
  30.183773,   62.545755
  30.190744,   62.553774
  30.197712,   62.561776
  30.204699,   62.569786
  30.211678,   62.577772
  30.218723,   62.585822
  30.225730,   62.593813
  30.232697,   62.601745
  30.239727,   62.609735
  30.246794,   62.617753
  30.253882,   62.625781
  30.260895,   62.633709
  30.267996,   62.641723
  30.275064,   62.649687
  30.282188,   62.657697
  30.289317,   62.665700
  30.296447,   62.673689
  30.303588,   62.681676
  30.310756,   62.689678
  30.317932,   62.697675
  30.325099,   62.705647
  30.332215,   62.713547
  30.339382,   62.721490
  30.346591,   62.729464
  30.353825,   62.737451
  30.360974,   62.745329
  30.361066,   62.745430
  30.368312,   62.753400
  30.375571,   62.761371
  30.382781,   62.769274
  30.390083,   62.777262
  30.397403,   62.785257
  30.404688,   62.793199
  30.411975,   62.801129
  30.419312,   62.809099
  30.426686,   62.817095
  30.434079,   62.825097
  30.441441,   62.833051
  30.448839,   62.841029
  30.456264,   62.849021
  30.463680,   62.856989
  30.471081,   62.864926
  30.478507,   62.872876
  30.485943,   62.880821
  30.493416,   62.888792
  30.500934,   62.896795
  30.508424,   62.904753
  30.515917,   62.912700
  30.523409,   62.920631
  30.530957,   62.928606
  30.538460,   62.936518
  30.545990,   62.944444
  30.553474,   62.952306
  30.561019,   62.960218
  30.568570,   62.968121
  30.576142,   62.976030
  30.583680,   62.983890
  30.591291,   62.991809
  30.598908,   62.999720
  30.606556,   63.007647
  30.614239,   63.015595
  30.621920,   63.023526
  30.629618,   63.031458
  30.637313,   63.039371
  30.645050,   63.047312
  30.652786,   63.055236
  30.660539,   63.063162
  30.668275,   63.071055
  30.676049,   63.078970
  30.683813,   63.086860
  30.691626,   63.094783
  30.699427,   63.102678
  30.707265,   63.110594
  30.715022,   63.118412
  30.722910,   63.126346
  30.730807,   63.134273
  30.738705,   63.142185
  30.746623,   63.150100
  30.754479,   63.157936
  30.762367,   63.165788
  30.770298,   63.173668
  30.778207,   63.181508
  30.786191,   63.189406
  30.794122,   63.197235
  30.802068,   63.205063
  30.810082,   63.212940
  30.818119,   63.220824
  30.826187,   63.228720
  30.834239,   63.236585
  30.842311,   63.244451
  30.850421,   63.252338
  30.858420,   63.260100
  30.866533,   63.267955
  30.874669,   63.275816
  30.882749,   63.283605
  30.890913,   63.291458
  30.899063,   63.299280
  30.907179,   63.307053
  30.915404,   63.314913
  30.923684,   63.322806
  30.931922,   63.330643
  30.940150,   63.338453
  30.948413,   63.346278
  30.956690,   63.354098
  30.964962,   63.361897
  30.973220,   63.369664
  30.981532,   63.377464
  30.989902,   63.385301
  30.998267,   63.393114
  31.006657,   63.400934
  31.015014,   63.408704
  31.023424,   63.416506
  31.031878,   63.424329
  31.040306,   63.432111
  31.048788,   63.439924
  31.057274,   63.447722
  31.065700,   63.455446
  31.074183,   63.463205
  31.082725,   63.470998
  31.091261,   63.478768
  31.099718,   63.486448
  31.108174,   63.494108
  31.116715,   63.501827
  31.125369,   63.509628
  31.133922,   63.517320
  31.142606,   63.525111
  31.151232,   63.532831
  31.159840,   63.540515
  31.168544,   63.548266
  31.177216,   63.555969
  31.185898,   63.563663
  31.194640,   63.571389
  31.203309,   63.579033
  31.212040,   63.586712
  31.220743,   63.594346
  31.229413,   63.601933
  31.238170,   63.609577
  31.246933,   63.617207
  31.255702,   63.624822
  31.264558,   63.632493
  31.273418,   63.640148
  31.282213,   63.647727
  31.291050,   63.655323
  31.299934,   63.662939
  31.308796,   63.670517
  31.317707,   63.678117
  31.326610,   63.685690
  31.335590,   63.693308
  31.344561,   63.700899
  31.353557,   63.708490
  31.362500,   63.716017
  31.371496,   63.723569
  31.380519,   63.731122
  31.389498,   63.738619
  31.398542,   63.746150
  31.407577,   63.753653
  31.416721,   63.761225
  31.425884,   63.768792
  31.435027,   63.776323
  31.444134,   63.783804
  31.453267,   63.791284
  31.462348,   63.798702
  31.471486,   63.806145
  31.480615,   63.813561
  31.489798,   63.821001
  31.499062,   63.828484
  31.508369,   63.835981
  31.517668,   63.843451
  31.526998,   63.850924
  31.536359,   63.858399
  31.545701,   63.865839
  31.555050,   63.873262
  31.564416,   63.880679
  31.573783,   63.888073
  31.583144,   63.895442
  31.592564,   63.902836
  31.601992,   63.910214
  31.611391,   63.917548
  31.620829,   63.924891
  31.630330,   63.932260
  31.639799,   63.939584
  31.649334,   63.946936
  31.658849,   63.954251
  31.668359,   63.961541
  31.677902,   63.968833
  31.687461,   63.976115
  31.697096,   63.983434
  31.706731,   63.990730
  31.716389,   63.998020
  31.726100,   64.005328
  31.735760,   64.012576
  31.745374,   64.019767
  31.755067,   64.026994
  31.764710,   64.034161
  31.774473,   64.041396
  31.784162,   64.048553
  31.793952,   64.055762
  31.803672,   64.062896
  31.813466,   64.070063
  31.823285,   64.077225
  31.833071,   64.084339
  31.842923,   64.091479
  31.852806,   64.098619
  31.862595,   64.105667
  31.872485,   64.112765
  31.882357,   64.119828
  31.892202,   64.126848
  31.902184,   64.133943
  31.912051,   64.140933
  31.921924,   64.147904
  31.931970,   64.154975
  31.941918,   64.161953
  31.951938,   64.168958
  31.962034,   64.175992
  31.972060,   64.182954
  31.982038,   64.189860
  31.992170,   64.196849
  32.002316,   64.203823
  32.012541,   64.210828
  32.022611,   64.217702
  32.032719,   64.224580
  32.042838,   64.231440
  32.053052,   64.238342
  32.063199,   64.245175
  32.073439,   64.252046
  32.083668,   64.258886
  32.093967,   64.265748
  32.104151,   64.272510
  32.114414,   64.279300
  32.124783,   64.286137
  32.135085,   64.292905
  32.145433,   64.299678
  32.155689,   64.306368
  32.166132,   64.313155
  32.176424,   64.319820
  32.186927,   64.326596
  32.197272,   64.333247
  32.207763,   64.339967
  32.218327,   64.346708
  32.228752,   64.353337
  32.239194,   64.359951
  32.249721,   64.366595
  32.260205,   64.373187
  32.270729,   64.379780
  32.281188,   64.386307
  32.291726,   64.392860
  32.302296,   64.399407
  32.312892,   64.405946
  32.323675,   64.412574
  32.334354,   64.419114
  32.345069,   64.425650
  32.355780,   64.432159
  32.366429,   64.438605
  32.377022,   64.444992
  32.387797,   64.451464
  32.398477,   64.457853
  32.409190,   64.464238
  32.419818,   64.470547
  32.430596,   64.476920
  32.441407,   64.483287
  32.452251,   64.489648
  32.463012,   64.495935
  32.473831,   64.502231
  32.484676,   64.508517
  32.495634,   64.514842
  32.506522,   64.521102
  32.517614,   64.527453
  32.528492,   64.533656
  32.539470,   64.539890
  32.550354,   64.546045
  32.561282,   64.552200
  32.572246,   64.558349
  32.583234,   64.564487
  32.594316,   64.570651
  32.605237,   64.576700
  32.616342,   64.582826
  32.627388,   64.588893
  32.638576,   64.595012
  32.649688,   64.601064
  32.660770,   64.607073
  32.671936,   64.613103
  32.683117,   64.619114
  32.694334,   64.625119
  32.705621,   64.631134
  32.716847,   64.637091
  32.727993,   64.642980
  32.739338,   64.648948
  32.750511,   64.654800
  32.761652,   64.660609
  32.772812,   64.666403
  32.784125,   64.672250
  32.795310,   64.678006
  32.806623,   64.683801
  32.818049,   64.689628
  32.829537,   64.695461
  32.841005,   64.701256
  32.852540,   64.707058
  32.864044,   64.712818
  32.875414,   64.718486
  32.886855,   64.724162
  32.898356,   64.729842
  32.909888,   64.735511
  32.921505,   64.741195
  32.933004,   64.746795
  32.944545,   64.752389
  32.955989,   64.757910
  32.967598,   64.763484
  32.979147,   64.769004
  32.990802,   64.774547
  33.002506,   64.780087
  33.014197,   64.785595
  33.025928,   64.791094
  33.037639,   64.796558
  33.049324,   64.801984
  33.061152,   64.807448
  33.073047,   64.812917
  33.084737,   64.818265
  33.096359,   64.823556
  33.108231,   64.828934
  33.120024,   64.834250
  33.131769,   64.839518
  33.143610,   64.844802
  33.155564,   64.850111
  33.167419,   64.855348
  33.179275,   64.860560
  33.191337,   64.865835
  33.203256,   64.871021
  33.215210,   64.876196
  33.227077,   64.881307
  33.239037,   64.886432
  33.251005,   64.891533
  33.263009,   64.896623
  33.275081,   64.901716
  33.279532,   64.903586
