Time, Horizontal Forces
   0.000000,    0.000000
   0.000001,    0.000008
   0.000006,    0.000100
   0.000051,    0.000805
   0.000254,    0.004020
   0.000937,    0.014852
   0.003594,    0.056943
   0.008770,    0.138942
   0.016215,    0.256828
   0.025986,    0.411518
   0.038053,    0.602508
   0.052396,    0.829461
   0.069115,    1.093931
   0.088096,    1.394100
   0.109545,    1.733205
   0.133445,    2.110961
   0.159844,    2.528104
   0.188742,    2.984592
   0.220179,    3.481049
   0.254154,    4.017445
   0.290762,    4.595229
   0.329834,    5.211739
   0.371933,    5.875812
   0.416730,    6.582248
   0.464133,    7.329540
   0.514632,    8.125419
   0.568012,    8.966458
   0.623767,    9.844643
   0.683393,   10.783523
   0.746091,   11.770460
   0.811495,   12.799684
   0.879944,   13.876498
   0.952973,   15.024991
   1.028661,   16.214929
   1.108195,   17.464933
   1.190503,   18.758130
   1.276329,   20.106150
   1.366302,   21.518850
   1.460383,   22.995569
   1.557910,   24.525853
   1.658864,   26.109392
   1.765569,   27.782571
   1.876077,   29.514774
   1.991080,   31.316815
   2.108697,   33.159182
   2.232114,   35.091696
   2.358495,   37.069945
   2.491456,   39.150420
   2.627207,   41.273788
   2.766419,   43.450499
   2.910997,   45.710304
   3.061458,   48.061180
   3.214194,   50.446708
   3.373591,   52.935338
   3.537116,   55.487454
   3.707854,   58.151136
   3.881891,   60.865207
   4.060893,   63.655649
   4.246787,   66.552372
   4.436942,   69.514329
   4.635771,   72.610147
   4.839095,   75.774675
   5.046944,   79.008297
   5.262260,   82.356706
   5.479624,   85.735571
   5.704145,   89.224241
   5.932675,   92.773728
   6.172206,   96.492487
   6.417668,  100.301696
   6.664659,  104.132983
   6.919177,  108.079334
   7.182286,  112.157105
   7.451337,  116.325109
   7.728786,  120.621313
   8.011867,  125.002743
   8.300203,  129.463494
   8.595273,  134.026357
   8.898197,  138.708532
   9.208447,  143.501713
   9.524740,  148.385976
   9.847117,  153.361874
  10.178260,  158.470661
  10.517285,  163.698561
  10.863781,  169.039091
  11.215388,  174.455792
  11.577699,  180.034688
  11.947059,  185.719317
  12.323083,  191.503662
  12.706533,  197.399298
  13.101735,  203.472593
  13.498441,  209.565917
  13.905442,  215.814208
  14.322436,  222.212652
  14.746977,  228.723536
  15.179755,  235.357317
  15.615931,  242.039695
  16.065427,  248.922553
  16.521679,  255.905183
  16.989674,  263.063708
  17.467086,  270.362359
  17.948124,  277.712462
  18.442233,  285.258218
  18.943653,  292.911411
  19.455403,  300.717993
  19.971291,  308.583332
  20.503197,  316.688392
  21.039939,  324.862535
  21.591975,  333.264835
  22.154661,  341.824337
  22.722075,  350.450798
  23.294581,  359.149671
  23.879363,  368.029947
  24.470105,  376.995525
  25.080064,  386.247340
  25.104614,  386.619606
  25.110192,  386.704182
  25.111427,  386.722912
  25.113175,  386.749405
  25.113784,  386.758646
  25.114962,  386.776511
  25.115436,  386.783699
  25.115489,  386.784492
  25.115536,  386.785207
  25.116007,  386.792354
  25.120721,  386.863827
  25.146034,  387.247638
  25.240975,  388.687082
  25.544938,  393.294498
  26.122884,  402.050252
  26.701027,  410.802946
  27.285207,  419.640945
  27.878682,  428.613377
  28.479559,  437.691415
  29.087489,  446.869616
  29.709576,  456.254968
  30.339197,  465.747271
  30.977515,  475.363836
  31.624560,  485.104928
  32.281037,  494.980927
  32.946776,  504.989025
  33.624452,  515.169175
  34.313136,  525.507097
  35.009054,  535.945927
  35.708189,  546.425280
  36.418015,  557.057049
  37.136818,  567.815288
  37.867779,  578.747318
  38.610465,  589.846370
  39.366949,  601.143018
  40.124054,  612.440350
  40.893463,  623.912549
  41.674081,  635.542938
  42.464088,  647.304159
  43.263317,  659.193440
  44.070501,  671.191753
  44.886655,  683.313949
  45.715278,  695.611704
  46.555057,  708.065211
  47.404370,  720.650109
  48.265463,  733.399407
  49.125549,  746.123653
  50.002292,  759.083998
  50.891462,  772.217457
  51.789845,  785.476260
  52.700389,  798.903624
  53.620266,  812.457549
  54.548014,  826.116248
  55.488294,  839.948066
  56.438610,  853.915963
  57.408434,  868.158719
  58.385766,  882.499686
  59.370371,  896.935230
  60.365913,  911.518839
  61.379289,  926.351076
  62.389213,  941.120238
  63.423505,  956.232872
  64.463035,  971.408964
  65.513995,  986.738717
  66.577116, 1002.232453
  67.651149, 1017.871598
  68.734516, 1033.632909
  69.826554, 1049.506495
  70.926902, 1065.486871
  72.041160, 1081.655030
  73.167900, 1097.989877
  74.306773, 1114.485936
  75.467376, 1131.281703
  76.633843, 1148.147108
  77.809141, 1165.124876
  78.997253, 1182.272203
  80.197519, 1199.579215
  81.410899, 1217.059341
  82.633034, 1234.649451
  83.870672, 1252.446308
  85.116192, 1270.339960
  86.373469, 1288.385796
  87.642578, 1306.584535
  88.921294, 1324.903951
  90.211860, 1343.375838
  91.522913, 1362.123290
  92.844013, 1380.996518
  94.177813, 1400.033075
  95.524629, 1419.237052
  96.890774, 1438.697933
  98.258511, 1458.162714
  99.637602, 1477.770187
 101.033815, 1497.601889
 102.439374, 1517.546957
 103.861289, 1537.704421
 104.147219, 1541.755457
 104.341094, 1544.501819
 104.495880, 1546.694195
 104.518932, 1547.020679
 104.524426, 1547.098499
 104.526123, 1547.122531
 104.526910, 1547.133674
 104.527083, 1547.136133
 104.527264, 1547.138692
 104.529071, 1547.164281
 104.545335, 1547.394619
 104.639691, 1548.730907
 104.976903, 1553.505672
 106.129664, 1569.818042
 107.448863, 1588.466381
 108.782020, 1607.291264
 110.126774, 1626.258884
 111.485587, 1645.403508
 112.857579, 1664.712183
 114.232498, 1684.040410
 115.627087, 1703.623119
 117.025299, 1723.234578
 118.429538, 1742.908384
 119.849673, 1762.782418
 121.280854, 1782.788308
 122.724636, 1802.947336
 124.175236, 1823.178435
 125.645137, 1843.655206
 127.123819, 1864.230545
 128.606536, 1884.838240
 130.101253, 1905.588747
 131.612673, 1926.546793
 133.134895, 1947.630026
 134.662743, 1968.766475
 136.203744, 1990.059971
 137.761978, 2011.566276
 139.327242, 2033.144138
 140.902608, 2054.835591
 142.494729, 2076.731747
 144.099947, 2098.781705
 145.710691, 2120.881128
 147.333012, 2143.112793
 148.962100, 2165.410446
 150.611414, 2187.957778
 152.268878, 2210.589162
 153.933457, 2233.290227
 155.615091, 2256.196063
 157.310570, 2279.262350
 159.024199, 2302.546965
 160.742691, 2325.868968
 162.471318, 2349.299677
 164.211370, 2372.856174
 165.965139, 2396.569021
 167.730713, 2420.411861
 169.504136, 2444.330938
 171.289475, 2468.380741
 173.092475, 2492.638081
 174.905755, 2517.003114
 176.736613, 2541.573324
 178.577433, 2566.245963
 180.426186, 2590.993548
 182.292552, 2615.945170
 184.168049, 2640.986885
 186.052534, 2666.116487
 187.953189, 2691.429272
 189.864605, 2716.852665
 191.788346, 2742.407035
 193.723244, 2768.076419
 195.670670, 2793.878563
 197.631588, 2819.825745
 199.600492, 2845.844689
 201.578585, 2871.951039
 203.575679, 2898.273715
 205.591905, 2924.813613
 207.624545, 2951.534209
 209.671944, 2978.413092
 211.722398, 3005.296310
 213.780715, 3032.246802
 215.852799, 3059.341465
 217.930789, 3086.477174
 220.026908, 3113.813060
 222.141208, 3141.349043
 224.269987, 3169.036231
 226.407867, 3196.804199
 228.556658, 3224.676124
 230.718107, 3252.674221
 232.896905, 3280.858642
 235.094814, 3309.251364
 237.303170, 3337.739895
 239.512888, 3366.206871
 241.745851, 3394.933746
 243.989033, 3423.752216
 246.242947, 3452.668506
 246.696259, 3458.479382
 248.417686, 3480.531139
 248.435820, 3480.763309
 248.441007, 3480.829731
 248.449399, 3480.937172
 248.452117, 3480.971966
 248.457552, 3481.041555
 248.458257, 3481.050576
 248.458628, 3481.055330
 248.458984, 3481.059892
 248.459308, 3481.064042
 248.462550, 3481.105547
 248.494704, 3481.517205
 248.719489, 3484.394831
 249.725066, 3497.261885
 251.719700, 3522.755682
 253.779585, 3549.043264
 255.845816, 3575.370971
 257.926492, 3601.841557
 260.018203, 3628.411085
 262.117889, 3655.040293
 264.225392, 3681.726883
 266.347479, 3708.556080
 268.479330, 3735.466408
 270.619404, 3762.438060
 272.778841, 3789.610799
 274.941400, 3816.779788
 277.112158, 3844.008659
 279.296599, 3871.365726
 281.490633, 3898.799271
 283.701626, 3926.400804
 285.922600, 3954.082577
 288.150724, 3981.809002
 290.393710, 4009.675587
 292.643781, 4037.585229
 294.906961, 4065.612250
 297.183446, 4093.758475
 299.465437, 4121.927114
 301.764926, 4150.265699
 304.067928, 4178.601451
 306.389604, 4207.120422
 308.720301, 4235.703427
 311.065369, 4264.415558
 313.420332, 4293.201489
 315.784519, 4322.052640
 318.159011, 4350.981811
 320.545962, 4380.014767
 322.943466, 4409.127830
 325.352425, 4438.331493
 327.766033, 4467.542973
 330.197939, 4496.926956
 332.633831, 4526.310067
 335.088965, 4555.875825
 337.555321, 4585.526935
 340.031860, 4615.250476
 342.519440, 4645.056295
 345.023622, 4675.010405
 347.538764, 4705.044703
 350.058976, 4735.088559
 352.593858, 4765.256039
 355.142610, 4795.536959
 357.699338, 4825.860860
 360.270044, 4856.298466
 362.850448, 4886.798598
 365.446561, 4917.431739
 368.049100, 4948.087915
 370.663009, 4978.825016
 373.293354, 5009.702003
 375.929053, 5040.588327
 378.574729, 5071.537931
 381.235283, 5102.607584
 383.903976, 5133.718130
 386.590827, 5164.985778
 389.287783, 5196.316177
 391.994667, 5227.706874
 394.706064, 5259.094865
 397.440764, 5290.697027
 400.181286, 5322.310705
 402.936323, 5354.035775
 405.704811, 5385.859347
 408.488933, 5417.805857
 411.284026, 5449.821221
 414.084220, 5481.837931
 416.889096, 5513.851130
 419.708533, 5545.973208
 422.545376, 5578.235825
 425.398278, 5610.622887
 428.257758, 5643.026288
 431.132352, 5675.542333
 434.019837, 5708.145232
 436.919663, 5740.828258
 439.821595, 5773.475837
 442.743417, 5806.287615
 445.676320, 5839.163938
 448.620964, 5872.111754
 451.574264, 5905.096151
 454.535505, 5938.108871
 457.511524, 5971.225676
 460.507034, 6004.498209
 463.511220, 6037.805712
 466.526193, 6071.171237
 469.548137, 6104.552237
 472.589684, 6138.087686
 475.638948, 6171.645943
 476.251346, 6178.378109
 476.720335, 6183.532065
 477.065547, 6187.324834
 477.120290, 6187.926212
 477.136970, 6188.109447
 477.165558, 6188.423481
 477.175153, 6188.528889
 477.176811, 6188.547099
 477.178528, 6188.565957
 477.195695, 6188.754536
 477.346967, 6190.416147
 478.209917, 6199.892077
 480.851419, 6228.866944
 483.929371, 6262.570357
 487.011271, 6296.253693
 490.096576, 6329.911028
 493.199907, 6363.701468
 496.318901, 6397.598487
 499.445243, 6431.511252
 502.589472, 6465.553545
 505.741627, 6499.616995
 508.909317, 6533.783348
 512.088997, 6568.013754
 515.278295, 6602.282288
 518.478661, 6636.604131
 521.689262, 6670.969943
 524.917627, 6705.459715
 528.156191, 6739.992003
 531.404500, 6774.561630
 534.665889, 6809.203614
 537.942055, 6843.935398
 541.228510, 6878.708891
 544.523422, 6913.504367
 547.837509, 6948.434437
 551.167379, 6983.462528
 554.502284, 7018.475198
 557.850130, 7053.555150
 561.210674, 7088.699318
 564.587181, 7123.941215
 567.973018, 7159.211115
 571.371712, 7194.545313
 574.776435, 7229.872527
 578.195979, 7265.283588
 581.627918, 7300.752809
 585.077831, 7336.337190
 588.539660, 7371.973573
 592.010643, 7407.633150
 595.491964, 7443.327763
 598.985547, 7479.076717
 602.491253, 7514.878082
 606.006502, 7550.705141
 609.534511, 7586.590265
 613.078588, 7622.566472
 616.637030, 7658.615815
 620.210215, 7694.741514
 623.792146, 7730.882477
 627.388022, 7767.090745
 630.987118, 7803.258072
 634.607694, 7839.567469
 638.239199, 7875.912410
 641.885623, 7912.332303
 645.541759, 7948.774665
 649.206249, 7985.225695
 652.891571, 8021.808889
 656.587050, 8058.417610
 660.292644, 8095.051099
 664.016097, 8131.785340
 667.742726, 8168.475109
 671.481226, 8205.205838
 675.242879, 8242.087591
 679.003419, 8278.882041
 682.786868, 8315.823856
 686.585612, 8352.837804
 690.392208, 8389.850942
 694.213453, 8426.928960
 698.039404, 8463.975081
 701.880478, 8501.089843
 705.740575, 8538.310189
 709.601892, 8575.464113
 713.488985, 8612.787371
 717.379775, 8650.067347
 721.284794, 8687.404720
 723.174928, 8705.448679
 725.212289, 8724.877489
 729.149558, 8794.688390
 733.087521, 8897.245541
 737.042221, 9000.057406
 741.008085, 9104.411781
 744.992700, 9210.447584
 748.983789, 9316.638446
 752.991009, 9425.746789
 757.010780, 9535.013959
 761.042227, 9645.756863
 765.083601, 9758.025168
 769.142019, 9870.377043
 773.212553, 9985.502204
 777.292638, 10100.896294
 781.381331, 10217.124503
 785.482819, 10335.313701
 789.591904, 10453.522415
 793.707916, 10573.400878
 797.843449, 10694.330714
 801.990962, 10815.441398
 806.141231, 10938.968498
 810.303845, 11062.626594
 814.479445, 11186.616194
 818.666912, 11313.079786
 822.865317, 11439.544104
 827.070061, 11566.611657
 827.238674, 11651.921560
 827.246700, 11655.324541
 827.252017, 11655.539768
 827.255947, 11655.686742
 827.258260, 11655.789000
 827.259242, 11655.845085
 827.260216, 11655.874911
 827.269963, 11655.999355
 827.367426, 11657.243803
 827.956406, 11665.522254
 830.575043, 11705.393997
 834.897452, 11803.714242
 839.275145, 11936.576453
 843.659444, 12072.487029
 848.060213, 12208.304725
 852.472241, 12344.904992
 856.888696, 12483.339257
 861.321198, 12621.614774
 865.757644, 12760.630656
 870.199087, 12901.218065
 874.655158, 13041.626681
 879.114212, 13182.564033
 883.589951, 13325.281810
 888.073867, 13467.973026
 888.427707, 13563.454595
 888.782141, 13574.762589
 889.136923, 13586.081315
 889.491206, 13597.396166
 889.846349, 13608.704774
 890.201897, 13620.030135
 890.554873, 13631.329473
 890.910129, 13642.595540
 891.265611, 13653.905580
 891.619823, 13665.200385
 891.977112, 13676.497660
 892.329444, 13687.797219
 892.686839, 13699.045368
 893.044582, 13710.395885
 893.403094, 13721.756203
 893.761724, 13733.127675
 894.117184, 13744.460231
 894.473824, 13755.734794
 894.833578, 13767.062250
 895.192512, 13778.438415
 895.552234, 13789.800366
 895.912595, 13801.179368
 896.272848, 13812.563998
 896.634052, 13823.950707
 896.993903, 13835.335537
 897.356115, 13846.712503
 897.717019, 13858.116823
 898.078435, 13869.493636
 898.438850, 13880.863355
 898.802166, 13892.238256
 899.164024, 13903.649650
 899.526519, 13915.031748
 899.891576, 13926.448481
 900.255267, 13937.895583
 900.618874, 13949.307186
 900.982924, 13960.715189
 901.347740, 13972.133808
 901.713311, 13983.569425
 902.077837, 13995.001952
 902.444214, 14006.426672
 902.811420, 14018.036092
 903.174576, 14029.671545
 903.543911, 14041.283378
 903.913543, 14053.019796
 904.282970, 14064.752764
 904.653344, 14076.484421
 905.024120, 14088.232679
 905.394524, 14099.977692
 905.765262, 14111.711085
 906.135364, 14123.436866
 906.506769, 14135.156063
 906.879481, 14146.908841
 907.251440, 14158.672703
 907.625111, 14170.431821
 907.996907, 14182.198090
 908.371556, 14193.948755
 908.746634, 14205.755027
 909.121642, 14217.561361
 909.497222, 14229.364363
 909.871806, 14241.160252
 910.246643, 14252.930212
 910.624630, 14264.731240
 910.999272, 14276.552668
 911.377305, 14288.333620
 911.756325, 14300.186533
 912.136224, 14312.060707
 912.516362, 14323.946917
 912.893904, 14335.801509
 913.275030, 14347.632784
 913.654205, 14359.507889
 914.033172, 14371.332079
 914.416222, 14383.187036
 914.798573, 14395.109143
 915.184103, 14407.041988
 915.567938, 14419.012582
 915.953538, 14430.958297
 916.336457, 14442.902287
 916.723902, 14454.830618
 917.110359, 14466.831387
 917.494901, 14478.782306
 917.881533, 14490.815428
 918.270998, 14503.014942
 918.659624, 14515.255034
 919.051314, 14527.500281
 919.440364, 14539.771672
 919.833531, 14552.021619
 920.225975, 14564.339670
 920.618335, 14576.631717
 921.012752, 14588.933522
 921.406136, 14601.257026
 921.800399, 14613.558039
 922.193525, 14625.855074
 922.588037, 14638.132696
 922.982420, 14650.427325
 923.381475, 14654.591814
 923.778656, 14658.730471
 924.177406, 14662.879154
 924.575422, 14667.013880
 924.975795, 14671.166713
 925.374602, 14675.296933
 925.774533, 14679.432411
 926.176363, 14683.581079
 926.579144, 14687.733066
 926.983324, 14691.892939
 927.386454, 14696.035461
 927.788583, 14700.161190
 928.191887, 14704.292437
 928.595450, 14708.419769
 928.999001, 14712.540420
 929.406835, 14716.698111
 929.815136, 14720.853833
 930.223612, 14725.004591
 930.632141, 14729.149116
 931.040670, 14733.286880
 931.450245, 14737.428439
 931.860590, 14741.570935
 932.271483, 14745.712106
 932.684773, 14749.870506
 933.097207, 14754.013339
 933.512041, 14758.173285
 933.924664, 14762.304079
 934.338568, 14766.440699
 934.753310, 14770.578658
 935.169618, 14774.725162
 935.583686, 14778.842297
 935.999377, 14782.968482
 936.416144, 14787.098220
 936.834283, 14791.234373
 937.251356, 14795.352805
 937.671294, 14799.492269
 938.091619, 14803.628275
 938.510792, 14807.745660
 938.932361, 14811.879261
 939.355886, 14816.024623
 939.777131, 14820.140300
 940.198938, 14824.254085
 940.626280, 14828.414323
 941.053290, 14832.563739
 941.482681, 14836.728648
 941.911990, 14840.885084
 942.342080, 14845.041365
 942.772317, 14849.191351
 943.200525, 14853.314080
 943.633433, 14857.474270
 944.067084, 14861.633727
 944.500022, 14865.778496
 944.935950, 14869.943937
 945.372737, 14874.109582
 945.806127, 14878.234905
 946.242078, 14882.376630
 946.680209, 14886.531012
 947.116636, 14890.661187
 947.554883, 14894.800497
 947.993907, 14898.939009
 948.435051, 14903.089302
 948.876543, 14907.234632
 949.317345, 14911.365238
 949.761195, 14915.516076
 950.202277, 14919.632756
 950.646102, 14923.766692
 951.090247, 14927.895222
 951.535089, 14932.021814
 951.983135, 14936.169607
 952.432596, 14940.321900
 952.881094, 14944.456702
 953.329621, 14948.583176
 953.686757, 14951.862697
 953.779441, 14952.712912
 954.229069, 14956.832219
 954.681064, 14960.964487
 955.134190, 14965.098303
 955.586263, 14969.213735
 956.040319, 14973.338372
 956.496407, 14977.472550
 956.954028, 14981.611615
 957.411783, 14985.742874
 957.868624, 14989.856880
 958.327298, 14993.978320
 958.789548, 14998.122708
 959.249478, 15002.237115
 959.713375, 15006.377746
 960.178795, 15010.522603
 960.641116, 15014.630556
 961.106951, 15018.760352
 961.573676, 15022.888592
 962.043175, 15027.031809
 962.511843, 15031.158128
 962.983070, 15035.297331
 963.455779, 15039.439829
 963.931294, 15043.597082
 964.406131, 15047.738557
 964.879252, 15051.855255
 965.356106, 15055.994534
 965.832316, 15060.118284
 966.308348, 15064.230561
 966.786619, 15068.352170
 967.267595, 15072.486955
 967.745946, 15076.589099
 968.232605, 15080.752164
 968.713563, 15084.856223
 969.198879, 15088.987139
 969.684018, 15093.106166
 970.172349, 15097.241804
 970.658142, 15101.345495
 971.146022, 15105.456327
 971.634951, 15109.565423
 972.123064, 15113.657104
 972.612477, 15117.749085
 973.103168, 15121.841089
 973.595715, 15125.937816
 974.087584, 15130.018149
 974.582448, 15134.112476
 975.077029, 15138.193566
 975.574655, 15142.288793
 976.070816, 15146.360971
 976.567788, 15150.428795
 977.066151, 15154.496933
 977.570050, 15158.598970
 978.071462, 15162.669497
 978.576321, 15166.756635
 979.083620, 15170.852031
 979.590440, 15174.932036
 980.097302, 15179.000845
 980.607767, 15183.086926
 981.116621, 15187.148454
 981.626624, 15191.207469
 982.138630, 15195.270647
 982.652928, 15199.340128
 983.165971, 15203.387801
 983.684627, 15207.467676
 984.199899, 15211.508907
 984.719470, 15215.571708
 985.237264, 15219.608470
 985.757568, 15223.652577
 986.276946, 15227.677249
 986.800995, 15231.725730
 987.322940, 15235.745572
 987.844736, 15239.751905
 988.371539, 15243.784125
 988.894049, 15247.771029
 989.422079, 15251.787424
 989.949881, 15255.789405
 990.477291, 15259.775728
 991.004000, 15263.744090
 991.533703, 15267.722243
 992.062016, 15271.677190
 992.597359, 15275.671743
 993.128712, 15279.623572
 993.661560, 15283.573533
 994.195679, 15287.519870
 994.733163, 15291.477864
 995.273775, 15295.445527
 995.812252, 15299.384176
 996.350989, 15303.311397
 996.888147, 15307.213828
 997.433025, 15311.158781
 997.975057, 15315.069566
 998.517238, 15318.967880
 999.068037, 15322.914286
 999.612490, 15326.801465
1000.157834, 15330.681289
1000.709086, 15334.589178
1001.259750, 15338.478872
1001.814690, 15342.384579
1002.367454, 15346.260796
1002.918572, 15350.111381
1003.472512, 15353.967495
1004.022085, 15357.779142
1004.577029, 15361.613812
1005.135866, 15365.460922
1005.701325, 15369.338848
1006.262943, 15373.175710
1006.827892, 15377.020516
1007.390590, 15380.835228
1007.953454, 15384.636296
1008.519992, 15388.447261
1009.084614, 15392.230435
1009.654522, 15396.033925
1010.216249, 15399.767974
1010.782052, 15403.514198
1011.346028, 15407.233418
1011.921168, 15411.010926
1012.495500, 15414.767673
1013.068191, 15418.498281
1013.640371, 15422.210205
1014.216679, 15425.933372
1014.796198, 15429.661559
1015.375700, 15433.373853
1015.954813, 15437.067888
1016.533807, 15440.745388
1017.115540, 15444.424389
1017.703092, 15448.124019
1018.284496, 15451.768916
1018.870064, 15455.423807
1019.448627, 15459.019086
1020.042827, 15462.695085
1020.626428, 15466.289278
1021.215407, 15469.900276
1021.808628, 15473.520690
1022.394072, 15477.077322
1022.984017, 15480.644881
1023.578012, 15484.220269
1024.171170, 15487.773936
1024.768105, 15491.333384
1025.357569, 15494.831695
1025.951888, 15498.342114
1026.545096, 15501.829245
1027.137802, 15505.296719
1027.737886, 15508.790336
1028.339196, 15512.273908
1028.944378, 15515.762529
1029.548808, 15519.229412
1030.152550, 15522.674962
1030.759652, 15526.122172
1031.356428, 15529.493611
1031.968159, 15532.931897
1032.574940, 15536.324707
1033.186602, 15539.727012
1033.794188, 15543.088940
1034.403532, 15546.442861
1035.013464, 15549.782233
1035.623649, 15553.105174
1036.236332, 15556.423778
1036.858720, 15559.776535
1037.467878, 15563.040045
1038.075324, 15566.276663
1038.695264, 15569.561599
1039.314400, 15572.823865
1039.936889, 15576.085238
1040.558548, 15579.323688
1041.176493, 15582.524377
1041.799582, 15585.733119
1042.419872, 15588.908899
1043.043677, 15592.084003
1043.668437, 15595.245184
1044.291108, 15598.377088
1044.917826, 15601.510487
1045.545708, 15604.630716
1046.168044, 15607.704619
1046.799341, 15610.803695
1047.421559, 15613.839379
1048.058075, 15616.925480
1048.695292, 15619.995373
1049.326978, 15623.019253
1049.960683, 15626.033417
1050.588742, 15629.001563
1051.220444, 15631.967677
1051.853545, 15634.920981
1052.489190, 15637.866631
1053.118265, 15640.762570
1053.756590, 15643.681491
1054.393106, 15646.572479
1055.024297, 15649.419882
1055.663995, 15652.285945
1056.305204, 15655.138853
1056.948529, 15657.981127
1057.583438, 15660.766515
1058.225878, 15663.565016
1058.866560, 15666.335891
1059.505036, 15669.077380
1060.149941, 15671.826356
1060.792393, 15674.544767
1061.429143, 15677.219243
1062.074903, 15679.911415
1062.718199, 15682.573130
1063.370348, 15685.250914
1064.022579, 15687.908320
1064.673238, 15690.538672
1065.324947, 15693.152588
1065.969021, 15695.715541
1066.621680, 15698.292030
1067.274960, 15700.850166
1067.922012, 15703.363391
1068.572086, 15705.867785
1069.220679, 15708.345918
1069.877350, 15710.833997
1070.536469, 15713.310173
1071.190971, 15715.748014
1071.841950, 15718.151972
1072.503817, 15720.574909
1073.160848, 15722.958964
1073.825014, 15725.347462
1074.487188, 15727.707323
1075.146213, 15730.034675
1075.802621, 15732.331662
1076.467050, 15734.635251
1077.130879, 15736.915184
1077.791858, 15739.163896
1078.449150, 15741.378861
1079.117181, 15743.608334
1079.777576, 15745.790843
1080.442601, 15747.967066
1081.105233, 15750.113911
1081.771444, 15752.250661
1082.438004, 15754.366764
1083.102915, 15756.455933
1083.764911, 15758.514417
1084.427113, 15760.552042
1085.090907, 15762.572987
1085.758559, 15764.583878
1086.423760, 15766.565644
1087.092926, 15768.537322
1087.763038, 15770.489774
1088.434593, 15772.424323
1089.105311, 15774.334371
1089.775995, 15776.222245
1090.453977, 15778.108223
1091.129901, 15779.966014
1091.801855, 15781.790662
1092.471112, 15783.585951
1093.143017, 15785.366219
1093.823253, 15787.145977
1094.498574, 15788.890396
1095.180531, 15790.629227
1095.858806, 15792.336013
1096.536888, 15794.019724
1097.214745, 15795.680301
1097.887957, 15797.307157
1098.563990, 15798.918423
1099.242797, 15800.513711
1099.918982, 15802.080326
1100.597884, 15803.630636
1101.279158, 15805.163598
1101.957527, 15806.667360
1102.638912, 15808.155047
1103.317180, 15809.613267
1103.999411, 15811.057204
1104.680024, 15812.474925
1105.360650, 15813.869908
1106.044991, 15815.249556
1106.625829, 15816.402483
