Time, Horizontal Forces
   0.000000,    0.000000
   0.000000,    0.000005
   0.000007,    0.000071
   0.000082,    0.000878
   0.000471,    0.005043
   0.002611,    0.027936
   0.007883,    0.084309
   0.016021,    0.171325
   0.027016,    0.288840
   0.040922,    0.437426
   0.057780,    0.617495
   0.077586,    0.828988
   0.100326,    1.071746
   0.125942,    1.345111
   0.154713,    1.652063
   0.186823,    1.994525
   0.222045,    2.370060
   0.260756,    2.782664
   0.302570,    3.228196
   0.347923,    3.711282
   0.396709,    4.230770
   0.449072,    4.788175
   0.505139,    5.384802
   0.565818,    6.030291
   0.629321,    6.705606
   0.696192,    7.416493
   0.767836,    8.177865
   0.842671,    8.972879
   0.922055,    9.815923
   1.006500,   10.712413
   1.095504,   11.656966
   1.189311,   12.652137
   1.287386,   13.692218
   1.389598,   14.775779
   1.495618,   15.899297
   1.607014,   17.079368
   1.724723,   18.325850
   1.846153,   19.611259
   1.972630,   20.949583
   2.107465,   22.375815
   2.244878,   23.828754
   2.390951,   25.372657
   2.541755,   26.965942
   2.696714,   28.602476
   2.860361,   30.330074
   3.029808,   32.118179
   3.206675,   33.983811
   3.388884,   35.905007
   3.575572,   37.872606
   3.771163,   39.933184
   3.972625,   42.054718
   4.179952,   44.237092
   4.393994,   46.489178
   4.613086,   48.793412
   4.840682,   51.186062
   5.075485,   53.653390
   5.320203,   56.223768
   5.568898,   58.834759
   5.828049,   61.554307
   6.097646,   64.382186
   6.369353,   67.230891
   6.654390,   70.217979
   6.944175,   73.253408
   7.242556,   76.377424
   7.553601,   79.632487
   7.870306,   82.945196
   8.195511,   86.345186
   8.527551,   89.814952
   8.870135,   93.393172
   9.222438,   97.071098
   9.587628,  100.881664
   9.959421,  104.759174
  10.339511,  108.721232
  10.731027,  112.800333
  11.132951,  116.985719
  11.543166,  121.255253
  11.961975,  125.611975
  12.395725,  130.121761
  12.834698,  134.683464
  13.285572,  139.366351
  13.747262,  144.159042
  14.217976,  149.042785
  14.698218,  154.022706
  15.197074,  159.192830
  15.699039,  164.392333
  16.215408,  169.738087
  16.748197,  175.250768
  17.289480,  180.848175
  17.843884,  186.578044
  18.404680,  192.370684
  18.988049,  198.393035
  19.574672,  204.445490
  20.173425,  210.619527
  20.783393,  216.905553
  21.401260,  223.269299
  22.039416,  229.838144
  22.688402,  236.514514
  23.350597,  243.322719
  24.023375,  250.235585
  24.708915,  257.275351
  24.848461,  258.707819
  24.918110,  259.422719
  24.960115,  259.853843
  24.987430,  260.134192
  25.081498,  261.099603
  25.082059,  261.105357
  25.082987,  261.114890
  25.083383,  261.118946
  25.083495,  261.120099
  25.083548,  261.120639
  25.083601,  261.121189
  25.084137,  261.126687
  25.088672,  261.173230
  25.116551,  261.459330
  25.219963,  262.520492
  25.527125,  265.671720
  26.141405,  271.970529
  26.785931,  278.574907
  27.447079,  285.344835
  28.115090,  292.180169
  28.795350,  299.135871
  29.485894,  306.191657
  30.187059,  313.350807
  30.898280,  320.607385
  31.625886,  328.025724
  32.364925,  335.555091
  33.122314,  343.265692
  33.887918,  351.054098
  34.664240,  358.945628
  35.453035,  366.957921
  36.253324,  375.080827
  37.061997,  383.282617
  37.887845,  391.652222
  38.726487,  400.144970
  39.568639,  408.666722
  40.432427,  417.400665
  41.301106,  426.177260
  42.184307,  435.093647
  43.076800,  444.096820
  43.989895,  453.300583
  44.913626,  462.604197
  45.848172,  472.009286
  46.797072,  481.551219
  47.758548,  491.211886
  48.728286,  500.947765
  49.715617,  510.852302
  50.715006,  520.869692
  51.729581,  531.031033
  52.759859,  541.341201
  53.800502,  551.746545
  54.861502,  562.346686
  55.940737,  573.120008
  57.025220,  583.936683
  58.120526,  594.852196
  59.239747,  605.996655
  60.369394,  617.235423
  61.517558,  628.648703
  62.678802,  640.182148
  63.844125,  651.746218
  65.034125,  663.545065
  66.232218,  675.413911
  67.455031,  687.517142
  68.684252,  699.673223
  69.936302,  712.044239
  71.197192,  724.491666
  72.473338,  737.078623
  73.766415,  749.821313
  75.076415,  762.719302
  76.403491,  775.773769
  77.734368,  788.853923
  79.090532,  802.170679
  80.452946,  815.536772
  81.833859,  829.072154
  83.234743,  842.790840
  84.649742,  856.635140
  86.076075,  870.577599
  87.529580,  884.772635
  89.002517,  899.144124
  90.487151,  913.616286
  91.983098,  928.185183
  93.490940,  942.856275
  95.029204,  957.809353
  96.585428,  972.922746
  98.148737,  988.090584
  99.729079, 1003.409186
 101.324331, 1018.857643
 102.941287, 1034.501364
 103.265878, 1037.639910
 103.458075, 1039.498029
 103.568907, 1040.569433
 103.670897, 1041.555295
 103.750633, 1042.326014
 103.815717, 1042.955072
 103.862810, 1043.410228
 103.908576, 1043.852550
 103.960808, 1044.357349
 103.970275, 1044.448834
 103.972680, 1044.472081
 103.973243, 1044.477519
 103.973543, 1044.480422
 103.973675, 1044.481699
 103.973835, 1044.483243
 103.975433, 1044.498683
 103.991410, 1044.653096
 104.104923, 1045.750051
 104.512434, 1049.687384
 105.920854, 1063.286270
 107.399548, 1077.548535
 108.888289, 1091.892130
 110.397087, 1106.413142
 111.913332, 1120.989888
 113.444042, 1135.689617
 114.980652, 1150.429854
 116.546503, 1165.434075
 118.122274, 1180.516630
 119.709281, 1195.689893
 121.305428, 1210.933622
 122.924303, 1226.377207
 124.551241, 1241.880357
 126.193184, 1257.508984
 127.856354, 1273.321848
 129.529032, 1289.207157
 131.216982, 1305.219386
 132.918510, 1321.342097
 134.630181, 1337.542505
 136.359853, 1353.894641
 138.111584, 1370.436352
 139.881820, 1387.133537
 141.656321, 1403.851651
 143.451338, 1420.743503
 145.260899, 1437.752461
 147.084571, 1454.874119
 148.920652, 1472.092196
 150.771945, 1489.432641
 152.644271, 1506.949529
 154.530512, 1524.575805
 156.437327, 1542.373269
 158.353374, 1560.235707
 160.280389, 1578.179091
 162.228984, 1596.301835
 164.199367, 1614.605294
 166.177699, 1632.960553
 168.179261, 1651.509010
 170.188575, 1670.106844
 172.217971, 1688.867867
 174.265273, 1707.771466
 176.323559, 1726.753370
 178.395849, 1745.841164
 180.478634, 1765.002262
 182.589947, 1784.402037
 184.709407, 1803.852754
 186.847517, 1823.450483
 188.999008, 1843.146549
 191.170846, 1863.004286
 193.354765, 1882.947718
 195.557972, 1903.042277
 197.785531, 1923.333550
 200.028555, 1943.740060
 202.289230, 1964.281285
 204.561836, 1984.904881
 206.857959, 2005.715551
 209.160254, 2026.555723
 211.485733, 2047.579050
 213.824874, 2068.698963
 216.184489, 2089.976546
 218.564823, 2111.413443
 220.954382, 2132.905781
 223.374309, 2154.643214
 225.802736, 2176.428780
 228.246820, 2198.326435
 230.714584, 2220.407536
 233.196805, 2242.589057
 235.698407, 2264.914575
 238.223447, 2287.419710
 240.757637, 2309.976717
 243.307499, 2332.643385
 243.819123, 2337.187808
 244.160930, 2340.223184
 245.234459, 2349.753081
 245.255574, 2349.940471
 245.260895, 2349.987694
 245.269421, 2350.063362
 245.270580, 2350.073640
 245.271239, 2350.079493
 245.271652, 2350.083158
 245.272031, 2350.086523
 245.275823, 2350.120168
 245.308995, 2350.414554
 245.489763, 2352.018658
 246.397362, 2360.069622
 248.642360, 2379.963512
 250.910951, 2400.036765
 253.194482, 2420.212196
 255.489820, 2440.461765
 257.796429, 2460.780447
 260.112136, 2481.148850
 262.444877, 2501.636435
 264.792560, 2522.224357
 267.152670, 2542.890178
 269.527490, 2563.653515
 271.920292, 2584.542492
 274.327732, 2605.527434
 276.754404, 2626.647884
 279.196508, 2647.870231
 281.639954, 2669.071886
 284.109086, 2690.463694
 286.587877, 2711.906277
 289.079199, 2733.424193
 291.592865, 2755.101694
 294.118875, 2776.851996
 296.647416, 2798.590498
 299.192465, 2820.437149
 301.757769, 2842.423555
 304.342926, 2864.545634
 306.942795, 2886.758878
 309.557182, 2909.061225
 312.176347, 2931.369372
 314.815464, 2953.812240
 317.466208, 2976.318575
 320.132569, 2998.921897
 322.817880, 3021.649937
 325.520222, 3044.485907
 328.230660, 3067.353987
 330.963415, 3090.373727
 333.704471, 3113.426622
 336.468821, 3136.638306
 339.248237, 3159.939119
 342.033247, 3183.249408
 344.844506, 3206.741607
 347.663742, 3230.262509
 350.492407, 3253.824064
 353.334963, 3277.463160
 356.196160, 3301.218831
 359.073472, 3325.069592
 361.965013, 3348.999373
 364.876543, 3373.055343
 367.798876, 3397.161181
 370.741193, 3421.392183
 373.695465, 3445.681771
 376.672141, 3470.115353
 379.647749, 3494.500030
 382.645542, 3519.026103
 385.664177, 3543.681926
 388.695286, 3568.398659
 391.744345, 3593.220544
 394.807075, 3618.112291
 397.895053, 3643.167401
 400.984272, 3668.190743
 404.087347, 3693.284399
 407.216091, 3718.543292
 410.358140, 3743.867015
 413.516237, 3769.277279
 416.692282, 3794.788873
 419.882047, 3820.367403
 423.087385, 3846.027338
 426.311910, 3871.797094
 429.545002, 3897.591444
 432.802710, 3923.537960
 436.070654, 3949.521602
 439.358729, 3975.620637
 442.666954, 4001.834605
 445.986607, 4028.093957
 449.316383, 4054.388130
 452.668690, 4080.814667
 456.031707, 4107.279892
 459.419409, 4133.893289
 462.816887, 4160.537233
 463.500268, 4165.890913
 463.991797, 4169.740450
 464.329741, 4172.386590
 464.642615, 4174.836025
 464.904321, 4176.884576
 464.952813, 4177.264120
 465.008249, 4177.698015
 465.020106, 4177.790816
 465.031843, 4177.882674
 465.035901, 4177.914434
 465.037453, 4177.926581
 465.039173, 4177.940040
 465.056369, 4178.074628
 465.197834, 4179.181774
 465.963858, 4185.175476
 468.810677, 4207.429574
 472.227554, 4234.097085
 475.673722, 4260.946079
 479.138752, 4287.894517
 482.604102, 4314.798032
 486.092738, 4341.834642
 489.599800, 4368.966039
 493.128471, 4396.216256
 496.674129, 4423.549014
 500.224997, 4450.873287
 503.801621, 4478.346774
 507.396981, 4505.914854
 510.995201, 4533.455565
 514.609631, 4561.070922
 518.246373, 4588.806985
 521.897149, 4616.600079
 525.566409, 4644.483652
 529.253570, 4672.452744
 532.958511, 4700.505931
 536.673319, 4728.582955
 540.412163, 4756.790441
 544.167612, 4785.071709
 547.932129, 4813.369703
 551.718431, 4841.779610
 555.522072, 4870.267500
 559.340358, 4898.812770
 563.178382, 4927.453015
 567.036967, 4956.193780
 570.907534, 4984.970726
 574.798944, 5013.849290
 578.708079, 5042.805781
 582.627476, 5071.784570
 586.567398, 5100.861145
 590.532868, 5130.071860
 594.507978, 5159.299044
 598.500367, 5188.598556
 602.505612, 5217.937541
 606.535368, 5247.400862
 610.575486, 5276.884580
 614.631440, 5306.428346
 618.706842, 5336.057989
 622.797647, 5365.743618
 626.902631, 5395.475999
 631.027386, 5425.295165
 635.183907, 5455.287026
 639.346251, 5485.263859
 643.521000, 5515.272930
 647.714792, 5545.361566
 651.924416, 5575.506256
 656.166071, 5605.822256
 660.409120, 5636.090172
 664.678835, 5666.489943
 664.967817, 5668.545344
 668.963366, 5696.936605
 673.262209, 5783.968847
 677.582682, 5875.334213
 681.917670, 5966.970553
 686.289143, 6066.199648
 690.675101, 6167.923143
 695.073570, 6269.799802
 699.497039, 6371.889338
 703.941253, 6482.343001
 708.395109, 6595.265667
 712.878676, 6708.380384
 717.375034, 6821.906234
 721.883566, 6943.031102
 726.419429, 7068.332272
 730.954866, 7193.913615
 735.508572, 7319.373060
 740.077775, 7448.914150
 744.677960, 7585.011246
 749.282291, 7721.503061
 753.896152, 7857.852558
 758.526265, 7994.228599
 763.166859, 8139.664493
 767.818097, 8285.558917
 772.484386, 8431.469612
 777.155953, 8577.403579
 781.847123, 8729.069088
 786.542973, 8892.677338
 787.485451, 9021.289396
 788.358760, 9053.202234
 788.683032, 9078.228159
 789.007469, 9089.386418
 789.072387, 9098.153875
 789.259250, 9101.509749
 789.262199, 9106.238692
 789.266411, 9106.351692
 789.267314, 9106.465944
 789.267639, 9106.491663
 789.268011, 9106.503259
 789.270482, 9106.535392
 789.283259, 9106.715364
 789.333685, 9107.501637
 789.469207, 9110.019399
 789.690292, 9115.466356
 790.014201, 9124.012965
 790.338547, 9135.147980
 790.663164, 9146.293206
 790.988565, 9157.449170
 791.314197, 9168.623634
 791.639991, 9179.802013
 791.965915, 9190.982287
 792.292226, 9202.165988
 792.617206, 9213.343659
 792.942316, 9224.485712
 793.268711, 9235.639433
 793.595606, 9246.826445
 793.923061, 9258.027627
 794.250741, 9269.241340
 794.578340, 9280.456303
 794.906607, 9291.671792
 795.234999, 9302.901488
 795.563038, 9314.127344
 795.891986, 9325.349119
 796.221244, 9336.592695
 796.550817, 9347.843129
 796.880702, 9359.100514
 797.209856, 9370.355087
 797.539956, 9381.596368
 797.869143, 9392.848864
 798.200018, 9404.090430
 798.531410, 9415.374766
 798.863071, 9426.890430
 799.192981, 9438.663179
 799.525204, 9450.407202
 799.857335, 9462.206971
 800.188822, 9473.994142
 800.521856, 9485.774499
 800.855000, 9497.592170
 801.188162, 9509.408601
 801.521890, 9521.226412
 801.856241, 9533.060454
 802.190830, 9544.908605
 802.524934, 9556.754043
 802.859611, 9568.587632
 803.194311, 9580.431930
 803.528590, 9592.268403
 803.862758, 9604.088318
 804.199411, 9615.923796
 804.535815, 9627.817185
 804.873037, 9639.706986
 805.210660, 9651.617123
 805.547169, 9663.522622
 805.885571, 9675.411913
 806.223888, 9687.344862
 806.562061, 9699.269409
 806.901421, 9711.196375
 807.239101, 9723.133662
 807.577748, 9735.031383
 807.918003, 9746.964153
 808.258604, 9758.936833
 808.599629, 9770.917319
 808.939017, 9782.888561
 809.280545, 9794.832122
 809.622895, 9806.833514
 809.965792, 9818.856030
 810.309339, 9830.893453
 810.649953, 9842.915212
 810.993768, 9854.885567
 811.336323, 9866.921569
 811.680620, 9878.935786
 812.023747, 9890.978674
 812.369246, 9903.007903
 812.712720, 9915.074019
 813.058009, 9927.099232
 813.404167, 9939.173605
 813.750703, 9951.268214
 814.097846, 9963.372459
 814.445955, 9975.495486
 814.794100, 9987.637872
 815.141499, 9999.768516
 815.489020, 10011.875296
 815.839095, 10024.002911
 816.187112, 10036.171066
 816.537315, 10048.300712
 816.888845, 10060.492519
 817.240292, 10072.711407
 817.590644, 10084.912003
 817.942030, 10097.087979
 818.292602, 10109.276724
 818.645283, 10121.457888
 818.999495, 10133.700629
 819.351915, 10145.959617
 819.705468, 10158.176969
 820.055631, 10170.385711
 820.411636, 10182.555391
 820.765108, 10194.843960
 821.121913, 10198.112207
 821.478414, 10201.374186
 821.834556, 10204.629406
 822.191878, 10207.891916
 822.549467, 10211.153366
 822.907309, 10214.413592
 823.266705, 10217.684432
 823.627411, 10220.963617
 823.987385, 10224.232559
 824.347238, 10227.496823
 824.706783, 10230.754707
 825.067265, 10234.017482
 825.428164, 10237.280420
 825.791241, 10240.559381
 826.152910, 10243.821980
 826.517250, 10247.104981
 826.881875, 10250.386839
 827.246017, 10253.660636
 827.610386, 10256.932745
 827.974336, 10260.197373
 828.339939, 10263.473086
 828.706051, 10266.749577
 829.070723, 10270.009424
 829.437443, 10273.283797
 829.804734, 10276.559457
 830.171239, 10279.824289
 830.538886, 10283.095472
 830.906634, 10286.363712
 831.275686, 10289.639670
 831.645262, 10292.916396
 832.015966, 10296.199206
 832.385941, 10299.471644
 832.757302, 10302.752398
 833.128418, 10306.027050
 833.499824, 10309.300299
 833.873455, 10312.589155
 834.247141, 10315.874479
 834.620515, 10319.153050
 834.994111, 10322.429533
 835.367293, 10325.698356
 835.742370, 10328.979728
 836.115558, 10332.240524
 836.490737, 10335.514635
 836.867146, 10338.795374
 837.243819, 10342.074294
 837.623738, 10345.377270
 838.003123, 10348.671405
 838.381957, 10351.956566
 838.761124, 10355.240396
 839.140840, 10358.524765
 839.521059, 10361.809244
 839.904094, 10365.113757
 840.287107, 10368.413762
 840.669194, 10371.701481
 841.052109, 10374.992004
 841.434547, 10378.274101
 841.818844, 10381.567800
 842.203121, 10384.856950
 842.590598, 10388.169050
 842.978239, 10391.478094
 843.365805, 10394.782025
 843.752366, 10398.072929
 844.141553, 10401.381689
 844.531453, 10404.691983
 844.920042, 10407.986614
 845.308530, 10411.275871
 845.699247, 10414.579435
 846.093096, 10417.904842
 846.486041, 10421.217964
 846.878757, 10424.524519
 847.272204, 10427.832563
 847.667664, 10431.152824
 848.063251, 10434.469420
 848.459136, 10437.783774
 848.855046, 10441.093587
 849.249708, 10444.388233
 849.648055, 10447.708846
 850.047655, 10451.035043
 850.448721, 10454.368563
 850.740545, 10456.791013
 850.847552, 10457.678635
 851.248550, 10461.001801
 851.650954, 10464.331666
 852.053005, 10467.653662
 852.456173, 10470.979917
 852.859529, 10474.302723
 853.262937, 10477.620955
 853.664658, 10480.920331
 854.070406, 10484.247733
 854.473980, 10487.552270
 854.880962, 10490.879624
 855.288779, 10494.208655
 855.697257, 10497.537921
 856.104986, 10500.855923
 856.512307, 10504.165447
 856.919107, 10507.465589
 857.330117, 10510.794654
 857.741155, 10514.118685
 858.153223, 10517.445753
 858.566155, 10520.774465
 858.980851, 10524.112040
 859.394845, 10527.438587
 859.809368, 10530.763995
 860.224052, 10534.085303
 860.639071, 10537.403873
 861.054911, 10540.723577
 861.472031, 10544.048027
 861.890595, 10547.378463
 862.310521, 10550.714169
 862.731861, 10554.055506
 863.154442, 10557.401038
 863.576251, 10560.734815
 863.998267, 10564.064570
 864.423658, 10567.415227
 864.847615, 10570.748860
 865.274313, 10574.098263
 865.700553, 10577.438266
 866.126290, 10580.768540
 866.556278, 10584.126186
 866.985867, 10587.474804
 867.415383, 10590.816944
 867.845905, 10594.160968
 868.276104, 10597.496535
 868.708725, 10600.844875
 869.140451, 10604.180278
 869.576537, 10607.543268
 870.012846, 10610.901835
 870.446832, 10614.236417
 870.884445, 10617.592692
 871.319061, 10620.919844
 871.756899, 10624.265471
 872.193985, 10627.599138
 872.632207, 10630.935242
 873.070710, 10634.267225
 873.513333, 10637.624162
 873.956834, 10640.981347
 874.400492, 10644.333297
 874.844860, 10647.684162
 875.289620, 10651.031502
 875.734848, 10654.375885
 876.184686, 10657.748283
 876.633802, 10661.108639
 877.082341, 10664.458063
 877.532087, 10667.809850
 877.982566, 10671.160414
 878.433219, 10674.505581
 878.887957, 10677.874266
 879.339902, 10681.215485
 879.794161, 10684.567003
 880.245220, 10687.888140
 880.701407, 10691.240174
 881.159159, 10694.596760
 881.614355, 10697.927692
 882.072952, 10701.276540
 882.534446, 10704.639465
 882.994437, 10707.984370
 883.457255, 10711.342701
 883.919050, 10714.686467
 884.379512, 10718.013480
 884.844358, 10721.364960
 885.310555, 10724.718906
 885.777754, 10728.072733
 886.245476, 10731.422970
 886.714606, 10734.775901
 887.184203, 10738.124741
 887.652873, 10741.459552
 888.123872, 10744.803472
 888.596293, 10748.149952
 889.069097, 10751.491587
 889.543247, 10754.835133
 890.017522, 10758.171938
 890.493877, 10761.515693
 890.972369, 10764.866684
 891.452438, 10768.220896
 891.931618, 10771.561080
 892.409608, 10774.885162
 892.892330, 10778.234248
 893.374647, 10781.572574
 893.860088, 10784.924491
 894.343580, 10788.254936
 894.831197, 10791.605689
 895.316950, 10794.935517
 895.803820, 10798.264882
 896.293957, 10801.608355
 896.782697, 10804.934075
 897.273072, 10808.262652
 897.764624, 10811.590902
 898.254797, 10814.901518
 898.749174, 10818.232118
 899.243593, 10821.554550
 899.740672, 10824.886328
 900.235296, 10828.193154
 900.730890, 10831.497960
 901.229199, 10834.812280
 901.729354, 10838.130191
 902.228191, 10841.430702
 902.728166, 10844.730049
 903.231582, 10848.043300
 903.733718, 10851.339324
 904.237947, 10854.640226
 904.744920, 10857.950137
 905.249575, 10861.235984
 905.759700, 10864.548379
 906.265723, 10867.825128
 906.776079, 10871.120839
 907.288803, 10874.422630
 907.800335, 10877.707538
 908.313752, 10880.995294
 908.823663, 10884.251410
 909.338923, 10887.532373
 909.852405, 10890.792692
 910.371377, 10894.078415
 910.890248, 10897.353974
 911.411131, 10900.632657
 911.929621, 10903.886731
 912.449235, 10907.138301
 912.969317, 10910.383208
 913.492172, 10913.635731
 914.014535, 10916.875492
 914.539564, 10920.122008
 915.063629, 10923.352770
 915.587586, 10926.573078
 916.113105, 10929.793152
 916.642982, 10933.029947
 917.170475, 10936.242208
 917.702607, 10939.472633
 918.231010, 10942.670395
 918.760753, 10945.866218
 919.299081, 10949.103523
 919.830790, 10952.290812
 920.367982, 10955.500653
 920.900765, 10958.673896
 921.439635, 10961.873006
 921.979190, 10965.065702
 922.519948, 10968.254984
 923.061489, 10971.438306
 923.601951, 10974.604728
 924.147714, 10977.791492
 924.694114, 10980.971184
 925.237346, 10984.121722
 925.784711, 10987.285413
 926.334331, 10990.451206
 926.879394, 10993.579918
 927.430473, 10996.732194
 927.983365, 10999.883738
 928.533587, 11003.009026
 929.085306, 11006.131743
 929.638016, 11009.248942
 930.194363, 11012.375399
 930.748403, 11015.477665
 931.305107, 11018.583543
 931.866458, 11021.703880
 932.427950, 11024.813460
 932.986301, 11027.894193
 933.544443, 11030.962356
 934.109659, 11034.057752
 934.671689, 11037.124075
 935.233143, 11040.175663
 935.798453, 11043.236504
 936.369820, 11046.318185
 936.932199, 11049.339650
 937.501779, 11052.387923
 938.070120, 11055.417636
 938.639947, 11058.443300
 939.211626, 11061.466742
 939.783597, 11064.479640
 940.360123, 11067.504283
 940.933846, 11070.502000
 941.509572, 11073.497929
 942.088454, 11076.497885
 942.670036, 11079.499315
 943.247443, 11082.466769
 943.825673, 11085.426039
 944.403519, 11088.370917
 944.986854, 11091.331170
 945.563568, 11094.245367
 946.152355, 11097.207779
 946.738586, 11100.144485
 947.319510, 11103.041955
 947.905926, 11105.954031
 948.494704, 11108.864909
 949.081513, 11111.753155
 949.670868, 11114.640959
 950.252091, 11117.476174
 950.837512, 11120.319072
 951.426090, 11123.164342
 952.019675, 11126.020650
 952.612582, 11128.860488
 953.208737, 11131.702565
 953.807557, 11134.543894
 954.403160, 11137.356570
 954.995900, 11140.142469
 955.589353, 11142.918461
 956.186068, 11145.696318
 956.783145, 11148.462420
 957.387695, 11151.249432
 957.988632, 11154.006101
 958.589317, 11156.747979
 959.192254, 11159.486410
 959.798146, 11162.224404
 960.405852, 11164.956635
 961.009918, 11167.658631
 961.616263, 11170.356908
 962.223086, 11173.043350
 962.827901, 11175.706993
 963.428300, 11178.337442
 964.036335, 11180.987389
 964.649807, 11183.646782
 965.255081, 11186.256603
 965.867752, 11188.884119
 966.482198, 11191.504881
 967.096803, 11194.111928
 967.711758, 11196.706045
 968.326052, 11199.282962
 968.937397, 11201.833209
 969.556214, 11204.400086
 970.165572, 11206.913425
 970.788245, 11209.467014
 971.400805, 11211.964651
 972.021428, 11214.480519
 972.637726, 11216.964254
 973.255395, 11219.438912
 973.873419, 11221.900351
 974.493826, 11224.356541
 975.117351, 11226.810193
 975.740910, 11229.249047
 976.358558, 11231.650054
 976.984981, 11234.070198
 977.614777, 11236.488157
 978.240673, 11238.876024
 978.871688, 11241.268152
 979.499599, 11243.633291
 980.130994, 11245.996236
 980.762547, 11248.344394
 981.388682, 11250.657222
 982.016994, 11252.962885
 982.646575, 11255.257920
 983.269067, 11257.512061
 983.905965, 11259.802869
 984.540656, 11262.070144
 985.170190, 11264.303604
 985.800926, 11266.525951
 986.440157, 11268.762517
 987.078359, 11270.979697
 987.718820, 11273.188863
 988.353429, 11275.362159
 988.987872, 11277.519281
 989.626455, 11279.674712
 990.268259, 11281.825070
 990.907085, 11283.949573
 991.553088, 11286.081825
 992.200075, 11288.201072
 992.843347, 11290.292022
 993.492028, 11292.384262
 994.139021, 11294.454754
 994.775608, 11296.476047
 995.418036, 11298.499895
 996.062950, 11300.515409
 996.711661, 11302.526445
 997.356270, 11304.508521
 998.004036, 11306.483986
 998.647701, 11308.430740
 999.297063, 11310.378345
 999.943786, 11312.301683
1000.602845, 11314.244910
1001.251571, 11316.141107
1001.901280, 11318.023700
1002.558782, 11319.912086
1003.213927, 11321.776893
1003.863771, 11323.610035
1004.517961, 11325.438753
1005.169035, 11327.242139
1005.820142, 11329.029024
1006.476638, 11330.813900
1007.124224, 11332.558019
1007.784955, 11334.320611
1008.438285, 11336.046642
1009.100166, 11337.778208
1009.714017, 11339.368771
