Time, Horizontal Forces
   0.000000,    0.000000
   0.000001,    0.000009
   0.000010,    0.000158
   0.000165,    0.002614
   0.000906,    0.014351
   0.003878,    0.061452
   0.009197,    0.145708
   0.016801,    0.266115
   0.026649,    0.422029
   0.038817,    0.614611
   0.053367,    0.844839
   0.070270,    1.112231
   0.089427,    1.415191
   0.111137,    1.758425
   0.135183,    2.138484
   0.161653,    2.556751
   0.190899,    3.018737
   0.222436,    3.516779
   0.256730,    4.058214
   0.293710,    4.641874
   0.332874,    5.259836
   0.374826,    5.921594
   0.420181,    6.636823
   0.468295,    7.395338
   0.519009,    8.194594
   0.573030,    9.045727
   0.629770,    9.939430
   0.689907,   10.886344
   0.752710,   11.874926
   0.819295,   12.922722
   0.888689,   14.014392
   0.961195,   15.154645
   1.037710,   16.357576
   1.117281,   17.608157
   1.200804,   18.920404
   1.288183,   20.292810
   1.379665,   21.729179
   1.473406,   23.200510
   1.570169,   24.718793
   1.671274,   26.304676
   1.776728,   27.958207
   1.887692,   29.697542
   2.002431,   31.495431
   2.121006,   33.352775
   2.244075,   35.279837
   2.371810,   37.279243
   2.504607,   39.357139
   2.640912,   41.489144
   2.782805,   43.707748
   2.928371,   45.982949
   3.078173,   48.323489
   3.235231,   50.776464
   3.397406,   53.308402
   3.562111,   55.878856
   3.732541,   58.537634
   3.907539,   61.266625
   4.091574,   64.135416
   4.278486,   67.047885
   4.470909,   70.045042
   4.667243,   73.101890
   4.870426,   76.264081
   5.079616,   79.518451
   5.294193,   82.855245
   5.514990,   86.287344
   5.740566,   89.792250
   5.971629,   93.380925
   6.208607,   97.059897
   6.456622,  100.908575
   6.706495,  104.784387
   6.963874,  108.774896
   7.226829,  112.850069
   7.496465,  117.026942
   7.774878,  121.337867
   8.059158,  125.737626
   8.349294,  130.226001
   8.649138,  134.862442
   8.952195,  139.546395
   9.261746,  144.328509
   9.582220,  149.277065
   9.907815,  154.302319
  10.239774,  159.423363
  10.583311,  164.720497
  10.928569,  170.041603
  11.281768,  175.482478
  11.642269,  181.033138
  12.010671,  186.702690
  12.389360,  192.527676
  12.771389,  198.401111
  13.161104,  204.389740
  13.567929,  210.638145
  13.977958,  216.932524
  14.393994,  223.315865
  14.821963,  229.878899
  15.256141,  236.533685
  15.698965,  243.317457
  16.150205,  250.226500
  16.612735,  257.304655
  17.082660,  264.492131
  17.557448,  271.750095
  18.043880,  279.182027
  18.534084,  286.667547
  19.035959,  294.327117
  19.545728,  302.102891
  20.066775,  310.046305
  20.593832,  318.076880
  21.131081,  326.258164
  21.681736,  334.638874
  22.244016,  343.191618
  22.811716,  351.821860
  23.386520,  360.555073
  23.973538,  369.468700
  24.577856,  378.639641
  24.698939,  380.476500
  24.798636,  381.988779
  25.103839,  386.617396
  25.108509,  386.688213
  25.112574,  386.749849
  25.113470,  386.763435
  25.113910,  386.770105
  25.114706,  386.782183
  25.114810,  386.783751
  25.114870,  386.784667
  25.114926,  386.785506
  25.115479,  386.793895
  25.120447,  386.869229
  25.152281,  387.351930
  25.279337,  389.278284
  25.673277,  395.249092
  26.264771,  404.208867
  26.844688,  412.987136
  27.429127,  421.827778
  28.028125,  430.882380
  28.629911,  439.972795
  29.245352,  449.262975
  29.870629,  458.694981
  30.503840,  468.239884
  31.146934,  477.926837
  31.800066,  487.757926
  32.458399,  497.660183
  33.123687,  507.659823
  33.801557,  517.841184
  34.488694,  528.154205
  35.186614,  538.621355
  35.893623,  549.216961
  36.614023,  560.005226
  37.335990,  570.808872
  38.071039,  581.800059
  38.814894,  592.914532
  39.565626,  604.123277
  40.327566,  615.490746
  41.102904,  627.049258
  41.887439,  638.735862
  42.675608,  650.467558
  43.478260,  662.405590
  44.292672,  674.509082
  45.113610,  686.700016
  45.941456,  698.983898
  46.785475,  711.497887
  47.638233,  724.131395
  48.501588,  736.911705
  49.372286,  749.790400
  50.254449,  762.828201
  51.142663,  775.944860
  52.046696,  789.284311
  52.962047,  802.779760
  53.880411,  816.308564
  54.809296,  829.981195
  55.751913,  843.844533
  56.705841,  857.862620
  57.671234,  872.037391
  58.650170,  886.398982
  59.633674,  900.815495
  60.632449,  915.443521
  61.644203,  930.249071
  62.669200,  945.235589
  63.702929,  960.336847
  64.749582,  975.613724
  65.804696,  991.000793
  66.866533, 1006.472512
  67.944999, 1022.172885
  69.025887, 1037.894796
  70.124255, 1053.857004
  71.232793, 1069.952830
  72.352021, 1086.189550
  73.487722, 1102.650602
  74.634906, 1119.263248
  75.790774, 1135.986657
  76.959483, 1152.880642
  78.144415, 1169.993639
  79.341050, 1187.259922
  80.543252, 1204.590713
  81.756680, 1222.067392
  82.983465, 1239.720241
  84.219771, 1257.493719
  85.468472, 1275.428836
  86.731270, 1293.549607
  88.011320, 1311.900769
  89.305378, 1330.435332
  90.606500, 1349.053490
  91.914189, 1367.747979
  93.232949, 1386.582948
  94.573382, 1405.709274
  95.917871, 1424.875155
  97.278426, 1444.251513
  98.652852, 1463.806575
 100.033656, 1483.433446
 101.432892, 1503.303070
 102.847364, 1523.369467
 104.274395, 1543.594229
 104.331804, 1544.407440
 104.380892, 1545.102769
 104.428592, 1545.778413
 104.486914, 1546.604483
 104.499953, 1546.789148
 104.515657, 1547.011572
 104.518984, 1547.058698
 104.520606, 1547.081674
 104.523851, 1547.127628
 104.524217, 1547.132812
 104.524429, 1547.135815
 104.526549, 1547.165848
 104.529199, 1547.203377
 104.555698, 1547.578686
 104.704837, 1549.690785
 105.233085, 1557.169699
 106.462419, 1574.561751
 107.789108, 1593.311131
 109.127921, 1612.210949
 110.475074, 1631.207420
 111.833982, 1650.348340
 113.196882, 1669.524113
 114.578508, 1688.941653
 115.970095, 1708.477219
 117.373348, 1728.154349
 118.784784, 1747.923870
 120.209030, 1767.850213
 121.639144, 1787.835950
 123.084385, 1808.010086
 124.538332, 1828.282561
 126.008637, 1848.759589
 127.486492, 1869.318057
 128.971896, 1889.957742
 130.473043, 1910.792046
 131.982619, 1931.719026
 133.501065, 1952.744496
 135.035527, 1973.966941
 136.577192, 1995.264058
 138.130599, 2016.698219
 139.702251, 2038.358545
 141.282079, 2060.105773
 142.877756, 2082.045084
 144.477184, 2104.009779
 146.086367, 2126.082135
 147.715595, 2148.402698
 149.357840, 2170.874512
 151.004513, 2193.379760
 152.673304, 2216.159694
 154.347321, 2238.983196
 156.035869, 2261.976789
 157.733772, 2285.069547
 159.438942, 2308.232784
 161.152497, 2331.481463
 162.887646, 2354.994187
 164.631627, 2378.597401
 166.389627, 2402.360893
 168.158128, 2426.236631
 169.936827, 2450.220178
 171.736138, 2474.451301
 173.543857, 2498.765084
 175.364172, 2523.217461
 177.188453, 2547.692269
 179.026379, 2572.319039
 180.883758, 2597.174936
 182.752174, 2622.146689
 184.631112, 2647.227032
 186.523413, 2672.453439
 188.423758, 2697.754610
 190.341490, 2723.254453
 192.268390, 2748.843137
 194.209932, 2774.592927
 196.159725, 2800.418609
 198.119644, 2826.344743
 200.095890, 2852.452807
 202.085889, 2878.708186
 204.089450, 2905.107840
 206.106731, 2931.653277
 208.129991, 2958.242310
 210.162001, 2984.911124
 212.219772, 3011.882252
 214.282762, 3038.885817
 216.360272, 3066.043215
 218.450477, 3093.330034
 220.557152, 3120.794987
 222.678209, 3148.410190
 224.805358, 3176.067361
 226.940994, 3203.797428
 229.097799, 3231.764447
 231.264882, 3259.826549
 233.449089, 3288.071822
 235.642525, 3316.397661
 237.845081, 3344.802359
 240.064474, 3373.384897
 242.293771, 3402.055485
 244.541948, 3430.928958
 246.797286, 3459.854303
 247.252305, 3465.685207
 247.562373, 3469.657670
 247.808821, 3472.814540
 247.981100, 3475.021040
 248.110404, 3476.676989
 248.241242, 3478.352452
 248.351365, 3479.762534
 248.383122, 3480.169153
 248.430524, 3480.776078
 248.440558, 3480.904551
 248.444489, 3480.954877
 248.452350, 3481.055528
 248.452899, 3481.062554
 248.453403, 3481.069004
 248.458440, 3481.133507
 248.500332, 3481.669855
 248.758821, 3484.978951
 250.153645, 3502.823907
 252.204596, 3529.029020
 254.270186, 3555.380270
 256.341197, 3581.759669
 258.419400, 3608.189579
 260.509832, 3634.733646
 262.613448, 3661.403449
 264.723772, 3688.116471
 266.851357, 3715.005776
 268.987117, 3741.955939
 271.126858, 3768.913889
 273.278840, 3795.983375
 275.443959, 3823.175117
 277.624700, 3850.519642
 279.809237, 3877.868277
 282.010702, 3905.385000
 284.224647, 3933.013519
 286.448340, 3960.719271
 288.676772, 3988.439619
 290.923271, 4016.339844
 293.173828, 4044.245507
 295.438680, 4072.283194
 297.712689, 4100.388766
 299.999486, 4128.606660
 302.292198, 4156.851690
 304.606753, 4185.319446
 306.923663, 4213.769716
 309.255724, 4242.359293
 311.602002, 4271.076038
 313.952601, 4299.798479
 316.316523, 4328.636284
 318.696169, 4357.618072
 321.083803, 4386.649095
 323.482354, 4415.764625
 325.888734, 4444.926799
 328.309719, 4474.217275
 330.744686, 4503.627835
 333.189919, 4533.113077
 335.645561, 4562.674324
 338.111985, 4592.315610
 340.591004, 4622.058237
 343.077154, 4651.836252
 345.570726, 4681.652906
 348.092666, 4711.757803
 350.620576, 4741.882726
 353.147025, 4771.939202
 355.694196, 4802.190760
 358.251667, 4832.512895
 360.822329, 4862.939393
 363.398601, 4893.380158
 365.995311, 4924.009820
 368.597746, 4954.654240
 371.208284, 4985.341239
 373.833227, 5016.144420
 376.480886, 5047.160385
 379.135406, 5078.202746
 381.799935, 5109.307992
 384.471215, 5140.437815
 387.154927, 5171.658053
 389.853790, 5202.999729
 392.562241, 5234.397684
 395.285251, 5265.909049
 398.019833, 5297.498668
 400.770798, 5329.221503
 403.520237, 5360.870801
 406.280813, 5392.592260
 409.065213, 5424.530831
 411.863278, 5456.569050
 414.668473, 5488.631693
 417.473846, 5520.639308
 420.303825, 5552.870077
 423.148627, 5585.211582
 426.000860, 5617.579368
 428.861878, 5649.988516
 431.733089, 5682.454629
 434.622482, 5715.067410
 437.516588, 5747.674369
 440.428837, 5780.426339
 443.347736, 5813.193563
 446.279462, 5846.045001
 449.227657, 5879.020808
 452.189871, 5912.092887
 455.155432, 5945.141788
 458.135311, 5978.289481
 461.128275, 6011.521642
 464.134975, 6044.844924
 467.155423, 6078.258852
 470.191050, 6111.778613
 473.231749, 6145.292218
 476.281594, 6178.844375
 476.895619, 6185.591915
 476.995303, 6186.687111
 477.104647, 6187.888358
 477.129210, 6188.158197
 477.145985, 6188.342472
 477.154379, 6188.434680
 477.160371, 6188.500506
 477.163906, 6188.539335
 477.166098, 6188.563419
 477.168109, 6188.585514
 477.188223, 6188.806464
 477.350871, 6190.593068
 478.348376, 6201.546241
 481.049664, 6231.174418
 484.130598, 6264.906991
 487.208604, 6298.544313
 490.305057, 6332.319728
 493.410502, 6366.129505
 496.531215, 6400.041489
 499.664893, 6434.030020
 502.808467, 6468.061350
 505.962954, 6502.146103
 509.127187, 6536.271291
 512.306183, 6570.490500
 515.498674, 6604.789476
 518.698441, 6639.101011
 521.908129, 6673.453188
 525.128021, 6707.848669
 528.363034, 6742.339450
 531.615135, 6776.945776
 534.872782, 6811.544370
 538.149246, 6846.275693
 541.433415, 6881.021406
 544.734366, 6915.877023
 548.044498, 6950.761748
 551.372469, 6985.766268
 554.706441, 7020.765577
 558.055257, 7055.852134
 561.412990, 7090.963362
 564.784452, 7126.149141
 568.169678, 7161.409263
 571.570894, 7196.766256
 574.975521, 7232.089029
 578.402491, 7267.573467
 581.835930, 7303.054579
 585.279553, 7338.570515
 588.734200, 7374.129539
 592.198809, 7409.720357
 595.687748, 7445.489781
 599.177868, 7481.199959
 602.686368, 7517.026530
 606.203454, 7552.868939
 609.734365, 7588.780148
 613.279536, 7624.763994
 616.837040, 7660.800369
 620.408984, 7696.910070
 623.987563, 7733.013815
 627.583953, 7769.223893
 631.188732, 7805.444903
 634.806796, 7841.725655
 638.434691, 7878.031065
 642.085185, 7914.488209
 645.742487, 7950.938741
 649.412652, 7987.442691
 653.093048, 8023.973456
 656.787535, 8060.568883
 660.501703, 8097.283585
 664.218514, 8133.948734
 667.942299, 8170.607054
 671.684810, 8207.373725
 675.442890, 8244.216959
 679.203805, 8281.011635
 682.986262, 8317.940321
 686.775558, 8354.858886
 690.585319, 8391.899534
 694.399464, 8428.905437
 698.238649, 8466.076413
 702.077842, 8503.169605
 705.929615, 8540.306390
 709.795180, 8577.497944
 713.678758, 8614.784182
 717.574157, 8652.105058
 721.482926, 8689.474922
 723.135691, 8705.252452
 725.400682, 8726.851487
 729.338670, 8800.283866
 733.283323, 8903.075982
 737.242115, 9006.025862
 741.216677, 9110.695584
 745.199791, 9216.851627
 749.190050, 9323.174000
 753.197218, 9432.252807
 757.219131, 9541.525756
 761.256429, 9652.526186
 765.301057, 9764.916369
 769.350576, 9877.220785
 773.420338, 9992.338495
 777.496243, 10107.659647
 781.586386, 10223.978264
 785.682760, 10342.125341
 789.788378, 10460.186212
 793.914038, 10580.243812
 798.046655, 10701.309732
 802.194756, 10822.353458
 806.351941, 10946.108283
 810.517342, 11069.910697
 814.699502, 11194.169771
 818.891333, 11320.788823
 823.085526, 11447.272649
 823.926993, 11538.272842
 826.892482, 11586.837657
 827.060721, 11647.382572
 827.113261, 11651.259709
 827.181026, 11653.024908
 827.197118, 11654.531270
 827.227893, 11655.180101
 827.235189, 11655.863991
 827.237378, 11656.031079
 827.239674, 11656.098918
 827.241874, 11656.167811
 827.263873, 11656.448721
 827.415840, 11658.522897
 828.260068, 11670.630604
 831.958842, 11727.195794
 836.332353, 11847.403889
 840.709690, 11982.066900
 845.099718, 12117.897797
 849.495139, 12253.636211
 853.900543, 12390.824724
 858.316265, 12528.975145
 862.750858, 12667.118724
 867.192798, 12806.978975
 871.641970, 12947.620070
 876.091085, 13087.961663
 880.559256, 13229.580340
 885.031210, 13372.292442
 885.382975, 13467.664487
 885.734928, 13478.732883
 886.087516, 13489.807127
 886.440210, 13500.890285
 886.792984, 13511.971316
 887.146018, 13523.051667
 887.497997, 13534.120232
 887.851438, 13545.178612
 888.205480, 13556.426677
 888.558821, 13567.718074
 888.913006, 13578.998912
 889.266662, 13590.285866
 889.620808, 13601.561834
 889.975362, 13612.846944
 890.331203, 13624.149291
 890.686244, 13635.463679
 891.041647, 13646.759896
 891.398286, 13658.071680
 891.754132, 13669.394394
 892.111508, 13680.712003
 892.469453, 13692.061641
 892.827223, 13703.415175
 893.185319, 13714.762807
 893.543068, 13726.107334
 893.901864, 13737.450371
 894.258693, 13748.787030
 894.618256, 13760.107611
 894.975826, 13771.456127
 895.335682, 13782.782958
 895.695000, 13794.144533
 896.055368, 13805.500501
 896.416451, 13816.879640
 896.777956, 13828.271764
 897.140012, 13839.672244
 897.502386, 13851.081089
 897.864320, 13862.485088
 898.227948, 13873.892329
 898.592304, 13885.335612
 898.956059, 13896.780505
 899.320102, 13908.209669
 899.684215, 13919.638776
 900.048312, 13931.062412
 900.413972, 13942.496163
 900.779741, 13953.956091
 901.144334, 13965.398438
 901.511417, 13976.837338
 901.875651, 13988.288603
 902.242637, 13999.705250
 902.608999, 14011.208574
 902.976333, 14022.863548
 903.343890, 14034.534013
 903.712252, 14046.210660
 904.080933, 14057.900235
 904.451014, 14069.604367
 904.822677, 14081.347417
 905.193692, 14093.108715
 905.564663, 14104.848517
 905.935061, 14116.573568
 906.305737, 14128.282149
 906.678574, 14140.012343
 907.051435, 14151.779803
 907.425063, 14163.548278
 907.798709, 14175.324949
 908.172831, 14187.099243
 908.548632, 14198.893589
 908.924829, 14210.718832
 909.300901, 14222.542787
 909.678708, 14234.374749
 910.056997, 14246.239430
 910.434494, 14258.097195
 910.811336, 14269.923265
 911.191724, 14281.765696
 911.571609, 14293.667142
 911.950983, 14305.544241
 912.328403, 14317.381320
 912.707270, 14329.185303
 913.089500, 14341.046426
 913.470657, 14352.956248
 913.853447, 14364.852765
 914.235807, 14376.769266
 914.619333, 14388.680508
 915.005114, 14400.630662
 915.389265, 14412.600425
 915.776099, 14424.556330
 916.163651, 14436.565413
 916.548446, 14448.550563
 916.935766, 14460.497023
 917.323290, 14472.487704
 917.712165, 14484.514573
 918.102244, 14496.757830
 918.492705, 14509.020524
 918.883291, 14521.282707
 919.274574, 14533.545014
 919.665129, 14545.804261
 920.059263, 14558.076013
 920.452256, 14570.400192
 920.845525, 14582.693387
 921.239356, 14594.988032
 921.632306, 14607.274892
 922.026988, 14619.551289
 922.423547, 14631.872861
 922.823887, 14644.262235
 923.220950, 14648.394731
 923.622199, 14652.564449
 924.023055, 14656.723706
 924.422595, 14660.862949
 924.820672, 14664.980713
 925.222130, 14669.127068
 925.624258, 14673.273899
 926.026180, 14677.412152
 926.426575, 14681.528262
 926.827869, 14685.647182
 927.234061, 14689.809819
 927.640966, 14693.973122
 928.047527, 14698.126266
 928.453233, 14702.264055
 928.859082, 14706.396683
 929.268269, 14710.556589
 929.677613, 14714.711333
 930.086949, 14718.859239
 930.497804, 14723.015734
 930.909741, 14727.176324
 931.319848, 14731.311600
 931.730557, 14735.446122
 932.143880, 14739.600045
 932.556376, 14743.738737
 932.970388, 14747.885688
 933.383697, 14752.018641
 933.800193, 14756.176425
 934.214868, 14760.309009
 934.631377, 14764.452791
 935.049715, 14768.607635
 935.469179, 14772.766482
 935.888284, 14776.914571
 936.306764, 14781.049286
 936.726151, 14785.185756
 937.148173, 14789.340924
 937.571890, 14793.505403
 937.992508, 14797.632123
 938.414339, 14801.763419
 938.839923, 14805.924035
 939.264870, 14810.070964
 939.689227, 14814.204688
 940.115893, 14818.353390
 940.544653, 14822.514857
 940.969296, 14826.628853
 941.398984, 14830.784108
 941.829097, 14834.935803
 942.257882, 14839.067012
 942.687766, 14843.201125
 943.120788, 14847.357635
 943.552383, 14851.492666
 943.987011, 14855.648904
 944.422546, 14859.805888
 944.856569, 14863.940546
 945.288499, 14868.047440
 945.726969, 14872.208515
 946.164535, 14876.352973
 946.602116, 14880.489527
 947.041247, 14884.632650
 947.478189, 14888.747062
 947.917362, 14892.874381
 948.356909, 14896.997071
 948.798742, 14901.132986
 949.242603, 14905.279576
 949.686649, 14909.419571
 950.133432, 14913.576656
 950.578494, 14917.709321
 951.025990, 14921.856120
 951.473031, 14925.990205
 951.919768, 14930.113013
 952.368315, 14934.243978
 952.819941, 14938.394647
 953.271706, 14942.537902
 953.524438, 14944.851981
 953.727514, 14946.709416
 954.182145, 14950.861326
 954.637582, 14955.011732
 955.092103, 14959.144962
 955.548638, 14963.287592
 956.004721, 14967.417208
 956.462338, 14971.551745
 956.920968, 14975.686419
 957.380237, 14979.817793
 957.843052, 14983.971899
 958.303260, 14988.093453
 958.766595, 14992.233793
 959.228236, 14996.349795
 959.690822, 15000.464998
 960.155377, 15004.588406
 960.618620, 15008.690880
 961.088124, 15012.839326
 961.557577, 15016.977770
 962.026095, 15021.098448
 962.500044, 15025.257197
 962.971205, 15029.381810
 963.445403, 15033.523264
 963.919821, 15037.656852
 964.394314, 15041.781290
 964.871809, 15045.921908
 965.347278, 15050.035081
 965.823798, 15054.147434
 966.302648, 15058.269897
 966.782245, 15062.388737
 967.263326, 15066.510207
 967.744603, 15070.623210
 968.227736, 15074.741846
 968.710925, 15078.850721
 969.194119, 15082.949377
 969.678291, 15087.046032
 970.161248, 15091.122130
 970.648572, 15095.224667
 971.134714, 15099.306818
 971.627640, 15103.435288
 972.116010, 15107.515024
 972.608697, 15111.620137
 973.102515, 15115.723902
 973.594845, 15119.804546
 974.089951, 15123.897371
 974.582293, 15127.956567
 975.075403, 15132.011314
 975.571624, 15136.080737
 976.071937, 15140.172633
 976.574038, 15144.267950
 977.079582, 15148.380015
 977.579245, 15152.433048
 978.083584, 15156.512714
 978.585216, 15160.559225
 979.089508, 15164.615856
 979.595175, 15168.672134
 980.101907, 15172.725470
 980.611848, 15176.792868
 981.118567, 15180.823021
 981.627539, 15184.859498
 982.141779, 15188.925951
 982.655040, 15192.972802
 983.170482, 15197.024935
 983.683488, 15201.046044
 984.200523, 15205.086744
 984.718742, 15209.124609
 985.239885, 15213.173031
 985.757756, 15217.183898
 986.278289, 15221.203172
 986.800057, 15225.219688
 987.322001, 15229.225228
 987.849432, 15233.260350
 988.374636, 15237.265913
 988.900430, 15241.263437
 989.427797, 15245.260321
 989.953853, 15249.234681
 990.482243, 15253.214016
 991.015238, 15257.215162
 991.544838, 15261.178014
 992.075666, 15265.137236
 992.611684, 15269.122129
 993.148883, 15273.102651
 993.689478, 15277.095037
 994.227523, 15281.055330
 994.767430, 15285.016028
 995.303465, 15288.935119
 995.845183, 15292.882394
 996.386413, 15296.812690
 996.929848, 15300.745483
 997.471647, 15304.652939
 998.020612, 15308.598337
 998.565144, 15312.498184
 999.112900, 15316.407372
 999.661856, 15320.311266
1000.208714, 15324.186442
1000.759761, 15328.077366
1001.313540, 15331.973475
1001.868666, 15335.864855
1002.424235, 15339.745085
1002.980455, 15343.615584
1003.533060, 15347.446762
1004.088805, 15351.285454
1004.649842, 15355.146188
1005.207678, 15358.970446
1005.768767, 15362.802441
1006.326902, 15366.599774
1006.888165, 15370.403807
1007.452275, 15374.212387
1008.018297, 15378.019011
1008.588999, 15381.842016
1009.158490, 15385.641797
1009.720698, 15389.378168
1010.290278, 15393.148507
1010.858968, 15396.897862
1011.431925, 15400.660090
1012.008248, 15404.428950
1012.579086, 15408.146644
1013.153461, 15411.872000
1013.730980, 15415.602184
1014.307830, 15419.312459
1014.892661, 15423.058157
1015.471873, 15426.752070
1016.051067, 15430.430130
1016.636051, 15434.128979
1017.217322, 15437.788443
1017.800367, 15441.443118
1018.379390, 15445.056772
1018.961969, 15448.676704
1019.545026, 15452.283612
1020.130744, 15455.890866
1020.720570, 15459.507080
1021.307312, 15463.088116
1021.898985, 15466.682800
1022.482998, 15470.214742
1023.069764, 15473.747109
1023.668615, 15477.335460
1024.262975, 15480.880132
1024.855853, 15484.399321
1025.457008, 15487.950651
1026.053012, 15491.454655
1026.653453, 15494.967733
1027.257236, 15498.483122
1027.858660, 15501.967592
1028.455746, 15505.409948
1029.065125, 15508.905717
1029.667687, 15512.345035
1030.267345, 15515.750646
1030.869962, 15519.155837
1031.477548, 15522.571615
1032.082187, 15525.953377
1032.687601, 15529.322029
1033.293039, 15532.673348
1033.902759, 15536.030703
1034.507059, 15539.340726
1035.118803, 15542.673770
1035.730158, 15545.986847
1036.343261, 15549.291467
1036.954032, 15552.565655
1037.571160, 15555.855806
1038.181185, 15559.090185
1038.795372, 15562.328644
1039.410357, 15565.553214
1040.024924, 15568.757495
1040.645978, 15571.977210
1041.270659, 15575.197076
1041.892976, 15578.386150
1042.518762, 15581.574264
1043.138471, 15584.712889
1043.765734, 15587.870998
1044.389487, 15590.992681
1045.013560, 15594.097257
1045.641868, 15597.203982
1046.267677, 15600.279477
1046.893941, 15603.338338
1047.522112, 15606.387542
1048.145684, 15609.395631
1048.775224, 15612.413502
1049.403937, 15615.408344
1050.031429, 15618.378369
1050.667550, 15621.369848
1051.302842, 15624.337946
1051.936359, 15627.278346
1052.576158, 15630.228234
1053.207783, 15633.121037
1053.844866, 15636.019308
1054.482191, 15638.899049
1055.123874, 15641.778640
1055.761225, 15644.619071
1056.399647, 15647.444569
1057.039354, 15650.255964
1057.681542, 15653.058328
1058.330652, 15655.870603
1058.979476, 15658.661230
1059.621174, 15661.401141
1060.261545, 15664.115482
1060.898809, 15666.796909
1061.542046, 15669.483489
1062.185850, 15672.152330
1062.832241, 15674.811653
1063.473955, 15677.431661
1064.117347, 15680.038445
1064.777735, 15682.693170
1065.425962, 15685.278397
1066.074781, 15687.845527
1066.721570, 15690.384255
1067.361845, 15692.877370
1068.014643, 15695.398713
1068.669154, 15697.905854
1069.318204, 15700.371482
1069.967005, 15702.815668
1070.614101, 15705.233009
1071.265765, 15707.646799
1071.919116, 15710.046070
1072.571253, 15712.420133
1073.226133, 15714.783324
1073.883209, 15717.133422
1074.539762, 15719.460618
1075.197762, 15721.771849
1075.854768, 15724.058512
1076.524852, 15726.368996
1077.186055, 15728.627375
1077.844731, 15730.855904
1078.506853, 15733.074742
1079.167812, 15735.268332
1079.830883, 15737.447485
1080.494101, 15739.605639
1081.153608, 15741.730406
1081.816698, 15743.845284
1082.482005, 15745.945637
1083.149362, 15748.030726
1083.819105, 15750.101375
1084.491158, 15752.157120
1085.160898, 15754.183813
1085.829751, 15756.185924
1086.498370, 15758.165464
1087.164990, 15760.117312
1087.830779, 15762.045020
1088.505777, 15763.977248
1089.175761, 15765.873071
1089.849606, 15767.757659
1090.524022, 15769.621586
1091.196602, 15771.458260
1091.873113, 15773.283324
1092.545727, 15775.075659
1093.216408, 15776.840782
1093.884577, 15778.577388
1094.561603, 15780.314709
1095.236610, 15782.024497
1095.915447, 15783.721477
1096.594686, 15785.396863
1097.270418, 15787.041173
1097.950084, 15788.672487
1098.628788, 15790.278905
1099.305485, 15791.858100
1099.984266, 15793.419618
1100.659262, 15794.950036
1101.341178, 15796.473474
1102.024600, 15797.977410
1102.709918, 15799.462534
1103.396141, 15800.926556
1104.078284, 15802.359001
1104.763842, 15803.775639
1105.449136, 15805.168712
1105.895417, 15806.063542
