Time, Horizontal Forces
   0.000000, 6459.276592
   0.000001, 6459.276589
   0.000010, 6459.276530
   0.000165, 6459.275568
   0.000906, 6459.270968
   0.003878, 6459.252511
   0.009197, 6459.219494
   0.016801, 6459.172310
   0.026649, 6459.111213
   0.038817, 6459.035746
   0.053367, 6458.945528
   0.070270, 6458.840745
   0.089427, 6458.722025
   0.111137, 6458.587523
   0.135183, 6458.438591
   0.161653, 6458.274685
   0.190899, 6458.093648
   0.222436, 6457.898482
   0.256730, 6457.686311
   0.293710, 6457.457594
   0.332874, 6457.215435
   0.374826, 6456.956114
   0.420181, 6456.675839
   0.468295, 6456.378602
   0.519009, 6456.065400
   0.573030, 6455.731869
   0.629770, 6455.381657
   0.689907, 6455.010592
   0.752710, 6454.623199
   0.819295, 6454.212602
   0.888689, 6453.784813
   0.961195, 6453.337986
   1.037710, 6452.866596
   1.117281, 6452.376535
   1.200804, 6451.862308
   1.288183, 6451.324507
   1.379665, 6450.761642
   1.473406, 6450.185076
   1.570169, 6449.590110
   1.671274, 6448.968655
   1.776728, 6448.320691
   1.887692, 6447.639103
   2.002431, 6446.934569
   2.121006, 6446.206737
   2.244075, 6445.451585
   2.371810, 6444.668083
   2.504607, 6443.853824
   2.640912, 6443.018361
   2.782805, 6442.148964
   2.928371, 6441.257387
   3.078173, 6440.340207
   3.235231, 6439.378967
   3.397406, 6438.386783
   3.562111, 6437.379507
   3.732541, 6436.337619
   3.907539, 6435.268217
   4.091574, 6434.144033
   4.278486, 6433.002732
   4.470909, 6431.828245
   4.667243, 6430.630366
   4.870426, 6429.391208
   5.079616, 6428.115928
   5.294193, 6426.808348
   5.514990, 6425.463421
   5.740566, 6424.089963
   5.971629, 6422.683680
   6.208607, 6421.242012
   6.456622, 6419.733842
   6.706495, 6418.215038
   6.963874, 6416.651289
   7.226829, 6415.054363
   7.496465, 6413.417584
   7.774878, 6411.728274
   8.059158, 6410.004154
   8.349294, 6408.245307
   8.649138, 6406.428438
   8.952195, 6404.592951
   9.261746, 6402.718998
   9.582220, 6400.779822
   9.907815, 6398.810590
  10.239774, 6396.803821
  10.583311, 6394.728049
  10.928569, 6392.642882
  11.281768, 6390.510783
  11.642269, 6388.335662
  12.010671, 6386.113951
  12.389360, 6383.831330
  12.771389, 6381.529724
  13.161104, 6379.182978
  13.567929, 6376.734433
  13.977958, 6374.267873
  14.393994, 6371.766452
  14.821963, 6369.194615
  15.256141, 6366.586823
  15.698965, 6363.928486
  16.150205, 6361.221060
  16.612735, 6358.447363
  17.082660, 6355.630828
  17.557448, 6352.786671
  18.043880, 6349.874341
  18.534084, 6346.941012
  19.035959, 6343.939479
  19.545728, 6340.892409
  20.066775, 6337.779646
  20.593832, 6334.632728
  21.131081, 6331.426752
  21.681736, 6328.142627
  22.244016, 6324.791088
  22.811716, 6321.409181
  23.386520, 6317.986922
  23.973538, 6314.493965
  24.577856, 6310.900175
  24.698939, 6310.180370
  24.798636, 6309.587758
  25.103839, 6307.773955
  25.108509, 6307.746204
  25.112574, 6307.722051
  25.113470, 6307.716727
  25.113910, 6307.714113
  25.114706, 6307.709380
  25.114810, 6307.708766
  25.114870, 6307.708407
  25.114926, 6307.708078
  25.115479, 6307.704791
  25.120447, 6307.675270
  25.152281, 6307.486115
  25.279337, 6306.731240
  25.673277, 6304.391477
  26.264771, 6300.880436
  26.844688, 6297.440521
  27.429127, 6293.976165
  28.028125, 6290.427964
  28.629911, 6286.865729
  29.245352, 6283.225214
  29.870629, 6279.529121
  30.503840, 6275.788787
  31.146934, 6271.992789
  31.800066, 6268.140309
  32.458399, 6264.259940
  33.123687, 6260.341410
  33.801557, 6256.351670
  34.488694, 6252.310336
  35.186614, 6248.208604
  35.893623, 6244.056535
  36.614023, 6239.828969
  37.335990, 6235.595376
  38.071039, 6231.288291
  38.814894, 6226.932895
  39.565626, 6222.540556
  40.327566, 6218.086019
  41.102904, 6213.556619
  41.887439, 6208.977023
  42.675608, 6204.379757
  43.478260, 6199.701636
  44.292672, 6194.958675
  45.113610, 6190.181449
  45.941456, 6185.367800
  46.785475, 6180.463980
  47.638233, 6175.513323
  48.501588, 6170.505140
  49.372286, 6165.458403
  50.254449, 6160.349318
  51.142663, 6155.209331
  52.046696, 6149.982039
  52.962047, 6144.693617
  53.880411, 6139.392124
  54.809296, 6134.034269
  55.751913, 6128.601683
  56.705841, 6123.108456
  57.671234, 6117.553830
  58.650170, 6111.925995
  59.633674, 6106.276638
  60.632449, 6100.544395
  61.644203, 6094.742588
  62.669200, 6088.869864
  63.702929, 6082.952178
  64.749582, 6076.965673
  65.804696, 6070.935987
  66.866533, 6064.873129
  67.944999, 6058.720669
  69.025887, 6052.559770
  70.124255, 6046.304706
  71.232793, 6039.997281
  72.352021, 6033.634645
  73.487722, 6027.184100
  74.634906, 6020.674151
  75.790774, 6014.120797
  76.959483, 6007.500600
  78.144415, 6000.794579
  79.341050, 5994.028491
  80.543252, 5987.237125
  81.756680, 5980.388589
  82.983465, 5973.471018
  84.219771, 5966.506177
  85.468472, 5959.477995
  86.731270, 5952.377060
  88.011320, 5945.185844
  89.305378, 5937.922759
  90.606500, 5930.626915
  91.914189, 5923.301160
  93.232949, 5915.920355
  94.573382, 5908.425378
  95.917871, 5900.914899
  97.278426, 5893.321942
  98.652852, 5885.658957
 100.033656, 5877.967832
 101.432892, 5870.181580
 102.847364, 5862.318219
 104.274395, 5854.392800
 104.331804, 5854.074129
 104.380892, 5853.801653
 104.428592, 5853.536890
 104.486914, 5853.213181
 104.499953, 5853.140817
 104.515657, 5853.053656
 104.518984, 5853.035189
 104.520606, 5853.026185
 104.523851, 5853.008177
 104.524217, 5853.006146
 104.524429, 5853.004969
 104.526549, 5852.993200
 104.529199, 5852.978494
 104.555698, 5852.831422
 104.704837, 5852.003760
 105.233085, 5849.073020
 106.462419, 5842.257647
 107.789108, 5834.910382
 109.127921, 5827.504165
 110.475074, 5820.060073
 111.833982, 5812.559376
 113.196882, 5805.045022
 114.578508, 5797.435927
 115.970095, 5789.780581
 117.373348, 5782.069761
 118.784784, 5774.322736
 120.209030, 5766.514258
 121.639144, 5758.682505
 123.084385, 5750.776925
 124.538332, 5742.832809
 126.008637, 5734.808536
 127.486492, 5726.752348
 128.971896, 5718.664335
 130.473043, 5710.500057
 131.982619, 5702.299462
 133.501065, 5694.060272
 135.035527, 5685.743894
 136.577192, 5677.398255
 138.130599, 5668.998912
 139.702251, 5660.510943
 141.282079, 5651.988920
 142.877756, 5643.391626
 144.477184, 5634.784384
 146.086367, 5626.134954
 147.715595, 5617.388260
 149.357840, 5608.582295
 151.004513, 5599.763229
 152.673304, 5590.836523
 154.347321, 5581.892743
 156.035869, 5572.882311
 157.733772, 5563.833018
 159.438942, 5554.756108
 161.152497, 5545.645716
 162.887646, 5536.431853
 164.631627, 5527.182530
 166.389627, 5517.870399
 168.158128, 5508.514283
 169.936827, 5499.115920
 171.736138, 5489.620540
 173.543857, 5480.092768
 175.364172, 5470.510686
 177.188453, 5460.919814
 179.026379, 5451.269394
 180.883758, 5441.529185
 182.752174, 5431.743577
 184.631112, 5421.915416
 186.523413, 5412.030017
 188.423758, 5402.115320
 190.341490, 5392.122771
 192.268390, 5382.095407
 194.209932, 5372.004912
 196.159725, 5361.884677
 198.119644, 5351.725078
 200.095890, 5341.494187
 202.085889, 5331.205568
 204.089450, 5320.860412
 206.106731, 5310.458128
 208.129991, 5300.038761
 210.162001, 5289.588130
 212.219772, 5279.019032
 214.282762, 5268.437224
 216.360272, 5257.795133
 218.450477, 5247.102326
 220.557152, 5236.339715
 222.678209, 5225.518225
 224.805358, 5214.680290
 226.940994, 5203.813789
 229.097799, 5192.854435
 231.264882, 5181.857820
 233.449089, 5170.789427
 235.642525, 5159.689462
 237.845081, 5148.558596
 240.064474, 5137.358040
 242.293771, 5126.122980
 244.541948, 5114.808415
 246.797286, 5103.473524
 247.252305, 5101.188585
 247.562373, 5099.631908
 247.808821, 5098.394834
 247.981100, 5097.530179
 248.110404, 5096.881267
 248.241242, 5096.224708
 248.351365, 5095.672144
 248.383122, 5095.512803
 248.430524, 5095.274969
 248.440558, 5095.224625
 248.444489, 5095.204904
 248.452350, 5095.165462
 248.452899, 5095.162709
 248.453403, 5095.160181
 248.458440, 5095.134905
 248.500332, 5094.924727
 248.758821, 5093.628002
 250.153645, 5086.635150
 252.204596, 5076.366229
 254.270186, 5066.040041
 256.341197, 5055.702823
 258.419400, 5045.345810
 260.509832, 5034.944064
 262.613448, 5024.493045
 264.723772, 5014.025091
 266.851357, 5003.488057
 268.987117, 4992.927175
 271.126858, 4982.363241
 273.278840, 4971.755600
 275.443959, 4961.100051
 277.624700, 4950.384632
 279.809237, 4939.667601
 282.010702, 4928.884703
 284.224647, 4918.057995
 286.448340, 4907.201023
 288.676772, 4896.338330
 290.923271, 4885.405150
 293.173828, 4874.469839
 295.438680, 4863.482792
 297.712689, 4852.469143
 299.999486, 4841.411479
 302.292198, 4830.343181
 304.606753, 4819.187604
 306.923663, 4808.038879
 309.255724, 4796.835565
 311.602002, 4785.582417
 313.952601, 4774.327037
 316.316523, 4763.026450
 318.696169, 4751.669441
 321.083803, 4740.293138
 323.482354, 4728.883720
 325.888734, 4717.456024
 328.309719, 4705.978050
 330.744686, 4694.453019
 333.189919, 4682.898723
 335.645561, 4671.314643
 338.111985, 4659.699198
 340.591004, 4648.044041
 343.077154, 4636.375016
 345.570726, 4624.690851
 348.092666, 4612.893732
 350.620576, 4601.088766
 353.147025, 4589.310622
 355.694196, 4577.456032
 358.251667, 4565.573785
 360.822329, 4553.650641
 363.398601, 4541.721907
 365.995311, 4529.719150
 368.597746, 4517.710610
 371.208284, 4505.685385
 373.833227, 4493.614632
 376.480886, 4481.460495
 379.135406, 4469.296016
 381.799935, 4457.106893
 384.471215, 4444.908140
 387.154927, 4432.673955
 389.853790, 4420.392184
 392.562241, 4408.088359
 395.285251, 4395.740091
 398.019833, 4383.361159
 400.770798, 4370.930023
 403.520237, 4358.527705
 406.280813, 4346.097109
 409.065213, 4333.581434
 411.863278, 4321.026710
 414.668473, 4308.462415
 417.473846, 4295.919684
 420.303825, 4283.289506
 423.148627, 4270.615934
 426.000860, 4257.932064
 428.861878, 4245.231985
 431.733089, 4232.509583
 434.622482, 4219.729707
 437.516588, 4206.952113
 440.428837, 4194.117694
 443.347736, 4181.277297
 446.279462, 4168.403899
 449.227657, 4155.481765
 452.189871, 4142.521905
 455.155432, 4129.571129
 458.135311, 4116.581638
 461.128275, 4103.559048
 464.134975, 4090.500750
 467.155423, 4077.406931
 470.191050, 4064.271639
 473.231749, 4051.138760
 476.281594, 4037.990774
 476.895619, 4035.346635
 476.995303, 4034.917464
 477.104647, 4034.446734
 477.129210, 4034.340993
 477.145985, 4034.268782
 477.154379, 4034.232649
 477.160371, 4034.206854
 477.163906, 4034.191638
 477.166098, 4034.182200
 477.168109, 4034.173542
 477.188223, 4034.086959
 477.350871, 4033.386847
 478.348376, 4029.094659
 481.049664, 4017.484352
 484.130598, 4004.265666
 487.208604, 3991.084306
 490.305057, 3977.848832
 493.410502, 3964.599893
 496.531215, 3951.310902
 499.664893, 3937.991916
 502.808467, 3924.656157
 505.962954, 3911.299464
 509.127187, 3897.926925
 512.306183, 3884.517543
 515.498674, 3871.076903
 518.698441, 3857.631341
 521.908129, 3844.169853
 525.128021, 3830.691396
 528.363034, 3817.175593
 531.615135, 3803.614513
 534.872782, 3790.056462
 538.149246, 3776.446399
 541.433415, 3762.830698
 544.734366, 3749.171928
 548.044498, 3735.501752
 551.372469, 3721.784632
 554.706441, 3708.069555
 558.055257, 3694.320288
 561.412990, 3680.561353
 564.784452, 3666.773203
 568.169678, 3652.955922
 571.570894, 3639.100679
 574.975521, 3625.258847
 578.402491, 3611.353663
 581.835930, 3597.449783
 585.279553, 3583.532256
 588.734200, 3569.597844
 592.198809, 3555.650974
 595.687748, 3541.634113
 599.177868, 3527.640470
 602.686368, 3513.601215
 606.203454, 3499.555754
 609.734365, 3485.483333
 613.279536, 3471.382448
 616.837040, 3457.260978
 620.408984, 3443.110774
 623.987563, 3428.962904
 627.583953, 3414.773366
 631.188732, 3400.579544
 634.806796, 3386.362311
 638.434691, 3372.135415
 642.085185, 3357.849060
 645.742487, 3343.565296
 649.412652, 3329.260599
 653.093048, 3314.945394
 656.787535, 3300.604850
 660.501703, 3286.217566
 664.218514, 3271.849701
 667.942299, 3257.484512
 671.684810, 3243.076863
 675.442890, 3228.639212
 679.203805, 3214.220589
 682.986262, 3199.749452
 686.775558, 3185.282280
 690.585319, 3170.767269
 694.399464, 3156.265874
 698.238649, 3141.699791
 702.077842, 3127.164190
 705.929615, 3112.611505
 709.795180, 3098.037359
 713.678758, 3083.426109
 717.574157, 3068.801285
 721.482926, 3054.157265
 723.135691, 3047.974571
 725.400682, 3039.510619
 729.338670, 2986.208372
 733.283323, 2904.383285
 737.242115, 2822.564246
 741.216677, 2740.620581
 745.199791, 2658.557398
 749.190050, 2576.504565
 753.197218, 2494.448417
 757.219131, 2412.238723
 761.256429, 2329.912414
 765.301057, 2247.497481
 769.350576, 2165.138300
 773.420338, 2082.809538
 777.496243, 2000.330611
 781.586386, 1917.893192
 785.682760, 1835.409035
 789.788378, 1752.992691
 793.914038, 1670.549475
 798.046655, 1587.977138
 802.194756, 1505.439817
 806.351941, 1422.841709
 810.517342, 1340.287380
 814.699502, 1257.750287
 818.891333, 1175.141343
 823.085526, 1092.605875
 823.926993, 1027.223060
 826.892482, 1000.039218
 827.060721,  956.346922
 827.113261,  953.664840
 827.181026,  952.565344
 827.197118,  951.511299
 827.227893,  951.123429
 827.235189,  950.644864
 827.237378,  950.529069
 827.239674,  950.485957
 827.241874,  950.441811
 827.263873,  950.297945
 827.415840,  949.206606
 828.260068,  942.716572
 831.958842,  911.703065
 836.332353,  836.108324
 840.709690,  750.965355
 845.099718,  665.955588
 849.495139,  580.992478
 853.900543,  496.158751
 858.316265,  411.390413
 862.750858,  326.639081
 867.192798,  241.852298
 871.641970,  157.193641
 876.091085,   72.706457
 880.559256,  -11.613229
 885.031210,    0.000000
 885.382975,    0.000000
 885.734928,    0.000000
 886.087516,    0.000000
 886.440210,    0.000000
 886.792984,    0.000000
 887.146018,    0.000000
 887.497997,    0.000000
 887.851438,    0.000000
 888.205480,    0.000000
 888.558821,    0.000000
 888.913006,    0.000000
 889.266662,    0.000000
 889.620808,    0.000000
 889.975362,    0.000000
 890.331203,    0.000000
 890.686244,    0.000000
 891.041647,    0.000000
 891.398286,    0.000000
 891.754132,    0.000000
 892.111508,    0.000000
 892.469453,    0.000000
 892.827223,    0.000000
 893.185319,    0.000000
 893.543068,    0.000000
 893.901864,    0.000000
 894.258693,    0.000000
 894.618256,    0.000000
 894.975826,    0.000000
 895.335682,    0.000000
 895.695000,    0.000000
 896.055368,    0.000000
 896.416451,    0.000000
 896.777956,    0.000000
 897.140012,    0.000000
 897.502386,    0.000000
 897.864320,    0.000000
 898.227948,    0.000000
 898.592304,    0.000000
 898.956059,    0.000000
 899.320102,    0.000000
 899.684215,    0.000000
 900.048312,    0.000000
 900.413972,    0.000000
 900.779741,    0.000000
 901.144334,    0.000000
 901.511417,    0.000000
 901.875651,    0.000000
 902.242637,    0.000000
 902.608999,    0.000000
 902.976333,    0.000000
 903.343890,    0.000000
 903.712252,    0.000000
 904.080933,    0.000000
 904.451014,    0.000000
 904.822677,    0.000000
 905.193692,    0.000000
 905.564663,    0.000000
 905.935061,    0.000000
 906.305737,    0.000000
 906.678574,    0.000000
 907.051435,    0.000000
 907.425063,    0.000000
 907.798709,    0.000000
 908.172831,    0.000000
 908.548632,    0.000000
 908.924829,    0.000000
 909.300901,    0.000000
 909.678708,    0.000000
 910.056997,    0.000000
 910.434494,    0.000000
 910.811336,    0.000000
 911.191724,    0.000000
 911.571609,    0.000000
 911.950983,    0.000000
 912.328403,    0.000000
 912.707270,    0.000000
 913.089500,    0.000000
 913.470657,    0.000000
 913.853447,    0.000000
 914.235807,    0.000000
 914.619333,    0.000000
 915.005114,    0.000000
 915.389265,    0.000000
 915.776099,    0.000000
 916.163651,    0.000000
 916.548446,    0.000000
 916.935766,    0.000000
 917.323290,    0.000000
 917.712165,    0.000000
 918.102244,    0.000000
 918.492705,    0.000000
 918.883291,    0.000000
 919.274574,    0.000000
 919.665129,    0.000000
 920.059263,    0.000000
 920.452256,    0.000000
 920.845525,    0.000000
 921.239356,    0.000000
 921.632306,    0.000000
 922.026988,    0.000000
 922.423547,    0.000000
 922.823887,    0.000000
 923.220950,    0.000000
 923.622199,    0.000000
 924.023055,    0.000000
 924.422595,    0.000000
 924.820672,    0.000000
 925.222130,    0.000000
 925.624258,    0.000000
 926.026180,    0.000000
 926.426575,    0.000000
 926.827869,    0.000000
 927.234061,    0.000000
 927.640966,    0.000000
 928.047527,    0.000000
 928.453233,    0.000000
 928.859082,    0.000000
 929.268269,    0.000000
 929.677613,    0.000000
 930.086949,    0.000000
 930.497804,    0.000000
 930.909741,    0.000000
 931.319848,    0.000000
 931.730557,    0.000000
 932.143880,    0.000000
 932.556376,    0.000000
 932.970388,    0.000000
 933.383697,    0.000000
 933.800193,    0.000000
 934.214868,    0.000000
 934.631377,    0.000000
 935.049715,    0.000000
 935.469179,    0.000000
 935.888284,    0.000000
 936.306764,    0.000000
 936.726151,    0.000000
 937.148173,    0.000000
 937.571890,    0.000000
 937.992508,    0.000000
 938.414339,    0.000000
 938.839923,    0.000000
 939.264870,    0.000000
 939.689227,    0.000000
 940.115893,    0.000000
 940.544653,    0.000000
 940.969296,    0.000000
 941.398984,    0.000000
 941.829097,    0.000000
 942.257882,    0.000000
 942.687766,    0.000000
 943.120788,    0.000000
 943.552383,    0.000000
 943.987011,    0.000000
 944.422546,    0.000000
 944.856569,    0.000000
 945.288499,    0.000000
 945.726969,    0.000000
 946.164535,    0.000000
 946.602116,    0.000000
 947.041247,    0.000000
 947.478189,    0.000000
 947.917362,    0.000000
 948.356909,    0.000000
 948.798742,    0.000000
 949.242603,    0.000000
 949.686649,    0.000000
 950.133432,    0.000000
 950.578494,    0.000000
 951.025990,    0.000000
 951.473031,    0.000000
 951.919768,    0.000000
 952.368315,    0.000000
 952.819941,    0.000000
 953.271706,    0.000000
 953.524438,    0.000000
 953.727514,    0.000000
 954.182145,    0.000000
 954.637582,    0.000000
 955.092103,    0.000000
 955.548638,    0.000000
 956.004721,    0.000000
 956.462338,    0.000000
 956.920968,    0.000000
 957.380237,    0.000000
 957.843052,    0.000000
 958.303260,    0.000000
 958.766595,    0.000000
 959.228236,    0.000000
 959.690822,    0.000000
 960.155377,    0.000000
 960.618620,    0.000000
 961.088124,    0.000000
 961.557577,    0.000000
 962.026095,    0.000000
 962.500044,    0.000000
 962.971205,    0.000000
 963.445403,    0.000000
 963.919821,    0.000000
 964.394314,    0.000000
 964.871809,    0.000000
 965.347278,    0.000000
 965.823798,    0.000000
 966.302648,    0.000000
 966.782245,    0.000000
 967.263326,    0.000000
 967.744603,    0.000000
 968.227736,    0.000000
 968.710925,    0.000000
 969.194119,    0.000000
 969.678291,    0.000000
 970.161248,    0.000000
 970.648572,    0.000000
 971.134714,    0.000000
 971.627640,    0.000000
 972.116010,    0.000000
 972.608697,    0.000000
 973.102515,    0.000000
 973.594845,    0.000000
 974.089951,    0.000000
 974.582293,    0.000000
 975.075403,    0.000000
 975.571624,    0.000000
 976.071937,    0.000000
 976.574038,    0.000000
 977.079582,    0.000000
 977.579245,    0.000000
 978.083584,    0.000000
 978.585216,    0.000000
 979.089508,    0.000000
 979.595175,    0.000000
 980.101907,    0.000000
 980.611848,    0.000000
 981.118567,    0.000000
 981.627539,    0.000000
 982.141779,    0.000000
 982.655040,    0.000000
 983.170482,    0.000000
 983.683488,    0.000000
 984.200523,    0.000000
 984.718742,    0.000000
 985.239885,    0.000000
 985.757756,    0.000000
 986.278289,    0.000000
 986.800057,    0.000000
 987.322001,    0.000000
 987.849432,    0.000000
 988.374636,    0.000000
 988.900430,    0.000000
 989.427797,    0.000000
 989.953853,    0.000000
 990.482243,    0.000000
 991.015238,    0.000000
 991.544838,    0.000000
 992.075666,    0.000000
 992.611684,    0.000000
 993.148883,    0.000000
 993.689478,    0.000000
 994.227523,    0.000000
 994.767430,    0.000000
 995.303465,    0.000000
 995.845183,    0.000000
 996.386413,    0.000000
 996.929848,    0.000000
 997.471647,    0.000000
 998.020612,    0.000000
 998.565144,    0.000000
 999.112900,    0.000000
 999.661856,    0.000000
1000.208714,    0.000000
1000.759761,    0.000000
1001.313540,    0.000000
1001.868666,    0.000000
1002.424235,    0.000000
1002.980455,    0.000000
1003.533060,    0.000000
1004.088805,    0.000000
1004.649842,    0.000000
1005.207678,    0.000000
1005.768767,    0.000000
1006.326902,    0.000000
1006.888165,    0.000000
1007.452275,    0.000000
1008.018297,    0.000000
1008.588999,    0.000000
1009.158490,    0.000000
1009.720698,    0.000000
1010.290278,    0.000000
1010.858968,    0.000000
1011.431925,    0.000000
1012.008248,    0.000000
1012.579086,    0.000000
1013.153461,    0.000000
1013.730980,    0.000000
1014.307830,    0.000000
1014.892661,    0.000000
1015.471873,    0.000000
1016.051067,    0.000000
1016.636051,    0.000000
1017.217322,    0.000000
1017.800367,    0.000000
1018.379390,    0.000000
1018.961969,    0.000000
1019.545026,    0.000000
1020.130744,    0.000000
1020.720570,    0.000000
1021.307312,    0.000000
1021.898985,    0.000000
1022.482998,    0.000000
1023.069764,    0.000000
1023.668615,    0.000000
1024.262975,    0.000000
1024.855853,    0.000000
1025.457008,    0.000000
1026.053012,    0.000000
1026.653453,    0.000000
1027.257236,    0.000000
1027.858660,    0.000000
1028.455746,    0.000000
1029.065125,    0.000000
1029.667687,    0.000000
1030.267345,    0.000000
1030.869962,    0.000000
1031.477548,    0.000000
1032.082187,    0.000000
1032.687601,    0.000000
1033.293039,    0.000000
1033.902759,    0.000000
1034.507059,    0.000000
1035.118803,    0.000000
1035.730158,    0.000000
1036.343261,    0.000000
1036.954032,    0.000000
1037.571160,    0.000000
1038.181185,    0.000000
1038.795372,    0.000000
1039.410357,    0.000000
1040.024924,    0.000000
1040.645978,    0.000000
1041.270659,    0.000000
1041.892976,    0.000000
1042.518762,    0.000000
1043.138471,    0.000000
1043.765734,    0.000000
1044.389487,    0.000000
1045.013560,    0.000000
1045.641868,    0.000000
1046.267677,    0.000000
1046.893941,    0.000000
1047.522112,    0.000000
1048.145684,    0.000000
1048.775224,    0.000000
1049.403937,    0.000000
1050.031429,    0.000000
1050.667550,    0.000000
1051.302842,    0.000000
1051.936359,    0.000000
1052.576158,    0.000000
1053.207783,    0.000000
1053.844866,    0.000000
1054.482191,    0.000000
1055.123874,    0.000000
1055.761225,    0.000000
1056.399647,    0.000000
1057.039354,    0.000000
1057.681542,    0.000000
1058.330652,    0.000000
1058.979476,    0.000000
1059.621174,    0.000000
1060.261545,    0.000000
1060.898809,    0.000000
1061.542046,    0.000000
1062.185850,    0.000000
1062.832241,    0.000000
1063.473955,    0.000000
1064.117347,    0.000000
1064.777735,    0.000000
1065.425962,    0.000000
1066.074781,    0.000000
1066.721570,    0.000000
1067.361845,    0.000000
1068.014643,    0.000000
1068.669154,    0.000000
1069.318204,    0.000000
1069.967005,    0.000000
1070.614101,    0.000000
1071.265765,    0.000000
1071.919116,    0.000000
1072.571253,    0.000000
1073.226133,    0.000000
1073.883209,    0.000000
1074.539762,    0.000000
1075.197762,    0.000000
1075.854768,    0.000000
1076.524852,    0.000000
1077.186055,    0.000000
1077.844731,    0.000000
1078.506853,    0.000000
1079.167812,    0.000000
1079.830883,    0.000000
1080.494101,    0.000000
1081.153608,    0.000000
1081.816698,    0.000000
1082.482005,    0.000000
1083.149362,    0.000000
1083.819105,    0.000000
1084.491158,    0.000000
1085.160898,    0.000000
1085.829751,    0.000000
1086.498370,    0.000000
1087.164990,    0.000000
1087.830779,    0.000000
1088.505777,    0.000000
1089.175761,    0.000000
1089.849606,    0.000000
1090.524022,    0.000000
1091.196602,    0.000000
1091.873113,    0.000000
1092.545727,    0.000000
1093.216408,    0.000000
1093.884577,    0.000000
1094.561603,    0.000000
1095.236610,    0.000000
1095.915447,    0.000000
1096.594686,    0.000000
1097.270418,    0.000000
1097.950084,    0.000000
1098.628788,    0.000000
1099.305485,    0.000000
1099.984266,    0.000000
1100.659262,    0.000000
1101.341178,    0.000000
1102.024600,    0.000000
1102.709918,    0.000000
1103.396141,    0.000000
1104.078284,    0.000000
1104.763842,    0.000000
1105.449136,    0.000000
1105.895417,    0.000000
