Time, Horizontal Forces
   0.000000, 6459.422895
   0.000001, 6459.422892
   0.000006, 6459.422856
   0.000051, 6459.422580
   0.000254, 6459.421320
   0.000937, 6459.417075
   0.003594, 6459.400581
   0.008770, 6459.368449
   0.016215, 6459.322253
   0.025986, 6459.261635
   0.038053, 6459.186792
   0.052396, 6459.097857
   0.069115, 6458.994220
   0.088096, 6458.876593
   0.109545, 6458.743709
   0.133445, 6458.595679
   0.159844, 6458.432215
   0.188742, 6458.253332
   0.220179, 6458.058787
   0.254154, 6457.848591
   0.290762, 6457.622176
   0.329834, 6457.380586
   0.371933, 6457.120358
   0.416730, 6456.843529
   0.464133, 6456.550690
   0.514632, 6456.238811
   0.568012, 6455.909235
   0.623767, 6455.565104
   0.683393, 6455.197187
   0.746091, 6454.810439
   0.811495, 6454.407120
   0.879944, 6453.985152
   0.952973, 6453.535096
   1.028661, 6453.068798
   1.108195, 6452.578963
   1.190503, 6452.072201
   1.276329, 6451.543956
   1.366302, 6450.990366
   1.460383, 6450.411688
   1.557910, 6449.812020
   1.658864, 6449.191483
   1.765569, 6448.535820
   1.876077, 6447.857026
   1.991080, 6447.150866
   2.108697, 6446.428903
   2.232114, 6445.671614
   2.358495, 6444.896403
   2.491456, 6444.081134
   2.627207, 6443.249055
   2.766419, 6442.396074
   2.910997, 6441.510531
   3.061458, 6440.589300
   3.214194, 6439.654490
   3.373591, 6438.679278
   3.537116, 6437.679188
   3.707854, 6436.635378
   3.881891, 6435.571823
   4.060893, 6434.478341
   4.246787, 6433.343210
   4.436942, 6432.182517
   4.635771, 6430.969367
   4.839095, 6429.729293
   5.046944, 6428.462143
   5.262260, 6427.150012
   5.479624, 6425.825946
   5.704145, 6424.458851
   5.932675, 6423.067923
   6.172206, 6421.610664
   6.417668, 6420.117961
   6.664659, 6418.616605
   6.919177, 6417.070160
   7.182286, 6415.472216
   7.451337, 6413.838912
   7.728786, 6412.155371
   8.011867, 6410.438433
   8.300203, 6408.690412
   8.595273, 6406.902375
   8.898197, 6405.067585
   9.208447, 6403.189295
   9.524740, 6401.275313
   9.847117, 6399.325423
  10.178260, 6397.323457
  10.517285, 6395.274815
  10.863781, 6393.182037
  11.215388, 6391.059410
  11.577699, 6388.873224
  11.947059, 6386.645605
  12.323083, 6384.378911
  12.706533, 6382.068605
  13.101735, 6379.688681
  13.498441, 6377.300907
  13.905442, 6374.852408
  14.322436, 6372.345068
  14.746977, 6369.793667
  15.179755, 6367.194106
  15.615931, 6364.575502
  16.065427, 6361.878337
  16.521679, 6359.142074
  16.989674, 6356.336883
  17.467086, 6353.476782
  17.948124, 6350.596518
  18.442233, 6347.639585
  18.943653, 6344.640550
  19.455403, 6341.581408
  19.971291, 6338.499240
  20.503197, 6335.323134
  21.039939, 6332.119956
  21.591975, 6328.827371
  22.154661, 6325.473184
  22.722075, 6322.092758
  23.294581, 6318.683956
  23.879363, 6315.204068
  24.470105, 6311.690753
  25.080064, 6308.065271
  25.104614, 6307.919392
  25.110192, 6307.886249
  25.111427, 6307.878910
  25.113175, 6307.868528
  25.113784, 6307.864907
  25.114962, 6307.857906
  25.115436, 6307.855089
  25.115489, 6307.854778
  25.115536, 6307.854498
  25.116007, 6307.851698
  25.120721, 6307.823690
  25.146034, 6307.673287
  25.240975, 6307.109216
  25.544938, 6305.303721
  26.122884, 6301.872629
  26.701027, 6298.442736
  27.285207, 6294.979416
  27.878682, 6291.463415
  28.479559, 6287.906030
  29.087489, 6284.309395
  29.709576, 6280.631585
  30.339197, 6276.911863
  30.977515, 6273.143448
  31.624560, 6269.326234
  32.281037, 6265.456155
  32.946776, 6261.534311
  33.624452, 6257.545045
  34.313136, 6253.493954
  35.009054, 6249.403320
  35.708189, 6245.296806
  36.418015, 6241.130565
  37.136818, 6236.914766
  37.867779, 6232.630863
  38.610465, 6228.281509
  39.366949, 6223.854725
  40.124054, 6219.427672
  40.893463, 6214.932095
  41.674081, 6210.374528
  42.464088, 6205.765692
  43.263317, 6201.106674
  44.070501, 6196.404930
  44.886655, 6191.654641
  45.715278, 6186.835555
  46.555057, 6181.955435
  47.404370, 6177.023828
  48.265463, 6172.027797
  49.125549, 6167.041584
  50.002292, 6161.962851
  50.891462, 6156.816281
  51.789845, 6151.620592
  52.700389, 6146.358850
  53.620266, 6141.047513
  54.548014, 6135.695118
  55.488294, 6130.274884
  56.438610, 6124.801324
  57.408434, 6119.220057
  58.385766, 6113.600304
  59.370371, 6107.943489
  60.365913, 6102.228652
  61.379289, 6096.416387
  62.389213, 6090.628838
  63.423505, 6084.706694
  64.463035, 6078.759683
  65.513995, 6072.752457
  66.577116, 6066.680972
  67.651149, 6060.552505
  68.734516, 6054.376166
  69.826554, 6048.155830
  70.926902, 6041.893646
  72.041160, 6035.557877
  73.167900, 6029.156788
  74.306773, 6022.692525
  75.467376, 6016.110816
  76.633843, 6009.501819
  77.809141, 6002.848790
  78.997253, 5996.129317
  80.197519, 5989.347269
  81.410899, 5982.497382
  82.633034, 5975.604397
  83.870672, 5968.630394
  85.116192, 5961.618461
  86.373469, 5954.546891
  87.642578, 5947.415404
  88.921294, 5940.236628
  90.211860, 5932.998103
  91.522913, 5925.651594
  92.844013, 5918.255796
  94.177813, 5910.795996
  95.524629, 5903.270589
  96.890774, 5895.644510
  98.258511, 5888.016903
  99.637602, 5880.333380
 101.033815, 5872.561988
 102.439374, 5864.746172
 103.861289, 5856.847125
 104.147219, 5855.259657
 104.341094, 5854.183448
 104.495880, 5853.324328
 104.518932, 5853.196390
 104.524426, 5853.165895
 104.526123, 5853.156478
 104.526910, 5853.152111
 104.527083, 5853.151147
 104.527264, 5853.150145
 104.529071, 5853.140117
 104.545335, 5853.049855
 104.639691, 5852.526208
 104.976903, 5850.655135
 106.129664, 5844.262854
 107.448863, 5836.955183
 108.782020, 5829.578331
 110.126774, 5822.145544
 111.485587, 5814.643396
 112.857579, 5807.076962
 114.232498, 5799.502866
 115.627087, 5791.829046
 117.025299, 5784.143961
 118.429538, 5776.434444
 119.849673, 5768.646463
 121.280854, 5760.806813
 122.724636, 5752.907153
 124.175236, 5744.979251
 125.645137, 5736.955078
 127.123819, 5728.892280
 128.606536, 5720.816803
 130.101253, 5712.685361
 131.612673, 5704.472593
 133.134895, 5696.210768
 134.662743, 5687.928089
 136.203744, 5679.583868
 137.761978, 5671.156255
 139.327242, 5662.700600
 140.902608, 5654.200434
 142.494729, 5645.620051
 144.099947, 5636.979398
 145.710691, 5628.319361
 147.333012, 5619.607503
 148.962100, 5610.869786
 150.611414, 5602.034229
 152.268878, 5593.165734
 153.933457, 5584.269933
 155.615091, 5575.293890
 157.310570, 5566.254971
 159.024199, 5557.130496
 160.742691, 5547.991371
 162.471318, 5538.809647
 164.211370, 5529.578631
 165.965139, 5520.286346
 167.730713, 5510.943122
 169.504136, 5501.570022
 171.289475, 5492.145696
 173.092475, 5482.640042
 174.905755, 5473.092188
 176.736613, 5463.463931
 178.577433, 5453.795535
 180.426186, 5444.097771
 182.292552, 5434.320051
 184.168049, 5424.507027
 186.052534, 5414.659563
 187.953189, 5404.740315
 189.864605, 5394.777724
 191.788346, 5384.763807
 193.723244, 5374.704820
 195.670670, 5364.593809
 197.631588, 5354.425962
 199.600492, 5344.229994
 201.578585, 5333.999774
 203.575679, 5323.684783
 205.591905, 5313.284670
 207.624545, 5302.813748
 209.671944, 5292.280798
 211.722398, 5281.746149
 213.780715, 5271.185139
 215.852799, 5260.567632
 217.930789, 5249.934040
 220.026908, 5239.222005
 222.141208, 5228.431560
 224.269987, 5217.581862
 226.407867, 5206.700508
 228.556658, 5195.778418
 230.718107, 5184.806885
 232.896905, 5173.762338
 235.094814, 5162.636164
 237.303170, 5151.472446
 239.512888, 5140.317175
 241.745851, 5129.060058
 243.989033, 5117.767048
 246.242947, 5106.435705
 246.696259, 5104.158614
 248.417686, 5095.517256
 248.435820, 5095.426276
 248.441007, 5095.400247
 248.449399, 5095.358145
 248.452117, 5095.344510
 248.457552, 5095.317241
 248.458257, 5095.313706
 248.458628, 5095.311843
 248.458984, 5095.310055
 248.459308, 5095.308429
 248.462550, 5095.292164
 248.494704, 5095.130849
 248.719489, 5094.003202
 249.725066, 5088.961027
 251.719700, 5078.970847
 253.779585, 5068.669608
 255.845816, 5058.352646
 257.926492, 5047.979695
 260.018203, 5037.567970
 262.117889, 5027.132860
 264.225392, 5016.675263
 266.347479, 5006.161784
 268.479330, 4995.616512
 270.619404, 4985.047209
 272.778841, 4974.399106
 274.941400, 4963.752473
 277.112158, 4953.082375
 279.296599, 4942.362040
 281.490633, 4931.611737
 283.701626, 4920.795604
 285.922600, 4909.948028
 288.150724, 4899.082954
 290.393710, 4888.162956
 292.643781, 4877.226086
 294.906961, 4866.243218
 297.183446, 4855.213639
 299.465437, 4844.175276
 301.764926, 4833.070317
 304.067928, 4821.966468
 306.389604, 4810.790822
 308.720301, 4799.590082
 311.065369, 4788.338743
 313.420332, 4777.058484
 315.784519, 4765.752667
 318.159011, 4754.416277
 320.545962, 4743.039216
 322.943466, 4731.630765
 325.352425, 4720.186810
 327.766033, 4708.739792
 330.197939, 4697.225176
 332.633831, 4685.710901
 335.088965, 4674.125054
 337.555321, 4662.505759
 340.031860, 4650.858082
 342.519440, 4639.178162
 345.023622, 4627.440131
 347.538764, 4615.670678
 350.058976, 4603.897479
 352.593858, 4592.075837
 355.142610, 4580.209741
 357.699338, 4568.326801
 360.270044, 4556.399305
 362.850448, 4544.447307
 365.446561, 4532.443187
 368.049100, 4520.430040
 370.663009, 4508.385181
 373.293354, 4496.285506
 375.929053, 4484.182172
 378.574729, 4472.054040
 381.235283, 4459.878865
 383.903976, 4447.687666
 386.590827, 4435.434904
 389.287783, 4423.157551
 391.994667, 4410.856570
 394.706064, 4398.556649
 397.440764, 4386.172801
 400.181286, 4373.784441
 402.936323, 4361.352430
 405.704811, 4348.881819
 408.488933, 4336.363033
 411.284026, 4323.817265
 414.084220, 4311.270970
 416.889096, 4298.726050
 419.708533, 4286.138465
 422.545376, 4273.495807
 425.398278, 4260.804383
 428.257758, 4248.106556
 431.132352, 4235.364588
 434.019837, 4222.588584
 436.919663, 4209.781182
 439.821595, 4196.987670
 442.743417, 4184.129813
 445.676320, 4171.246664
 448.620964, 4158.335499
 451.574264, 4145.409999
 454.535505, 4132.473400
 457.511524, 4119.496014
 460.507034, 4106.457603
 463.511220, 4093.405489
 466.526193, 4080.330637
 469.548137, 4067.249721
 472.589684, 4054.108282
 475.638948, 4040.957905
 476.251346, 4038.319791
 476.720335, 4036.300125
 477.065547, 4034.813864
 477.120290, 4034.578204
 477.136970, 4034.506400
 477.165558, 4034.383340
 477.175153, 4034.342034
 477.176811, 4034.334899
 477.178528, 4034.327509
 477.195695, 4034.253611
 477.346967, 4033.602480
 478.209917, 4029.889175
 480.851419, 4018.534878
 483.929371, 4005.327619
 487.011271, 3992.128228
 490.096576, 3978.939026
 493.199907, 3965.697664
 496.318901, 3952.414538
 499.445243, 3939.125241
 502.589472, 3925.785186
 505.741627, 3912.436841
 508.909317, 3899.048171
 512.088997, 3885.634401
 515.278295, 3872.205690
 518.478661, 3858.756089
 521.689262, 3845.289258
 524.917627, 3831.773851
 528.156191, 3818.241784
 531.404500, 3804.695084
 534.665889, 3791.120030
 537.942055, 3777.509787
 541.228510, 3763.883200
 544.523422, 3750.247997
 547.837509, 3736.560052
 551.167379, 3722.833696
 554.502284, 3709.113382
 557.850130, 3695.366703
 561.210674, 3681.594860
 564.587181, 3667.784720
 567.973018, 3653.963607
 571.371712, 3640.117297
 574.776435, 3626.273724
 578.195979, 3612.397295
 581.627918, 3598.498074
 585.077831, 3584.553726
 588.539660, 3570.589000
 592.010643, 3556.615184
 595.491964, 3542.627640
 598.985547, 3528.618801
 602.491253, 3514.589424
 606.006502, 3500.549978
 609.534511, 3486.487779
 613.078588, 3472.389887
 616.637030, 3458.263336
 620.210215, 3444.106863
 623.792146, 3429.944409
 627.388022, 3415.755580
 630.987118, 3401.582794
 634.607694, 3387.354336
 638.239199, 3373.111950
 641.885623, 3358.840192
 645.541759, 3344.559629
 649.206249, 3330.275670
 652.891571, 3315.939920
 656.587050, 3301.594167
 660.292644, 3287.238707
 664.016097, 3272.843767
 667.742726, 3258.466254
 671.481226, 3244.072689
 675.242879, 3229.619944
 679.003419, 3215.201409
 682.786868, 3200.725127
 686.585612, 3186.220579
 690.392208, 3171.716348
 694.213453, 3157.186693
 698.039404, 3142.669537
 701.880478, 3128.125483
 705.740575, 3113.540054
 709.601892, 3098.980653
 713.488985, 3084.354897
 717.379775, 3069.746100
 721.284794, 3055.114812
 723.174928, 3048.043979
 725.212289, 3040.430467
 729.149558, 2991.016110
 733.087521, 2909.218701
 737.042221, 2827.518722
 741.008085, 2745.667680
 744.992700, 2663.733002
 748.983789, 2581.640254
 752.991009, 2499.558657
 757.010780, 2417.345522
 761.042227, 2335.067272
 765.083601, 2252.749182
 769.142019, 2170.391184
 773.212553, 2087.904149
 777.292638, 2005.381965
 781.381331, 1922.872780
 785.482819, 1840.375675
 789.591904, 1757.851233
 793.707916, 1675.387324
 797.843449, 1592.937286
 801.990962, 1510.345540
 806.141231, 1427.776979
 810.303845, 1345.327567
 814.479445, 1262.851098
 818.666912, 1180.347724
 822.865317, 1097.841553
 827.070061, 1015.372576
 827.238674,  953.618673
 827.246700,  951.158938
 827.252017,  951.016705
 827.255947,  950.920409
 827.258260,  950.852242
 827.259242,  950.814059
 827.260216,  950.795008
 827.269963,  950.731276
 827.367426,  950.093942
 827.956406,  945.689206
 830.575043,  923.863356
 834.897452,  864.102367
 839.275145,  779.611125
 843.659444,  694.541141
 848.060213,  609.545763
 852.472241,  524.514975
 856.888696,  439.563342
 861.321198,  354.726497
 865.757644,  269.910465
 870.199087,  185.280918
 874.655158,  100.771905
 879.114212,   16.318590
 883.589951,  -67.993458
 888.073867,    0.000000
 888.427707,    0.000000
 888.782141,    0.000000
 889.136923,    0.000000
 889.491206,    0.000000
 889.846349,    0.000000
 890.201897,    0.000000
 890.554873,    0.000000
 890.910129,    0.000000
 891.265611,    0.000000
 891.619823,    0.000000
 891.977112,    0.000000
 892.329444,    0.000000
 892.686839,    0.000000
 893.044582,    0.000000
 893.403094,    0.000000
 893.761724,    0.000000
 894.117184,    0.000000
 894.473824,    0.000000
 894.833578,    0.000000
 895.192512,    0.000000
 895.552234,    0.000000
 895.912595,    0.000000
 896.272848,    0.000000
 896.634052,    0.000000
 896.993903,    0.000000
 897.356115,    0.000000
 897.717019,    0.000000
 898.078435,    0.000000
 898.438850,    0.000000
 898.802166,    0.000000
 899.164024,    0.000000
 899.526519,    0.000000
 899.891576,    0.000000
 900.255267,    0.000000
 900.618874,    0.000000
 900.982924,    0.000000
 901.347740,    0.000000
 901.713311,    0.000000
 902.077837,    0.000000
 902.444214,    0.000000
 902.811420,    0.000000
 903.174576,    0.000000
 903.543911,    0.000000
 903.913543,    0.000000
 904.282970,    0.000000
 904.653344,    0.000000
 905.024120,    0.000000
 905.394524,    0.000000
 905.765262,    0.000000
 906.135364,    0.000000
 906.506769,    0.000000
 906.879481,    0.000000
 907.251440,    0.000000
 907.625111,    0.000000
 907.996907,    0.000000
 908.371556,    0.000000
 908.746634,    0.000000
 909.121642,    0.000000
 909.497222,    0.000000
 909.871806,    0.000000
 910.246643,    0.000000
 910.624630,    0.000000
 910.999272,    0.000000
 911.377305,    0.000000
 911.756325,    0.000000
 912.136224,    0.000000
 912.516362,    0.000000
 912.893904,    0.000000
 913.275030,    0.000000
 913.654205,    0.000000
 914.033172,    0.000000
 914.416222,    0.000000
 914.798573,    0.000000
 915.184103,    0.000000
 915.567938,    0.000000
 915.953538,    0.000000
 916.336457,    0.000000
 916.723902,    0.000000
 917.110359,    0.000000
 917.494901,    0.000000
 917.881533,    0.000000
 918.270998,    0.000000
 918.659624,    0.000000
 919.051314,    0.000000
 919.440364,    0.000000
 919.833531,    0.000000
 920.225975,    0.000000
 920.618335,    0.000000
 921.012752,    0.000000
 921.406136,    0.000000
 921.800399,    0.000000
 922.193525,    0.000000
 922.588037,    0.000000
 922.982420,    0.000000
 923.381475,    0.000000
 923.778656,    0.000000
 924.177406,    0.000000
 924.575422,    0.000000
 924.975795,    0.000000
 925.374602,    0.000000
 925.774533,    0.000000
 926.176363,    0.000000
 926.579144,    0.000000
 926.983324,    0.000000
 927.386454,    0.000000
 927.788583,    0.000000
 928.191887,    0.000000
 928.595450,    0.000000
 928.999001,    0.000000
 929.406835,    0.000000
 929.815136,    0.000000
 930.223612,    0.000000
 930.632141,    0.000000
 931.040670,    0.000000
 931.450245,    0.000000
 931.860590,    0.000000
 932.271483,    0.000000
 932.684773,    0.000000
 933.097207,    0.000000
 933.512041,    0.000000
 933.924664,    0.000000
 934.338568,    0.000000
 934.753310,    0.000000
 935.169618,    0.000000
 935.583686,    0.000000
 935.999377,    0.000000
 936.416144,    0.000000
 936.834283,    0.000000
 937.251356,    0.000000
 937.671294,    0.000000
 938.091619,    0.000000
 938.510792,    0.000000
 938.932361,    0.000000
 939.355886,    0.000000
 939.777131,    0.000000
 940.198938,    0.000000
 940.626280,    0.000000
 941.053290,    0.000000
 941.482681,    0.000000
 941.911990,    0.000000
 942.342080,    0.000000
 942.772317,    0.000000
 943.200525,    0.000000
 943.633433,    0.000000
 944.067084,    0.000000
 944.500022,    0.000000
 944.935950,    0.000000
 945.372737,    0.000000
 945.806127,    0.000000
 946.242078,    0.000000
 946.680209,    0.000000
 947.116636,    0.000000
 947.554883,    0.000000
 947.993907,    0.000000
 948.435051,    0.000000
 948.876543,    0.000000
 949.317345,    0.000000
 949.761195,    0.000000
 950.202277,    0.000000
 950.646102,    0.000000
 951.090247,    0.000000
 951.535089,    0.000000
 951.983135,    0.000000
 952.432596,    0.000000
 952.881094,    0.000000
 953.329621,    0.000000
 953.686757,    0.000000
 953.779441,    0.000000
 954.229069,    0.000000
 954.681064,    0.000000
 955.134190,    0.000000
 955.586263,    0.000000
 956.040319,    0.000000
 956.496407,    0.000000
 956.954028,    0.000000
 957.411783,    0.000000
 957.868624,    0.000000
 958.327298,    0.000000
 958.789548,    0.000000
 959.249478,    0.000000
 959.713375,    0.000000
 960.178795,    0.000000
 960.641116,    0.000000
 961.106951,    0.000000
 961.573676,    0.000000
 962.043175,    0.000000
 962.511843,    0.000000
 962.983070,    0.000000
 963.455779,    0.000000
 963.931294,    0.000000
 964.406131,    0.000000
 964.879252,    0.000000
 965.356106,    0.000000
 965.832316,    0.000000
 966.308348,    0.000000
 966.786619,    0.000000
 967.267595,    0.000000
 967.745946,    0.000000
 968.232605,    0.000000
 968.713563,    0.000000
 969.198879,    0.000000
 969.684018,    0.000000
 970.172349,    0.000000
 970.658142,    0.000000
 971.146022,    0.000000
 971.634951,    0.000000
 972.123064,    0.000000
 972.612477,    0.000000
 973.103168,    0.000000
 973.595715,    0.000000
 974.087584,    0.000000
 974.582448,    0.000000
 975.077029,    0.000000
 975.574655,    0.000000
 976.070816,    0.000000
 976.567788,    0.000000
 977.066151,    0.000000
 977.570050,    0.000000
 978.071462,    0.000000
 978.576321,    0.000000
 979.083620,    0.000000
 979.590440,    0.000000
 980.097302,    0.000000
 980.607767,    0.000000
 981.116621,    0.000000
 981.626624,    0.000000
 982.138630,    0.000000
 982.652928,    0.000000
 983.165971,    0.000000
 983.684627,    0.000000
 984.199899,    0.000000
 984.719470,    0.000000
 985.237264,    0.000000
 985.757568,    0.000000
 986.276946,    0.000000
 986.800995,    0.000000
 987.322940,    0.000000
 987.844736,    0.000000
 988.371539,    0.000000
 988.894049,    0.000000
 989.422079,    0.000000
 989.949881,    0.000000
 990.477291,    0.000000
 991.004000,    0.000000
 991.533703,    0.000000
 992.062016,    0.000000
 992.597359,    0.000000
 993.128712,    0.000000
 993.661560,    0.000000
 994.195679,    0.000000
 994.733163,    0.000000
 995.273775,    0.000000
 995.812252,    0.000000
 996.350989,    0.000000
 996.888147,    0.000000
 997.433025,    0.000000
 997.975057,    0.000000
 998.517238,    0.000000
 999.068037,    0.000000
 999.612490,    0.000000
1000.157834,    0.000000
1000.709086,    0.000000
1001.259750,    0.000000
1001.814690,    0.000000
1002.367454,    0.000000
1002.918572,    0.000000
1003.472512,    0.000000
1004.022085,    0.000000
1004.577029,    0.000000
1005.135866,    0.000000
1005.701325,    0.000000
1006.262943,    0.000000
1006.827892,    0.000000
1007.390590,    0.000000
1007.953454,    0.000000
1008.519992,    0.000000
1009.084614,    0.000000
1009.654522,    0.000000
1010.216249,    0.000000
1010.782052,    0.000000
1011.346028,    0.000000
1011.921168,    0.000000
1012.495500,    0.000000
1013.068191,    0.000000
1013.640371,    0.000000
1014.216679,    0.000000
1014.796198,    0.000000
1015.375700,    0.000000
1015.954813,    0.000000
1016.533807,    0.000000
1017.115540,    0.000000
1017.703092,    0.000000
1018.284496,    0.000000
1018.870064,    0.000000
1019.448627,    0.000000
1020.042827,    0.000000
1020.626428,    0.000000
1021.215407,    0.000000
1021.808628,    0.000000
1022.394072,    0.000000
1022.984017,    0.000000
1023.578012,    0.000000
1024.171170,    0.000000
1024.768105,    0.000000
1025.357569,    0.000000
1025.951888,    0.000000
1026.545096,    0.000000
1027.137802,    0.000000
1027.737886,    0.000000
1028.339196,    0.000000
1028.944378,    0.000000
1029.548808,    0.000000
1030.152550,    0.000000
1030.759652,    0.000000
1031.356428,    0.000000
1031.968159,    0.000000
1032.574940,    0.000000
1033.186602,    0.000000
1033.794188,    0.000000
1034.403532,    0.000000
1035.013464,    0.000000
1035.623649,    0.000000
1036.236332,    0.000000
1036.858720,    0.000000
1037.467878,    0.000000
1038.075324,    0.000000
1038.695264,    0.000000
1039.314400,    0.000000
1039.936889,    0.000000
1040.558548,    0.000000
1041.176493,    0.000000
1041.799582,    0.000000
1042.419872,    0.000000
1043.043677,    0.000000
1043.668437,    0.000000
1044.291108,    0.000000
1044.917826,    0.000000
1045.545708,    0.000000
1046.168044,    0.000000
1046.799341,    0.000000
1047.421559,    0.000000
1048.058075,    0.000000
1048.695292,    0.000000
1049.326978,    0.000000
1049.960683,    0.000000
1050.588742,    0.000000
1051.220444,    0.000000
1051.853545,    0.000000
1052.489190,    0.000000
1053.118265,    0.000000
1053.756590,    0.000000
1054.393106,    0.000000
1055.024297,    0.000000
1055.663995,    0.000000
1056.305204,    0.000000
1056.948529,    0.000000
1057.583438,    0.000000
1058.225878,    0.000000
1058.866560,    0.000000
1059.505036,    0.000000
1060.149941,    0.000000
1060.792393,    0.000000
1061.429143,    0.000000
1062.074903,    0.000000
1062.718199,    0.000000
1063.370348,    0.000000
1064.022579,    0.000000
1064.673238,    0.000000
1065.324947,    0.000000
1065.969021,    0.000000
1066.621680,    0.000000
1067.274960,    0.000000
1067.922012,    0.000000
1068.572086,    0.000000
1069.220679,    0.000000
1069.877350,    0.000000
1070.536469,    0.000000
1071.190971,    0.000000
1071.841950,    0.000000
1072.503817,    0.000000
1073.160848,    0.000000
1073.825014,    0.000000
1074.487188,    0.000000
1075.146213,    0.000000
1075.802621,    0.000000
1076.467050,    0.000000
1077.130879,    0.000000
1077.791858,    0.000000
1078.449150,    0.000000
1079.117181,    0.000000
1079.777576,    0.000000
1080.442601,    0.000000
1081.105233,    0.000000
1081.771444,    0.000000
1082.438004,    0.000000
1083.102915,    0.000000
1083.764911,    0.000000
1084.427113,    0.000000
1085.090907,    0.000000
1085.758559,    0.000000
1086.423760,    0.000000
1087.092926,    0.000000
1087.763038,    0.000000
1088.434593,    0.000000
1089.105311,    0.000000
1089.775995,    0.000000
1090.453977,    0.000000
1091.129901,    0.000000
1091.801855,    0.000000
1092.471112,    0.000000
1093.143017,    0.000000
1093.823253,    0.000000
1094.498574,    0.000000
1095.180531,    0.000000
1095.858806,    0.000000
1096.536888,    0.000000
1097.214745,    0.000000
1097.887957,    0.000000
1098.563990,    0.000000
1099.242797,    0.000000
1099.918982,    0.000000
1100.597884,    0.000000
1101.279158,    0.000000
1101.957527,    0.000000
1102.638912,    0.000000
1103.317180,    0.000000
1103.999411,    0.000000
1104.680024,    0.000000
1105.360650,    0.000000
1106.044991,    0.000000
1106.625829,    0.000000
