Time, Horizontal Forces
   0.000000, 68402.939211
   0.000000, 68402.666450
   0.000007, 68401.716892
   0.000082, 68398.505322
   0.000471, 68392.230972
   0.002611, 68377.655435
   0.007883, 68358.972473
   0.016021, 68340.238819
   0.027016, 68321.509470
   0.040922, 68302.716751
   0.057780, 68283.850612
   0.077586, 68264.946268
   0.100326, 68246.029060
   0.125942, 68227.146162
   0.154713, 68208.111786
   0.186823, 68188.863042
   0.222045, 68169.572897
   0.260756, 68150.069171
   0.302570, 68130.572436
   0.347923, 68110.899110
   0.396709, 68091.125099
   0.449072, 68071.215898
   0.505139, 68051.151804
   0.565818, 68030.660213
   0.629321, 68010.364824
   0.696192, 67990.076693
   0.767836, 67969.399288
   0.842671, 67948.811822
   0.922055, 67927.954277
   1.006500, 67906.735252
   1.095504, 67885.318717
   1.189311, 67863.673722
   1.287386, 67841.943657
   1.389598, 67820.166210
   1.495618, 67798.413518
   1.607014, 67776.378459
   1.724723, 67753.915192
   1.846153, 67731.537007
   1.972630, 67709.003958
   2.107465, 67685.769596
   2.244878, 67662.849747
   2.390951, 67639.248348
   2.541755, 67615.633451
   2.696714, 67592.093198
   2.860361, 67567.962774
   3.029808, 67543.700553
   3.206675, 67519.096029
   3.388884, 67494.454823
   3.575572, 67469.892686
   3.771163, 67444.844613
   3.972625, 67419.722014
   4.179952, 67394.531773
   4.393994, 67369.180193
   4.613086, 67343.869464
   4.840682, 67318.212341
   5.075485, 67292.375006
   5.320203, 67266.082856
   5.568898, 67239.983663
   5.828049, 67213.408006
   6.097646, 67186.389240
   6.369353, 67159.765041
   6.654390, 67132.446586
   6.944175, 67105.275006
   7.242556, 67077.892102
   7.553601, 67049.949938
   7.870306, 67022.093312
   8.195511, 66994.075352
   8.527551, 66966.045514
   8.870135, 66937.701032
   9.222438, 66909.127131
   9.587628, 66880.088109
   9.959421, 66851.096606
  10.339511, 66822.022013
  10.731027, 66792.636861
  11.132951, 66763.033243
  11.543166, 66733.375178
  11.961975, 66703.644951
  12.395725, 66673.408421
  12.834698, 66643.352302
  13.285572, 66613.022615
  13.747262, 66582.504896
  14.217976, 66551.924882
  14.698218, 66521.254305
  15.197074, 66489.932462
  15.699039, 66458.941532
  16.215408, 66427.585725
  16.748197, 66395.763733
  17.289480, 66363.960734
  17.843884, 66331.910885
  18.404680, 66300.006373
  18.988049, 66267.341951
  19.574672, 66235.010036
  20.173425, 66202.518047
  20.783393, 66169.922353
  21.401260, 66137.401293
  22.039416, 66104.314633
  22.688402, 66071.167386
  23.350597, 66037.843957
  24.023375, 66004.481910
  24.708915, 65970.977723
  24.848461, 65964.216568
  24.918110, 65960.849292
  24.960115, 65958.820880
  24.987430, 65957.502760
  25.081498, 65952.969095
  25.082059, 65952.942099
  25.082987, 65952.897373
  25.083383, 65952.878344
  25.083495, 65952.872934
  25.083548, 65952.869896
  25.083601, 65952.866524
  25.084137, 65952.832810
  25.088672, 65952.547402
  25.116551, 65950.793556
  25.219963, 65944.296801
  25.527125, 65925.081044
  26.141405, 65887.010328
  26.785931, 65847.563241
  27.447079, 65807.609723
  28.115090, 65767.748210
  28.795350, 65727.660576
  29.485894, 65687.469524
  30.187059, 65647.160252
  30.898280, 65606.769635
  31.625886, 65565.948410
  32.364925, 65524.985546
  33.122314, 65483.510253
  33.887918, 65442.086690
  34.664240, 65400.580714
  35.453035, 65358.903776
  36.253324, 65317.113384
  37.061997, 65275.373803
  37.887845, 65233.238073
  38.726487, 65190.940124
  39.568639, 65148.946537
  40.432427, 65106.359197
  41.301106, 65064.010396
  42.184307, 65021.431281
  43.076800, 64978.878139
  43.989895, 64935.820470
  44.913626, 64892.737670
  45.848172, 64849.623085
  46.797072, 64806.317943
  47.758548, 64762.908849
  48.728286, 64719.591544
  49.715617, 64675.953647
  50.715006, 64632.246729
  51.729581, 64588.339046
  52.759859, 64544.215567
  53.800502, 64500.108755
  54.861502, 64455.601831
  55.940737, 64410.795527
  57.025220, 64366.230619
  58.120526, 64321.674989
  59.239747, 64276.604602
  60.369394, 64231.570587
  61.517558, 64186.254957
  62.678802, 64140.878200
  63.844125, 64095.789506
  65.034125, 64050.195813
  66.232218, 64004.738798
  67.455031, 63958.793565
  68.684252, 63913.052997
  69.936302, 63866.909827
  71.197192, 63820.884463
  72.473338, 63774.743495
  73.766415, 63728.431226
  75.076415, 63681.953571
  76.403491, 63635.310504
  77.734368, 63588.967634
  79.090532, 63542.179511
  80.452946, 63495.606963
  81.833859, 63448.831869
  83.234743, 63401.811326
  84.649742, 63354.746631
  86.076075, 63307.731050
  87.529580, 63260.248944
  89.002517, 63212.563066
  90.487151, 63164.926715
  91.983098, 63117.351531
  93.490940, 63069.818462
  95.029204, 63021.750809
  96.585428, 62973.547587
  98.148737, 62925.545683
  99.729079, 62877.439154
 101.324331, 62829.295300
 102.941287, 62780.913439
 103.265878, 62771.250911
 103.458075, 62765.537275
 103.568907, 62762.245071
 103.670897, 62759.217221
 103.750633, 62756.851129
 103.815717, 62754.920584
 103.862810, 62753.524098
 103.908576, 62752.167278
 103.960808, 62750.619163
 103.970275, 62750.338637
 103.972680, 62750.267357
 103.973243, 62750.250681
 103.973543, 62750.241780
 103.973675, 62750.237380
 103.973835, 62750.231263
 103.975433, 62750.170089
 103.991410, 62749.558357
 104.104923, 62745.213867
 104.512434, 62729.638800
 105.920854, 62676.068576
 107.399548, 62620.251862
 108.888289, 62564.488181
 110.397087, 62508.406609
 111.913332, 62452.478720
 113.444042, 62396.446009
 114.980652, 62340.621852
 116.546503, 62284.164026
 118.122274, 62227.776550
 119.709281, 62171.412263
 121.305428, 62115.145201
 122.924303, 62058.500436
 124.551241, 62001.994798
 126.193184, 61945.387698
 127.856354, 61888.470170
 129.529032, 61831.646628
 131.216982, 61774.722278
 132.918510, 61717.756862
 134.630181, 61660.865916
 136.359853, 61603.790472
 138.111584, 61546.402957
 139.881820, 61488.826238
 141.656321, 61431.523499
 143.451338, 61373.970754
 145.260899, 61316.363687
 147.084571, 61258.718046
 148.920652, 61201.088846
 150.771945, 61143.389708
 152.644271, 61085.443486
 154.530512, 61027.474362
 156.437327, 60969.281247
 158.353374, 60911.212304
 160.280389, 60853.213922
 162.228984, 60794.969505
 164.199367, 60736.478915
 166.177699, 60678.154797
 168.179261, 60619.548831
 170.188575, 60561.116355
 172.217971, 60502.499869
 174.265273, 60443.766300
 176.323559, 60385.115624
 178.395849, 60326.461945
 180.478634, 60267.904623
 182.589947, 60208.940817
 184.709407, 60150.143093
 186.847517, 60091.220707
 188.999008, 60032.320828
 191.170846, 59973.255218
 193.354765, 59914.250703
 195.557972, 59855.114259
 197.785531, 59795.714874
 200.028555, 59736.293329
 202.289230, 59676.793692
 204.561836, 59617.367626
 206.857959, 59557.714629
 209.160254, 59498.286396
 211.485733, 59438.644682
 213.824874, 59379.036467
 216.184489, 59319.290151
 218.564823, 59259.403259
 220.954382, 59199.665909
 223.374309, 59139.552683
 225.802736, 59079.609825
 228.246820, 59019.660124
 230.714584, 58959.509785
 233.196805, 58899.386278
 235.698407, 58839.171962
 238.223447, 58778.772816
 240.757637, 58718.531875
 243.307499, 58658.293628
 243.819123, 58646.251780
 244.160930, 58638.215138
 245.234459, 58613.017023
 245.255574, 58612.522056
 245.260895, 58612.397324
 245.269421, 58612.197465
 245.270580, 58612.170317
 245.271239, 58612.154858
 245.271652, 58612.144851
 245.272031, 58612.133127
 245.275823, 58612.015891
 245.308995, 58610.990159
 245.489763, 58605.402081
 246.397362, 58577.384377
 248.642360, 58508.357035
 250.910951, 58438.999135
 253.194482, 58369.579834
 255.489820, 58300.195783
 257.796429, 58230.863648
 260.112136, 58161.648552
 262.444877, 58092.314468
 264.792560, 58022.926238
 267.152670, 57953.559686
 269.527490, 57884.149100
 271.920292, 57814.601570
 274.327732, 57745.016951
 276.754404, 57675.265366
 279.196508, 57605.459152
 281.639954, 57535.999781
 284.109086, 57466.196481
 286.587877, 57396.505436
 289.079199, 57326.845972
 291.592865, 57256.946583
 294.118875, 57187.088277
 296.647416, 57117.540707
 299.192465, 57047.918739
 301.757769, 56978.123098
 304.342926, 56908.168676
 306.942795, 56838.197238
 309.557182, 56768.215438
 312.176347, 56698.483290
 314.815464, 56628.597256
 317.466208, 56558.779707
 320.132569, 56488.926467
 322.817880, 56418.952729
 325.520222, 56348.911245
 328.230660, 56279.034016
 330.963415, 56208.955951
 333.704471, 56139.038029
 336.468821, 56068.899555
 339.248237, 55998.752293
 342.033247, 55928.834812
 344.844506, 55858.630230
 347.663742, 55788.597026
 350.492407, 55718.697950
 353.334963, 55648.822699
 356.196160, 55578.856264
 359.073472, 55508.862563
 361.965013, 55438.888796
 364.876543, 55368.797556
 367.798876, 55298.811291
 370.741193, 55228.711433
 373.695465, 55158.690782
 376.672141, 55088.503588
 379.647749, 55018.702807
 382.645542, 54948.742508
 385.664177, 54878.657404
 388.695286, 54808.643455
 391.744345, 54738.575252
 394.807075, 54668.552458
 397.895053, 54598.312934
 400.984272, 54528.403125
 404.087347, 54458.535927
 407.216091, 54388.447960
 410.358140, 54318.418658
 413.516237, 54248.387691
 416.692282, 54178.314525
 419.882047, 54108.293580
 423.087385, 54038.284921
 426.311910, 53968.211287
 429.545002, 53898.303918
 432.802710, 53828.217141
 436.070654, 53758.261936
 439.358729, 53688.227329
 442.666954, 53618.115330
 445.986607, 53548.111803
 449.316383, 53478.243707
 452.668690, 53408.251802
 456.031707, 53338.384186
 459.419409, 53268.352023
 462.816887, 53198.464931
 463.500268, 53184.449249
 463.991797, 53174.376908
 464.329741, 53167.455960
 464.642615, 53161.051447
 464.904321, 53155.696564
 464.952813, 53154.704585
 465.008249, 53153.570610
 465.020106, 53153.328084
 465.031843, 53153.088025
 465.035901, 53153.005024
 465.037453, 53152.973220
 465.039173, 53152.937635
 465.056369, 53152.581789
 465.197834, 53149.654741
 465.963858, 53133.815459
 468.810677, 53075.104582
 472.227554, 53004.954351
 475.673722, 52934.549536
 479.138752, 52864.106654
 482.604102, 52794.001662
 486.092738, 52723.769692
 489.599800, 52653.510971
 493.128471, 52583.163805
 496.674129, 52512.822237
 500.224997, 52442.719386
 503.801621, 52372.450330
 507.396981, 52302.155655
 510.995201, 52232.145162
 514.609631, 52162.158107
 518.246373, 52092.078082
 521.897149, 52022.066083
 525.566409, 51952.037619
 529.253570, 51882.005240
 532.958511, 51811.972530
 536.673319, 51742.089251
 540.412163, 51672.089865
 544.167612, 51602.115435
 547.932129, 51532.306285
 551.718431, 51462.427173
 555.522072, 51392.561805
 559.340358, 51322.760368
 563.178382, 51252.930771
 567.036967, 51183.059805
 570.907534, 51113.303555
 574.798944, 51043.503099
 578.708079, 50973.715832
 582.627476, 50904.075135
 586.567398, 50834.399116
 590.532868, 50764.601339
 594.507978, 50694.962810
 598.500367, 50625.349650
 602.505612, 50555.839375
 606.535368, 50486.230907
 610.575486, 50416.769599
 614.631440, 50347.361197
 618.706842, 50277.944830
 622.797647, 50208.590303
 626.902631, 50139.318588
 631.027386, 50070.036115
 635.183907, 50000.544187
 639.346251, 49931.277704
 643.521000, 49862.126043
 647.714792, 49792.979659
 651.924416, 49723.892321
 656.166071, 49654.600466
 660.409120, 49585.605184
 664.678835, 49516.495564
 664.967817, 49511.829597
 668.963366, 49447.464908
 673.262209, 49378.134919
 677.582682, 49307.935318
 681.917670, 49236.999461
 686.289143, 49165.018064
 690.675101, 49092.349547
 695.073570, 49019.060684
 699.497039, 48944.981993
 703.941253, 48870.201984
 708.395109, 48794.921326
 712.878676, 48718.868038
 717.375034, 48642.292016
 721.883566, 48565.262367
 726.419429, 48487.578332
 730.954866, 48409.649430
 735.508572, 48331.270064
 740.077775, 48252.468913
 744.677960, 48173.051602
 749.282291, 48093.396023
 753.896152, 48013.505500
 758.526265, 47933.286325
 763.166859, 47852.837177
 767.818097, 47772.188568
 772.484386, 47691.292942
 777.155953, 47610.292881
 781.847123, 47529.038850
 786.542973, 47447.733358
 787.485451, 47419.216208
 788.358760, 47403.851532
 788.683032, 47396.462027
 789.007469, 47390.876391
 789.072387, 47388.903176
 789.259250, 47386.089132
 789.262199, 47385.431275
 789.266411, 47385.362962
 789.267314, 47385.336490
 789.267639, 47385.329051
 789.268011, 47385.323218
 789.270482, 47385.290312
 789.283259, 47385.118405
 789.333685, 47384.430001
 789.469207, 47382.527090
 789.690292, 47379.247809
 790.014201, 47374.370965
 790.338547, 47369.150644
 790.663164, 47363.927429
 790.988565, 47358.695343
 791.314197, 47353.459794
 791.639991, 47348.223512
 791.965915, 47342.987165
 792.292226, 47337.747619
 792.617206, 47332.525901
 792.942316, 47327.309176
 793.268711, 47322.077945
 793.595606, 47316.838345
 793.923061, 47311.592270
 794.250741, 47306.343816
 794.578340, 47301.098012
 794.906607, 47295.846426
 795.234999, 47290.593450
 795.563038, 47285.346961
 795.891986, 47280.092688
 796.221244, 47274.833974
 796.550817, 47269.572803
 796.880702, 47264.309220
 797.209856, 47259.056378
 797.539956, 47253.796788
 797.869143, 47248.548078
 798.200018, 47243.284046
 798.531410, 47238.010538
 798.863071, 47232.734701
 799.192981, 47227.482649
 799.525204, 47222.210603
 799.857335, 47216.934706
 800.188822, 47211.670084
 800.521856, 47206.391418
 800.855000, 47201.109084
 801.188162, 47195.829189
 801.521890, 47190.545289
 801.856241, 47185.254836
 802.190830, 47179.962435
 802.524934, 47174.678386
 802.859611, 47169.392135
 803.194311, 47164.106850
 803.528590, 47158.829921
 803.862758, 47153.559103
 804.199411, 47148.261441
 804.535815, 47142.961582
 804.873037, 47137.655958
 805.210660, 47132.346022
 805.547169, 47127.051787
 805.885571, 47121.741797
 806.223888, 47116.429791
 806.562061, 47111.123391
 806.901421, 47105.806655
 807.239101, 47100.509830
 807.577748, 47095.210790
 807.918003, 47089.892530
 808.258604, 47084.568190
 808.599629, 47079.241278
 808.939017, 47073.936467
 809.280545, 47068.615416
 809.622895, 47063.280790
 809.965792, 47057.940596
 810.309339, 47052.594632
 810.649953, 47047.285596
 810.993768, 47041.952522
 811.336323, 47036.627263
 811.680620, 47031.289712
 812.023747, 47025.964085
 812.369246, 47020.618446
 812.712720, 47015.292719
 813.058009, 47009.956815
 813.404167, 47004.608368
 813.750703, 46999.256654
 814.097846, 46993.900751
 814.445955, 46988.535649
 814.794100, 46983.171098
 815.141499, 46977.819712
 815.489020, 46972.474049
 815.839095, 46967.102397
 816.187112, 46961.750372
 816.537315, 46956.384669
 816.888845, 46951.000224
 817.240292, 46945.616688
 817.590644, 46940.251014
 817.942030, 46934.881981
 818.292602, 46929.523501
 818.645283, 46924.148253
 818.999495, 46918.752475
 819.351915, 46913.376925
 819.705468, 46907.999690
 820.055631, 46902.662563
 820.411636, 46897.275219
 820.765108, 46891.900995
 821.121913, 46887.788795
 821.478414, 46883.685096
 821.834556, 46879.590512
 822.191878, 46875.487370
 822.549467, 46871.386172
 822.907309, 46867.287124
 823.266705, 46863.175345
 823.627411, 46859.053691
 823.987385, 46854.945525
 824.347238, 46850.843848
 824.706783, 46846.750796
 825.067265, 46842.652208
 825.428164, 46838.554023
 825.791241, 46834.436324
 826.152910, 46830.339782
 826.517250, 46826.218236
 826.881875, 46822.098736
 827.246017, 46817.989965
 827.610386, 46813.883922
 827.974336, 46809.787872
 828.339939, 46805.678522
 828.706051, 46801.568803
 829.070723, 46797.480566
 829.437443, 46793.374715
 829.804734, 46789.267856
 830.171239, 46785.175176
 830.538886, 46781.075138
 830.906634, 46776.979392
 831.275686, 46772.874577
 831.645262, 46768.769403
 832.015966, 46764.657212
 832.385941, 46760.558617
 832.757302, 46756.450208
 833.128418, 46752.350044
 833.499824, 46748.252235
 833.873455, 46744.135492
 834.247141, 46740.023773
 834.620515, 46735.921108
 834.994111, 46731.821655
 835.367293, 46727.732381
 835.742370, 46723.628008
 836.115558, 46719.549965
 836.490737, 46715.455864
 836.867146, 46711.354073
 837.243819, 46707.255152
 837.623738, 46703.126763
 838.003123, 46699.010025
 838.381957, 46694.905101
 838.761124, 46690.802435
 839.140840, 46686.699690
 839.521059, 46682.597404
 839.904094, 46678.470696
 840.287107, 46674.350217
 840.669194, 46670.245675
 841.052109, 46666.138227
 841.434547, 46662.041887
 841.818844, 46657.931663
 842.203121, 46653.827708
 842.590598, 46649.695714
 842.978239, 46645.568133
 843.365805, 46641.447526
 843.752366, 46637.343758
 844.141553, 46633.218319
 844.531453, 46629.091564
 844.920042, 46624.984926
 845.308530, 46620.885574
 845.699247, 46616.768983
 846.093096, 46612.625772
 846.486041, 46608.498462
 846.878757, 46604.379923
 847.272204, 46600.260124
 847.667664, 46596.125701
 848.063251, 46591.996436
 848.459136, 46587.870554
 848.855046, 46583.750916
 849.249708, 46579.650739
 849.648055, 46575.518836
 850.047655, 46571.380578
 850.448721, 46567.233803
 850.740545, 46564.220739
 850.847552, 46563.116786
 851.248550, 46558.984070
 851.650954, 46554.843615
 852.053005, 46550.713534
 852.456173, 46546.578746
 852.859529, 46542.448833
 853.262937, 46538.325190
 853.664658, 46534.225560
 854.070406, 46530.091691
 854.473980, 46525.986809
 854.880962, 46521.854165
 855.288779, 46517.720025
 855.697257, 46513.586177
 856.104986, 46509.466897
 856.512307, 46505.358719
 856.919107, 46501.262760
 857.330117, 46497.131483
 857.741155, 46493.007033
 858.153223, 46488.879392
 858.566155, 46484.750293
 858.980851, 46480.610779
 859.394845, 46476.485522
 859.809368, 46472.362254
 860.224052, 46468.244643
 860.639071, 46464.130999
 861.054911, 46460.016520
 861.472031, 46455.896733
 861.890595, 46451.770100
 862.310521, 46447.637511
 862.731861, 46443.498523
 863.154442, 46439.354915
 863.576251, 46435.226437
 863.998267, 46431.103512
 864.423658, 46426.955280
 864.847615, 46422.828695
 865.274313, 46418.683162
 865.700553, 46414.549833
 866.126290, 46410.429112
 866.556278, 46406.275093
 866.985867, 46402.132816
 867.415383, 46397.999120
 867.845905, 46393.863660
 868.276104, 46389.739224
 868.708725, 46385.599560
 869.140451, 46381.476453
 869.576537, 46377.319812
 870.012846, 46373.169205
 870.446832, 46369.048802
 870.884445, 46364.902157
 871.319061, 46360.792049
 871.756899, 46356.659678
 872.193985, 46352.542636
 872.632207, 46348.423138
 873.070710, 46344.309283
 873.513333, 46340.165174
 873.956834, 46336.021321
 874.400492, 46331.884486
 874.844860, 46327.749545
 875.289620, 46323.619506
 875.734848, 46319.493669
 876.184686, 46315.333828
 876.633802, 46311.189395
 877.082341, 46307.058997
 877.532087, 46302.926233
 877.982566, 46298.795527
 878.433219, 46294.672020
 878.887957, 46290.520073
 879.339902, 46286.402525
 879.794161, 46282.272827
 880.245220, 46278.181100
 880.701407, 46274.051849
 881.159159, 46269.917532
 881.614355, 46265.815349
 882.072952, 46261.691639
 882.534446, 46257.551136
 882.994437, 46253.433357
 883.457255, 46249.299587
 883.919050, 46245.184278
 884.379512, 46241.090115
 884.844358, 46236.966375
 885.310555, 46232.840133
 885.777754, 46228.714568
 886.245476, 46224.593949
 886.714606, 46220.470545
 887.184203, 46216.352699
 887.652873, 46212.252625
 888.123872, 46208.141874
 888.596293, 46204.028497
 889.069097, 46199.921595
 889.543247, 46195.812863
 890.017522, 46191.712931
 890.493877, 46187.604975
 890.972369, 46183.488646
 891.452438, 46179.368878
 891.931618, 46175.266851
 892.409608, 46171.185105
 892.892330, 46167.073166
 893.374647, 46162.974946
 893.860088, 46158.860550
 894.343580, 46154.773013
 894.831197, 46150.661057
 895.316950, 46146.575280
 895.803820, 46142.490569
 896.293957, 46138.389048
 896.782697, 46134.309801
 897.273072, 46130.227542
 897.764624, 46126.146176
 898.254797, 46122.086920
 898.749174, 46118.003649
 899.243593, 46113.930879
 899.740672, 46109.847138
 900.235296, 46105.794459
 900.730890, 46101.744733
 901.229199, 46097.683825
 901.729354, 46093.618993
 902.228191, 46089.575950
 902.728166, 46085.534801
 903.231582, 46081.477091
 903.733718, 46077.440945
 904.237947, 46073.399289
 904.744920, 46069.347066
 905.249575, 46065.324763
 905.759700, 46061.270421
 906.265723, 46057.260164
 906.776079, 46053.227152
 907.288803, 46049.187154
 907.800335, 46045.168262
 908.313752, 46041.146333
 908.823663, 46037.163548
 909.338923, 46033.150810
 909.852405, 46029.163756
 910.371377, 46025.146073
 910.890248, 46021.141253
 911.411131, 46017.133048
 911.929621, 46013.155353
 912.449235, 46009.181142
 912.969317, 46005.215494
 913.492172, 46001.240956
 914.014535, 45997.282428
 914.539564, 45993.316060
 915.063629, 45989.369348
 915.587586, 45985.435809
 916.113105, 45981.502957
 916.642982, 45977.550084
 917.170475, 45973.627569
 917.702607, 45969.683270
 918.231010, 45965.779241
 918.760753, 45961.877965
 919.299081, 45957.926438
 919.830790, 45954.036342
 920.367982, 45950.119103
 920.900765, 45946.246899
 921.439635, 45942.343502
 921.979190, 45938.448303
 922.519948, 45934.557636
 923.061489, 45930.674603
 923.601951, 45926.812542
 924.147714, 45922.926029
 924.694114, 45919.048497
 925.237346, 45915.206864
 925.784711, 45911.349538
 926.334331, 45907.489995
 926.879394, 45903.675994
 927.430473, 45899.833603
 927.983365, 45895.992437
 928.533587, 45892.183600
 929.085306, 45888.378218
 929.638016, 45884.579879
 930.194363, 45880.770576
 930.748403, 45876.991057
 931.305107, 45873.207446
 931.866458, 45869.406528
 932.427950, 45865.619015
 932.986301, 45861.866934
 933.544443, 45858.130451
 934.109659, 45854.361092
 934.671689, 45850.627420
 935.233143, 45846.911966
 935.798453, 45843.185521
 936.369820, 45839.433980
 936.932199, 45835.756006
 937.501779, 45832.045662
 938.070120, 45828.358166
 938.639947, 45824.675850
 939.211626, 45820.996488
 939.783597, 45817.330201
 940.360123, 45813.649863
 940.933846, 45810.002524
 941.509572, 45806.357590
 942.088454, 45802.707983
 942.670036, 45799.056807
 943.247443, 45795.447178
 943.825673, 45791.847714
 944.403519, 45788.265959
 944.986854, 45784.665708
 945.563568, 45781.121662
 946.152355, 45777.519173
 946.738586, 45773.948133
 947.319510, 45770.424982
 947.905926, 45766.884247
 948.494704, 45763.345140
 949.081513, 45759.833714
 949.670868, 45756.322986
 950.252091, 45752.876343
 950.837512, 45749.420504
 951.426090, 45745.961926
 952.019675, 45742.490068
 952.612582, 45739.038363
 953.208737, 45735.584064
 953.807557, 45732.130798
 954.403160, 45728.712472
 954.995900, 45725.326798
 955.589353, 45721.953268
 956.186068, 45718.577569
 956.783145, 45715.216248
 957.387695, 45711.829605
 957.988632, 45708.479916
 958.589317, 45705.148275
 959.192254, 45701.820892
 959.798146, 45698.494105
 960.405852, 45695.174377
 961.009918, 45691.891439
 961.616263, 45688.613063
 962.223086, 45685.349105
 962.827901, 45682.112882
 963.428300, 45678.917014
 964.036335, 45675.697476
 964.649807, 45672.466478
 965.255081, 45669.295713
 965.867752, 45666.103452
 966.482198, 45662.919390
 967.096803, 45659.751981
 967.711758, 45656.600262
 968.326052, 45653.469416
 968.937397, 45650.370942
 969.556214, 45647.252224
 970.165572, 45644.198511
 970.788245, 45641.095841
 971.400805, 45638.061096
 972.021428, 45635.004136
 972.637726, 45631.986147
 973.255395, 45628.979109
 973.873419, 45625.988049
 974.493826, 45623.003275
 975.117351, 45620.021485
 975.740910, 45617.057570
 976.358558, 45614.139538
 976.984981, 45611.198127
 977.614777, 45608.259240
 978.240673, 45605.356792
 978.871688, 45602.449020
 979.499599, 45599.573901
 980.130994, 45596.701291
 980.762547, 45593.846488
 981.388682, 45591.034465
 982.016994, 45588.230974
 982.646575, 45585.440217
 983.269067, 45582.698994
 983.905965, 45579.912975
 984.540656, 45577.155362
 985.170190, 45574.438657
 985.800926, 45571.735244
 986.440157, 45569.014296
 987.078359, 45566.316683
 987.718820, 45563.628566
 988.353429, 45560.983833
 988.987872, 45558.358516
 989.626455, 45555.734978
 990.268259, 45553.117327
 990.907085, 45550.530851
 991.553088, 45547.934635
 992.200075, 45545.353934
 992.843347, 45542.807367
 993.492028, 45540.258891
 994.139021, 45537.736561
 994.775608, 45535.273822
 995.418036, 45532.807614
 996.062950, 45530.351195
 996.711661, 45527.899854
 997.356270, 45525.483427
 998.004036, 45523.074662
 998.647701, 45520.700505
 999.297063, 45518.324893
 999.943786, 45515.978458
1000.602845, 45513.607313
1001.251571, 45511.293108
1001.901280, 45508.995051
1002.558782, 45506.689450
1003.213927, 45504.412155
1003.863771, 45502.173045
1004.517961, 45499.938839
1005.169035, 45497.735076
1005.820142, 45495.550963
1006.476638, 45493.368775
1007.124224, 45491.235883
1007.784955, 45489.079844
1008.438285, 45486.967966
1009.100166, 45484.848735
1009.714017, 45482.901542
