Time, Horizontal Forces
   0.000000, 68402.939211
   0.000001, 68402.625891
   0.000010, 68401.432572
   0.000165, 68396.628238
   0.000906, 68388.073668
   0.003878, 68372.114805
   0.009197, 68355.443220
   0.016801, 68338.730949
   0.026649, 68322.065132
   0.038817, 68305.329630
   0.053367, 68288.488715
   0.070270, 68271.611321
   0.089427, 68254.793511
   0.111137, 68237.795811
   0.135183, 68220.815401
   0.161653, 68203.793935
   0.190899, 68186.543493
   0.222436, 68169.369136
   0.256730, 68152.028189
   0.293710, 68134.586756
   0.332874, 68117.278330
   0.374826, 68099.836977
   0.420181, 68082.050371
   0.468295, 68064.206059
   0.519009, 68046.368067
   0.573030, 68028.304813
   0.629770, 68010.231161
   0.689907, 67991.947576
   0.752710, 67973.689453
   0.819295, 67955.149528
   0.888689, 67936.616596
   0.961195, 67918.014486
   1.037710, 67899.133713
   1.117281, 67880.227524
   1.200804, 67861.097792
   1.288183, 67841.788245
   1.379665, 67822.265974
   1.473406, 67802.926660
   1.570169, 67783.602916
   1.671274, 67764.042508
   1.776728, 67744.265961
   1.887692, 67724.084599
   2.002431, 67703.835844
   2.121006, 67683.515687
   2.244075, 67663.022365
   2.371810, 67642.343078
   2.504607, 67621.431561
   2.640912, 67600.541719
   2.782805, 67579.365718
   2.928371, 67558.200629
   3.078173, 67536.967303
   3.235231, 67515.258848
   3.397406, 67493.394793
   3.562111, 67471.723090
   3.732541, 67449.824993
   3.907539, 67427.859882
   4.091574, 67405.290784
   4.278486, 67382.888720
   4.470909, 67360.337655
   4.667243, 67337.829141
   4.870426, 67315.034866
   5.079616, 67292.064369
   5.294193, 67268.995106
   5.514990, 67245.746604
   5.740566, 67222.477344
   5.971629, 67199.117860
   6.208607, 67175.632029
   6.456622, 67151.534460
   6.706495, 67127.727086
   6.963874, 67103.670874
   7.226829, 67079.555484
   7.496465, 67055.285999
   7.774878, 67030.687626
   8.059158, 67006.028909
   8.349294, 66981.314177
   8.649138, 66956.227383
   8.952195, 66931.317681
   9.261746, 66906.313589
   9.582220, 66880.871610
   9.907815, 66855.463286
  10.239774, 66829.992806
  10.583311, 66804.073355
  10.928569, 66778.452908
  11.281768, 66752.667011
  11.642269, 66726.769521
  12.010671, 66700.724007
  12.389360, 66674.373114
  12.771389, 66648.203653
  13.161104, 66621.916785
  13.567929, 66594.896990
  13.977958, 66568.080626
  14.393994, 66541.279700
  14.821963, 66514.120759
  15.256141, 66486.975174
  15.698965, 66459.693689
  16.150205, 66432.296574
  16.612735, 66404.618332
  17.082660, 66376.899483
  17.557448, 66349.288399
  18.043880, 66321.394976
  18.534084, 66293.673255
  19.035959, 66265.679128
  19.545728, 66237.630453
  20.066775, 66209.347359
  20.593832, 66181.119867
  21.131081, 66152.726717
  21.681736, 66124.008211
  22.244016, 66095.068594
  22.811716, 66066.230011
  23.386520, 66037.405198
  23.973538, 66008.342678
  24.577856, 65978.804820
  24.698939, 65972.931802
  24.798636, 65968.107203
  25.103839, 65953.399647
  25.108509, 65953.175309
  25.112574, 65952.980073
  25.113470, 65952.937041
  25.113910, 65952.915916
  25.114706, 65952.877658
  25.114810, 65952.872693
  25.114870, 65952.869100
  25.114926, 65952.865627
  25.115479, 65952.830896
  25.120447, 65952.519025
  25.152281, 65950.521447
  25.279337, 65942.561924
  25.673277, 65918.015395
  26.264771, 65881.526225
  26.844688, 65846.166413
  27.429127, 65810.933168
  28.028125, 65775.227868
  28.629911, 65739.756778
  29.245352, 65703.882806
  29.870629, 65667.838641
  30.503840, 65631.738364
  31.146934, 65595.475096
  31.800066, 65559.046079
  32.458399, 65522.722614
  33.123687, 65486.406827
  33.801557, 65449.796717
  34.488694, 65413.078280
  35.186614, 65376.175845
  35.893623, 65339.183944
  36.614023, 65301.884240
  37.335990, 65264.889708
  38.071039, 65227.610518
  38.814894, 65190.269562
  39.565626, 65152.964680
  40.327566, 65115.483334
  41.102904, 65077.725304
  41.887439, 65039.901009
  42.675608, 65002.277225
  43.478260, 64964.338414
  44.292672, 64926.221196
  45.113610, 64888.172762
  45.941456, 64850.174327
  46.785475, 64811.805885
  47.638233, 64773.411748
  48.501588, 64734.910757
  49.372286, 64696.449644
  50.254449, 64657.848378
  51.142663, 64619.345095
  52.046696, 64580.520154
  52.962047, 64541.573614
  53.880411, 64502.858032
  54.809296, 64464.055454
  55.751913, 64425.036618
  56.705841, 64385.906792
  57.671234, 64346.663351
  58.650170, 64307.226637
  59.633674, 64267.959131
  60.632449, 64228.435371
  61.644203, 64188.752214
  62.669200, 64148.904323
  63.702929, 64109.069611
  64.749582, 64069.089065
  65.804696, 64029.135321
  66.866533, 63989.273308
  67.944999, 63949.134171
  69.025887, 63909.247698
  70.124255, 63869.059462
  71.232793, 63828.841834
  72.352021, 63788.577497
  73.487722, 63748.062900
  74.634906, 63707.480651
  75.790774, 63666.930885
  76.959483, 63626.269456
  78.144415, 63585.383510
  79.341050, 63544.433265
  80.543252, 63503.628387
  81.756680, 63462.776199
  82.983465, 63421.807687
  84.219771, 63380.852852
  85.468472, 63339.817906
  86.731270, 63298.650165
  88.011320, 63257.251844
  89.305378, 63215.732652
  90.606500, 63174.316358
  91.914189, 63133.016827
  93.232949, 63091.691409
  94.573382, 63050.012960
  95.917871, 63008.531778
  97.278426, 62966.877689
  98.652852, 62925.121774
 100.033656, 62883.492043
 101.432892, 62841.627006
 102.847364, 62799.627232
 104.274395, 62757.574972
 104.331804, 62755.889883
 104.380892, 62754.449417
 104.428592, 62753.050040
 104.486914, 62751.339520
 104.499953, 62750.957203
 104.515657, 62750.496741
 104.518984, 62750.399185
 104.520606, 62750.351622
 104.523851, 62750.256495
 104.524217, 62750.245764
 104.524429, 62750.239547
 104.526549, 62750.159224
 104.529199, 62750.058848
 104.555698, 62749.055098
 104.704837, 62743.408646
 105.233085, 62723.445500
 106.462419, 62677.206198
 107.789108, 62627.643385
 109.127921, 62577.977161
 110.475074, 62528.349442
 111.833982, 62478.635778
 113.196882, 62429.119842
 114.578508, 62379.268531
 115.970095, 62329.402563
 117.373348, 62279.462619
 118.784784, 62229.573694
 120.209030, 62179.573708
 121.639144, 62129.706944
 123.084385, 62079.651986
 124.538332, 62029.633554
 126.008637, 61979.391163
 127.486492, 61929.228081
 128.971896, 61879.143551
 130.473043, 61828.863350
 131.982619, 61778.634687
 133.501065, 61728.442885
 135.035527, 61678.054141
 136.577192, 61627.759676
 138.130599, 61577.411861
 139.702251, 61526.803871
 141.282079, 61476.262636
 142.877756, 61425.544584
 144.477184, 61375.034833
 146.086367, 61324.542402
 147.715595, 61273.748012
 149.357840, 61222.875278
 151.004513, 61172.190071
 152.673304, 61121.150349
 154.347321, 61070.275408
 156.035869, 61019.282864
 157.733772, 60968.330595
 159.438942, 60917.480809
 161.152497, 60866.699367
 162.887646, 60815.598044
 164.631627, 60764.555994
 166.389627, 60713.422539
 168.158128, 60662.301622
 169.936827, 60611.202488
 171.736138, 60559.829214
 173.543857, 60508.532899
 175.364172, 60457.195272
 177.188453, 60406.059051
 179.026379, 60354.852651
 180.883758, 60303.417776
 182.752174, 60251.990412
 184.631112, 60200.585312
 186.523413, 60149.125895
 188.423758, 60097.757348
 190.341490, 60046.228593
 192.268390, 59994.762258
 194.209932, 59943.213143
 196.159725, 59891.751803
 198.119644, 59840.328426
 200.095890, 59788.781991
 202.085889, 59737.182059
 204.089450, 59685.535291
 206.106731, 59633.839395
 208.129991, 59582.292697
 210.162001, 59530.823506
 212.219772, 59479.004190
 214.282762, 59427.354474
 216.360272, 59375.641451
 218.450477, 59323.912135
 220.557152, 59272.075007
 222.678209, 59220.183765
 224.805358, 59168.441256
 226.940994, 59116.788059
 229.097799, 59064.919405
 231.264882, 59013.099495
 233.449089, 58961.166085
 235.642525, 58909.308078
 237.845081, 58857.527616
 240.064474, 58805.644418
 242.293771, 58753.821744
 244.541948, 58701.852572
 246.797286, 58650.008844
 247.252305, 58639.584227
 247.562373, 58632.487193
 247.808821, 58626.850158
 247.981100, 58622.911664
 248.110404, 58619.956698
 248.241242, 58616.967626
 248.351365, 58614.452560
 248.383122, 58613.727394
 248.430524, 58612.645084
 248.440558, 58612.415994
 248.444489, 58612.326257
 248.452350, 58612.146782
 248.452899, 58612.130439
 248.453403, 58612.115266
 248.458440, 58611.963532
 248.500332, 58610.701901
 248.758821, 58602.920199
 250.153645, 58561.019353
 252.204596, 58499.681416
 254.270186, 58438.230634
 256.341197, 58376.941879
 258.419400, 58315.761695
 260.509832, 58254.542373
 262.613448, 58193.257779
 264.723772, 58132.097210
 266.851357, 58070.756315
 268.987117, 58009.498934
 271.126858, 57948.444149
 273.278840, 57887.356073
 275.443959, 57826.210997
 277.624700, 57764.941251
 279.809237, 57703.879514
 282.010702, 57642.659409
 284.224647, 57581.407183
 286.448340, 57520.199397
 288.676772, 57459.173241
 290.923271, 57397.964851
 293.173828, 57336.956826
 295.438680, 57275.871777
 297.712689, 57214.849513
 299.999486, 57153.793409
 302.292198, 57092.887186
 304.606753, 57031.709704
 306.923663, 56970.777318
 309.255724, 56909.753439
 311.602002, 56848.664767
 313.952601, 56787.769064
 316.316523, 56726.833047
 318.696169, 56665.796946
 321.083803, 56604.860307
 323.482354, 56543.948474
 325.888734, 56483.140022
 328.309719, 56422.264501
 330.744686, 56361.339564
 333.189919, 56300.459286
 335.645561, 56239.620514
 338.111985, 56178.814583
 340.591004, 56117.997687
 343.077154, 56057.304143
 345.570726, 55996.726174
 348.092666, 55935.757982
 350.620576, 55874.943890
 353.147025, 55814.460189
 355.694196, 55753.775952
 358.251667, 55693.141648
 360.822329, 55632.489562
 363.398601, 55571.998620
 365.995311, 55511.321916
 368.597746, 55450.804541
 371.208284, 55390.390329
 373.833227, 55329.934094
 376.480886, 55269.247500
 379.135406, 55208.695678
 381.799935, 55148.206543
 384.471215, 55087.853680
 387.154927, 55027.508789
 389.853790, 54967.112107
 392.562241, 54906.789096
 395.285251, 54846.429826
 398.019833, 54786.101658
 400.770798, 54725.699825
 403.520237, 54665.616896
 406.280813, 54605.574680
 409.065213, 54545.299663
 411.863278, 54485.014602
 414.668473, 54424.860508
 417.473846, 54364.984648
 420.303825, 54304.866479
 423.148627, 54244.716877
 426.000860, 54184.692509
 428.861878, 54124.764445
 431.733089, 54064.903134
 434.622482, 54004.943313
 437.516588, 53945.164987
 440.428837, 53885.291266
 443.347736, 53825.559160
 446.279462, 53765.842296
 449.227657, 53706.067861
 452.189871, 53646.287053
 455.155432, 53586.714941
 458.135311, 53527.130842
 461.128275, 53467.560500
 464.134975, 53407.991922
 467.155423, 53348.425941
 470.191050, 53288.835573
 473.231749, 53229.419290
 476.281594, 53170.096732
 476.895619, 53158.186080
 476.995303, 53156.253470
 477.104647, 53154.133915
 477.129210, 53153.657823
 477.145985, 53153.332702
 477.154379, 53153.170019
 477.160371, 53153.053882
 477.163906, 53152.985377
 477.166098, 53152.942470
 477.168109, 53152.903031
 477.188223, 53152.508644
 477.350871, 53149.319889
 478.348376, 53129.780565
 481.049664, 53077.013272
 484.130598, 53017.088607
 487.208604, 52957.493584
 490.305057, 52897.813803
 493.410502, 52838.232497
 496.531215, 52778.629798
 499.664893, 52719.050797
 502.808467, 52659.554228
 505.962954, 52600.120944
 509.127187, 52540.773003
 512.306183, 52481.416909
 515.498674, 52422.077357
 518.698441, 52362.870038
 521.908129, 52303.745658
 525.128021, 52244.699012
 528.363034, 52185.640584
 531.615135, 52126.535933
 534.872782, 52067.595155
 538.149246, 52008.578626
 541.433415, 51949.687247
 544.734366, 51890.758791
 548.044498, 51831.929622
 551.372469, 51773.046633
 554.706441, 51714.319720
 558.055257, 51655.593154
 561.412990, 51596.971283
 564.784452, 51538.370357
 568.169678, 51479.790568
 571.570894, 51421.194470
 574.975521, 51362.798639
 578.402491, 51304.278954
 581.835930, 51245.907424
 585.279553, 51187.620434
 588.734200, 51129.403862
 592.198809, 51071.275621
 595.687748, 51012.996159
 599.177868, 50954.952706
 602.686368, 50896.859108
 606.203454, 50838.878195
 609.734365, 50780.923796
 613.279536, 50722.989550
 616.837040, 50665.107577
 620.408984, 50607.244219
 623.987563, 50549.525945
 627.583953, 50491.772855
 631.188732, 50434.136818
 634.806796, 50376.539622
 638.434691, 50319.036504
 642.085185, 50261.426236
 645.742487, 50203.958916
 649.412652, 50146.539243
 653.093048, 50089.208595
 656.787535, 50031.907172
 660.501703, 49974.549549
 664.218514, 49917.398967
 667.942299, 49860.387659
 671.684810, 49803.336157
 675.442890, 49746.293895
 679.203805, 49689.453880
 682.986262, 49632.533674
 686.775558, 49575.755229
 690.585319, 49518.914958
 694.399464, 49462.253135
 698.238649, 49405.463635
 702.077842, 49348.917119
 705.929615, 49292.427564
 709.795180, 49235.977659
 713.678758, 49179.506756
 717.574157, 49123.105638
 721.482926, 49066.752241
 723.135691, 49042.996263
 725.400682, 49010.509817
 729.338670, 48954.102673
 733.283323, 48897.235111
 737.242115, 48839.759536
 741.216677, 48781.671100
 745.199791, 48723.088454
 749.190050, 48664.052135
 753.197218, 48604.448855
 757.219131, 48544.316151
 761.256429, 48483.664520
 765.301057, 48422.620497
 769.350576, 48361.242811
 773.420338, 48299.346415
 777.496243, 48237.113350
 781.586386, 48174.473211
 785.682760, 48111.536192
 789.788378, 48048.290836
 793.914038, 47984.604789
 798.046655, 47920.642848
 802.194756, 47856.333863
 806.351941, 47791.759164
 810.517342, 47726.957556
 814.699502, 47661.833557
 818.891333, 47596.472378
 823.085526, 47530.997761
 823.926993, 47508.327700
 826.892482, 47468.006393
 827.060721, 47457.238264
 827.113261, 47456.075939
 827.181026, 47455.058002
 827.197118, 47454.654357
 827.227893, 47454.214816
 827.235189, 47454.031629
 827.237378, 47453.982339
 827.239674, 47453.948116
 827.241874, 47453.915544
 827.263873, 47453.650639
 827.415840, 47451.800969
 828.260068, 47441.443015
 831.958842, 47395.633244
 836.332353, 47333.597300
 840.709690, 47269.481668
 845.099718, 47205.185528
 849.495139, 47140.776740
 853.900543, 47076.238928
 858.316265, 47011.565942
 862.750858, 46946.670580
 867.192798, 46881.666721
 871.641970, 46816.605340
 876.091085, 46751.577206
 880.559256, 46686.407588
 885.031210, 46621.208518
 885.382975, 46601.205591
 885.734928, 46596.134821
 886.087516, 46591.059229
 886.440210, 46585.982922
 886.792984, 46580.908136
 887.146018, 46575.833061
 887.497997, 46570.771168
 887.851438, 46565.700289
 888.205480, 46560.620540
 888.558821, 46555.549034
 888.913006, 46550.474032
 889.266662, 46545.404566
 889.620808, 46540.334836
 889.975362, 46535.262009
 890.331203, 46530.177081
 890.686244, 46525.099055
 891.041647, 46520.023262
 891.398286, 46514.936212
 891.754132, 46509.856222
 892.111508, 46504.766216
 892.469453, 46499.667852
 892.827223, 46494.572553
 893.185319, 46489.477810
 893.543068, 46484.388883
 893.901864, 46479.293643
 894.258693, 46474.218618
 894.618256, 46469.125628
 894.975826, 46464.046898
 895.335682, 46458.955145
 895.695000, 46453.864102
 896.055368, 46448.767679
 896.416451, 46443.663531
 896.777956, 46438.556008
 897.140012, 46433.444885
 897.502386, 46428.332165
 897.864320, 46423.226589
 898.227948, 46418.108908
 898.592304, 46412.981239
 898.956059, 46407.860951
 899.320102, 46402.743850
 899.684215, 46397.628897
 900.048312, 46392.517817
 900.413972, 46387.394738
 900.779741, 46382.268740
 901.144334, 46377.158484
 901.511417, 46372.031230
 901.875651, 46366.927930
 902.242637, 46361.811363
 902.608999, 46356.695055
 902.976333, 46351.575450
 903.343890, 46346.454231
 903.712252, 46341.328338
 904.080933, 46336.200564
 904.451014, 46331.061834
 904.822677, 46325.906314
 905.193692, 46320.755908
 905.564663, 46315.612947
 905.935061, 46310.480504
 906.305737, 46305.352028
 906.678574, 46300.205444
 907.051435, 46295.055147
 907.425063, 46289.901822
 907.798709, 46284.750193
 908.172831, 46279.598561
 908.548632, 46274.433257
 908.924829, 46269.262557
 909.300901, 46264.096552
 909.678708, 46258.918813
 910.056997, 46253.734754
 910.434494, 46248.561785
 910.811336, 46243.403398
 911.191724, 46238.217703
 911.571609, 46233.028663
 911.950983, 46227.851807
 912.328403, 46222.701320
 912.707270, 46217.549375
 913.089500, 46212.364357
 913.470657, 46207.182370
 913.853447, 46201.994017
 914.235807, 46196.809090
 914.619333, 46191.620011
 915.005114, 46186.410204
 915.389265, 46181.213177
 915.776099, 46176.002163
 916.163651, 46170.779685
 916.548446, 46165.586760
 916.935766, 46160.385963
 917.323290, 46155.179352
 917.712165, 46149.964929
 918.102244, 46144.739797
 918.492705, 46139.512448
 918.883291, 46134.288522
 919.274574, 46129.063627
 919.665129, 46123.849122
 920.059263, 46118.609765
 920.452256, 46113.373675
 920.845525, 46108.145713
 921.239356, 46102.917756
 921.632306, 46097.702300
 922.026988, 46092.480433
 922.423547, 46087.240802
 922.823887, 46081.965208
 923.220950, 46078.264400
 923.622199, 46074.530730
 924.023055, 46070.806897
 924.422595, 46067.101451
 924.820672, 46063.415694
 925.222130, 46059.704810
 925.624258, 46055.993966
 926.026180, 46052.291261
 926.426575, 46048.608828
 926.827869, 46044.924338
 927.234061, 46041.201207
 927.640966, 46037.477948
 928.047527, 46033.764236
 928.453233, 46030.064718
 928.859082, 46026.370270
 929.268269, 46022.651900
 929.677613, 46018.938605
 930.086949, 46015.231882
 930.497804, 46011.517945
 930.909741, 46007.800809
 931.319848, 46004.106746
 931.730557, 46000.413812
 932.143880, 45996.704005
 932.556376, 45993.008256
 932.970388, 45989.305586
 933.383697, 45985.615867
 933.800193, 45981.904436
 934.214868, 45978.215952
 934.631377, 45974.517924
 935.049715, 45970.810477
 935.469179, 45967.099912
 935.888284, 45963.399399
 936.306764, 45959.711265
 936.726151, 45956.022012
 937.148173, 45952.316532
 937.571890, 45948.603202
 937.992508, 45944.923986
 938.414339, 45941.241133
 938.839923, 45937.532591
 939.264870, 45933.836696
 939.689227, 45930.153012
 940.115893, 45926.456426
 940.544653, 45922.748911
 940.969296, 45919.084128
 941.398984, 45915.383033
 941.829097, 45911.685553
 942.257882, 45908.006756
 942.687766, 45904.325811
 943.120788, 45900.625364
 943.552383, 45896.944478
 943.987011, 45893.245152
 944.422546, 45889.545604
 944.856569, 45885.866359
 945.288499, 45882.212249
 945.726969, 45878.510369
 946.164535, 45874.823705
 946.602116, 45871.144506
 947.041247, 45867.459895
 947.478189, 45863.801246
 947.917362, 45860.131547
 948.356909, 45856.466389
 948.798742, 45852.789902
 949.242603, 45849.104354
 949.686649, 45845.425096
 950.133432, 45841.731078
 950.578494, 45838.059186
 951.025990, 45834.375162
 951.473031, 45830.702856
 951.919768, 45827.040987
 952.368315, 45823.372294
 952.819941, 45819.686525
 953.271706, 45816.007761
 953.524438, 45813.953292
 953.727514, 45812.304331
 954.182145, 45808.618728
 954.637582, 45804.934881
 955.092103, 45801.266696
 955.548638, 45797.590585
 956.004721, 45793.926436
 956.462338, 45790.258335
 956.920968, 45786.590525
 957.380237, 45782.926053
 957.843052, 45779.241833
 958.303260, 45775.586892
 958.766595, 45771.915701
 959.228236, 45768.266496
 959.690822, 45764.618403
 960.155377, 45760.963441
 960.618620, 45757.327433
 961.088124, 45753.651087
 961.557577, 45749.984008
 962.026095, 45746.333073
 962.500044, 45742.648812
 962.971205, 45738.995191
 963.445403, 45735.327052
 963.919821, 45731.666280
 964.394314, 45728.014007
 964.871809, 45724.347803
 965.347278, 45720.706292
 965.823798, 45717.065897
 966.302648, 45713.416943
 966.782245, 45709.771585
 967.263326, 45706.124288
 967.744603, 45702.484869
 968.227736, 45698.840853
 968.710925, 45695.205855
 969.194119, 45691.580278
 969.678291, 45687.956850
 970.161248, 45684.351979
 970.648572, 45680.724101
 971.134714, 45677.114623
 971.627640, 45673.464567
 972.116010, 45669.857970
 972.608697, 45666.229310
 973.102515, 45662.602212
 973.594845, 45658.995918
 974.089951, 45655.379224
 974.582293, 45651.792609
 975.075403, 45648.210282
 975.571624, 45644.615348
 976.071937, 45641.000921
 976.574038, 45637.383833
 977.079582, 45633.752316
 977.579245, 45630.173284
 978.083584, 45626.571087
 978.585216, 45622.998513
 979.089508, 45619.417351
 979.595175, 45615.836847
 980.101907, 45612.259283
 980.611848, 45608.669652
 981.118567, 45605.113231
 981.627539, 45601.551565
 982.141779, 45597.963789
 982.655040, 45594.393643
 983.170482, 45590.819172
 983.683488, 45587.272398
 984.200523, 45583.708672
 984.718742, 45580.147775
 985.239885, 45576.577895
 985.757756, 45573.041453
 986.278289, 45569.497918
 986.800057, 45565.957132
 987.322001, 45562.426338
 987.849432, 45558.869784
 988.374636, 45555.339595
 988.900430, 45551.816800
 989.427797, 45548.294876
 989.953853, 45544.793100
 990.482243, 45541.287241
 991.015238, 45537.762467
 991.544838, 45534.271724
 992.075666, 45530.784470
 992.611684, 45527.274897
 993.148883, 45523.769465
 993.689478, 45520.253876
 994.227523, 45516.766832
 994.767430, 45513.279714
 995.303465, 45509.829503
 995.845183, 45506.354756
 996.386413, 45502.895228
 996.929848, 45499.433772
 997.471647, 45495.994882
 998.020612, 45492.522866
 998.565144, 45489.091197
 999.112900, 45485.651566
 999.661856, 45482.216848
1000.208714, 45478.807649
1000.759761, 45475.384843
1001.313540, 45471.957724
1001.868666, 45468.535010
1002.424235, 45465.122344
1002.980455, 45461.718474
1003.533060, 45458.349416
1004.088805, 45454.973979
1004.649842, 45451.579388
1005.207678, 45448.217092
1005.768767, 45444.848214
1006.326902, 45441.510023
1006.888165, 45438.166155
1007.452275, 45434.818499
1008.018297, 45431.472769
1008.588999, 45428.112848
1009.158490, 45424.773540
1009.720698, 45421.490149
1010.290278, 45418.177100
1010.858968, 45414.882678
1011.431925, 45411.577130
1012.008248, 45408.265937
1012.579086, 45404.999875
1013.153461, 45401.727253
1013.730980, 45398.450560
1014.307830, 45395.191522
1014.892661, 45391.901534
1015.471873, 45388.657189
1016.051067, 45385.426921
1016.636051, 45382.178546
1017.217322, 45378.964905
1017.800367, 45375.755610
1018.379390, 45372.582473
1018.961969, 45369.403955
1019.545026, 45366.237000
1020.130744, 45363.069865
1020.720570, 45359.894984
1021.307312, 45356.751103
1021.898985, 45353.595351
1022.482998, 45350.494786
1023.069764, 45347.393947
1023.668615, 45344.244064
1024.262975, 45341.132616
1024.855853, 45338.043625
1025.457008, 45334.926508
1026.053012, 45331.851010
1026.653453, 45328.767623
1027.257236, 45325.682279
1027.858660, 45322.624137
1028.455746, 45319.603017
1029.065125, 45316.535077
1029.667687, 45313.516730
1030.267345, 45310.528009
1030.869962, 45307.539698
1031.477548, 45304.542133
1032.082187, 45301.574449
1032.687601, 45298.618296
1033.293039, 45295.677373
1033.902759, 45292.731170
1034.507059, 45289.826513
1035.118803, 45286.901659
1035.730158, 45283.994326
1036.343261, 45281.094410
1036.954032, 45278.221188
1037.571160, 45275.333942
1038.181185, 45272.495617
1038.795372, 45269.653684
1039.410357, 45266.823908
1040.024924, 45264.011899
1040.645978, 45261.186302
1041.270659, 45258.360523
1041.892976, 45255.561711
1042.518762, 45252.763681
1043.138471, 45250.009018
1043.765734, 45247.237181
1044.389487, 45244.497237
1045.013560, 45241.772224
1045.641868, 45239.045235
1046.267677, 45236.345561
1046.893941, 45233.660387
1047.522112, 45230.983583
1048.145684, 45228.342759
1048.775224, 45225.693227
1049.403937, 45223.063787
1050.031429, 45220.456006
1050.667550, 45217.829246
1051.302842, 45215.222870
1051.936359, 45212.640664
1052.576158, 45210.049965
1053.207783, 45207.509236
1053.844866, 45204.963533
1054.482191, 45202.433927
1055.123874, 45199.904266
1055.761225, 45197.408814
1056.399647, 45194.926284
1057.039354, 45192.455939
1057.681542, 45189.993316
1058.330652, 45187.521761
1058.979476, 45185.068998
1059.621174, 45182.660578
1060.261545, 45180.274395
1060.898809, 45177.916904
1061.542046, 45175.554629
1062.185850, 45173.207690
1062.832241, 45170.868853
1063.473955, 45168.564318
1064.117347, 45166.271135
1064.777735, 45163.935478
1065.425962, 45161.660664
1066.074781, 45159.401467
1066.721570, 45157.166952
1067.361845, 45154.972270
1068.014643, 45152.752409
1068.669154, 45150.544711
1069.318204, 45148.373222
1069.967005, 45146.220267
1070.614101, 45144.090601
1071.265765, 45141.963697
1071.919116, 45139.849207
1072.571253, 45137.756549
1073.226133, 45135.673079
1073.883209, 45133.600746
1074.539762, 45131.548195
1075.197762, 45129.509301
1075.854768, 45127.491649
1076.524852, 45125.452527
1077.186055, 45123.458933
1077.844731, 45121.491230
1078.506853, 45119.531614
1079.167812, 45117.593816
1079.830883, 45115.668281
1080.494101, 45113.760801
1081.153608, 45111.882325
1081.816698, 45110.012075
1082.482005, 45108.154139
1083.149362, 45106.309162
1083.819105, 45104.476405
1084.491158, 45102.656269
1085.160898, 45100.861276
1085.829751, 45099.087467
1086.498370, 45097.333059
1087.164990, 45095.602589
1087.830779, 45093.892907
1088.505777, 45092.178581
1089.175761, 45090.495909
1089.849606, 45088.822549
1090.524022, 45087.166861
1091.196602, 45085.534699
1091.873113, 45083.912153
1092.545727, 45082.317998
1093.216408, 45080.747329
1093.884577, 45079.201313
1094.561603, 45077.653912
1095.236610, 45076.130270
1095.915447, 45074.617261
1096.594686, 45073.122704
1097.270418, 45071.655063
1097.950084, 45070.198194
1098.628788, 45068.762716
1099.305485, 45067.350713
1099.984266, 45065.953644
1100.659262, 45064.583517
1101.341178, 45063.218733
1102.024600, 45061.870487
1102.709918, 45060.538150
1103.396141, 45059.223769
1104.078284, 45057.936750
1104.763842, 45056.662924
1105.449136, 45055.409256
1105.895417, 45054.603407
