Time, Horizontal Forces
   0.000000, 61943.662619
   0.000000, 61943.389856
   0.000007, 61942.440276
   0.000082, 61939.228438
   0.000471, 61932.952705
   0.002611, 61918.369566
   0.007883, 61899.667883
   0.016021, 61880.905331
   0.027016, 61862.136956
   0.040922, 61843.294893
   0.057780, 61824.368954
   0.077586, 61805.394375
   0.100326, 61786.396549
   0.125942, 61767.422869
   0.154713, 61748.286557
   0.186823, 61728.924084
   0.222045, 61709.509227
   0.260756, 61689.868478
   0.302570, 61670.223785
   0.347923, 61650.390030
   0.396709, 61630.443502
   0.449072, 61610.349190
   0.505139, 61590.086961
   0.565818, 61569.381008
   0.629321, 61548.861353
   0.696192, 61528.337141
   0.767836, 61507.406891
   0.842671, 61486.555407
   0.922055, 61465.417893
   1.006500, 61443.901151
   1.095504, 61422.170937
   1.189311, 61400.195453
   1.287386, 61378.119986
   1.389598, 61355.982697
   1.495618, 61333.856893
   1.607014, 61311.429942
   1.724723, 61288.552728
   1.846153, 61265.747668
   1.972630, 61242.770173
   2.107465, 61219.062170
   2.244878, 61195.659811
   2.390951, 61171.545694
   2.541755, 61147.401679
   2.696714, 61123.317946
   2.860361, 61098.613801
   3.029808, 61073.757763
   3.206675, 61048.533678
   3.388884, 61023.254458
   3.575572, 60998.038896
   3.771163, 60972.306522
   3.972625, 60946.479377
   4.179952, 60920.564386
   4.393994, 60894.464907
   4.613086, 60868.388959
   4.840682, 60841.937256
   5.075485, 60815.280541
   5.320203, 60788.134788
   5.568898, 60761.168506
   5.828049, 60733.689707
   6.097646, 60705.731825
   6.369353, 60678.161594
   6.654390, 60649.851150
   6.944175, 60621.671527
   7.242556, 60593.251162
   7.553601, 60564.228017
   7.870306, 60535.271266
   8.195511, 60506.124196
   8.527551, 60476.942076
   8.870135, 60447.409294
   9.222438, 60417.613982
   9.587628, 60387.309502
   9.959421, 60357.030307
  10.339511, 60326.639946
  10.731027, 60295.900157
  11.132951, 60264.906604
  11.543166, 60233.830660
  11.961975, 60202.653599
  12.395725, 60170.919404
  12.834698, 60139.348380
  13.285572, 60107.463542
  13.747262, 60075.354208
  14.217976, 60043.152340
  14.698218, 60010.827971
  15.197074, 59977.789170
  15.699039, 59945.071526
  16.215408, 59911.940435
  16.748197, 59878.287725
  17.289480, 59844.625870
  17.843884, 59810.673177
  18.404680, 59776.844973
  18.988049, 59742.180576
  19.574672, 59707.838688
  20.173425, 59673.296349
  20.783393, 59638.613115
  21.401260, 59603.978705
  22.039416, 59568.710582
  22.688402, 59533.346164
  23.350597, 59497.761784
  24.023375, 59462.104028
  24.708915, 59426.261990
  24.848461, 59419.025123
  24.918110, 59415.420434
  24.960115, 59413.248849
  24.987430, 59411.837627
  25.081498, 59406.983357
  25.082059, 59406.954450
  25.082987, 59406.906558
  25.083383, 59406.886182
  25.083495, 59406.880389
  25.083548, 59406.877171
  25.083601, 59406.873617
  25.084137, 59406.838078
  25.088672, 59406.537213
  25.116551, 59404.688355
  25.219963, 59397.839197
  25.527125, 59377.576941
  26.141405, 59337.414440
  26.785931, 59295.774090
  27.447079, 59253.572332
  28.115090, 59211.440858
  28.795350, 59169.043289
  29.485894, 59126.509066
  30.187059, 59083.822296
  30.898280, 59041.021825
  31.625886, 58997.737027
  32.364925, 58954.273720
  33.122314, 58910.237796
  33.887918, 58866.227764
  34.664240, 58822.101072
  35.453035, 58777.763314
  36.253324, 58733.275368
  37.061997, 58688.812037
  37.887845, 58643.896826
  38.726487, 58598.778502
  39.568639, 58553.954907
  40.432427, 58508.467092
  41.301106, 58463.203652
  42.184307, 58417.663476
  43.076800, 58372.120450
  43.989895, 58326.006282
  44.913626, 58279.833825
  45.848172, 58233.595883
  46.797072, 58187.121939
  47.758548, 58140.504612
  48.728286, 58093.954097
  49.715617, 58047.026981
  50.715006, 57999.993366
  51.729581, 57952.711181
  52.759859, 57905.163776
  53.800502, 57857.601430
  54.861502, 57809.574281
  55.940737, 57761.190241
  57.025220, 57713.033199
  58.120526, 57664.852613
  59.239747, 57616.081237
  60.369394, 57567.314914
  61.517558, 57518.209023
  62.678802, 57469.002099
  63.844125, 57420.073067
  65.034125, 57370.561069
  66.232218, 57321.162502
  67.455031, 57271.197880
  68.684252, 57221.420373
  69.936302, 57171.168885
  71.197192, 57121.009827
  72.473338, 57070.688829
  73.766415, 57020.144812
  75.076415, 56969.383834
  76.403491, 56918.405481
  77.734368, 56867.718793
  79.090532, 56816.508279
  80.452946, 56765.496956
  81.833859, 56714.226867
  83.234743, 56662.650455
  84.649742, 56610.988176
  86.076075, 56559.342412
  87.529580, 56507.146246
  89.002517, 56454.687708
  90.487151, 56402.245264
  91.983098, 56349.831864
  93.490940, 56297.426639
  95.029204, 56244.393185
  96.585428, 56191.170923
  98.148737, 56138.131898
  99.729079, 56084.938180
 101.324331, 56031.664015
 102.941287, 55978.086995
 103.265878, 55967.382180
 103.458075, 55961.051478
 103.568907, 55957.403469
 103.670897, 55954.048222
 103.750633, 55951.426180
 103.815717, 55949.286730
 103.862810, 55947.739090
 103.908576, 55946.235378
 103.960808, 55944.519623
 103.970275, 55944.208716
 103.972680, 55944.129715
 103.973243, 55944.111234
 103.973543, 55944.101369
 103.973675, 55944.096545
 103.973835, 55944.089915
 103.975433, 55944.023613
 103.991410, 55943.360602
 104.104923, 55938.651822
 104.512434, 55921.769197
 105.920854, 55863.682889
 107.399548, 55803.129788
 108.888289, 55742.602710
 110.397087, 55681.698824
 111.913332, 55620.930111
 113.444042, 55560.015734
 114.980652, 55499.296459
 116.546503, 55437.855848
 118.122274, 55376.459573
 119.709281, 55315.056364
 121.305428, 55253.726977
 122.924303, 55191.953518
 124.551241, 55130.299404
 126.193184, 55068.502159
 127.856354, 55006.333302
 129.529032, 54944.234372
 131.216982, 54881.992486
 132.918510, 54819.672844
 134.630181, 54757.401867
 136.359853, 54694.896006
 138.111584, 54632.015119
 139.881820, 54568.893394
 141.656321, 54506.038700
 143.451338, 54442.876302
 145.260899, 54379.620692
 147.084571, 54316.289082
 148.920652, 54252.941893
 150.771945, 54189.484127
 152.644271, 54125.720684
 154.530512, 54061.898011
 156.437327, 53997.794496
 158.353374, 53933.793577
 160.280389, 53869.836336
 162.228984, 53805.573498
 164.199367, 53741.004471
 166.177699, 53676.584714
 168.179261, 53611.818950
 170.188575, 53547.210278
 172.217971, 53482.363402
 174.265273, 53417.352095
 176.323559, 53352.397676
 178.395849, 53287.405090
 180.478634, 53222.484516
 182.589947, 53157.078196
 184.709407, 53091.821040
 186.847517, 53026.390401
 188.999008, 52960.949612
 191.170846, 52895.289402
 193.354765, 52829.661828
 195.557972, 52763.852138
 197.785531, 52697.714179
 200.028555, 52631.515791
 202.289230, 52565.194573
 204.561836, 52498.919571
 206.857959, 52432.355512
 209.160254, 52366.006421
 211.485733, 52299.383024
 213.824874, 52232.761050
 216.184489, 52165.948614
 218.564823, 52098.942695
 220.954382, 52032.067907
 223.374309, 51964.735849
 225.802736, 51897.558174
 228.246820, 51830.336431
 230.714584, 51762.853131
 233.196805, 51695.363314
 235.698407, 51627.734867
 238.223447, 51559.861940
 240.757637, 51492.129993
 243.307499, 51424.364322
 243.819123, 51410.813307
 244.160930, 51401.768640
 245.234459, 51373.405720
 245.255574, 51372.848523
 245.260895, 51372.708108
 245.269421, 51372.483120
 245.270580, 51372.452559
 245.271239, 51372.435157
 245.271652, 51372.423932
 245.272031, 51372.411091
 245.275823, 51372.282682
 245.308995, 51371.159186
 245.489763, 51365.038398
 246.397362, 51334.347032
 248.642360, 51258.713083
 250.910951, 51182.689012
 253.194482, 51106.569607
 255.489820, 51030.460832
 257.796429, 50954.381021
 260.112136, 50878.401737
 262.444877, 50802.263885
 264.792560, 50726.038567
 267.152670, 50649.809057
 269.527490, 50573.503127
 271.920292, 50497.018531
 274.327732, 50420.464976
 276.754404, 50343.699454
 279.196508, 50266.845464
 281.639954, 50190.345188
 284.109086, 50113.437836
 286.587877, 50036.625876
 289.079199, 49959.820479
 291.592865, 49882.722161
 294.118875, 49805.640749
 296.647416, 49728.873991
 299.192465, 49651.996920
 301.757769, 49574.899765
 304.342926, 49497.598774
 306.942795, 49420.250490
 309.557182, 49342.862254
 312.176347, 49265.721744
 314.815464, 49188.382607
 317.466208, 49111.090880
 320.132569, 49033.731253
 322.817880, 48956.209710
 325.520222, 48878.584578
 328.230660, 48801.113037
 330.963415, 48723.390296
 333.704471, 48645.816687
 336.468821, 48567.969793
 339.248237, 48490.084513
 342.033247, 48412.425866
 344.844506, 48334.419707
 347.663742, 48256.575395
 350.492407, 48178.851710
 353.334963, 48101.126099
 356.196160, 48023.270591
 359.073472, 47945.356237
 361.965013, 47867.435577
 364.876543, 47789.355536
 367.798876, 47711.363910
 370.741193, 47633.217125
 373.695465, 47555.130090
 376.672141, 47476.828694
 379.647749, 47398.929952
 382.645542, 47320.824734
 385.664177, 47242.551624
 388.695286, 47164.329440
 391.744345, 47086.018083
 394.807075, 47007.728933
 397.895053, 46929.168802
 400.984272, 46850.948936
 404.087347, 46772.748330
 407.216091, 46694.272081
 410.358140, 46615.832968
 413.516237, 46537.363450
 416.692282, 46458.818082
 419.882047, 46380.302707
 423.087385, 46301.772582
 426.311910, 46223.141013
 429.545002, 46144.667542
 432.802710, 46065.964128
 436.070654, 45987.379959
 439.358729, 45908.678065
 442.666954, 45829.860611
 445.986607, 45751.136557
 449.316383, 45672.536372
 452.668690, 45593.768420
 456.031707, 45515.111908
 459.419409, 45436.241643
 462.816887, 45357.506305
 463.500268, 45341.712707
 463.991797, 45330.361964
 464.329741, 45322.562254
 464.642615, 45315.344303
 464.904321, 45309.309112
 464.952813, 45308.191090
 465.008249, 45306.913021
 465.020106, 45306.639677
 465.031843, 45306.369112
 465.035901, 45306.275564
 465.037453, 45306.239726
 465.039173, 45306.199672
 465.056369, 45305.799130
 465.197834, 45302.504407
 465.963858, 45284.674664
 468.810677, 45218.573374
 472.227554, 45139.567070
 475.673722, 45060.245913
 479.138752, 44980.853665
 482.604102, 44901.814225
 486.092738, 44822.603607
 489.599800, 44743.334760
 493.128471, 44663.938009
 496.674129, 44584.519445
 500.224997, 44505.342415
 503.801621, 44425.949628
 507.396981, 44346.499809
 510.995201, 44267.343260
 514.609631, 44188.185360
 518.246373, 44108.894404
 521.897149, 44029.652535
 525.566409, 43950.364153
 529.253570, 43871.043456
 532.958511, 43791.694501
 536.673319, 43712.487061
 540.412163, 43633.120189
 544.167612, 43553.753770
 547.932129, 43474.547077
 551.718431, 43395.233255
 555.522072, 43315.907280
 559.340358, 43236.626181
 563.178382, 43157.285382
 567.036967, 43077.869832
 570.907534, 42998.556982
 574.798944, 42919.166179
 578.708079, 42839.762687
 582.627476, 42760.498360
 586.567398, 42681.166236
 590.532868, 42601.667809
 594.507978, 42522.323160
 598.500367, 42442.979859
 602.505612, 42363.726336
 606.535368, 42284.333328
 610.575486, 42205.080707
 614.631440, 42125.861050
 618.706842, 42046.604910
 622.797647, 41967.392016
 626.902631, 41888.246409
 631.027386, 41809.061222
 635.183907, 41729.609231
 639.346251, 41650.387675
 643.521000, 41571.270235
 647.714792, 41492.131649
 651.924416, 41413.033494
 656.166071, 41333.673932
 660.409120, 41254.626911
 664.678835, 41175.421763
 664.967817, 41170.073213
 668.963366, 41096.280008
 673.262209, 41032.346252
 677.582682, 40968.668102
 681.917670, 40904.294112
 686.289143, 40831.569277
 690.675101, 40756.222866
 695.073570, 40680.257651
 699.497039, 40603.472706
 703.941253, 40517.991766
 708.395109, 40429.769623
 712.878676, 40340.727557
 717.375034, 40251.139962
 721.883566, 40153.587524
 726.419429, 40051.363106
 730.954866, 39948.859006
 735.508572, 39845.916834
 740.077775, 39738.648046
 744.677960, 39624.423479
 749.282291, 39509.864556
 753.896152, 39395.106543
 758.526265, 39280.012330
 763.166859, 39155.707481
 767.818097, 39030.729132
 772.484386, 38905.499254
 777.155953, 38780.154830
 781.847123, 38648.772491
 786.542973, 38505.451852
 787.485451, 38424.777715
 788.358760, 38397.260372
 788.683032, 38373.595780
 789.007469, 38357.260378
 789.072387, 38350.387845
 789.259250, 38342.510565
 789.262199, 38339.833198
 789.266411, 38339.633836
 789.267314, 38339.541925
 789.267639, 38339.517325
 789.268011, 38339.499254
 789.270482, 38339.403576
 789.283259, 38338.901352
 789.333685, 38336.875857
 789.469207, 38331.193918
 789.690292, 38321.125787
 790.014201, 38305.907823
 790.338547, 38289.044159
 790.663164, 38271.947330
 790.988565, 38254.598927
 791.314197, 38237.012950
 791.639991, 38219.199579
 791.965915, 38201.161026
 792.292226, 38182.886831
 792.617206, 38164.446942
 792.942316, 38145.803981
 793.268711, 38126.886624
 793.595606, 38107.712044
 793.923061, 38088.287497
 794.250741, 38068.626905
 794.578340, 38048.749095
 794.906607, 38028.622863
 795.234999, 38008.263186
 795.563038, 37987.700940
 795.891986, 37966.880914
 796.221244, 37945.814466
 796.550817, 37924.509173
 796.880702, 37902.964711
 797.209856, 37881.235456
 797.539956, 37859.248482
 797.869143, 37837.078906
 798.200018, 37814.613052
 798.531410, 37791.876525
 798.863071, 37768.678480
 799.192981, 37745.085201
 799.525204, 37721.169812
 799.857335, 37697.004959
 800.188822, 37672.659834
 800.521856, 37648.015164
 800.855000, 37623.120523
 801.188162, 37598.003348
 801.521890, 37572.631866
 801.856241, 37546.993400
 802.190830, 37521.110104
 802.524934, 37495.033194
 802.859611, 37468.707501
 803.194311, 37442.151507
 803.528590, 37415.402579
 803.862758, 37388.448303
 804.199411, 37361.112369
 804.535815, 37333.533834
 804.873037, 37305.682741
 805.210660, 37277.570096
 805.547169, 37249.306065
 805.885571, 37220.706904
 806.223888, 37191.862594
 806.562061, 37162.807542
 806.901421, 37133.448190
 807.239101, 37103.969215
 807.577748, 37074.224769
 807.918003, 37044.126016
 808.258604, 37013.754130
 808.599629, 36983.121830
 808.939017, 36952.382984
 809.280545, 36921.284774
 809.622895, 36889.867341
 809.965792, 36858.170530
 810.309339, 36826.189789
 810.649953, 36794.204716
 810.993768, 36761.788290
 811.336323, 36729.199157
 811.680620, 36696.265121
 812.023747, 36663.174674
 812.369246, 36629.683747
 812.712720, 36596.098238
 813.058009, 36562.168709
 813.404167, 36527.913289
 813.750703, 36493.386529
 814.097846, 36458.575847
 814.445955, 36423.446082
 814.794100, 36388.070630
 815.141499, 36352.532228
 815.489020, 36316.767966
 815.839095, 36280.549353
 816.187112, 36244.246758
 816.537315, 36207.552347
 816.888845, 36170.476150
 817.240292, 36133.157237
 817.590644, 36095.710497
 817.942030, 36057.956501
 818.292602, 36020.033690
 818.645283, 35981.697628
 818.999495, 35942.954954
 819.351915, 35904.128078
 819.705468, 35864.990377
 820.055631, 35825.932337
 820.411636, 35786.132353
 820.765108, 35746.259480
 821.121913, 35711.345696
 821.478414, 35676.401965
 821.834556, 35641.433871
 822.191878, 35606.290229
 822.549467, 35571.060425
 822.907309, 35535.746099
 823.266705, 35500.218333
 823.627411, 35464.500633
 823.987385, 35428.795304
 824.347238, 35393.041955
 824.706783, 35357.259472
 825.067265, 35321.323866
 825.428164, 35285.286686
 825.791241, 35248.971755
 826.152910, 35212.737482
 826.517250, 35176.175105
 826.881875, 35139.523364
 827.246017, 35102.859674
 827.610386, 35066.112831
 827.974336, 35029.348033
 828.339939, 34992.355732
 828.706051, 34955.251457
 829.070723, 34918.232979
 829.437443, 34880.946111
 829.804734, 34843.540570
 830.171239, 34806.154848
 830.538886, 34768.592136
 830.906634, 34730.958695
 831.275686, 34693.131203
 831.645262, 34655.189194
 832.015966, 34617.070464
 832.385941, 34578.965982
 832.757302, 34540.657916
 833.128418, 34502.314193
 833.499824, 34463.879813
 833.873455, 34425.154041
 834.247141, 34386.361272
 834.620515, 34347.539739
 834.994111, 34308.634286
 835.367293, 34269.711219
 835.742370, 34230.529324
 836.115558, 34191.484184
 836.490737, 34152.170006
 836.867146, 34112.665717
 837.243819, 34073.072445
 837.623738, 34033.076245
 838.003123, 33993.074316
 838.381957, 33953.068840
 838.761124, 33912.966874
 839.140840, 33872.745261
 839.521059, 33832.408847
 839.904094, 33791.711522
 840.287107, 33750.954326
 840.669194, 33710.233824
 841.052109, 33669.363211
 841.434547, 33628.481877
 841.818844, 33587.339800
 842.203121, 33546.137944
 842.590598, 33504.530437
 842.978239, 33462.842510
 843.365805, 33421.100092
 843.752366, 33379.403734
 844.141553, 33337.361457
 844.531453, 33295.179165
 844.920042, 33253.076336
 845.308530, 33210.922201
 845.699247, 33168.463620
 846.093096, 33125.601297
 846.486041, 33082.774119
 846.878757, 33039.908776
 847.272204, 32996.900682
 847.667664, 32953.609095
 848.063251, 32910.240162
 848.459136, 32866.775139
 848.855046, 32823.244092
 849.249708, 32779.787400
 849.648055, 32735.861431
 850.047655, 32691.733485
 850.448721, 32647.379267
 850.740545, 32615.065926
 850.847552, 32603.208641
 851.248550, 32558.734058
 851.650954, 32514.039439
 852.053005, 32469.319896
 852.456173, 32424.411837
 852.859529, 32379.418760
 853.262937, 32334.355848
 853.664658, 32289.417933
 854.070406, 32243.965384
 854.473980, 32198.692538
 854.880962, 32152.972976
 855.288779, 32107.095151
 855.697257, 32061.078261
 856.104986, 32015.081349
 856.512307, 31969.066440
 856.919107, 31923.046628
 857.330117, 31876.485983
 857.741155, 31829.857367
 858.153223, 31783.047071
 858.566155, 31736.073831
 858.980851, 31688.834485
 859.394845, 31641.610105
 859.809368, 31594.260458
 860.224052, 31546.827415
 860.639071, 31499.291335
 861.054911, 31451.596232
 861.472031, 31403.689213
 861.890595, 31355.551037
 862.310521, 31307.190660
 862.731861, 31258.601497
 863.154442, 31209.803092
 863.576251, 31161.027891
 863.998267, 31112.163163
 864.423658, 31062.841292
 864.847615, 31013.619605
 865.274313, 30964.013266
 865.700553, 30914.393880
 866.126290, 30864.766962
 866.556278, 30814.577666
 866.985867, 30764.368100
 867.415383, 30714.100346
 867.845905, 30663.648196
 868.276104, 30613.167387
 868.708725, 30562.335530
 869.140451, 30511.542169
 869.576537, 30460.168364
 870.012846, 30408.700620
 870.446832, 30357.439977
 870.884445, 30305.683583
 871.319061, 30254.214784
 871.756899, 30202.297233
 872.193985, 30150.401909
 872.632207, 30098.304541
 873.070710, 30046.106830
 873.513333, 29993.350855
 873.956834, 29940.422154
 874.400492, 29887.406631
 874.844860, 29834.238223
 875.289620, 29780.955085
 875.734848, 29727.547780
 876.184686, 29673.518824
 876.633802, 29619.507773
 877.082341, 29565.497639
 877.532087, 29511.273725
 877.982566, 29456.893009
 878.433219, 29402.422749
 878.887957, 29347.389697
 879.339902, 29292.626076
 879.794161, 29237.513245
 880.245220, 29182.720755
 880.701407, 29127.236594
 881.159159, 29071.492862
 881.614355, 29015.991877
 882.072952, 28960.007239
 882.534446, 28903.599372
 882.994437, 28847.305887
 883.457255, 28790.596823
 883.919050, 28733.943797
 884.379512, 28677.385430
 884.844358, 28620.219171
 885.310555, 28562.816818
 885.777754, 28505.221204
 886.245476, 28447.491089
 886.714606, 28389.517034
 887.184203, 28331.415245
 887.652873, 28273.358546
 888.123872, 28214.943292
 888.596293, 28156.281567
 889.069097, 28097.502106
 889.543247, 28038.485052
 890.017522, 27979.382249
 890.493877, 27919.949845
 890.972369, 27860.180090
 891.452438, 27800.142245
 891.931618, 27740.144683
 892.409608, 27680.226115
 892.892330, 27619.643320
 893.374647, 27559.040468
 893.860088, 27497.973744
 894.343580, 27437.081238
 894.831197, 27375.597689
 895.316950, 27314.278234
 895.803820, 27252.746676
 896.293957, 27190.730797
 896.782697, 27128.820381
 897.273072, 27066.631686
 897.764624, 27004.222349
 898.254797, 26941.917126
 898.749174, 26879.006162
 899.243593, 26816.018362
 899.740672, 26752.619854
 900.235296, 26689.463218
 900.730890, 26626.111663
 901.229199, 26562.341507
 901.729354, 26498.263574
 902.228191, 26434.282989
 902.728166, 26370.085204
 903.231582, 26305.373828
 903.733718, 26240.755407
 904.237947, 26175.796069
 904.744920, 26110.411062
 905.249575, 26045.253513
 905.759700, 25979.317554
 906.265723, 25913.840291
 906.776079, 25847.730423
 907.288803, 25781.241458
 907.800335, 25714.834995
 908.313752, 25648.111760
 908.823663, 25581.772957
 909.338923, 25514.666453
 909.852405, 25447.720060
 910.371377, 25379.985480
 910.890248, 25312.191860
 911.411131, 25244.062809
 911.929621, 25176.174967
 912.449235, 25108.068298
 912.969317, 25039.828737
 913.492172, 24971.153551
 914.014535, 24902.471303
 914.539564, 24833.366596
 915.063629, 24764.317316
 915.587586, 24695.211103
 916.113105, 24625.827592
 916.642982, 24555.796767
 917.170475, 24486.009671
 917.702607, 24415.536973
 918.231010, 24345.486816
 918.760753, 24275.188232
 919.299081, 24203.677932
 919.830790, 24132.975530
 920.367982, 24061.472346
 920.900765, 23990.485205
 921.439635, 23918.615412
 921.979190, 23846.582555
 922.519948, 23774.317379
 923.061489, 23701.876010
 923.601951, 23629.507745
 924.147714, 23556.357873
 924.694114, 23483.050573
 925.237346, 23410.097247
 925.784711, 23336.517515
 926.334331, 23262.562850
 926.879394, 23189.150739
 927.430473, 23114.857014
 927.983365, 23040.247318
 928.533587, 22965.926832
 929.085306, 22891.333475
 929.638016, 22816.535493
 930.194363, 22741.174187
 930.748403, 22666.054688
 931.305107, 22590.503567
 931.866458, 22514.250264
 932.427950, 22437.906576
 932.986301, 22361.919584
 933.544443, 22285.891114
 934.109659, 22208.828408
 934.671689, 22132.129682
 935.233143, 22055.439989
 935.798453, 21978.153455
 936.369820, 21899.967974
 936.932199, 21822.942960
 937.501779, 21744.861868
 938.070120, 21666.880999
 938.639947, 21588.626731
 939.211626, 21510.048611
 939.783597, 21431.360875
 940.360123, 21351.976595
 940.933846, 21272.909100
 941.509572, 21193.496259
 942.088454, 21113.578754
 942.670036, 21033.218637
 943.247443, 20953.366701
 943.825673, 20873.332534
 944.403519, 20793.283696
 944.986854, 20712.405799
 945.563568, 20632.378493
 946.152355, 20550.607303
 946.738586, 20469.122541
 947.319510, 20388.308244
 947.905926, 20306.662656
 948.494704, 20224.620384
 949.081513, 20142.785230
 949.670868, 20060.527971
 950.252091, 19979.340280
 950.837512, 19897.500695
 951.426090, 19815.154101
 952.019675, 19732.040558
 952.612582, 19648.955743
 953.208737, 19565.349426
 953.807557, 19481.302806
 954.403160, 19397.642088
 954.995900, 19314.318671
 955.589353, 19230.830642
 956.186068, 19146.819396
 956.783145, 19062.692732
 957.387695, 18977.447924
 957.988632, 18892.648168
 958.589317, 18807.819831
 959.192254, 18722.609665
 959.798146, 18636.917787
 960.405852, 18550.905104
 961.009918, 18465.344461
 961.616263, 18379.397966
 962.223086, 18293.320872
 962.827901, 18207.466551
 963.428300, 18122.178265
 964.036335, 18035.743597
 964.649807, 17948.473852
 965.255081, 17862.309396
 965.867752, 17775.030586
 966.482198, 17687.437658
 967.096803, 17599.760889
 967.711758, 17511.973320
 968.326052, 17424.220035
 968.937397, 17336.828474
 969.556214, 17248.308873
 970.165572, 17161.083868
 970.788245, 17071.893363
 971.400805, 16984.093212
 972.021428, 16895.078669
 972.637726, 16806.626559
 973.255395, 16717.920137
 973.873419, 16629.105569
 974.493826, 16539.891527
 975.117351, 16450.171790
 975.740910, 16360.390235
 976.358558, 16271.404081
 976.984981, 16181.097336
 977.614777, 16090.247786
 978.240673, 15999.904953
 978.871688, 15908.767417
 979.499599, 15818.022837
 980.130994, 15726.719550
 980.762547, 15635.338617
 981.388682, 15544.687819
 982.016994, 15453.668437
 982.646575, 15362.411953
 983.269067, 15272.131080
 983.905965, 15179.707992
 984.540656, 15087.552068
 985.170190, 14996.093302
 985.800926, 14904.408689
 986.440157, 14811.437397
 987.078359, 14718.564080
 987.718820, 14625.310587
 988.353429, 14532.858937
 988.987872, 14440.381674
 989.626455, 14347.251205
 990.268259, 14253.601268
 990.907085, 14160.336565
 991.553088, 14065.974819
 992.200075, 13971.420090
 992.843347, 13877.359790
 993.492028, 13782.460031
 994.139021, 13687.759185
 994.775608, 13594.535137
 995.418036, 13500.409488
 996.062950, 13405.873461
 996.711661, 13310.734595
 997.356270, 13216.151841
 998.004036, 13121.060664
 998.647701, 13026.527002
 999.297063, 12931.112283
 999.943786, 12836.041355
1000.602845, 12739.112429
1001.251571, 12643.659687
1001.901280, 12548.019585
1002.558782, 12451.189052
1003.213927, 12354.663089
1003.863771, 12258.876502
1004.517961, 12162.407986
1005.169035, 12066.358079
1005.820142, 11970.263253
1006.476638, 11873.332706
1007.124224, 11777.678501
1007.784955, 11680.043140
1008.438285, 11583.462620
1009.100166, 11485.579036
1009.714017, 11394.764001
