Time, Horizontal Forces
   0.000000, 61882.569542
   0.000001, 61882.259461
   0.000008, 61881.250755
   0.000085, 61878.074690
   0.000543, 61871.132375
   0.003035, 61855.439746
   0.008605, 61836.837788
   0.017027, 61818.205472
   0.028368, 61799.460319
   0.042545, 61780.760263
   0.059724, 61761.912709
   0.079970, 61742.919678
   0.103103, 61723.967434
   0.129491, 61704.788922
   0.158826, 61685.639324
   0.191095, 61666.516009
   0.226678, 61647.213144
   0.265799, 61627.662824
   0.307931, 61608.151393
   0.353373, 61588.544817
   0.402443, 61568.734984
   0.455538, 61548.611088
   0.512453, 61528.295697
   0.573216, 61507.809811
   0.637873, 61487.163961
   0.706223, 61466.440122
   0.778401, 61445.610301
   0.855089, 61424.504130
   0.935289, 61403.413577
   1.020031, 61382.081855
   1.109395, 61360.518300
   1.203550, 61338.710934
   1.303199, 61316.533328
   1.407188, 61294.267812
   1.514678, 61272.093299
   1.627005, 61249.738220
   1.745700, 61226.930530
   1.870521, 61203.758525
   2.000834, 61180.368725
   2.133768, 61157.271978
   2.273696, 61133.715523
   2.420510, 61109.757212
   2.571663, 61085.828919
   2.731894, 61061.209507
   2.895533, 61036.791146
   3.065821, 61012.092547
   3.240139, 60987.500188
   3.421501, 60962.596625
   3.609797, 60937.419357
   3.806069, 60911.854777
   4.008971, 60886.099611
   4.218648, 60860.149702
   4.436204, 60833.886557
   4.660889, 60807.419131
   4.892956, 60780.732346
   5.129459, 60754.167516
   5.374645, 60727.254778
   5.627893, 60700.082441
   5.890608, 60672.520948
   6.160723, 60644.804561
   6.438773, 60616.889246
   6.724886, 60588.774429
   7.022169, 60560.175863
   7.324638, 60531.680387
   7.636490, 60502.897641
   7.957718, 60473.844564
   8.286979, 60444.654120
   8.621683, 60415.556537
   8.969777, 60385.874505
   9.326003, 60356.075898
   9.697506, 60325.585520
  10.072618, 60295.371913
  10.457639, 60264.925699
  10.850334, 60234.430504
  11.255033, 60203.560910
  11.669350, 60172.512895
  12.095084, 60141.163639
  12.530679, 60109.639361
  12.976238, 60077.940880
  13.438790, 60045.588698
  13.907145, 60013.377742
  14.390212, 59980.702538
  14.880089, 59948.106454
  15.380551, 59915.339857
  15.890951, 59882.451401
  16.413626, 59849.298937
  16.941474, 59816.334086
  17.492912, 59782.423597
  18.049814, 59748.698886
  18.622370, 59714.547682
  19.204568, 59680.338825
  19.803849, 59645.646560
  20.413755, 59610.856906
  21.031570, 59576.124956
  21.661013, 59541.242991
  22.302960, 59506.169032
  22.958545, 59470.849730
  23.628370, 59435.262735
  24.310903, 59399.498015
  25.011444, 59363.290081
  25.151941, 59356.087541
  25.244034, 59351.376915
  25.298016, 59348.619572
  25.331131, 59346.929490
  25.336123, 59346.674820
  25.341706, 59346.390015
  25.342762, 59346.336124
  25.344595, 59346.242658
  25.345117, 59346.216025
  25.346042, 59346.168845
  25.346385, 59346.151307
  25.346706, 59346.130224
  25.349603, 59345.940083
  25.373300, 59344.385078
  25.473118, 59337.842874
  25.756008, 59319.370647
  26.335332, 59281.852961
  26.984387, 59240.302014
  27.647984, 59198.329076
  28.320925, 59156.271735
  29.014078, 59113.465656
  29.715630, 59070.653534
  30.429133, 59027.622524
  31.149998, 58984.651963
  31.881400, 58941.553583
  32.627384, 58898.097202
  33.382127, 58854.628282
  34.154394, 58810.650630
  34.938206, 58766.515896
  35.731106, 58722.365198
  36.539000, 58677.875326
  37.356124, 58633.369547
  38.178072, 58589.084211
  39.018910, 58544.266469
  39.872719, 58499.243454
  40.739745, 58454.008847
  41.622054, 58408.462964
  42.509123, 58363.150181
  43.415510, 58317.330961
  44.333504, 58271.404573
  45.264490, 58225.305878
  46.212208, 58178.857592
  47.165610, 58132.603517
  48.138151, 58085.894669
  49.117998, 58039.304268
  50.115250, 57992.355612
  51.124475, 57945.311063
  52.148655, 57898.036297
  53.183272, 57850.743442
  54.239034, 57802.950467
  55.303378, 57755.232098
  56.382353, 57707.318815
  57.477169, 57659.163000
  58.574483, 57611.350060
  59.694759, 57562.991050
  60.837406, 57514.126194
  61.988398, 57465.360856
  63.156071, 57416.343899
  64.339061, 57367.138592
  65.532160, 57317.963577
  66.741814, 57268.555900
  67.970516, 57218.821214
  69.216061, 57168.856256
  70.477910, 57118.688418
  71.755337, 57068.351384
  73.042509, 57018.076405
  74.341551, 56967.779883
  75.667354, 56916.893196
  77.003418, 56866.056643
  78.342644, 56815.535551
  79.709884, 56764.396232
  81.099533, 56712.861240
  82.499030, 56661.400508
  83.909217, 56609.981457
  85.343321, 56558.126822
  86.787946, 56506.325631
  88.250783, 56454.304202
  89.735056, 56401.954636
  91.223066, 56349.901525
  92.737523, 56297.352786
  94.258092, 56245.017512
  95.811012, 56191.998188
  97.367374, 56139.286378
  98.946308, 56086.234529
 100.550367, 56032.765921
 102.157216, 55979.626041
 103.787647, 55926.127630
 104.117795, 55915.345469
 104.371482, 55907.071903
 104.558574, 55900.976609
 104.685758, 55896.836120
 104.780914, 55893.739971
 104.854139, 55891.358317
 104.926580, 55889.002994
 104.986336, 55887.060718
 105.032408, 55885.563602
 105.040490, 55885.300985
 105.049596, 55885.005133
 105.063736, 55884.545772
 105.064668, 55884.515484
 105.065346, 55884.493447
 105.065758, 55884.480062
 105.066053, 55884.470500
 105.066240, 55884.463411
 105.066426, 55884.455798
 105.068280, 55884.379670
 105.084581, 55883.710506
 105.167418, 55880.310886
 105.476980, 55867.618835
 106.530458, 55824.571052
 108.003205, 55764.761150
 109.514056, 55703.844008
 111.025431, 55643.342732
 112.549878, 55582.751852
 114.085887, 55522.133014
 115.642192, 55461.146069
 117.204949, 55400.336024
 118.790106, 55339.085396
 120.387749, 55277.782815
 121.999894, 55216.353194
 123.622366, 55154.957040
 125.260489, 55093.394548
 126.920135, 55031.451196
 128.599179, 54969.213570
 130.288736, 54907.014127
 131.987252, 54844.909080
 133.701326, 54782.658087
 135.429733, 54720.308491
 137.178381, 54657.651708
 138.935489, 54595.112187
 140.714111, 54532.228004
 142.502035, 54469.433836
 144.306939, 54406.461371
 146.126567, 54343.392450
 147.963002, 54280.157857
 149.818335, 54216.689985
 151.682443, 54153.336697
 153.570817, 54089.574835
 155.462407, 54026.116557
 157.369084, 53962.562115
 159.296143, 53898.738943
 161.240515, 53834.753271
 163.204593, 53770.530580
 165.171094, 53706.635608
 167.163577, 53642.304377
 169.173025, 53577.833871
 171.198185, 53513.267033
 173.242093, 53448.510174
 175.306428, 53383.514616
 177.384017, 53318.508993
 179.475199, 53253.483404
 181.579313, 53188.459089
 183.700674, 53123.304347
 185.847484, 53057.772417
 188.004616, 52992.328195
 190.178461, 52926.778444
 192.371337, 52861.056261
 194.575604, 52795.392158
 196.804972, 52729.380824
 199.038238, 52663.651139
 201.299108, 52597.507141
 203.573504, 52531.364804
 205.860577, 52465.249106
 208.177869, 52398.657445
 210.512853, 52331.955508
 212.861510, 52265.259580
 215.228214, 52198.446908
 217.610951, 52131.576415
 220.009537, 52064.654728
 222.421567, 51997.749741
 224.847668, 51930.844483
 227.300555, 51863.591791
 229.762977, 51796.467113
 232.238070, 51729.383996
 234.734186, 51662.117844
 237.248478, 51594.748308
 239.780101, 51527.300134
 242.328431, 51459.791639
 244.888867, 51392.345276
 247.472358, 51324.674485
 247.576573, 51321.952724
 247.663087, 51319.693694
 247.744089, 51317.578999
 247.823179, 51315.514587
 247.841340, 51315.040593
 247.845672, 51314.927519
 247.854268, 51314.703183
 247.856560, 51314.643362
 247.857053, 51314.630486
 247.857357, 51314.622319
 247.857670, 51314.611816
 247.860805, 51314.506787
 247.890870, 51313.499582
 248.052201, 51308.096018
 248.733079, 51285.313501
 250.519037, 51225.727303
 252.826695, 51149.102207
 255.123957, 51073.227997
 257.438960, 50997.171744
 259.767134, 50921.086094
 262.115750, 50844.736675
 264.473375, 50768.497256
 266.841262, 50692.326791
 269.217778, 50616.277181
 271.620188, 50539.799273
 274.029603, 50463.497199
 276.454934, 50387.089140
 278.899772, 50310.465362
 281.362607, 50233.677059
 283.834668, 50156.999004
 286.318271, 50080.359129
 288.816223, 50003.671783
 291.332805, 49926.808175
 293.861066, 49849.982573
 296.401973, 49773.166135
 298.959004, 49696.255315
 301.528724, 49619.354918
 304.123014, 49542.112883
 306.726655, 49464.984970
 309.349425, 49387.682926
 311.980440, 49310.528669
 314.624537, 49233.380075
 317.290111, 49155.994904
 319.964296, 49078.748330
 322.656444, 49001.371043
 325.361839, 48924.000524
 328.082547, 48846.578860
 330.818119, 48769.120496
 333.564005, 48691.754735
 336.329382, 48614.224474
 339.106092, 48536.760145
 341.902517, 48459.129575
 344.717459, 48381.369123
 347.541434, 48303.741715
 350.384424, 48225.973953
 353.242031, 48148.188267
 356.121833, 48070.181093
 359.006064, 47992.434301
 361.908019, 47914.589309
 364.829026, 47836.613132
 367.760755, 47758.729365
 370.708421, 47680.800044
 373.676852, 47602.700116
 376.655768, 47524.701487
 379.650040, 47446.677055
 382.662365, 47368.558327
 385.690893, 47290.395265
 388.735897, 47212.182498
 391.802527, 47133.790309
 394.876217, 47055.591959
 397.969627, 46977.265863
 401.075680, 46898.992721
 404.194782, 46820.762600
 407.332508, 46742.436999
 410.484859, 46664.117359
 413.665580, 46585.465532
 416.851505, 46507.055942
 420.057001, 46428.535060
 423.281249, 46349.925367
 426.524504, 46271.222934
 429.779950, 46192.594279
 433.054237, 46113.879844
 436.334324, 46035.393194
 439.636074, 45956.755152
 442.958512, 45877.991937
 446.294935, 45799.264055
 449.641790, 45720.655251
 453.009764, 45641.915647
 456.395553, 45563.124727
 459.791287, 45484.466110
 463.198882, 45405.894872
 466.631235, 45327.115486
 467.320214, 45311.345560
 469.947310, 45251.346932
 469.954431, 45251.184594
 469.959511, 45251.068782
 469.962431, 45251.002194
 469.966123, 45250.917151
 470.003042, 45250.066728
 470.256397, 45244.231846
 471.601360, 45213.289788
 474.710822, 45141.964992
 478.192264, 45062.454573
 481.679087, 44983.184741
 485.175064, 44904.068032
 488.694551, 44824.780707
 492.215300, 44745.823949
 495.761471, 44666.656156
 499.323123, 44587.501627
 502.900993, 44508.344970
 506.489073, 44429.319227
 510.105122, 44350.035221
 513.729980, 44270.914700
 517.373162, 44191.750217
 521.031038, 44112.621763
 524.705129, 44033.497207
 528.403384, 43954.207477
 532.117634, 43874.929826
 535.841792, 43795.794159
 539.591390, 43716.471820
 543.366160, 43636.971964
 547.152306, 43557.586624
 550.947547, 43478.362876
 554.757184, 43399.189671
 558.584143, 43320.007031
 562.439263, 43240.593340
 566.309698, 43161.215573
 570.191784, 43081.948959
 574.086171, 43002.779956
 578.006924, 42923.424269
 581.940686, 42844.153992
 585.894267, 42764.832727
 589.859474, 42685.625536
 593.848217, 42606.295659
 597.852964, 42526.994563
 601.879575, 42447.607671
 605.912263, 42368.446414
 609.969531, 42289.148078
 614.049015, 42209.761427
 618.134583, 42130.600596
 622.237548, 42051.445959
 626.361603, 41972.227717
 630.509510, 41892.895102
 634.668245, 41813.698110
 638.836454, 41734.661753
 643.021900, 41655.638795
 647.232030, 41576.490411
 651.457517, 41497.393557
 655.708116, 41418.167224
 659.976685, 41338.946403
 664.261985, 41259.755005
 668.565343, 41180.569379
 672.875125, 41101.603265
 677.203973, 41022.624802
 681.561447, 40943.461938
 683.459948, 40909.076789
 685.922373, 40864.572539
 690.315840, 40794.210475
 694.723863, 40729.757447
 699.154493, 40664.409958
 703.600140, 40598.352300
 708.077360, 40527.685503
 712.560391, 40447.756147
 717.069141, 40366.982292
 721.595615, 40285.520506
 726.138517, 40203.418479
 730.707678, 40109.678397
 735.282321, 40014.328767
 739.883183, 39918.282100
 744.486140, 39821.894915
 749.125145, 39720.744290
 753.777967, 39611.752741
 758.442259, 39502.383017
 763.117370, 39392.682212
 767.810693, 39282.551402
 772.512142, 39165.052092
 777.236063, 39042.914607
 781.968472, 38920.482919
 786.712022, 38797.861823
 791.467584, 38675.030571
 796.231453, 38541.638102
 797.184745, 38466.085562
 797.384141, 38450.887711
 797.586763, 38445.069189
 797.590886, 38442.469787
 797.594509, 38442.358793
 797.595369, 38442.299780
 797.596183, 38442.276559
 797.604323, 38442.141656
 797.680764, 38440.868513
 798.185434, 38432.181132
 800.524700, 38390.067166
 805.496324, 38284.826803
 810.489053, 38146.253373
 815.489611, 38007.513634
 815.822494, 37919.932841
 816.155094, 37897.444029
 816.488498, 37874.697296
 816.821238, 37851.753005
 817.152915, 37828.657043
 817.486897, 37805.233335
 817.819822, 37781.611987
 818.154690, 37757.678963
 818.489782, 37733.481868
 818.823765, 37709.123791
 819.159332, 37684.471233
 819.494957, 37659.569410
 819.830930, 37634.424862
 820.165793, 37609.120327
 820.501322, 37583.572884
 820.838428, 37557.698035
 821.175353, 37531.588073
 821.511471, 37505.310035
 821.847791, 37478.811508
 822.185143, 37452.023575
 822.523261, 37424.948862
 822.861778, 37397.614305
 823.199501, 37370.103831
 823.538015, 37342.331959
 823.876904, 37314.300990
 824.215354, 37286.072310
 824.554252, 37257.598567
 824.894433, 37228.807706
 825.234704, 37199.767981
 825.575795, 37170.446465
 825.917637, 37140.835394
 826.258876, 37111.032165
 826.599645, 37081.049390
 826.941924, 37050.741238
 827.285299, 37020.105024
 827.625969, 36989.428778
 827.968027, 36958.468803
 828.311022, 36927.193730
 828.655581, 36895.560961
 829.000011, 36863.688819
 829.344677, 36831.575526
 829.690497, 36799.143200
 830.036541, 36766.449270
 830.381978, 36733.574359
 830.727321, 36700.491529
 831.073691, 36667.102239
 831.420584, 36633.428858
 831.769027, 36599.393663
 832.116576, 36565.181309
 832.463283, 36530.827008
 832.811554, 36496.128878
 833.161545, 36461.033910
 833.512081, 36425.637276
 833.860121, 36390.219008
 834.210056, 36354.448924
 834.560692, 36318.360721
 834.911900, 36281.983220
 835.264301, 36245.262264
 835.617155, 36208.252624
 835.969969, 36171.009549
 836.322503, 36133.562965
 836.674459, 36095.944605
 837.027191, 36058.035707
 837.381240, 36019.763840
 837.735552, 35981.217112
 838.090234, 35948.001274
 838.444227, 35914.791227
 838.799299, 35881.421191
 839.155272, 35847.907496
 839.510936, 35814.363888
 839.866864, 35780.736688
 840.225301, 35746.812982
 840.580829, 35713.105845
 840.939064, 35679.083035
 841.297818, 35644.951623
 841.657427, 35610.679446
 842.016502, 35576.398798
 842.377600, 35541.865455
 842.738339, 35507.306918
 843.097316, 35472.858117
 843.457194, 35438.263840
 843.818350, 35403.487510
 844.179837, 35368.620006
 844.541794, 35333.647761
 844.905714, 35298.426127
 845.269086, 35263.197798
 845.632245, 35227.930699
 845.996146, 35192.531975
 846.359986, 35157.079774
 846.725458, 35121.408861
 847.090823, 35085.688619
 847.456069, 35049.920525
 847.822057, 35014.020070
 848.186654, 34978.196847
 848.553558, 34942.087402
 848.920366, 34905.927812
 849.288769, 34869.551134
 849.657624, 34833.069714
 850.025664, 34796.609355
 850.394846, 34759.975921
 850.764562, 34723.229647
 851.134283, 34686.423041
 851.504588, 34649.498404
 851.874667, 34612.536593
 852.245353, 34575.454363
 852.617956, 34538.120274
 852.990621, 34500.719741
 853.364384, 34463.148682
 853.737415, 34425.591131
 854.109816, 34388.037161
 854.484953, 34350.147079
 854.859613, 34312.244855
 855.232812, 34274.430670
 855.610154, 34236.136260
 855.987506, 34197.780044
 856.365445, 34159.303430
 856.744425, 34120.659906
 857.123166, 34081.979938
 857.501044, 34043.327685
 857.879099, 34004.596992
 858.259561, 33965.558946
 858.639528, 33926.510982
 859.019503, 33887.401640
 859.398980, 33848.283180
 859.780769, 33808.865739
 860.164566, 33769.179772
 860.547572, 33729.514541
 860.931298, 33689.713617
 861.316361, 33649.712783
 861.701410, 33609.652080
 862.087440, 33569.427917
 862.472182, 33529.277018
 862.858164, 33488.935580
 863.244074, 33448.540593
 863.628245, 33408.267258
 864.015436, 33367.616372
 864.404962, 33326.658685
 864.793774, 33285.714694
 865.184145, 33244.544911
 865.576484, 33203.105404
 865.968260, 33161.663332
 866.360133, 33120.149330
 866.752526, 33078.518306
 867.147066, 33036.597209
 867.540736, 32994.706616
 867.836200, 32963.225485
 867.934290, 32952.766430
 868.327190, 32910.834538
 868.723463, 32868.480477
 869.122940, 32825.720900
 869.519596, 32783.200832
 869.918943, 32740.329704
 870.318549, 32697.367827
 870.717946, 32654.365682
 871.119954, 32611.019351
 871.519516, 32567.874120
 871.919099, 32524.664295
 872.320228, 32481.224810
 872.722652, 32437.582251
 873.126464, 32393.726100
 873.529387, 32349.903774
 873.934305, 32305.801251
 874.340008, 32261.550003
 874.745640, 32217.243381
 875.152371, 32172.753389
 875.559600, 32128.145605
 875.968712, 32083.267916
 876.378625, 32038.238548
 876.789103, 31993.083211
 877.201574, 31947.644411
 877.615391, 31901.992813
 878.026466, 31856.579794
 878.441793, 31810.632635
 878.855166, 31764.837378
 879.271878, 31718.607577
 879.686004, 31672.600508
 880.102916, 31626.219482
 880.521081, 31579.634233
 880.937739, 31533.152402
 881.353630, 31486.692298
 881.773864, 31439.682368
 882.194763, 31392.532853
 882.615973, 31345.283575
 883.036844, 31298.007478
 883.460664, 31250.334850
 883.881680, 31202.912933
 884.303816, 31155.300218
 884.728670, 31107.315939
 885.156392, 31058.941804
 885.581262, 31010.825002
 886.009898, 30962.216042
 886.437488, 30913.660015
 886.866252, 30864.905152
 887.295662, 30816.011056
 887.724857, 30767.076042
 888.155251, 30717.938696
 888.587086, 30668.570953
 889.021134, 30618.884032
 889.455572, 30569.086032
 889.888297, 30519.418592
 890.326698, 30469.032716
 890.760957, 30419.056931
 891.199119, 30368.565349
 891.636947, 30318.045728
 892.074932, 30267.441533
 892.514514, 30216.586249
 892.957033, 30165.324030
 893.397710, 30114.208338
 893.840287, 30062.805306
 894.282480, 30011.380039
 894.725623, 29959.777532
 895.169843, 29907.982616
 895.614511, 29856.068585
 896.061602, 29803.804299
 896.508971, 29751.440217
 896.958332, 29698.775221
 897.403655, 29646.516733
 897.854382, 29593.556682
 898.306609, 29540.352415
 898.759921, 29486.952242
 899.215562, 29433.209276
 899.673747, 29379.097057
 900.127947, 29325.387241
 900.585175, 29271.250999
 901.042341, 29217.053606
 901.497488, 29163.027905
 901.955499, 29108.594153
 902.416031, 29053.792114
 902.876051, 28998.982593
 903.337229, 28943.966593
 903.800373, 28888.647165
 904.261594, 28833.489140
 904.724530, 28778.057617
 905.189475, 28722.316743
 905.658035, 28666.072988
 906.119937, 28610.560442
 906.590986, 28553.879072
 907.060129, 28497.357737
 907.530574, 28440.610087
 907.999237, 28384.008473
 908.471362, 28326.919601
 908.942507, 28269.880069
 909.413435, 28212.797975
 909.888650, 28155.126867
 910.363159, 28097.471965
 910.841616, 28039.267398
 911.322222, 27980.730803
 911.801461, 27922.290566
 912.282172, 27863.600601
 912.764937, 27804.589366
 913.246392, 27745.668138
 913.729714, 27686.448056
 914.213007, 27627.161497
 914.696154, 27567.823088
 915.181000, 27508.205888
 915.670218, 27447.980270
 916.158511, 27387.797777
 916.647152, 27327.501933
 917.134296, 27267.320822
 917.624924, 27206.638889
 918.113133, 27146.186438
 918.607425, 27084.909880
 919.098691, 27023.938160
 919.596833, 26962.041662
 920.097542, 26899.754089
 920.594195, 26837.900027
 921.092030, 26775.827721
 921.589068, 26713.784183
 922.087607, 26651.482800
 922.588941, 26588.760995
 923.091255, 26525.845415
 923.591785, 26463.082609
 924.095591, 26399.838018
 924.602027, 26336.191836
 925.108429, 26272.478447
 925.618186, 26208.271073
 926.128289, 26143.948249
 926.637736, 26079.636651
 927.146167, 26015.382172
 927.656519, 25950.813926
 928.167871, 25886.047928
 928.682260, 25820.825624
 929.199921, 25755.116252
 929.715983, 25689.537992
 930.232827, 25623.788613
 930.747955, 25558.186501
 931.269264, 25491.725290
 931.786403, 25425.724485
 932.304381, 25359.545605
 932.824874, 25292.974325
 933.346148, 25226.231867
 933.869418, 25159.162317
 934.396912, 25091.479354
 934.922016, 25024.031300
 935.451505, 24955.947937
 935.977075, 24888.297104
 936.508301, 24819.846265
 937.038415, 24751.466887
 937.569553, 24682.883876
 938.101455, 24614.130602
 938.635981, 24544.966214
 939.171542, 24475.595948
 939.705581, 24406.351371
 940.243433, 24336.540605
 940.780725, 24266.730869
 941.321204, 24196.435030
 941.861555, 24126.084027
 942.398962, 24056.045448
 942.938930, 23985.602007
 943.482695, 23914.591718
 944.024452, 23843.772393
 944.568804, 23772.542752
 945.109448, 23701.727850
 945.655396, 23630.147476
 946.207702, 23557.661196
 946.752085, 23486.144264
 947.303504, 23413.631587
 947.853814, 23341.193684
 948.406443, 23268.379297
 948.957511, 23195.699931
 949.507710, 23123.064868
 950.067622, 23049.075910
 950.620515, 22975.943801
 951.177831, 22902.156046
 951.738523, 22827.850050
 952.294960, 22754.037454
 952.858256, 22679.244079
 953.420896, 22604.466640
 953.988314, 22528.982579
 954.549499, 22454.257296
 955.107208, 22379.925973
 955.672143, 22304.561677
 956.239404, 22228.816600
 956.806027, 22153.086809
 957.376220, 22076.809491
 957.943751, 22000.818623
 958.510016, 21924.928154
 959.079740, 21848.504945
 959.645053, 21772.605181
 960.217662, 21695.656820
 960.788426, 21618.887595
 961.363860, 21541.421032
 961.939928, 21463.799963
 962.518813, 21385.729864
 963.095449, 21307.894286
 963.673731, 21229.767999
 964.251857, 21151.594370
 964.832242, 21073.046759
 965.413351, 20994.333042
 965.998551, 20914.996456
 966.581346, 20835.917710
 967.160013, 20757.332144
 967.742532, 20678.156373
 968.325183, 20598.895874
 968.919385, 20517.995371
 969.506696, 20437.965494
 970.095827, 20357.620454
 970.683825, 20277.363160
 971.274294, 20196.701821
 971.862961, 20116.220376
 972.459148, 20034.643919
 973.054917, 19953.057692
 973.648945, 19871.643434
 974.243617, 19790.075025
 974.839555, 19708.267258
 975.433078, 19626.725929
 976.037502, 19543.620514
 976.635230, 19461.370267
 977.237876, 19378.377654
 977.843693, 19294.882542
 978.449177, 19211.367471
 979.053776, 19127.909512
 979.657646, 19044.487556
 980.265704, 18960.422203
 980.872489, 18876.468504
 981.480067, 18792.340846
 982.084509, 18708.584232
 982.691753, 18624.376192
 983.298391, 18540.189307
 983.910616, 18455.163951
 984.517269, 18370.850071
 985.129126, 18285.750593
 985.742549, 18200.370683
 986.352214, 18115.452270
 986.967947, 18029.626761
 987.586045, 17943.409403
 988.199837, 17857.731335
 988.816479, 17771.594471
 989.431212, 17685.663597
 990.053974, 17598.549226
 990.673788, 17511.786513
 991.292843, 17425.069875
 991.922250, 17336.842022
 992.556283, 17247.903662
 993.187270, 17159.331477
 993.807174, 17072.255876
 994.427230, 16985.100789
 995.054226, 16896.911385
 995.672232, 16809.929004
 996.304973, 16720.814142
 996.938131, 16631.581724
 997.562049, 16543.594063
 998.195792, 16454.163230
 998.828979, 16364.753015
 999.461042, 16275.444509
1000.096057, 16185.661887
1000.725104, 16096.667095
1001.360955, 16006.653526
1001.992026, 15917.261354
1002.625426, 15827.484118
1003.264359, 15736.867326
1003.908636, 15645.436528
1004.539179, 15555.900932
1005.176814, 15465.304502
1005.813335, 15374.812638
1006.456145, 15283.372793
1007.093663, 15192.632835
1007.734481, 15101.370259
1008.372238, 15010.491589
1009.009168, 14919.679237
1009.656735, 14827.298124
1010.298583, 14735.681152
1010.942588, 14643.705251
1011.591685, 14550.950567
1012.231776, 14459.432947
1012.876814, 14367.157979
1013.530424, 14273.606154
1014.179036, 14180.719752
1014.828903, 14087.604317
1015.476540, 13994.759495
1016.125429, 13901.686891
1016.777524, 13808.106154
1017.432475, 13714.067177
1018.084788, 13620.359353
1018.739971, 13526.191770
1019.390978, 13432.577749
1020.041907, 13338.929024
1020.697610, 13244.547310
1021.350992, 13150.454309
1022.013032, 13055.068387
1022.669952, 12960.375085
1023.325034, 12865.902467
1023.986168, 12770.512438
1024.647060, 12675.113139
1025.304349, 12580.190762
1025.955273, 12486.145325
1026.618293, 12390.309740
1027.284401, 12293.984790
1027.945930, 12198.279989
1028.603828, 12103.059436
1029.260951, 12007.910552
1029.917916, 11912.744641
1030.583319, 11816.316132
1031.251114, 11719.500693
1031.921228, 11622.309085
1032.585521, 11525.922470
1033.253538, 11428.956846
1033.915962, 11332.764906
1034.249745, 11284.281429
