Time, Horizontal Forces
   0.000000, 61943.662619
   0.000001, 61943.349293
   0.000010, 61942.155884
   0.000165, 61937.350056
   0.000906, 61928.788348
   0.003878, 61912.800841
   0.009197, 61896.078018
   0.016801, 61879.292523
   0.026649, 61862.531890
   0.038817, 61845.679272
   0.053367, 61828.698349
   0.070270, 61811.658344
   0.089427, 61794.656294
   0.111137, 61777.449862
   0.135183, 61760.238327
   0.161653, 61742.962498
   0.190899, 61725.431107
   0.222436, 61707.953875
   0.256730, 61690.283664
   0.293710, 61672.487287
   0.332874, 61654.803059
   0.374826, 61636.959268
   0.420181, 61618.737708
   0.468295, 61600.432118
   0.519009, 61582.108073
   0.573030, 61563.527217
   0.629770, 61544.910074
   0.689907, 61526.050640
   0.752710, 61507.191328
   0.819295, 61488.014203
   0.888689, 61468.817391
   0.961195, 61449.521856
   1.037710, 61429.909540
   1.117281, 61410.242833
   1.200804, 61390.315080
   1.288183, 61370.170927
   1.379665, 61349.775154
   1.473406, 61329.541074
   1.570169, 61309.294012
   1.671274, 61288.769177
   1.776728, 61267.987063
   1.887692, 61246.747955
   2.002431, 61225.405844
   2.121006, 61203.956175
   2.244075, 61182.290943
   2.371810, 61160.395752
   2.504607, 61138.220598
   2.640912, 61116.034213
   2.782805, 61093.509007
   2.928371, 61070.960292
   3.078173, 61048.303608
   3.235231, 61025.103418
   3.397406, 61001.699607
   3.562111, 60978.464727
   3.732541, 60954.949739
   3.907539, 60931.325039
   4.091574, 60907.011336
   4.278486, 60882.838102
   4.470909, 60858.464369
   4.667243, 60834.096884
   4.870426, 60809.379577
   5.079616, 60784.429991
   5.294193, 60759.331513
   5.514990, 60733.995839
   5.740566, 60708.595130
   5.971629, 60683.053255
   6.208607, 60657.330120
   6.456622, 60630.892044
   6.706495, 60604.727661
   6.963874, 60578.244688
   7.226829, 60551.651052
   7.496465, 60524.841473
   7.774878, 60497.621485
   8.059158, 60470.287130
   8.349294, 60442.842870
   8.649138, 60414.936503
   8.952195, 60387.178335
   9.261746, 60359.266082
   9.582220, 60330.814723
   9.907815, 60302.350376
  10.239774, 60273.765621
  10.583311, 60244.624809
  10.928569, 60215.768422
  11.281768, 60186.673750
  11.642269, 60157.400722
  12.010671, 60127.907367
  12.389360, 60098.014107
  12.771389, 60068.272817
  13.161104, 60038.344067
  13.567929, 60007.524411
  13.977958, 59976.880229
  14.393994, 59946.197383
  14.821963, 59915.047245
  15.256141, 59883.854665
  15.698965, 59852.447746
  16.150205, 59820.849014
  16.612735, 59788.866313
  17.082660, 59756.776524
  17.557448, 59724.751633
  18.043880, 59692.338608
  18.534084, 59660.064695
  19.035959, 59627.412532
  19.545728, 59594.635154
  20.066775, 59561.521407
  20.593832, 59528.410259
  21.131081, 59495.041801
  21.681736, 59461.226709
  22.244016, 59427.085888
  22.811716, 59392.998970
  23.386520, 59358.863203
  23.973538, 59324.380014
  24.577856, 59289.265005
  24.698939, 59282.274932
  24.798636, 59276.530667
  25.103839, 59259.008297
  25.108509, 59258.740891
  25.112574, 59258.508173
  25.113470, 59258.456879
  25.113910, 59258.431698
  25.114706, 59258.386095
  25.114810, 59258.380177
  25.114870, 59258.376026
  25.114926, 59258.372043
  25.115479, 59258.332210
  25.120447, 59257.974526
  25.152281, 59255.683402
  25.279337, 59246.552399
  25.673277, 59218.374825
  26.264771, 59176.436922
  26.844688, 59135.738755
  27.429127, 59095.129225
  28.028125, 59053.917524
  28.629911, 59012.918253
  29.245352, 58971.394618
  29.870629, 58929.614539
  30.503840, 58887.709693
  31.146934, 58845.555470
  31.800066, 58803.147845
  32.458399, 58760.802491
  33.123687, 58718.405594
  33.801557, 58675.603863
  34.488694, 58632.613739
  35.186614, 58589.345886
  35.893623, 58545.910448
  36.614023, 58502.050045
  37.335990, 58458.485461
  38.071039, 58414.522168
  38.814894, 58370.422135
  39.565626, 58326.300847
  40.327566, 58281.906569
  41.102904, 58237.119427
  41.887439, 58192.188124
  42.675608, 58147.429909
  43.478260, 58102.231189
  44.292672, 58056.753439
  45.113610, 58011.291297
  45.941456, 57965.822629
  46.785475, 57919.844019
  47.638233, 57873.767030
  48.501588, 57827.493912
  49.372286, 57781.200841
  50.254449, 57734.670859
  51.142663, 57688.190904
  52.046696, 57641.253804
  52.962047, 57594.100237
  53.880411, 57547.157344
  54.809296, 57500.039990
  55.751913, 57452.590402
  56.705841, 57404.935716
  57.671234, 57357.072130
  58.650170, 57308.901660
  59.633674, 57260.866998
  60.632449, 57212.447455
  61.644203, 57163.760556
  62.669200, 57114.798869
  63.702929, 57065.780586
  64.749582, 57016.509669
  65.804696, 56967.198541
  66.866533, 56917.927667
  67.944999, 56868.240616
  69.025887, 56818.793132
  70.124255, 56768.897753
  71.232793, 56718.891724
  72.352021, 56668.753303
  73.487722, 56618.228198
  74.634906, 56567.543252
  75.790774, 56516.823432
  76.959483, 56465.888214
  78.144415, 56414.595292
  79.341050, 56363.144852
  80.543252, 56311.800550
  81.756680, 56260.320218
  82.983465, 56208.616428
  84.219771, 56156.852957
  85.468472, 56104.911075
  86.731270, 56052.723497
  88.011320, 56000.165231
  89.305378, 55947.374562
  90.606500, 55894.635953
  91.914189, 55841.967688
  93.232949, 55789.188106
  94.573382, 55735.878309
  95.917871, 55682.741724
  97.278426, 55629.304234
  98.652852, 55575.656243
 100.033656, 55522.090766
 101.432892, 55468.142356
 102.847364, 55413.939546
 104.274395, 55359.587943
 104.331804, 55357.408313
 104.380892, 55355.544995
 104.428592, 55353.734736
 104.486914, 55351.521857
 104.499953, 55351.027238
 104.515657, 55350.431514
 104.518984, 55350.305299
 104.520606, 55350.243762
 104.523851, 55350.120690
 104.524217, 55350.106806
 104.524429, 55350.098762
 104.526549, 55350.000176
 104.529199, 55349.876977
 104.555698, 55348.644990
 104.704837, 55341.714101
 105.233085, 55317.202781
 106.462419, 55260.386799
 107.789108, 55199.421872
 109.127921, 55138.262047
 110.475074, 55077.081949
 111.833982, 55015.728061
 113.196882, 54954.550708
 114.578508, 54892.890951
 115.970095, 54831.144762
 117.373348, 54769.238509
 118.784784, 54707.327087
 120.209030, 54645.209236
 121.639144, 54583.188489
 123.084385, 54520.864975
 124.538332, 54458.518184
 126.008637, 54395.823038
 127.486492, 54333.157675
 128.971896, 54270.521474
 130.473043, 54207.571247
 131.982619, 54144.616200
 133.501065, 54081.638117
 135.035527, 54018.343306
 136.577192, 53955.097364
 138.130599, 53891.714729
 139.702251, 53827.934383
 141.282079, 53764.167943
 142.877756, 53700.107875
 144.477184, 53636.240670
 146.086367, 53572.325313
 147.715595, 53507.957054
 149.357840, 53443.418471
 151.004513, 53379.047082
 152.673304, 53314.154132
 154.347321, 53249.399469
 156.035869, 53184.423765
 157.733772, 53119.428030
 159.438942, 53054.491916
 161.152497, 52989.572189
 162.887646, 52924.172005
 164.631627, 52858.776063
 166.389627, 52793.191247
 168.158128, 52727.550709
 169.936827, 52661.866390
 171.736138, 52595.757373
 173.543857, 52529.675047
 175.364172, 52463.467125
 177.188453, 52397.446967
 179.026379, 52331.264218
 180.883758, 52264.713655
 182.752174, 52198.100146
 184.631112, 52131.442865
 186.523413, 52064.642439
 188.423758, 51997.887417
 190.341490, 51930.851370
 192.268390, 51863.823713
 194.209932, 51796.615304
 196.159725, 51729.448518
 198.119644, 51662.258606
 200.095890, 51594.834998
 202.085889, 51527.268306
 204.089450, 51459.567039
 206.106731, 51391.727990
 208.129991, 51324.011627
 210.162001, 51256.324251
 212.219772, 51188.102906
 214.282762, 51120.031434
 216.360272, 51051.803103
 218.450477, 50983.479774
 220.557152, 50914.940305
 222.678209, 50846.255349
 224.805358, 50777.693605
 226.940994, 50709.176841
 229.097799, 50640.300524
 231.264882, 50571.415126
 233.449089, 50502.304836
 235.642525, 50433.220954
 237.845081, 50364.166661
 240.064474, 50294.901482
 242.293771, 50225.643280
 244.541948, 50156.115198
 246.797286, 50086.681017
 247.252305, 50072.710435
 247.562373, 50063.197615
 247.808821, 50055.640784
 247.981100, 50050.360445
 248.110404, 50046.398441
 248.241242, 50042.390465
 248.351365, 50039.017882
 248.383122, 50038.045438
 248.430524, 50036.594037
 248.440558, 50036.286818
 248.444489, 50036.166476
 248.452350, 50035.925792
 248.452899, 50035.905177
 248.453403, 50035.886081
 248.458440, 50035.695121
 248.500332, 50034.107319
 248.758821, 50024.313246
 250.153645, 49971.560295
 252.204596, 49894.286167
 254.270186, 49816.810323
 256.341197, 49739.479388
 258.419400, 49662.226306
 260.509832, 49584.864663
 262.613448, 49507.361285
 264.723772, 49429.955648
 266.851357, 49352.262481
 268.987117, 49274.615820
 271.126858, 49197.167018
 273.278840, 49119.617098
 275.443959, 49041.935828
 277.624700, 48964.036977
 279.809237, 48886.343636
 282.010702, 48808.389707
 284.224647, 48730.335669
 286.448340, 48652.279104
 288.676772, 48574.395291
 290.923271, 48496.219857
 293.173828, 48418.241480
 295.438680, 48340.105791
 297.712689, 48261.991604
 299.999486, 48183.775271
 302.292198, 48105.692316
 304.606753, 48027.202654
 306.923663, 47948.968723
 309.255724, 47870.558582
 311.602002, 47792.006312
 313.952601, 47713.643548
 316.316523, 47635.170313
 318.696169, 47556.509433
 321.083803, 47477.918073
 323.482354, 47399.300129
 325.888734, 47320.757200
 328.309719, 47242.069177
 330.744686, 47163.258710
 333.189919, 47084.447486
 335.645561, 47005.631548
 338.111985, 46926.799776
 340.591004, 46847.895409
 343.077154, 46769.092875
 345.570726, 46690.382417
 348.092666, 46611.106447
 350.620576, 46531.972398
 353.147025, 46453.210365
 355.694196, 46374.129160
 358.251667, 46295.054968
 360.822329, 46215.899528
 363.398601, 46136.896556
 365.995311, 46057.592946
 368.597746, 45978.439691
 371.208284, 45899.363706
 373.833227, 45820.175043
 376.480886, 45740.626619
 379.135406, 45661.196917
 381.799935, 45581.791658
 384.471215, 45502.507726
 387.154927, 45423.176781
 389.853790, 45343.720194
 392.562241, 45264.303054
 395.285251, 45184.780686
 398.019833, 45105.241831
 400.770798, 45025.548299
 403.520237, 44946.218390
 406.280813, 44866.885312
 409.065213, 44787.187398
 411.863278, 44707.418843
 414.668473, 44627.766399
 417.473846, 44548.425657
 420.303825, 44468.706897
 423.148627, 44388.889361
 426.000860, 44309.181078
 428.861878, 44229.543944
 431.733089, 44149.938921
 434.622482, 44070.146195
 437.516588, 43990.538506
 440.428837, 43910.747233
 443.347736, 43831.088300
 446.279462, 43751.393396
 449.227657, 43671.565288
 452.189871, 43591.672261
 455.155432, 43512.002024
 458.135311, 43432.259723
 461.128275, 43352.479810
 464.134975, 43272.646248
 467.155423, 43192.760159
 470.191050, 43112.785321
 473.231749, 43032.988312
 476.281594, 42953.261583
 476.895619, 42937.247530
 476.995303, 42934.648895
 477.104647, 42931.798823
 477.129210, 42931.158632
 477.145985, 42930.721448
 477.154379, 42930.502690
 477.160371, 42930.346523
 477.163906, 42930.254404
 477.166098, 42930.196850
 477.168109, 42930.143975
 477.188223, 42929.615222
 477.350871, 42925.339973
 478.348376, 42899.139665
 481.049664, 42828.354502
 484.130598, 42747.915950
 487.208604, 42667.864964
 490.305057, 42587.645243
 493.410502, 42507.503099
 496.531215, 42427.277407
 499.664893, 42347.028862
 502.808467, 42266.836721
 505.962954, 42186.675377
 509.127187, 42106.574787
 512.306183, 42026.408866
 515.498674, 41946.210978
 518.698441, 41866.137685
 521.908129, 41786.122617
 525.128021, 41706.158948
 528.363034, 41626.125541
 531.615135, 41545.975644
 534.872782, 41465.994323
 538.149246, 41385.856533
 541.433415, 41305.835144
 544.734366, 41225.709839
 548.044498, 41145.666122
 551.372469, 41065.495732
 554.706441, 40985.484588
 558.055257, 40905.420733
 561.412990, 40825.446569
 564.784452, 40745.448012
 568.169678, 40665.425384
 571.570894, 40585.327534
 574.975521, 40505.450763
 578.402491, 40425.351824
 581.835930, 40345.403062
 585.279553, 40265.517663
 588.734200, 40185.676478
 592.198809, 40105.904290
 595.687748, 40025.872265
 599.177868, 39946.112277
 602.686368, 39866.231363
 606.203454, 39786.453502
 609.734365, 39706.660315
 613.279536, 39626.843109
 616.837040, 39547.046230
 620.408984, 39467.223375
 623.987563, 39387.549226
 627.583953, 39307.775596
 631.188732, 39228.112371
 634.806796, 39148.451656
 638.434691, 39068.870023
 642.085185, 38989.088967
 645.742487, 38909.454879
 649.412652, 38829.835953
 653.093048, 38750.289745
 656.787535, 38670.733438
 660.501703, 38591.048397
 664.218514, 38511.600532
 667.942299, 38432.296093
 671.684810, 38352.885570
 675.442890, 38273.437725
 679.203805, 38194.221656
 682.986262, 38114.843901
 686.775558, 38035.614062
 690.585319, 37956.248155
 694.399464, 37877.081825
 698.238649, 37797.687431
 702.077842, 37718.583324
 705.929615, 37639.509669
 709.795180, 37560.442356
 713.678758, 37481.296465
 717.574157, 37402.199295
 721.482926, 37323.120053
 723.135691, 37289.769240
 725.400682, 37244.147711
 729.338670, 37167.610435
 733.283323, 37089.775844
 737.242115, 37011.169428
 741.216677, 36930.354934
 745.199791, 36847.679430
 749.190050, 36764.373570
 753.197218, 36677.747631
 757.219131, 36590.551671
 761.256429, 36501.225920
 765.301057, 36410.206647
 769.350576, 36318.883725
 773.420338, 36224.198382
 777.496243, 36129.123092
 781.586386, 36032.601755
 785.682760, 35934.001816
 789.788378, 35835.111933
 793.914038, 35733.811502
 798.046655, 35631.355978
 802.194756, 35528.540588
 806.351941, 35422.809172
 810.517342, 35316.759480
 814.699502, 35209.913498
 818.891333, 35100.542212
 823.085526, 34991.119238
 823.926993, 34942.831799
 826.892482, 34881.129518
 827.060721, 34853.508770
 827.113261, 34851.151390
 827.181026, 34849.467750
 827.197118, 34848.611788
 827.227893, 34847.911286
 827.235189, 34847.522774
 827.237378, 34847.422191
 827.239674, 34847.363241
 827.241874, 34847.305922
 827.263873, 34846.903972
 827.415840, 34844.071467
 828.260068, 34828.095840
 831.958842, 34756.734384
 836.332353, 34650.085087
 840.709690, 34536.449413
 845.099718, 34421.332142
 849.495139, 34306.148050
 853.900543, 34189.255454
 858.316265, 34071.200384
 862.750858, 33952.912774
 867.192798, 33832.835448
 871.641970, 33711.791629
 876.091085, 33590.909086
 880.559256, 33468.440476
 885.031210, 33344.852504
 885.382975, 33279.997644
 885.734928, 33259.669902
 886.087516, 33239.101168
 886.440210, 33218.311264
 886.792984, 33197.307272
 887.146018, 33176.080690
 887.497997, 33154.695129
 887.851438, 33133.039519
 888.205480, 33110.969740
 888.558821, 33088.676098
 888.913006, 33066.138050
 889.266662, 33043.409501
 889.620808, 33020.452766
 889.975362, 32997.260038
 890.331203, 32973.783686
 890.686244, 32950.127238
 891.041647, 32926.251049
 891.398286, 32902.092174
 891.754132, 32877.754611
 892.111508, 32853.129142
 892.469453, 32828.242910
 892.827223, 32803.149870
 893.185319, 32777.829296
 893.543068, 32752.315549
 893.901864, 32726.532760
 894.258693, 32700.647939
 894.618256, 32674.408466
 894.975826, 32648.051468
 895.335682, 32621.364870
 895.695000, 32594.475865
 896.055368, 32567.315820
 896.416451, 32539.886849
 896.777956, 32512.210968
 897.140012, 32484.282440
 897.502386, 32456.114761
 897.864320, 32427.760968
 898.227948, 32399.086445
 898.592304, 32370.130222
 898.956059, 32340.993662
 899.320102, 32311.631523
 899.684215, 32282.048756
 900.048312, 32252.254051
 900.413972, 32222.136356
 900.779741, 32191.779607
 901.144334, 32161.293453
 901.511417, 32130.427238
 901.875651, 32099.528090
 902.242637, 32068.246513
 902.608999, 32036.722225
 902.976333, 32004.758477
 903.343890, 31972.553017
 903.712252, 31940.070094
 904.080933, 31907.339152
 904.451014, 31874.281806
 904.822677, 31840.868885
 905.193692, 31807.271403
 905.564663, 31773.469285
 905.935061, 31739.498066
 906.305737, 31705.296776
 906.678574, 31670.702436
 907.051435, 31635.863860
 907.425063, 31600.745485
 907.798709, 31565.399532
 908.172831, 31529.796950
 908.548632, 31493.830761
 908.924829, 31457.592583
 909.300901, 31421.141632
 909.678708, 31384.325097
 910.056997, 31347.226406
 910.434494, 31309.970679
 910.811336, 31272.562623
 911.191724, 31234.632039
 911.571609, 31196.482436
 911.950983, 31158.163572
 912.328403, 31119.806442
 912.707270, 31081.124147
 913.089500, 31041.900094
 913.470657, 31002.512461
 913.853447, 30962.766263
 914.235807, 30922.818505
 914.619333, 30882.545530
 915.005114, 30841.824648
 915.389265, 30801.006558
 915.776099, 30759.730009
 916.163651, 30718.127927
 916.548446, 30676.556928
 916.935766, 30634.551751
 917.323290, 30592.272124
 917.712165, 30549.605813
 918.102244, 30506.393284
 918.492705, 30462.901268
 918.883291, 30419.164977
 919.274574, 30375.130502
 919.665129, 30330.933718
 920.059263, 30286.156554
 920.452256, 30241.222061
 920.845525, 30196.045055
 921.239356, 30150.578514
 921.632306, 30104.968188
 922.026988, 30058.960682
 922.423547, 30012.506186
 922.823887, 29965.398928
 923.220950, 29923.446822
 923.622199, 29880.999663
 924.023055, 29838.541246
 924.422595, 29796.169915
 924.820672, 29753.901931
 925.222130, 29711.222558
 925.624258, 29668.419459
 926.026180, 29625.585925
 926.426575, 29582.863212
 926.827869, 29539.992650
 927.234061, 29496.545946
 927.640966, 29452.969974
 928.047527, 29409.377919
 928.453233, 29365.824947
 928.859082, 29322.204108
 929.268269, 29278.171512
 929.677613, 29234.068984
 930.086949, 29189.914313
 930.497804, 29145.542660
 930.909741, 29101.000844
 931.319848, 29056.604124
 931.730557, 29012.089455
 932.143880, 28967.238402
 932.556376, 28922.424122
 932.970388, 28877.392017
 933.383697, 28832.383449
 933.800193, 28786.974483
 934.214868, 28741.710931
 934.631377, 28696.194191
 935.049715, 28650.424087
 935.469179, 28604.477056
 935.888284, 28558.515872
 936.306764, 28512.570055
 936.726151, 28466.471404
 937.148173, 28420.029465
 937.571890, 28373.347159
 937.992508, 28326.952846
 938.414339, 28280.371545
 938.839923, 28233.321950
 939.264870, 28186.288916
 939.689227, 28139.267655
 940.115893, 28091.936812
 940.544653, 28044.319515
 940.969296, 27997.106095
 941.398984, 27949.277856
 941.829097, 27901.348039
 942.257882, 27853.512549
 942.687766, 27805.500751
 943.120788, 27757.084201
 943.552383, 27708.773186
 943.987011, 27660.068250
 944.422546, 27611.207253
 944.856569, 27562.461729
 945.288499, 27513.897704
 945.726969, 27464.543983
 946.164535, 27415.237450
 946.602116, 27365.875007
 947.041247, 27316.283171
 947.478189, 27266.884657
 947.917362, 27217.179818
 948.356909, 27167.378569
 948.798742, 27117.263910
 949.242603, 27066.864548
 949.686649, 27016.389315
 950.133432, 26965.547936
 950.578494, 26914.847620
 951.025990, 26863.815090
 951.473031, 26812.779746
 951.919768, 26761.724322
 952.368315, 26710.407431
 952.819941, 26658.683061
 953.271706, 26606.887482
 953.524438, 26577.887260
 953.727514, 26554.572507
 954.182145, 26502.336921
 954.637582, 26449.953262
 955.092103, 26397.619470
 955.548638, 26344.998515
 956.004721, 26292.374316
 956.462338, 26239.517799
 956.920968, 26186.488772
 957.380237, 26133.330470
 957.843052, 26079.705663
 958.303260, 26026.327541
 958.766595, 25972.531015
 959.228236, 25918.875670
 959.690822, 25865.055140
 960.155377, 25810.950107
 960.618620, 25756.942584
 961.088124, 25702.149025
 961.557577, 25647.305213
 962.026095, 25592.514681
 962.500044, 25537.032458
 962.971205, 25481.820369
 963.445403, 25426.195964
 963.919821, 25370.489259
 964.394314, 25314.717447
 964.871809, 25258.536243
 965.347278, 25202.537075
 965.823798, 25146.358115
 966.302648, 25089.848075
 966.782245, 25033.193447
 967.263326, 24976.306920
 967.744603, 24919.340712
 968.227736, 24862.098374
 968.710925, 24804.792756
 969.194119, 24747.430275
 969.678291, 24689.895421
 970.161248, 24632.449003
 970.648572, 24574.426800
 971.134714, 24516.489158
 971.627640, 24457.685859
 972.116010, 24399.369479
 972.608697, 24340.480873
 973.102515, 24281.400022
 973.594845, 24222.440707
 974.089951, 24163.092114
 974.582293, 24104.018612
 975.075403, 24044.796905
 975.571624, 23985.145242
 976.071937, 23924.944675
 976.574038, 23864.471714
 977.079582, 23803.526182
 977.579245, 23743.232918
 978.083584, 23682.318481
 978.585216, 23621.674347
 979.089508, 23560.652071
 979.595175, 23499.406579
 980.101907, 23437.975374
 980.611848, 23376.097921
 981.118567, 23314.554867
 981.627539, 23252.681637
 982.141779, 23190.110565
 982.655040, 23127.601604
 983.170482, 23064.769636
 983.683488, 23002.177924
 984.200523, 22939.037541
 984.718742, 22875.695339
 985.239885, 22811.938363
 985.757756, 22748.524678
 986.278289, 22684.728136
 986.800057, 22620.723235
 987.322001, 22556.640017
 987.849432, 22491.825537
 988.374636, 22427.227453
 988.900430, 22362.500049
 989.427797, 22297.521997
 989.953853, 22232.648973
 990.482243, 22167.431452
 991.015238, 22101.588405
 991.544838, 22036.108108
 992.075666, 21970.419518
 992.611684, 21904.031709
 993.148883, 21837.440391
 993.689478, 21770.370509
 994.227523, 21703.559978
 994.767430, 21636.461187
 995.303465, 21569.787542
 995.845183, 21502.350419
 996.386413, 21434.917406
 996.929848, 21367.153068
 997.471647, 21299.536685
 998.020612, 21230.968905
 998.565144, 21162.898654
 999.112900, 21094.368917
 999.661856, 21025.632730
1000.208714, 20957.103421
1000.759761, 20887.992982
1001.313540, 20818.483444
1001.868666, 20748.748375
1002.424235, 20678.901432
1002.980455, 20608.916291
1003.533060, 20539.330618
1004.088805, 20469.294230
1004.649842, 20398.535006
1005.207678, 20328.123775
1005.768767, 20257.246564
1006.326902, 20186.687441
1006.888165, 20115.677851
1007.452275, 20044.252813
1008.018297, 19972.530244
1008.588999, 19900.158872
1009.158490, 19827.885449
1009.720698, 19756.482077
1010.290278, 19684.087878
1010.858968, 19611.752244
1011.431925, 19538.819038
1012.008248, 19465.402291
1012.579086, 19392.630053
1013.153461, 19319.352673
1013.730980, 19245.619792
1014.307830, 19171.918202
1014.892661, 19097.141938
1015.471873, 19023.029859
1016.051067, 18948.866553
1016.636051, 18873.907790
1017.217322, 18799.371109
1017.800367, 18724.553893
1018.379390, 18650.200183
1018.961969, 18575.337385
1019.545026, 18500.360792
1020.130744, 18424.989558
1020.720570, 18349.037033
1021.307312, 18273.429372
1021.898985, 18197.133962
1022.482998, 18121.775053
1023.069764, 18046.010015
1023.668615, 17968.632100
1024.262975, 17891.782628
1024.855853, 17815.073509
1025.457008, 17737.241688
1026.053012, 17660.025622
1026.653453, 17582.183350
1027.257236, 17503.856550
1027.858660, 17425.784654
1028.455746, 17348.225960
1029.065125, 17269.019605
1029.667687, 17190.648993
1030.267345, 17112.606774
1030.869962, 17034.130236
1031.477548, 16954.957020
1032.082187, 16876.118848
1032.687601, 16797.130929
1033.293039, 16718.091548
1033.902759, 16638.444784
1034.507059, 16559.458173
1035.118803, 16479.450677
1035.730158, 16399.446131
1036.343261, 16319.165191
1036.954032, 16239.142492
1037.571160, 16158.239550
1038.181185, 16078.221286
1038.795372, 15997.610692
1039.410357, 15916.849224
1040.024924, 15836.096855
1040.645978, 15754.446030
1041.270659, 15672.271916
1041.892976, 15590.362813
1042.518762, 15507.951269
1043.138471, 15426.295225
1043.765734, 15343.598517
1044.389487, 15261.320148
1045.013560, 15178.955262
1045.641868, 15095.987222
1046.267677, 15013.305315
1046.893941, 14930.520047
1047.522112, 14847.439653
1048.145684, 14764.924981
1048.775224, 14681.578220
1049.403937, 14598.298779
1050.031429, 14515.139378
1050.667550, 14430.794356
1051.302842, 14346.517243
1051.936359, 14262.434450
1052.576158, 14177.476391
1053.207783, 14093.563319
1053.844866, 14008.884804
1054.482191, 13924.133952
1055.123874, 13838.763356
1055.761225, 13753.929659
1056.399647, 13668.914359
1057.039354, 13583.689117
1057.681542, 13498.094761
1058.330652, 13411.538650
1058.979476, 13324.982108
1059.621174, 13239.338445
1060.261545, 13153.834928
1060.898809, 13068.709996
1061.542046, 12982.750887
1062.185850, 12896.679902
1062.832241, 12810.227148
1063.473955, 12724.364832
1064.117347, 12638.243018
1064.777735, 12549.810437
1065.425962, 12462.971365
1066.074781, 12376.018888
1066.721570, 12289.304664
1067.361845, 12203.431156
1068.014643, 12115.844994
1068.669154, 12027.995786
1069.318204, 11940.847292
1069.967005, 11853.700368
1070.614101, 11766.751235
1071.265765, 11679.157274
1071.919116, 11591.305437
1072.571253, 11503.586533
1073.226133, 11415.468249
1073.883209, 11327.024514
1074.539762, 11238.621593
1075.197762, 11149.994465
1075.854768, 11061.472409
1076.524852, 10971.159018
1077.186055, 10882.014075
1077.844731, 10793.182045
1078.506853, 10703.857776
1079.167812, 10614.663208
1079.830883, 10525.157087
1080.494101, 10435.604628
1081.153608, 10346.527446
1081.816698, 10256.941013
1082.482005, 10167.029724
1083.149362, 10076.816360
1083.819105, 9986.255868
1084.491158, 9895.358558
1085.160898, 9804.750220
1085.829751, 9714.238555
1086.498370, 9623.735533
1087.164990, 9533.480675
1087.830779, 9443.316588
1088.505777, 9351.883390
1089.175761, 9261.108020
1089.849606, 9169.788385
1090.524022, 9078.370784
1091.196602, 8987.181964
1091.873113, 8895.440273
1092.545727, 8804.207722
1093.216408, 8713.218623
1093.884577, 8622.552086
1094.561603, 8530.665645
1095.236610, 8439.035565
1095.915447, 8346.868184
1096.594686, 8254.629378
1097.270418, 8162.850267
1097.950084, 8070.520777
1098.628788, 7978.306380
1099.305485, 7886.349640
1099.984266, 7794.094853
1100.659262, 7702.340407
1101.341178, 7609.631312
1102.024600, 7516.703977
1102.709918, 7423.505565
1103.396141, 7330.171321
1104.078284, 7237.379673
1104.763842, 7144.111784
1105.449136, 7050.868263
1105.895417, 6990.139790
