Time, Horizontal Forces
   0.000000,    0.000000
   0.000001,    0.000000
   0.000006,    0.000000
   0.000051,    0.000000
   0.000254,    0.000000
   0.000937,    0.000000
   0.003594,    0.000000
   0.008770,    0.000000
   0.016215,    0.000000
   0.025986,    0.000000
   0.038053,    0.000000
   0.052396,    0.000000
   0.069115,    0.000000
   0.088096,    0.000000
   0.109545,    0.000000
   0.133445,    0.000000
   0.159844,    0.000000
   0.188742,    0.000000
   0.220179,    0.000000
   0.254154,    0.000000
   0.290762,    0.000000
   0.329834,    0.000000
   0.371933,    0.000000
   0.416730,    0.000000
   0.464133,    0.000000
   0.514632,    0.000000
   0.568012,    0.000000
   0.623767,    0.000000
   0.683393,    0.000000
   0.746091,    0.000000
   0.811495,    0.000000
   0.879944,    0.000000
   0.952973,    0.000000
   1.028661,    0.000000
   1.108195,    0.000000
   1.190503,    0.000000
   1.276329,    0.000000
   1.366302,    0.000000
   1.460383,    0.000000
   1.557910,    0.000000
   1.658864,    0.000000
   1.765569,    0.000000
   1.876077,    0.000000
   1.991080,    0.000000
   2.108697,    0.000000
   2.232114,    0.000000
   2.358495,    0.000000
   2.491456,    0.000000
   2.627207,    0.000000
   2.766419,    0.000000
   2.910997,    0.000000
   3.061458,    0.000000
   3.214194,    0.000000
   3.373591,    0.000000
   3.537116,    0.000000
   3.707854,    0.000000
   3.881891,    0.000000
   4.060893,    0.000000
   4.246787,    0.000000
   4.436942,    0.000000
   4.635771,    0.000000
   4.839095,    0.000000
   5.046944,    0.000000
   5.262260,    0.000000
   5.479624,    0.000000
   5.704145,    0.000000
   5.932675,    0.000000
   6.172206,    0.000000
   6.417668,    0.000000
   6.664659,    0.000000
   6.919177,    0.000000
   7.182286,    0.000000
   7.451337,    0.000000
   7.728786,    0.000000
   8.011867,    0.000000
   8.300203,    0.000000
   8.595273,    0.000000
   8.898197,    0.000000
   9.208447,    0.000000
   9.524740,    0.000000
   9.847117,    0.000000
  10.178260,    0.000000
  10.517285,    0.000000
  10.863781,    0.000000
  11.215388,    0.000000
  11.577699,    0.000000
  11.947059,    0.000000
  12.323083,    0.000000
  12.706533,    0.000000
  13.101735,    0.000000
  13.498441,    0.000000
  13.905442,    0.000000
  14.322436,    0.000000
  14.746977,    0.000000
  15.179755,    0.000000
  15.615931,    0.000000
  16.065427,    0.000000
  16.521679,    0.000000
  16.989674,    0.000000
  17.467086,    0.000000
  17.948124,    0.000000
  18.442233,    0.000000
  18.943653,    0.000000
  19.455403,    0.000000
  19.971291,    0.000000
  20.503197,    0.000000
  21.039939,    0.000000
  21.591975,    0.000000
  22.154661,    0.000000
  22.722075,    0.000000
  23.294581,    0.000000
  23.879363,    0.000000
  24.470105,    0.000000
  25.080064,    0.000000
  25.104614,    0.000000
  25.110192,    0.000000
  25.111427,    0.000000
  25.113175,    0.000000
  25.113784,    0.000000
  25.114962,    0.000000
  25.115436,    0.000000
  25.115489,    0.000000
  25.115536,    0.000000
  25.116007,    0.000000
  25.120721,    0.000000
  25.146034,    0.000000
  25.240975,    0.000000
  25.544938,    0.000000
  26.122884,    0.000000
  26.701027,    0.000000
  27.285207,    0.000000
  27.878682,    0.000000
  28.479559,    0.000000
  29.087489,    0.000000
  29.709576,    0.000000
  30.339197,    0.000000
  30.977515,    0.000000
  31.624560,    0.000000
  32.281037,    0.000000
  32.946776,    0.000000
  33.624452,    0.000000
  34.313136,    0.000000
  35.009054,    0.000000
  35.708189,    0.000000
  36.418015,    0.000000
  37.136818,    0.000000
  37.867779,    0.000000
  38.610465,    0.000000
  39.366949,    0.000000
  40.124054,    0.000000
  40.893463,    0.000000
  41.674081,    0.000000
  42.464088,    0.000000
  43.263317,    0.000000
  44.070501,    0.000000
  44.886655,    0.000000
  45.715278,    0.000000
  46.555057,    0.000000
  47.404370,    0.000000
  48.265463,    0.000000
  49.125549,    0.000000
  50.002292,    0.000000
  50.891462,    0.000000
  51.789845,    0.000000
  52.700389,    0.000000
  53.620266,    0.000000
  54.548014,    0.000000
  55.488294,    0.000000
  56.438610,    0.000000
  57.408434,    0.000000
  58.385766,    0.000000
  59.370371,    0.000000
  60.365913,    0.000000
  61.379289,    0.000000
  62.389213,    0.000000
  63.423505,    0.000000
  64.463035,    0.000000
  65.513995,    0.000000
  66.577116,    0.000000
  67.651149,    0.000000
  68.734516,    0.000000
  69.826554,    0.000000
  70.926902,    0.000000
  72.041160,    0.000000
  73.167900,    0.000000
  74.306773,    0.000000
  75.467376,    0.000000
  76.633843,    0.000000
  77.809141,    0.000000
  78.997253,    0.000000
  80.197519,    0.000000
  81.410899,    0.000000
  82.633034,    0.000000
  83.870672,    0.000000
  85.116192,    0.000000
  86.373469,    0.000000
  87.642578,    0.000000
  88.921294,    0.000000
  90.211860,    0.000000
  91.522913,    0.000000
  92.844013,    0.000000
  94.177813,    0.000000
  95.524629,    0.000000
  96.890774,    0.000000
  98.258511,    0.000000
  99.637602,    0.000000
 101.033815,    0.000000
 102.439374,    0.000000
 103.861289,    0.000000
 104.147219,    0.000000
 104.341094,    0.000000
 104.495880,    0.000000
 104.518932,    0.000000
 104.524426,    0.000000
 104.526123,    0.000000
 104.526910,    0.000000
 104.527083,    0.000000
 104.527264,    0.000000
 104.529071,    0.000000
 104.545335,    0.000000
 104.639691,    0.000000
 104.976903,    0.000000
 106.129664,    0.000000
 107.448863,    0.000000
 108.782020,    0.000000
 110.126774,    0.000000
 111.485587,    0.000000
 112.857579,    0.000000
 114.232498,    0.000000
 115.627087,    0.000000
 117.025299,    0.000000
 118.429538,    0.000000
 119.849673,    0.000000
 121.280854,    0.000000
 122.724636,    0.000000
 124.175236,    0.000000
 125.645137,    0.000000
 127.123819,    0.000000
 128.606536,    0.000000
 130.101253,    0.000000
 131.612673,    0.000000
 133.134895,    0.000000
 134.662743,    0.000000
 136.203744,    0.000000
 137.761978,    0.000000
 139.327242,    0.000000
 140.902608,    0.000000
 142.494729,    0.000000
 144.099947,    0.000000
 145.710691,    0.000000
 147.333012,    0.000000
 148.962100,    0.000000
 150.611414,    0.000000
 152.268878,    0.000000
 153.933457,    0.000000
 155.615091,    0.000000
 157.310570,    0.000000
 159.024199,    0.000000
 160.742691,    0.000000
 162.471318,    0.000000
 164.211370,    0.000000
 165.965139,    0.000000
 167.730713,    0.000000
 169.504136,    0.000000
 171.289475,    0.000000
 173.092475,    0.000000
 174.905755,    0.000000
 176.736613,    0.000000
 178.577433,    0.000000
 180.426186,    0.000000
 182.292552,    0.000000
 184.168049,    0.000000
 186.052534,    0.000000
 187.953189,    0.000000
 189.864605,    0.000000
 191.788346,    0.000000
 193.723244,    0.000000
 195.670670,    0.000000
 197.631588,    0.000000
 199.600492,    0.000000
 201.578585,    0.000000
 203.575679,    0.000000
 205.591905,    0.000000
 207.624545,    0.000000
 209.671944,    0.000000
 211.722398,    0.000000
 213.780715,    0.000000
 215.852799,    0.000000
 217.930789,    0.000000
 220.026908,    0.000000
 222.141208,    0.000000
 224.269987,    0.000000
 226.407867,    0.000000
 228.556658,    0.000000
 230.718107,    0.000000
 232.896905,    0.000000
 235.094814,    0.000000
 237.303170,    0.000000
 239.512888,    0.000000
 241.745851,    0.000000
 243.989033,    0.000000
 246.242947,    0.000000
 246.696259,    0.000000
 248.417686,    0.000000
 248.435820,    0.000000
 248.441007,    0.000000
 248.449399,    0.000000
 248.452117,    0.000000
 248.457552,    0.000000
 248.458257,    0.000000
 248.458628,    0.000000
 248.458984,    0.000000
 248.459308,    0.000000
 248.462550,    0.000000
 248.494704,    0.000000
 248.719489,    0.000000
 249.725066,    0.000000
 251.719700,    0.000000
 253.779585,    0.000000
 255.845816,    0.000000
 257.926492,    0.000000
 260.018203,    0.000000
 262.117889,    0.000000
 264.225392,    0.000000
 266.347479,    0.000000
 268.479330,    0.000000
 270.619404,    0.000000
 272.778841,    0.000000
 274.941400,    0.000000
 277.112158,    0.000000
 279.296599,    0.000000
 281.490633,    0.000000
 283.701626,    0.000000
 285.922600,    0.000000
 288.150724,    0.000000
 290.393710,    0.000000
 292.643781,    0.000000
 294.906961,    0.000000
 297.183446,    0.000000
 299.465437,    0.000000
 301.764926,    0.000000
 304.067928,    0.000000
 306.389604,    0.000000
 308.720301,    0.000000
 311.065369,    0.000000
 313.420332,    0.000000
 315.784519,    0.000000
 318.159011,    0.000000
 320.545962,    0.000000
 322.943466,    0.000000
 325.352425,    0.000000
 327.766033,    0.000000
 330.197939,    0.000000
 332.633831,    0.000000
 335.088965,    0.000000
 337.555321,    0.000000
 340.031860,    0.000000
 342.519440,    0.000000
 345.023622,    0.000000
 347.538764,    0.000000
 350.058976,    0.000000
 352.593858,    0.000000
 355.142610,    0.000000
 357.699338,    0.000000
 360.270044,    0.000000
 362.850448,    0.000000
 365.446561,    0.000000
 368.049100,    0.000000
 370.663009,    0.000000
 373.293354,    0.000000
 375.929053,    0.000000
 378.574729,    0.000000
 381.235283,    0.000000
 383.903976,    0.000000
 386.590827,    0.000000
 389.287783,    0.000000
 391.994667,    0.000000
 394.706064,    0.000000
 397.440764,    0.000000
 400.181286,    0.000000
 402.936323,    0.000000
 405.704811,    0.000000
 408.488933,    0.000000
 411.284026,    0.000000
 414.084220,    0.000000
 416.889096,    0.000000
 419.708533,    0.000000
 422.545376,    0.000000
 425.398278,    0.000000
 428.257758,    0.000000
 431.132352,    0.000000
 434.019837,    0.000000
 436.919663,    0.000000
 439.821595,    0.000000
 442.743417,    0.000000
 445.676320,    0.000000
 448.620964,    0.000000
 451.574264,    0.000000
 454.535505,    0.000000
 457.511524,    0.000000
 460.507034,    0.000000
 463.511220,    0.000000
 466.526193,    0.000000
 469.548137,    0.000000
 472.589684,    0.000000
 475.638948,    0.000000
 476.251346,    0.000000
 476.720335,    0.000000
 477.065547,    0.000000
 477.120290,    0.000000
 477.136970,    0.000000
 477.165558,    0.000000
 477.175153,    0.000000
 477.176811,    0.000000
 477.178528,    0.000000
 477.195695,    0.000000
 477.346967,    0.000000
 478.209917,    0.000000
 480.851419,    0.000000
 483.929371,    0.000000
 487.011271,    0.000000
 490.096576,    0.000000
 493.199907,    0.000000
 496.318901,    0.000000
 499.445243,    0.000000
 502.589472,    0.000000
 505.741627,    0.000000
 508.909317,    0.000000
 512.088997,    0.000000
 515.278295,    0.000000
 518.478661,    0.000000
 521.689262,    0.000000
 524.917627,    0.000000
 528.156191,    0.000000
 531.404500,    0.000000
 534.665889,    0.000000
 537.942055,    0.000000
 541.228510,    0.000000
 544.523422,    0.000000
 547.837509,    0.000000
 551.167379,    0.000000
 554.502284,    0.000000
 557.850130,    0.000000
 561.210674,    0.000000
 564.587181,    0.000000
 567.973018,    0.000000
 571.371712,    0.000000
 574.776435,    0.000000
 578.195979,    0.000000
 581.627918,    0.000000
 585.077831,    0.000000
 588.539660,    0.000000
 592.010643,    0.000000
 595.491964,    0.000000
 598.985547,    0.000000
 602.491253,    0.000000
 606.006502,    0.000000
 609.534511,    0.000000
 613.078588,    0.000000
 616.637030,    0.000000
 620.210215,    0.000000
 623.792146,    0.000000
 627.388022,    0.000000
 630.987118,    0.000000
 634.607694,    0.000000
 638.239199,    0.000000
 641.885623,    0.000000
 645.541759,    0.000000
 649.206249,    0.000000
 652.891571,    0.000000
 656.587050,    0.000000
 660.292644,    0.000000
 664.016097,    0.000000
 667.742726,    0.000000
 671.481226,    0.000000
 675.242879,    0.000000
 679.003419,    0.000000
 682.786868,    0.000000
 686.585612,    0.000000
 690.392208,    0.000000
 694.213453,    0.000000
 698.039404,    0.000000
 701.880478,    0.000000
 705.740575,    0.000000
 709.601892,    0.000000
 713.488985,    0.000000
 717.379775,    0.000000
 721.284794,    0.000000
 723.174928,    0.000000
 725.212289,    0.000000
 729.149558,    0.000000
 733.087521,    0.000000
 737.042221,    0.000000
 741.008085,    0.000000
 744.992700,    0.000000
 748.983789,    0.000000
 752.991009,    0.000000
 757.010780,    0.000000
 761.042227,    0.000000
 765.083601,    0.000000
 769.142019,    0.000000
 773.212553,    0.000000
 777.292638,    0.000000
 781.381331,    0.000000
 785.482819,    0.000000
 789.591904,    0.000000
 793.707916,    0.000000
 797.843449,    0.000000
 801.990962,    0.000000
 806.141231,    0.000000
 810.303845,    0.000000
 814.479445,    0.000000
 818.666912,    0.000000
 822.865317,    0.000000
 827.070061,    0.000000
 827.238674,    0.000000
 827.246700,    0.000000
 827.252017,    0.000000
 827.255947,    0.000000
 827.258260,    0.000000
 827.259242,    0.000000
 827.260216,    0.000000
 827.269963,    0.000000
 827.367426,    0.000000
 827.956406,    0.000000
 830.575043,    0.000000
 834.897452,    0.000000
 839.275145,    0.000000
 843.659444,    0.000000
 848.060213,    0.000000
 852.472241,    0.000000
 856.888696,    0.000000
 861.321198,    0.000000
 865.757644,    0.000000
 870.199087,    0.000000
 874.655158,    0.000000
 879.114212,    0.000000
 883.589951,    0.000000
 888.073867,    0.000000
 888.427707,   12.416772
 888.782141,   25.069222
 889.136923,   37.949320
 889.491206,   51.026108
 889.846349,   64.349537
 890.201897,   77.903586
 890.554873,   91.573212
 890.910129,  105.544756
 891.265611,  119.739911
 891.619823,  134.098172
 891.977112,  148.796092
 892.329444,  163.503052
 892.686839,  178.634991
 893.044582,  193.997911
 893.403094,  209.610594
 893.761724,  225.445397
 894.117184,  241.354918
 894.473824,  257.530797
 894.833578,  274.064009
 895.192512,  290.776475
 895.552234,  307.742428
 895.912595,  324.955868
 896.272848,  342.381611
 896.634052,  360.071169
 896.993903,  377.911557
 897.356115,  396.086762
 897.717019,  414.414215
 898.078435,  432.984999
 898.438850,  451.721008
 898.802166,  470.825696
 899.164024,  490.071895
 899.526519,  509.569513
 899.891576,  529.424364
 900.255267,  549.424501
 900.618874,  569.638598
 900.982924,  590.095892
 901.347740,  610.815278
 901.713311,  631.797340
 902.077837,  652.938599
 902.444214,  674.406884
 902.811420,  696.144630
 903.174576,  717.861026
 903.543911,  740.167103
 903.913543,  762.714512
 904.282970,  785.472547
 904.653344,  808.512336
 905.024120,  831.801083
 905.394524,  855.290103
 905.765262,  879.023735
 906.135364,  902.939502
 906.506769,  927.162706
 906.879481,  951.695654
 907.251440,  976.403415
 907.625111, 1001.449831
 907.996907, 1026.594889
 908.371556, 1052.157809
 908.746634, 1077.976550
 909.121642, 1104.016851
 909.497222, 1130.323388
 909.871806, 1156.786066
 910.246643, 1183.491738
 910.624630, 1210.649121
 910.999272, 1237.792542
 911.377305, 1265.408232
 911.756325, 1293.324898
 912.136224, 1321.535865
 912.516362, 1349.994658
 912.893904, 1378.487085
 913.275030, 1407.478982
 913.654205, 1436.551516
 914.033172, 1465.835883
 914.416222, 1495.665822
 914.798573, 1525.672859
 915.184103, 1556.162335
 915.567938, 1586.751013
 915.953538, 1617.713685
 916.336457, 1648.693074
 916.723902, 1680.272213
 917.110359, 1712.005599
 917.494901, 1743.814592
 917.881533, 1776.029325
 918.270998, 1808.715741
 918.659624, 1841.568010
 919.051314, 1874.916928
 919.440364, 1908.278234
 919.833531, 1942.230792
 920.225975, 1976.360612
 920.618335, 2010.721994
 921.012752, 2045.503505
 921.406136, 2080.433995
 921.800399, 2115.682292
 922.193525, 2151.068087
 922.588037, 2186.817880
 922.982420, 2222.795584
 923.381475, 2259.260927
 923.778656, 2295.616534
 924.177406, 2332.177188
 924.575422, 2368.731869
 924.975795, 2405.564682
 925.374602, 2442.314785
 925.774533, 2479.229890
 926.176363, 2516.382097
 926.579144, 2553.684210
 926.983324, 2591.178267
 927.386454, 2628.636891
 927.788583, 2666.064149
 928.191887, 2703.662438
 928.595450, 2741.346500
 928.999001, 2779.091148
 929.406835, 2817.298712
 929.815136, 2855.612840
 930.223612, 2894.006143
 930.632141, 2932.466923
 931.040670, 2970.990236
 931.450245, 3009.674790
 931.860590, 3048.494667
 932.271483, 3087.429205
 932.684773, 3126.654166
 933.097207, 3165.860839
 933.512041, 3205.359170
 933.924664, 3244.709892
 934.338568, 3284.245705
 934.753310, 3323.924672
 935.169618, 3363.816957
 935.583686, 3403.557410
 935.999377, 3443.516525
 936.416144, 3483.642278
 936.834283, 3523.963573
 937.251356, 3564.245215
 937.671294, 3604.867035
 938.091619, 3645.590201
 938.510792, 3686.264984
 938.932361, 3727.236073
 939.355886, 3768.461355
 939.777131, 3809.528430
 940.198938, 3850.713721
 940.626280, 3892.504151
 941.053290, 3934.326890
 941.482681, 3976.448115
 941.911990, 4018.626520
 942.342080, 4060.946806
 942.772317, 4103.346853
 943.200525, 4145.611463
 943.633433, 4188.405385
 944.067084, 4231.338424
 944.500022, 4274.266479
 944.935950, 4317.556869
 945.372737, 4360.998764
 945.806127, 4404.168180
 946.242078, 4447.658193
 946.680209, 4491.431849
 947.116636, 4535.100894
 947.554883, 4579.017861
 947.993907, 4623.078627
 948.435051, 4667.418566
 948.876543, 4711.860002
 949.317345, 4756.298053
 949.761195, 4801.109935
 950.202277, 4845.708553
 950.646102, 4890.650806
 951.090247, 4935.691893
 951.535089, 4980.870108
 951.983135, 5026.440804
 952.432596, 5072.222889
 952.881094, 5117.974089
 953.329621, 5163.795190
 953.686757, 5200.327674
 953.779441, 5209.815557
 954.229069, 5255.883118
 954.681064, 5302.260587
 955.134190, 5348.821706
 955.586263, 5395.341949
 956.040319, 5442.133623
 956.496407, 5489.202666
 956.954028, 5536.498022
 957.411783, 5583.875508
 957.868624, 5631.226268
 958.327298, 5678.834878
 958.789548, 5726.883541
 959.249478, 5774.759251
 959.713375, 5823.116859
 960.178795, 5871.702546
 960.641116, 5920.033204
 961.106951, 5968.800148
 961.573676, 6017.729537
 962.043175, 6067.019393
 962.511843, 6116.291579
 962.983070, 6165.902638
 963.455779, 6215.739950
 963.931294, 6265.943862
 964.406131, 6316.146842
 964.879252, 6366.238285
 965.356106, 6416.795552
 965.832316, 6467.354955
 966.308348, 6517.965636
 966.786619, 6568.884817
 967.267595, 6620.162916
 967.745946, 6671.231694
 968.232605, 6723.259344
 968.713563, 6774.748620
 969.198879, 6826.775813
 969.684018, 6878.855481
 970.172349, 6931.349752
 970.658142, 6983.642603
 971.146022, 7036.231741
 971.634951, 7089.005526
 972.123064, 7141.762623
 972.612477, 7194.731674
 973.103168, 7247.910668
 973.595715, 7301.362591
 974.087584, 7354.812590
 974.582448, 7408.660161
 975.077029, 7462.548825
 975.574655, 7516.841778
 976.070816, 7571.046959
 976.567788, 7625.412693
 977.066151, 7680.002729
 977.570050, 7735.272278
 978.071462, 7790.341988
 978.576321, 7845.863419
 979.083620, 7901.727015
 979.590440, 7957.611424
 980.097302, 8013.573703
 980.607767, 8070.007810
 981.116621, 8126.337368
 981.626624, 8182.867632
 982.138630, 8239.693681
 982.652928, 8296.848347
 983.165971, 8353.937441
 983.684627, 8411.725706
 984.199899, 8469.211174
 984.719470, 8527.250908
 985.237264, 8585.166476
 985.757568, 8643.437286
 986.276946, 8701.678512
 986.800995, 8760.518545
 987.322940, 8819.196882
 987.844736, 8877.932651
 988.371539, 8937.306858
 988.894049, 8996.271488
 989.422079, 9055.933723
 989.949881, 9115.645178
 990.477291, 9175.386752
 991.004000, 9235.122999
 991.533703, 9295.273280
 992.062016, 9355.339778
 992.597359, 9416.280701
 993.128712, 9476.842204
 993.661560, 9537.648384
 994.195679, 9598.674245
 994.733163, 9660.159573
 995.273775, 9722.078480
 995.812252, 9783.827961
 996.350989, 9845.682088
 996.888147, 9907.429303
 997.433025, 9970.139428
 997.975057, 10032.597163
 998.517238, 10095.146742
 999.068037, 10158.766942
 999.612490, 10221.729363
1000.157834, 10284.869641
1000.709086, 10348.769672
1001.259750, 10412.677329
1001.814690, 10477.157609
1002.367454, 10541.460931
1002.918572, 10605.647952
1003.472512, 10670.238996
1004.022085, 10734.395172
1004.577029, 10799.253201
1005.135866, 10864.641890
1005.701325, 10930.882561
1006.262943, 10996.749705
1006.827892, 11063.084065
1007.390590, 11129.230203
1007.953454, 11195.471376
1008.519992, 11262.221114
1009.084614, 11328.820760
1009.654522, 11396.120123
1010.216249, 11462.528262
1010.782052, 11529.492861
1011.346028, 11596.315479
1011.921168, 11664.536960
1012.495500, 11732.739123
1013.068191, 11800.821933
1013.640371, 11868.919276
1014.216679, 11937.583466
1014.796198, 12006.706513
1015.375700, 12075.903584
1015.954813, 12145.130067
1016.533807, 12214.417653
1017.115540, 12284.108516
1017.703092, 12354.573240
1018.284496, 12424.375969
1018.870064, 12494.754184
1019.448627, 12564.364634
1020.042827, 12635.932795
1020.626428, 12706.299392
1021.215407, 12777.389540
1021.808628, 12849.067432
1022.394072, 12919.880116
1022.984017, 12991.311530
1023.578012, 13063.308315
1024.171170, 13135.278609
1024.768105, 13207.782322
1025.357569, 13279.452365
1025.951888, 13351.786385
1026.545096, 13424.058879
1027.137802, 13496.343186
1027.737886, 13569.601325
1028.339196, 13643.083595
1028.944378, 13717.113807
1029.548808, 13791.126786
1030.152550, 13865.129419
1030.759652, 13939.618417
1031.356428, 14012.912631
1031.968159, 14088.117631
1032.574940, 14162.787738
1033.186602, 14238.132508
1033.794188, 14313.048276
1034.403532, 14388.253544
1035.013464, 14463.604170
1035.623649, 14539.058520
1036.236332, 14614.894256
1036.858720, 14692.005259
1037.467878, 14767.549081
1038.075324, 14842.951082
1038.695264, 14919.976122
1039.314400, 14996.973761
1039.936889, 15074.460892
1040.558548, 15151.917099
1041.176493, 15228.981644
1041.799582, 15306.759237
1042.419872, 15384.258489
1043.043677, 15462.267968
1043.668437, 15540.467781
1044.291108, 15618.476462
1044.917826, 15697.062827
1045.545708, 15775.865662
1046.168044, 15854.041693
1046.799341, 15933.413625
1047.421559, 16011.712828
1048.058075, 16091.881603
1048.695292, 16172.209346
1049.326978, 16251.909351
1049.960683, 16331.933281
1050.588742, 16411.312157
1051.220444, 16491.219337
1051.853545, 16571.371312
1052.489190, 16651.913373
1053.118265, 16731.689691
1053.756590, 16812.706414
1054.393106, 16893.560874
1055.024297, 16973.804764
1055.663995, 17055.196678
1056.305204, 17136.847716
1056.948529, 17218.835184
1057.583438, 17299.815325
1058.225878, 17381.821636
1058.866560, 17463.668883
1059.505036, 17545.298833
1060.149941, 17627.815674
1060.792393, 17710.083192
1061.429143, 17791.683802
1062.074903, 17874.502903
1062.718199, 17957.069357
1063.370348, 18040.836515
1064.022579, 18124.678556
1064.673238, 18208.382171
1065.324947, 18292.284172
1065.969021, 18375.265096
1066.621680, 18459.414604
1067.274960, 18543.706523
1067.922012, 18627.255988
1068.572086, 18711.256642
1069.220679, 18795.126303
1069.877350, 18880.101729
1070.536469, 18965.455148
1071.190971, 19050.271297
1071.841950, 19134.690173
1072.503817, 19220.581213
1073.160848, 19305.904274
1073.825014, 19392.213961
1074.487188, 19478.324298
1075.146213, 19564.083948
1075.802621, 19649.560665
1076.467050, 19736.140277
1077.130879, 19822.699733
1077.791858, 19908.944809
1078.449150, 19994.765271
1079.117181, 20082.044814
1079.777576, 20168.382847
1080.442601, 20255.382170
1081.105233, 20342.123935
1081.771444, 20429.389511
1082.438004, 20516.755999
1083.102915, 20603.960727
1083.764911, 20690.836931
1084.427113, 20777.793215
1085.090907, 20865.011513
1085.758559, 20952.789641
1086.423760, 21040.298005
1087.092926, 21128.380387
1087.763038, 21216.639601
1088.434593, 21305.140728
1089.105311, 21393.583062
1089.775995, 21482.071944
1090.453977, 21571.575189
1091.129901, 21660.857778
1091.801855, 21749.666010
1092.471112, 21838.167029
1093.143017, 21927.067144
1093.823253, 22017.118973
1094.498574, 22106.568967
1095.180531, 22196.946887
1095.858806, 22286.885231
1096.536888, 22376.845617
1097.214745, 22466.823429
1097.887957, 22556.230936
1098.563990, 22646.059045
1099.242797, 22736.301800
1099.918982, 22826.241133
1100.597884, 22916.587056
1101.279158, 23007.293603
1101.957527, 23097.657544
1102.638912, 23188.467426
1103.317180, 23278.905095
1103.999411, 23369.914573
1104.680024, 23460.750889
1105.360650, 23551.631104
1106.044991, 23643.049611
1106.625829, 23720.674365
