Time, Horizontal Forces
   0.000000,    0.000000
   0.000001,    0.000000
   0.000008,    0.000000
   0.000085,    0.000000
   0.000543,    0.000000
   0.003035,    0.000000
   0.008605,    0.000000
   0.017027,    0.000000
   0.028368,    0.000000
   0.042545,    0.000000
   0.059724,    0.000000
   0.079970,    0.000000
   0.103103,    0.000000
   0.129491,    0.000000
   0.158826,    0.000000
   0.191095,    0.000000
   0.226678,    0.000000
   0.265799,    0.000000
   0.307931,    0.000000
   0.353373,    0.000000
   0.402443,    0.000000
   0.455538,    0.000000
   0.512453,    0.000000
   0.573216,    0.000000
   0.637873,    0.000000
   0.706223,    0.000000
   0.778401,    0.000000
   0.855089,    0.000000
   0.935289,    0.000000
   1.020031,    0.000000
   1.109395,    0.000000
   1.203550,    0.000000
   1.303199,    0.000000
   1.407188,    0.000000
   1.514678,    0.000000
   1.627005,    0.000000
   1.745700,    0.000000
   1.870521,    0.000000
   2.000834,    0.000000
   2.133768,    0.000000
   2.273696,    0.000000
   2.420510,    0.000000
   2.571663,    0.000000
   2.731894,    0.000000
   2.895533,    0.000000
   3.065821,    0.000000
   3.240139,    0.000000
   3.421501,    0.000000
   3.609797,    0.000000
   3.806069,    0.000000
   4.008971,    0.000000
   4.218648,    0.000000
   4.436204,    0.000000
   4.660889,    0.000000
   4.892956,    0.000000
   5.129459,    0.000000
   5.374645,    0.000000
   5.627893,    0.000000
   5.890608,    0.000000
   6.160723,    0.000000
   6.438773,    0.000000
   6.724886,    0.000000
   7.022169,    0.000000
   7.324638,    0.000000
   7.636490,    0.000000
   7.957718,    0.000000
   8.286979,    0.000000
   8.621683,    0.000000
   8.969777,    0.000000
   9.326003,    0.000000
   9.697506,    0.000000
  10.072618,    0.000000
  10.457639,    0.000000
  10.850334,    0.000000
  11.255033,    0.000000
  11.669350,    0.000000
  12.095084,    0.000000
  12.530679,    0.000000
  12.976238,    0.000000
  13.438790,    0.000000
  13.907145,    0.000000
  14.390212,    0.000000
  14.880089,    0.000000
  15.380551,    0.000000
  15.890951,    0.000000
  16.413626,    0.000000
  16.941474,    0.000000
  17.492912,    0.000000
  18.049814,    0.000000
  18.622370,    0.000000
  19.204568,    0.000000
  19.803849,    0.000000
  20.413755,    0.000000
  21.031570,    0.000000
  21.661013,    0.000000
  22.302960,    0.000000
  22.958545,    0.000000
  23.628370,    0.000000
  24.310903,    0.000000
  25.011444,    0.000000
  25.151941,    0.000000
  25.244034,    0.000000
  25.298016,    0.000000
  25.331131,    0.000000
  25.336123,    0.000000
  25.341706,    0.000000
  25.342762,    0.000000
  25.344595,    0.000000
  25.345117,    0.000000
  25.346042,    0.000000
  25.346385,    0.000000
  25.346706,    0.000000
  25.349603,    0.000000
  25.373300,    0.000000
  25.473118,    0.000000
  25.756008,    0.000000
  26.335332,    0.000000
  26.984387,    0.000000
  27.647984,    0.000000
  28.320925,    0.000000
  29.014078,    0.000000
  29.715630,    0.000000
  30.429133,    0.000000
  31.149998,    0.000000
  31.881400,    0.000000
  32.627384,    0.000000
  33.382127,    0.000000
  34.154394,    0.000000
  34.938206,    0.000000
  35.731106,    0.000000
  36.539000,    0.000000
  37.356124,    0.000000
  38.178072,    0.000000
  39.018910,    0.000000
  39.872719,    0.000000
  40.739745,    0.000000
  41.622054,    0.000000
  42.509123,    0.000000
  43.415510,    0.000000
  44.333504,    0.000000
  45.264490,    0.000000
  46.212208,    0.000000
  47.165610,    0.000000
  48.138151,    0.000000
  49.117998,    0.000000
  50.115250,    0.000000
  51.124475,    0.000000
  52.148655,    0.000000
  53.183272,    0.000000
  54.239034,    0.000000
  55.303378,    0.000000
  56.382353,    0.000000
  57.477169,    0.000000
  58.574483,    0.000000
  59.694759,    0.000000
  60.837406,    0.000000
  61.988398,    0.000000
  63.156071,    0.000000
  64.339061,    0.000000
  65.532160,    0.000000
  66.741814,    0.000000
  67.970516,    0.000000
  69.216061,    0.000000
  70.477910,    0.000000
  71.755337,    0.000000
  73.042509,    0.000000
  74.341551,    0.000000
  75.667354,    0.000000
  77.003418,    0.000000
  78.342644,    0.000000
  79.709884,    0.000000
  81.099533,    0.000000
  82.499030,    0.000000
  83.909217,    0.000000
  85.343321,    0.000000
  86.787946,    0.000000
  88.250783,    0.000000
  89.735056,    0.000000
  91.223066,    0.000000
  92.737523,    0.000000
  94.258092,    0.000000
  95.811012,    0.000000
  97.367374,    0.000000
  98.946308,    0.000000
 100.550367,    0.000000
 102.157216,    0.000000
 103.787647,    0.000000
 104.117795,    0.000000
 104.371482,    0.000000
 104.558574,    0.000000
 104.685758,    0.000000
 104.780914,    0.000000
 104.854139,    0.000000
 104.926580,    0.000000
 104.986336,    0.000000
 105.032408,    0.000000
 105.040490,    0.000000
 105.049596,    0.000000
 105.063736,    0.000000
 105.064668,    0.000000
 105.065346,    0.000000
 105.065758,    0.000000
 105.066053,    0.000000
 105.066240,    0.000000
 105.066426,    0.000000
 105.068280,    0.000000
 105.084581,    0.000000
 105.167418,    0.000000
 105.476980,    0.000000
 106.530458,    0.000000
 108.003205,    0.000000
 109.514056,    0.000000
 111.025431,    0.000000
 112.549878,    0.000000
 114.085887,    0.000000
 115.642192,    0.000000
 117.204949,    0.000000
 118.790106,    0.000000
 120.387749,    0.000000
 121.999894,    0.000000
 123.622366,    0.000000
 125.260489,    0.000000
 126.920135,    0.000000
 128.599179,    0.000000
 130.288736,    0.000000
 131.987252,    0.000000
 133.701326,    0.000000
 135.429733,    0.000000
 137.178381,    0.000000
 138.935489,    0.000000
 140.714111,    0.000000
 142.502035,    0.000000
 144.306939,    0.000000
 146.126567,    0.000000
 147.963002,    0.000000
 149.818335,    0.000000
 151.682443,    0.000000
 153.570817,    0.000000
 155.462407,    0.000000
 157.369084,    0.000000
 159.296143,    0.000000
 161.240515,    0.000000
 163.204593,    0.000000
 165.171094,    0.000000
 167.163577,    0.000000
 169.173025,    0.000000
 171.198185,    0.000000
 173.242093,    0.000000
 175.306428,    0.000000
 177.384017,    0.000000
 179.475199,    0.000000
 181.579313,    0.000000
 183.700674,    0.000000
 185.847484,    0.000000
 188.004616,    0.000000
 190.178461,    0.000000
 192.371337,    0.000000
 194.575604,    0.000000
 196.804972,    0.000000
 199.038238,    0.000000
 201.299108,    0.000000
 203.573504,    0.000000
 205.860577,    0.000000
 208.177869,    0.000000
 210.512853,    0.000000
 212.861510,    0.000000
 215.228214,    0.000000
 217.610951,    0.000000
 220.009537,    0.000000
 222.421567,    0.000000
 224.847668,    0.000000
 227.300555,    0.000000
 229.762977,    0.000000
 232.238070,    0.000000
 234.734186,    0.000000
 237.248478,    0.000000
 239.780101,    0.000000
 242.328431,    0.000000
 244.888867,    0.000000
 247.472358,    0.000000
 247.576573,    0.000000
 247.663087,    0.000000
 247.744089,    0.000000
 247.823179,    0.000000
 247.841340,    0.000000
 247.845672,    0.000000
 247.854268,    0.000000
 247.856560,    0.000000
 247.857053,    0.000000
 247.857357,    0.000000
 247.857670,    0.000000
 247.860805,    0.000000
 247.890870,    0.000000
 248.052201,    0.000000
 248.733079,    0.000000
 250.519037,    0.000000
 252.826695,    0.000000
 255.123957,    0.000000
 257.438960,    0.000000
 259.767134,    0.000000
 262.115750,    0.000000
 264.473375,    0.000000
 266.841262,    0.000000
 269.217778,    0.000000
 271.620188,    0.000000
 274.029603,    0.000000
 276.454934,    0.000000
 278.899772,    0.000000
 281.362607,    0.000000
 283.834668,    0.000000
 286.318271,    0.000000
 288.816223,    0.000000
 291.332805,    0.000000
 293.861066,    0.000000
 296.401973,    0.000000
 298.959004,    0.000000
 301.528724,    0.000000
 304.123014,    0.000000
 306.726655,    0.000000
 309.349425,    0.000000
 311.980440,    0.000000
 314.624537,    0.000000
 317.290111,    0.000000
 319.964296,    0.000000
 322.656444,    0.000000
 325.361839,    0.000000
 328.082547,    0.000000
 330.818119,    0.000000
 333.564005,    0.000000
 336.329382,    0.000000
 339.106092,    0.000000
 341.902517,    0.000000
 344.717459,    0.000000
 347.541434,    0.000000
 350.384424,    0.000000
 353.242031,    0.000000
 356.121833,    0.000000
 359.006064,    0.000000
 361.908019,    0.000000
 364.829026,    0.000000
 367.760755,    0.000000
 370.708421,    0.000000
 373.676852,    0.000000
 376.655768,    0.000000
 379.650040,    0.000000
 382.662365,    0.000000
 385.690893,    0.000000
 388.735897,    0.000000
 391.802527,    0.000000
 394.876217,    0.000000
 397.969627,    0.000000
 401.075680,    0.000000
 404.194782,    0.000000
 407.332508,    0.000000
 410.484859,    0.000000
 413.665580,    0.000000
 416.851505,    0.000000
 420.057001,    0.000000
 423.281249,    0.000000
 426.524504,    0.000000
 429.779950,    0.000000
 433.054237,    0.000000
 436.334324,    0.000000
 439.636074,    0.000000
 442.958512,    0.000000
 446.294935,    0.000000
 449.641790,    0.000000
 453.009764,    0.000000
 456.395553,    0.000000
 459.791287,    0.000000
 463.198882,    0.000000
 466.631235,    0.000000
 467.320214,    0.000000
 469.947310,    0.000000
 469.954431,    0.000000
 469.959511,    0.000000
 469.962431,    0.000000
 469.966123,    0.000000
 470.003042,    0.000000
 470.256397,    0.000000
 471.601360,    0.000000
 474.710822,    0.000000
 478.192264,    0.000000
 481.679087,    0.000000
 485.175064,    0.000000
 488.694551,    0.000000
 492.215300,    0.000000
 495.761471,    0.000000
 499.323123,    0.000000
 502.900993,    0.000000
 506.489073,    0.000000
 510.105122,    0.000000
 513.729980,    0.000000
 517.373162,    0.000000
 521.031038,    0.000000
 524.705129,    0.000000
 528.403384,    0.000000
 532.117634,    0.000000
 535.841792,    0.000000
 539.591390,    0.000000
 543.366160,    0.000000
 547.152306,    0.000000
 550.947547,    0.000000
 554.757184,    0.000000
 558.584143,    0.000000
 562.439263,    0.000000
 566.309698,    0.000000
 570.191784,    0.000000
 574.086171,    0.000000
 578.006924,    0.000000
 581.940686,    0.000000
 585.894267,    0.000000
 589.859474,    0.000000
 593.848217,    0.000000
 597.852964,    0.000000
 601.879575,    0.000000
 605.912263,    0.000000
 609.969531,    0.000000
 614.049015,    0.000000
 618.134583,    0.000000
 622.237548,    0.000000
 626.361603,    0.000000
 630.509510,    0.000000
 634.668245,    0.000000
 638.836454,    0.000000
 643.021900,    0.000000
 647.232030,    0.000000
 651.457517,    0.000000
 655.708116,    0.000000
 659.976685,    0.000000
 664.261985,    0.000000
 668.565343,    0.000000
 672.875125,    0.000000
 677.203973,    0.000000
 681.561447,    0.000000
 683.459948,    0.000000
 685.922373,    0.000000
 690.315840,    0.000000
 694.723863,    0.000000
 699.154493,    0.000000
 703.600140,    0.000000
 708.077360,    0.000000
 712.560391,    0.000000
 717.069141,    0.000000
 721.595615,    0.000000
 726.138517,    0.000000
 730.707678,    0.000000
 735.282321,    0.000000
 739.883183,    0.000000
 744.486140,    0.000000
 749.125145,    0.000000
 753.777967,    0.000000
 758.442259,    0.000000
 763.117370,    0.000000
 767.810693,    0.000000
 772.512142,    0.000000
 777.236063,    0.000000
 781.968472,    0.000000
 786.712022,    0.000000
 791.467584,    0.000000
 796.231453,    0.000000
 797.184745,    0.000000
 797.384141,    0.000000
 797.586763,    0.000000
 797.590886,    0.000000
 797.594509,    0.000000
 797.595369,    0.000000
 797.596183,    0.000000
 797.604323,    0.000000
 797.680764,    0.000000
 798.185434,    0.000000
 800.524700,    0.000000
 805.496324,    0.000000
 810.489053,    0.000000
 815.489611,    0.000000
 815.822494,   12.135752
 816.155094,   24.485609
 816.488498,   37.089879
 816.821238,   49.893376
 817.152915,   62.878902
 817.486897,   76.178444
 817.819822,   89.660000
 818.154690,  103.444957
 818.489782,  117.464952
 818.823765,  131.663401
 819.159332,  146.154375
 819.494957,  160.873749
 819.830930,  175.834343
 820.165793,  190.970607
 820.501322,  206.361677
 820.838428,  222.051137
 821.175353,  237.958739
 821.511471,  254.053913
 821.847791,  270.383832
 822.185143,  286.989603
 822.523261,  303.859767
 822.861778,  320.976992
 823.199501,  338.280653
 823.538015,  355.851317
 823.876904,  373.668392
 824.215354,  391.688949
 824.554252,  409.959876
 824.894433,  428.527337
 825.234704,  447.327776
 825.575795,  466.401877
 825.917637,  485.747233
 826.258876,  505.287370
 826.599645,  525.028632
 826.941924,  545.085915
 827.285299,  565.437516
 827.625969,  585.857229
 827.968027,  606.587705
 828.311022,  627.603883
 828.655581,  648.946266
 829.000011,  670.511564
 829.344677,  692.322385
 829.690497,  714.437736
 830.036541,  736.799585
 830.381978,  759.353691
 830.727321,  782.132415
 831.073691,  805.210238
 831.420584,  828.554884
 831.769027,  852.237115
 832.116576,  876.091747
 832.463283,  900.120403
 832.811554,  924.489618
 833.161545,  949.213309
 833.512081,  974.210848
 833.860121,  999.263834
 834.210056, 1024.686341
 834.560692, 1050.394383
 834.911900, 1076.379398
 835.264301, 1102.688760
 835.617155, 1129.268782
 835.969969, 1156.082637
 836.322503, 1183.111424
 836.674459, 1210.331342
 837.027191, 1237.846553
 837.381240, 1265.701144
 837.735552, 1293.813691
 838.090234, 1322.020117
 838.444227, 1350.236108
 838.799299, 1378.602529
 839.155272, 1407.105606
 839.510936, 1435.648629
 839.866864, 1464.277258
 840.225301, 1493.172919
 840.580829, 1521.898547
 840.939064, 1550.907703
 841.297818, 1580.024015
 841.657427, 1609.274994
 842.016502, 1638.547737
 842.377600, 1668.050870
 842.738339, 1697.590121
 843.097316, 1727.050020
 843.457194, 1756.648754
 843.818350, 1786.417740
 844.179837, 1816.279271
 844.541794, 1846.245004
 844.905714, 1876.439015
 845.269086, 1906.653329
 845.632245, 1936.915397
 845.996146, 1967.304918
 846.359986, 1997.754834
 846.725458, 2028.407149
 847.090823, 2059.116391
 847.456069, 2089.881265
 847.822057, 2120.774488
 848.186654, 2151.615650
 848.553558, 2182.717702
 848.920366, 2213.877425
 849.288769, 2245.238757
 849.657624, 2276.704952
 850.025664, 2308.167471
 850.394846, 2339.793846
 850.764562, 2371.532164
 851.134283, 2403.337094
 851.504588, 2435.258519
 851.874667, 2467.226549
 852.245353, 2499.313194
 852.617956, 2531.632324
 852.990621, 2564.023536
 853.364384, 2596.577029
 853.737415, 2629.133358
 854.109816, 2661.701039
 854.484953, 2694.574773
 854.859613, 2727.473603
 855.232812, 2760.310448
 855.610154, 2793.578922
 855.987506, 2826.915751
 856.365445, 2860.371883
 856.744425, 2893.987848
 857.123166, 2927.650187
 857.501044, 2961.302990
 857.879099, 2995.038634
 858.259561, 3029.056647
 858.639528, 3063.097942
 859.019503, 3097.207342
 859.398980, 3131.339232
 859.780769, 3165.746617
 860.164566, 3200.403151
 860.547572, 3235.056292
 860.931298, 3269.842687
 861.316361, 3304.818571
 861.701410, 3339.861560
 862.087440, 3375.062316
 862.472182, 3410.213649
 862.858164, 3445.546503
 863.244074, 3480.940951
 863.628245, 3516.243365
 864.015436, 3551.891398
 864.404962, 3587.823300
 864.793774, 3623.757983
 865.184145, 3659.905673
 865.576484, 3696.305134
 865.968260, 3732.721769
 866.360133, 3769.216496
 866.752526, 3805.828979
 867.147066, 3842.711550
 867.540736, 3879.582224
 867.836200, 3907.300626
 867.934290, 3916.511433
 868.327190, 3953.448153
 868.723463, 3990.771712
 869.122940, 4028.467797
 869.519596, 4065.967778
 869.918943, 4103.792479
 870.318549, 4141.712389
 870.717946, 4179.682944
 871.119954, 4217.972626
 871.519516, 4256.099760
 871.919099, 4294.298991
 872.320228, 4332.716320
 872.722652, 4371.328387
 873.126464, 4410.144637
 873.529387, 4448.946103
 873.934305, 4488.010883
 874.340008, 4527.222666
 874.745640, 4566.498764
 875.152371, 4605.952687
 875.559600, 4645.526360
 875.968712, 4685.354853
 876.378625, 4725.333381
 876.789103, 4765.439187
 877.201574, 4805.812285
 877.615391, 4846.390067
 878.026466, 4886.771232
 878.441793, 4927.642955
 878.855166, 4968.395097
 879.271878, 5009.549587
 879.686004, 5050.521341
 880.102916, 5091.841742
 880.521081, 5133.359793
 880.937739, 5174.801291
 881.353630, 5216.238930
 881.773864, 5258.182667
 882.194763, 5300.266741
 882.615973, 5342.455653
 883.036844, 5384.684261
 883.460664, 5427.282937
 883.881680, 5469.673325
 884.303816, 5512.249986
 884.728670, 5555.174768
 885.156392, 5598.464339
 885.581262, 5641.539523
 886.009898, 5685.071323
 886.437488, 5728.571722
 886.866252, 5772.266273
 887.295662, 5816.101649
 887.724857, 5859.989720
 888.155251, 5904.075298
 888.587086, 5948.383698
 889.021134, 5992.994797
 889.455572, 6037.721890
 889.888297, 6082.347857
 890.326698, 6127.635731
 890.760957, 6172.571241
 891.199119, 6217.986872
 891.636947, 6263.444088
 892.074932, 6308.993739
 892.514514, 6354.785795
 892.957033, 6400.960827
 893.397710, 6447.020351
 893.840287, 6493.355306
 894.282480, 6539.726802
 894.725623, 6586.274629
 895.169843, 6633.012574
 895.614511, 6679.874572
 896.061602, 6727.069420
 896.508971, 6774.371091
 896.958332, 6821.961376
 897.403655, 6869.200895
 897.854382, 6917.091362
 898.306609, 6965.219585
 898.759921, 7013.541996
 899.215562, 7062.191696
 899.673747, 7111.192899
 900.127947, 7159.846741
 900.585175, 7208.903965
 901.042341, 7258.033721
 901.497488, 7307.024808
 901.955499, 7356.402982
 902.416031, 7406.132459
 902.876051, 7455.885933
 903.337229, 7505.844069
 903.800373, 7556.095066
 904.261594, 7606.216673
 904.724530, 7656.604057
 905.189475, 7707.290007
 905.658035, 7758.450804
 906.119937, 7808.963707
 906.590986, 7860.557753
 907.060129, 7912.023748
 907.530574, 7963.713439
 907.999237, 8015.287624
 908.471362, 8067.323432
 908.942507, 8119.331885
 909.413435, 8171.396703
 909.888650, 8224.016522
 910.363159, 8276.639320
 910.841616, 8329.781751
 911.322222, 8383.245438
 911.801461, 8436.639151
 912.282172, 8490.279085
 912.764937, 8544.230812
 913.246392, 8598.118348
 913.729714, 8652.297352
 914.213007, 8706.555321
 914.696154, 8760.878846
 915.181000, 8815.475763
 915.670218, 8870.648273
 916.158511, 8925.799682
 916.647152, 8981.073338
 917.134296, 9036.260081
 917.624924, 9091.924480
 918.113133, 9147.396664
 918.607425, 9203.643621
 919.098691, 9259.629227
 919.596833, 9316.482751
 920.097542, 9373.714494
 920.594195, 9430.566706
 921.092030, 9487.638262
 921.589068, 9544.702058
 922.087607, 9602.021732
 922.588941, 9659.747091
 923.091255, 9717.669745
 923.591785, 9775.470588
 924.095591, 9833.734084
 924.602027, 9892.386675
 925.108429, 9951.120349
 925.618186, 10010.328704
 926.128289, 10069.662874
 926.637736, 10129.005978
 927.146167, 10188.315561
 927.656519, 10247.934004
 928.167871, 10307.754340
 928.682260, 10368.015596
 929.199921, 10428.746541
 929.715983, 10489.375911
 930.232827, 10550.183073
 930.747955, 10610.873506
 931.269264, 10672.378470
 931.786403, 10733.476962
 932.304381, 10794.759838
 932.824874, 10856.425743
 933.346148, 10918.269933
 933.869418, 10980.437022
 934.396912, 11043.192745
 934.922016, 11105.750628
 935.451505, 11168.917898
 935.977075, 11231.703834
 936.508301, 11295.252425
 937.038415, 11358.754863
 937.569553, 11422.466603
 938.101455, 11486.356736
 938.635981, 11550.649255
 939.171542, 11615.153579
 939.705581, 11679.561357
 940.243433, 11744.516259
 940.780725, 11809.490690
 941.321204, 11874.938182
 941.861555, 11940.457679
 942.398962, 12005.706652
 942.938930, 12071.353298
 943.482695, 12137.548925
 944.024452, 12203.587190
 944.568804, 12270.028802
 945.109448, 12336.104090
 945.655396, 12402.914352
 946.207702, 12470.591318
 946.752085, 12537.384051
 947.303504, 12605.127771
 947.853814, 12672.822692
 948.406443, 12740.890580
 948.957511, 12808.853305
 949.507710, 12876.795547
 950.067622, 12946.025660
 950.620515, 13014.475235
 951.177831, 13083.559763
 951.738523, 13153.151030
 952.294960, 13222.301522
 952.858256, 13292.392443
 953.420896, 13362.490090
 953.988314, 13433.272023
 954.549499, 13503.364031
 955.107208, 13573.107742
 955.672143, 13643.842222
 956.239404, 13714.955882
 956.806027, 13786.076953
 957.376220, 13857.734156
 957.943751, 13929.144065
 958.510016, 14000.481279
 959.079740, 14072.341062
 959.645053, 14143.730228
 960.217662, 14216.127549
 960.788426, 14288.378207
 961.363860, 14361.307234
 961.939928, 14434.403887
 962.518813, 14507.945711
 963.095449, 14581.288821
 963.673731, 14654.928085
 964.251857, 14728.634185
 964.832242, 14802.715204
 965.413351, 14876.975245
 965.998551, 14951.845493
 966.581346, 15026.494904
 967.160013, 15100.700929
 967.742532, 15175.486551
 968.325183, 15250.374533
 968.919385, 15326.835017
 969.506696, 15402.495419
 970.095827, 15478.476479
 970.683825, 15554.397198
 971.274294, 15630.722859
 971.862961, 15706.900937
 972.459148, 15784.138486
 973.054917, 15861.408385
 973.648945, 15938.538372
 974.243617, 16015.837328
 974.839555, 16093.386098
 975.433078, 16170.705141
 976.037502, 16249.530671
 976.635230, 16327.568257
 977.237876, 16406.333495
 977.843693, 16485.599192
 978.449177, 16564.907405
 979.053776, 16644.184861
 979.657646, 16723.451504
 980.265704, 16803.353082
 980.872489, 16883.172097
 981.480067, 16963.180056
 982.084509, 17042.858496
 982.691753, 17122.989807
 983.298391, 17203.124405
 983.910616, 17284.080810
 984.517269, 17364.383240
 985.129126, 17445.457508
 985.742549, 17526.822721
 986.352214, 17607.771697
 986.967947, 17689.609178
 987.586045, 17771.844336
 988.199837, 17853.588913
 988.816479, 17935.795076
 989.431212, 18017.828418
 990.053974, 18101.015747
 990.673788, 18183.891393
 991.292843, 18266.747022
 991.922250, 18351.071133
 992.556283, 18436.099315
 993.187270, 18520.802301
 993.807174, 18604.098221
 994.427230, 18687.494085
 995.054226, 18771.903938
 995.672232, 18855.182368
 996.304973, 18940.526994
 996.938131, 19026.009010
 997.562049, 19110.322832
 998.195792, 19196.044180
 998.828979, 19281.770507
 999.461042, 19367.423953
1000.096057, 19453.556872
1000.725104, 19538.958427
1001.360955, 19625.362320
1001.992026, 19711.194256
1002.625426, 19797.420456
1003.264359, 19884.477880
1003.908636, 19972.342609
1004.539179, 20058.410597
1005.176814, 20145.522998
1005.813335, 20232.559565
1006.456145, 20320.532944
1007.093663, 20407.857784
1007.734481, 20495.710451
1008.372238, 20583.218294
1009.009168, 20670.686885
1009.656735, 20759.691656
1010.298583, 20847.985243
1010.942588, 20936.649757
1011.591685, 21026.090348
1012.231776, 21114.362955
1012.876814, 21203.391023
1013.530424, 21293.676560
1014.179036, 21383.345294
1014.828903, 21473.260467
1015.476540, 21562.939537
1016.125429, 21652.863834
1016.777524, 21743.304476
1017.432475, 21834.213588
1018.084788, 21924.828049
1018.739971, 22015.912667
1019.390978, 22106.487207
1020.041907, 22197.120576
1020.697610, 22288.488837
1021.350992, 22379.603041
1022.013032, 22471.995111
1022.669952, 22563.742022
1023.325034, 22655.300606
1023.986168, 22747.774088
1024.647060, 22840.282422
1025.304349, 22932.353914
1025.955273, 23023.599969
1026.618293, 23116.608608
1027.284401, 23210.118294
1027.945930, 23303.051843
1028.603828, 23395.540728
1029.260951, 23487.985426
1029.917916, 23580.472047
1030.583319, 23674.211565
1031.251114, 23768.353352
1031.921228, 23862.887212
1032.585521, 23956.664065
1033.253538, 24051.030305
1033.915962, 24144.669382
1034.249745, 24191.875863
