Time, Horizontal Forces
   0.000000,    0.000000
   0.000000,    0.000000
   0.000007,    0.000000
   0.000082,    0.000000
   0.000471,    0.000000
   0.002611,    0.000000
   0.007883,    0.000000
   0.016021,    0.000000
   0.027016,    0.000000
   0.040922,    0.000000
   0.057780,    0.000000
   0.077586,    0.000000
   0.100326,    0.000000
   0.125942,    0.000000
   0.154713,    0.000000
   0.186823,    0.000000
   0.222045,    0.000000
   0.260756,    0.000000
   0.302570,    0.000000
   0.347923,    0.000000
   0.396709,    0.000000
   0.449072,    0.000000
   0.505139,    0.000000
   0.565818,    0.000000
   0.629321,    0.000000
   0.696192,    0.000000
   0.767836,    0.000000
   0.842671,    0.000000
   0.922055,    0.000000
   1.006500,    0.000000
   1.095504,    0.000000
   1.189311,    0.000000
   1.287386,    0.000000
   1.389598,    0.000000
   1.495618,    0.000000
   1.607014,    0.000000
   1.724723,    0.000000
   1.846153,    0.000000
   1.972630,    0.000000
   2.107465,    0.000000
   2.244878,    0.000000
   2.390951,    0.000000
   2.541755,    0.000000
   2.696714,    0.000000
   2.860361,    0.000000
   3.029808,    0.000000
   3.206675,    0.000000
   3.388884,    0.000000
   3.575572,    0.000000
   3.771163,    0.000000
   3.972625,    0.000000
   4.179952,    0.000000
   4.393994,    0.000000
   4.613086,    0.000000
   4.840682,    0.000000
   5.075485,    0.000000
   5.320203,    0.000000
   5.568898,    0.000000
   5.828049,    0.000000
   6.097646,    0.000000
   6.369353,    0.000000
   6.654390,    0.000000
   6.944175,    0.000000
   7.242556,    0.000000
   7.553601,    0.000000
   7.870306,    0.000000
   8.195511,    0.000000
   8.527551,    0.000000
   8.870135,    0.000000
   9.222438,    0.000000
   9.587628,    0.000000
   9.959421,    0.000000
  10.339511,    0.000000
  10.731027,    0.000000
  11.132951,    0.000000
  11.543166,    0.000000
  11.961975,    0.000000
  12.395725,    0.000000
  12.834698,    0.000000
  13.285572,    0.000000
  13.747262,    0.000000
  14.217976,    0.000000
  14.698218,    0.000000
  15.197074,    0.000000
  15.699039,    0.000000
  16.215408,    0.000000
  16.748197,    0.000000
  17.289480,    0.000000
  17.843884,    0.000000
  18.404680,    0.000000
  18.988049,    0.000000
  19.574672,    0.000000
  20.173425,    0.000000
  20.783393,    0.000000
  21.401260,    0.000000
  22.039416,    0.000000
  22.688402,    0.000000
  23.350597,    0.000000
  24.023375,    0.000000
  24.708915,    0.000000
  24.848461,    0.000000
  24.918110,    0.000000
  24.960115,    0.000000
  24.987430,    0.000000
  25.081498,    0.000000
  25.082059,    0.000000
  25.082987,    0.000000
  25.083383,    0.000000
  25.083495,    0.000000
  25.083548,    0.000000
  25.083601,    0.000000
  25.084137,    0.000000
  25.088672,    0.000000
  25.116551,    0.000000
  25.219963,    0.000000
  25.527125,    0.000000
  26.141405,    0.000000
  26.785931,    0.000000
  27.447079,    0.000000
  28.115090,    0.000000
  28.795350,    0.000000
  29.485894,    0.000000
  30.187059,    0.000000
  30.898280,    0.000000
  31.625886,    0.000000
  32.364925,    0.000000
  33.122314,    0.000000
  33.887918,    0.000000
  34.664240,    0.000000
  35.453035,    0.000000
  36.253324,    0.000000
  37.061997,    0.000000
  37.887845,    0.000000
  38.726487,    0.000000
  39.568639,    0.000000
  40.432427,    0.000000
  41.301106,    0.000000
  42.184307,    0.000000
  43.076800,    0.000000
  43.989895,    0.000000
  44.913626,    0.000000
  45.848172,    0.000000
  46.797072,    0.000000
  47.758548,    0.000000
  48.728286,    0.000000
  49.715617,    0.000000
  50.715006,    0.000000
  51.729581,    0.000000
  52.759859,    0.000000
  53.800502,    0.000000
  54.861502,    0.000000
  55.940737,    0.000000
  57.025220,    0.000000
  58.120526,    0.000000
  59.239747,    0.000000
  60.369394,    0.000000
  61.517558,    0.000000
  62.678802,    0.000000
  63.844125,    0.000000
  65.034125,    0.000000
  66.232218,    0.000000
  67.455031,    0.000000
  68.684252,    0.000000
  69.936302,    0.000000
  71.197192,    0.000000
  72.473338,    0.000000
  73.766415,    0.000000
  75.076415,    0.000000
  76.403491,    0.000000
  77.734368,    0.000000
  79.090532,    0.000000
  80.452946,    0.000000
  81.833859,    0.000000
  83.234743,    0.000000
  84.649742,    0.000000
  86.076075,    0.000000
  87.529580,    0.000000
  89.002517,    0.000000
  90.487151,    0.000000
  91.983098,    0.000000
  93.490940,    0.000000
  95.029204,    0.000000
  96.585428,    0.000000
  98.148737,    0.000000
  99.729079,    0.000000
 101.324331,    0.000000
 102.941287,    0.000000
 103.265878,    0.000000
 103.458075,    0.000000
 103.568907,    0.000000
 103.670897,    0.000000
 103.750633,    0.000000
 103.815717,    0.000000
 103.862810,    0.000000
 103.908576,    0.000000
 103.960808,    0.000000
 103.970275,    0.000000
 103.972680,    0.000000
 103.973243,    0.000000
 103.973543,    0.000000
 103.973675,    0.000000
 103.973835,    0.000000
 103.975433,    0.000000
 103.991410,    0.000000
 104.104923,    0.000000
 104.512434,    0.000000
 105.920854,    0.000000
 107.399548,    0.000000
 108.888289,    0.000000
 110.397087,    0.000000
 111.913332,    0.000000
 113.444042,    0.000000
 114.980652,    0.000000
 116.546503,    0.000000
 118.122274,    0.000000
 119.709281,    0.000000
 121.305428,    0.000000
 122.924303,    0.000000
 124.551241,    0.000000
 126.193184,    0.000000
 127.856354,    0.000000
 129.529032,    0.000000
 131.216982,    0.000000
 132.918510,    0.000000
 134.630181,    0.000000
 136.359853,    0.000000
 138.111584,    0.000000
 139.881820,    0.000000
 141.656321,    0.000000
 143.451338,    0.000000
 145.260899,    0.000000
 147.084571,    0.000000
 148.920652,    0.000000
 150.771945,    0.000000
 152.644271,    0.000000
 154.530512,    0.000000
 156.437327,    0.000000
 158.353374,    0.000000
 160.280389,    0.000000
 162.228984,    0.000000
 164.199367,    0.000000
 166.177699,    0.000000
 168.179261,    0.000000
 170.188575,    0.000000
 172.217971,    0.000000
 174.265273,    0.000000
 176.323559,    0.000000
 178.395849,    0.000000
 180.478634,    0.000000
 182.589947,    0.000000
 184.709407,    0.000000
 186.847517,    0.000000
 188.999008,    0.000000
 191.170846,    0.000000
 193.354765,    0.000000
 195.557972,    0.000000
 197.785531,    0.000000
 200.028555,    0.000000
 202.289230,    0.000000
 204.561836,    0.000000
 206.857959,    0.000000
 209.160254,    0.000000
 211.485733,    0.000000
 213.824874,    0.000000
 216.184489,    0.000000
 218.564823,    0.000000
 220.954382,    0.000000
 223.374309,    0.000000
 225.802736,    0.000000
 228.246820,    0.000000
 230.714584,    0.000000
 233.196805,    0.000000
 235.698407,    0.000000
 238.223447,    0.000000
 240.757637,    0.000000
 243.307499,    0.000000
 243.819123,    0.000000
 244.160930,    0.000000
 245.234459,    0.000000
 245.255574,    0.000000
 245.260895,    0.000000
 245.269421,    0.000000
 245.270580,    0.000000
 245.271239,    0.000000
 245.271652,    0.000000
 245.272031,    0.000000
 245.275823,    0.000000
 245.308995,    0.000000
 245.489763,    0.000000
 246.397362,    0.000000
 248.642360,    0.000000
 250.910951,    0.000000
 253.194482,    0.000000
 255.489820,    0.000000
 257.796429,    0.000000
 260.112136,    0.000000
 262.444877,    0.000000
 264.792560,    0.000000
 267.152670,    0.000000
 269.527490,    0.000000
 271.920292,    0.000000
 274.327732,    0.000000
 276.754404,    0.000000
 279.196508,    0.000000
 281.639954,    0.000000
 284.109086,    0.000000
 286.587877,    0.000000
 289.079199,    0.000000
 291.592865,    0.000000
 294.118875,    0.000000
 296.647416,    0.000000
 299.192465,    0.000000
 301.757769,    0.000000
 304.342926,    0.000000
 306.942795,    0.000000
 309.557182,    0.000000
 312.176347,    0.000000
 314.815464,    0.000000
 317.466208,    0.000000
 320.132569,    0.000000
 322.817880,    0.000000
 325.520222,    0.000000
 328.230660,    0.000000
 330.963415,    0.000000
 333.704471,    0.000000
 336.468821,    0.000000
 339.248237,    0.000000
 342.033247,    0.000000
 344.844506,    0.000000
 347.663742,    0.000000
 350.492407,    0.000000
 353.334963,    0.000000
 356.196160,    0.000000
 359.073472,    0.000000
 361.965013,    0.000000
 364.876543,    0.000000
 367.798876,    0.000000
 370.741193,    0.000000
 373.695465,    0.000000
 376.672141,    0.000000
 379.647749,    0.000000
 382.645542,    0.000000
 385.664177,    0.000000
 388.695286,    0.000000
 391.744345,    0.000000
 394.807075,    0.000000
 397.895053,    0.000000
 400.984272,    0.000000
 404.087347,    0.000000
 407.216091,    0.000000
 410.358140,    0.000000
 413.516237,    0.000000
 416.692282,    0.000000
 419.882047,    0.000000
 423.087385,    0.000000
 426.311910,    0.000000
 429.545002,    0.000000
 432.802710,    0.000000
 436.070654,    0.000000
 439.358729,    0.000000
 442.666954,    0.000000
 445.986607,    0.000000
 449.316383,    0.000000
 452.668690,    0.000000
 456.031707,    0.000000
 459.419409,    0.000000
 462.816887,    0.000000
 463.500268,    0.000000
 463.991797,    0.000000
 464.329741,    0.000000
 464.642615,    0.000000
 464.904321,    0.000000
 464.952813,    0.000000
 465.008249,    0.000000
 465.020106,    0.000000
 465.031843,    0.000000
 465.035901,    0.000000
 465.037453,    0.000000
 465.039173,    0.000000
 465.056369,    0.000000
 465.197834,    0.000000
 465.963858,    0.000000
 468.810677,    0.000000
 472.227554,    0.000000
 475.673722,    0.000000
 479.138752,    0.000000
 482.604102,    0.000000
 486.092738,    0.000000
 489.599800,    0.000000
 493.128471,    0.000000
 496.674129,    0.000000
 500.224997,    0.000000
 503.801621,    0.000000
 507.396981,    0.000000
 510.995201,    0.000000
 514.609631,    0.000000
 518.246373,    0.000000
 521.897149,    0.000000
 525.566409,    0.000000
 529.253570,    0.000000
 532.958511,    0.000000
 536.673319,    0.000000
 540.412163,    0.000000
 544.167612,    0.000000
 547.932129,    0.000000
 551.718431,    0.000000
 555.522072,    0.000000
 559.340358,    0.000000
 563.178382,    0.000000
 567.036967,    0.000000
 570.907534,    0.000000
 574.798944,    0.000000
 578.708079,    0.000000
 582.627476,    0.000000
 586.567398,    0.000000
 590.532868,    0.000000
 594.507978,    0.000000
 598.500367,    0.000000
 602.505612,    0.000000
 606.535368,    0.000000
 610.575486,    0.000000
 614.631440,    0.000000
 618.706842,    0.000000
 622.797647,    0.000000
 626.902631,    0.000000
 631.027386,    0.000000
 635.183907,    0.000000
 639.346251,    0.000000
 643.521000,    0.000000
 647.714792,    0.000000
 651.924416,    0.000000
 656.166071,    0.000000
 660.409120,    0.000000
 664.678835,    0.000000
 664.967817,    0.000000
 668.963366,    0.000000
 673.262209,    0.000000
 677.582682,    0.000000
 681.917670,    0.000000
 686.289143,    0.000000
 690.675101,    0.000000
 695.073570,    0.000000
 699.497039,    0.000000
 703.941253,    0.000000
 708.395109,    0.000000
 712.878676,    0.000000
 717.375034,    0.000000
 721.883566,    0.000000
 726.419429,    0.000000
 730.954866,    0.000000
 735.508572,    0.000000
 740.077775,    0.000000
 744.677960,    0.000000
 749.282291,    0.000000
 753.896152,    0.000000
 758.526265,    0.000000
 763.166859,    0.000000
 767.818097,    0.000000
 772.484386,    0.000000
 777.155953,    0.000000
 781.847123,    0.000000
 786.542973,    0.000000
 787.485451,    0.000000
 788.358760,    0.000000
 788.683032,    6.296545
 789.007469,   12.817115
 789.072387,   14.160920
 789.259250,   18.061295
 789.262199,   18.123841
 789.266411,   18.213188
 789.267314,   18.232364
 789.267639,   18.239259
 789.268011,   18.247144
 789.270482,   18.299614
 789.283259,   18.570933
 789.333685,   19.643673
 789.469207,   22.544468
 789.690292,   27.345148
 790.014201,   34.538436
 790.338547,   41.961111
 790.663164,   49.609905
 790.988565,   57.497656
 791.314197,   65.611874
 791.639991,   73.951072
 791.965915,   82.514502
 792.292226,   91.309163
 792.617206,  100.287964
 792.942316,  109.489493
 793.268711,  118.947363
 793.595606,  128.640622
 793.923061,  138.571903
 794.250741,  148.731648
 794.578340,  159.110366
 794.906607,  169.732032
 795.234999,  180.579727
 795.563038,  191.637357
 795.891986,  202.947483
 796.221244,  214.490629
 796.550817,  226.267404
 796.880702,  238.278131
 797.209856,  250.484377
 797.539956,  262.947938
 797.869143,  275.598930
 798.200018,  288.537125
 798.531410,  301.719092
 798.863071,  315.135573
 799.192981,  328.703618
 799.525204,  342.589699
 799.857335,  356.695894
 800.188822,  370.997893
 800.521856,  385.590339
 800.855000,  400.412128
 801.188162,  415.459046
 801.521890,  430.756061
 801.856241,  446.306739
 802.190830,  462.093899
 802.524934,  478.083073
 802.859611,  494.324539
 803.194311,  510.792064
 803.528590,  527.463305
 803.862758,  544.352796
 804.199411,  561.593362
 804.535815,  579.047580
 804.873037,  596.770939
 805.210660,  614.742555
 805.547169,  632.881211
 805.885571,  651.348811
 806.223888,  670.039392
 806.562061,  688.949382
 806.901421,  708.153507
 807.239101,  727.489582
 807.577748,  747.107543
 807.918003,  767.046763
 808.258604,  787.235170
 808.599629,  807.678035
 808.939017,  828.250772
 809.280545,  849.181630
 809.622895,  870.392928
 809.965792,  891.868851
 810.309339,  913.616670
 810.649953,  935.407956
 810.993768,  957.633675
 811.336323,  980.008164
 811.680620, 1002.726989
 812.023747, 1025.599071
 812.369246, 1048.860607
 812.712720, 1072.216640
 813.058009, 1095.926877
 813.404167, 1119.929145
 813.750703, 1144.190394
 814.097846, 1168.727358
 814.445955, 1193.566599
 814.794100, 1218.642875
 815.141499, 1243.898857
 815.489020, 1269.396677
 815.839095, 1295.316587
 816.187112, 1321.318413
 816.537315, 1347.718121
 816.888845, 1374.454322
 817.240292, 1401.421285
 817.590644, 1428.539940
 817.942030, 1455.974346
 818.292602, 1483.580619
 818.645283, 1511.589114
 818.999495, 1539.957651
 819.351915, 1568.420160
 819.705468, 1597.211391
 820.055631, 1625.961491
 820.411636, 1655.428359
 820.765108, 1684.923799
 821.121913, 1714.763186
 821.478414, 1744.642866
 821.834556, 1774.558014
 822.191878, 1804.638006
 822.549467, 1834.806415
 822.907309, 1865.061858
 823.266705, 1895.514885
 823.627411, 1926.145513
 823.987385, 1956.780274
 824.347238, 1987.470921
 824.706783, 2018.201206
 825.067265, 2049.077638
 825.428164, 2080.055998
 825.791241, 2111.287879
 826.152910, 2142.465075
 826.517250, 2173.939365
 826.881875, 2205.505403
 827.246017, 2237.096490
 827.610386, 2268.773955
 827.974336, 2300.481572
 828.339939, 2332.400128
 828.706051, 2364.430059
 829.070723, 2396.400576
 829.437443, 2428.617592
 829.804734, 2460.951895
 830.171239, 2493.283745
 830.538886, 2525.783357
 830.906634, 2558.358857
 831.275686, 2591.117066
 831.645262, 2623.989208
 832.015966, 2657.029262
 832.385941, 2690.071717
 832.757302, 2723.305496
 833.128418, 2756.584971
 833.499824, 2789.957872
 833.873455, 2823.598637
 834.247141, 2857.312462
 834.620515, 2891.066093
 834.994111, 2924.907471
 835.367293, 2958.778898
 835.742370, 2992.890358
 836.115558, 3026.897451
 836.490737, 3061.153605
 836.867146, 3095.590227
 837.243819, 3130.119240
 837.623738, 3165.014628
 838.003123, 3199.930000
 838.381957, 3234.863375
 838.761124, 3269.895891
 839.140840, 3305.047816
 839.521059, 3340.314967
 839.904094, 3375.912710
 840.287107, 3411.577880
 840.669194, 3447.225910
 841.052109, 3483.020318
 841.434547, 3518.839039
 841.818844, 3554.901200
 842.203121, 3591.030750
 842.590598, 3627.531156
 842.978239, 3664.117293
 843.365805, 3700.766401
 843.752366, 3737.390124
 844.141553, 3774.332838
 844.531453, 3811.413798
 844.920042, 3848.440024
 845.308530, 3885.526424
 845.699247, 3922.895819
 846.093096, 3960.635906
 846.486041, 3998.360364
 846.878757, 4036.133694
 847.272204, 4074.048075
 847.667664, 4112.227728
 848.063251, 4150.490965
 848.459136, 4188.854334
 848.855046, 4227.291308
 849.249708, 4265.677853
 849.648055, 4304.494307
 850.047655, 4343.504735
 850.448721, 4382.730764
 850.740545, 4411.317853
 850.847552, 4421.809863
 851.248550, 4461.173365
 851.650954, 4500.747189
 852.053005, 4540.358630
 852.456173, 4580.152627
 852.859529, 4620.037531
 853.262937, 4659.999886
 853.664658, 4699.866809
 854.070406, 4740.205876
 854.473980, 4780.400959
 854.880962, 4821.008279
 855.288779, 4861.771870
 855.697257, 4902.674751
 856.104986, 4943.575537
 856.512307, 4984.507918
 856.919107, 5025.460184
 857.330117, 5066.909449
 857.741155, 5108.434995
 858.153223, 5150.138136
 858.566155, 5192.002277
 858.980851, 5234.119503
 859.394845, 5276.239264
 859.809368, 5318.486616
 860.224052, 5360.824230
 860.639071, 5403.269653
 861.054911, 5445.872931
 861.472031, 5488.681419
 861.890595, 5531.712456
 862.310521, 5574.958186
 862.731861, 5618.424645
 863.154442, 5662.094492
 863.576251, 5705.759725
 863.998267, 5749.521223
 864.423658, 5793.708401
 864.847615, 5837.822057
 865.274313, 5882.296773
 865.700553, 5926.799506
 866.126290, 5971.325245
 866.556278, 6016.372005
 866.985867, 6061.453435
 867.415383, 6106.603541
 867.845905, 6151.935725
 868.276104, 6197.310081
 868.708725, 6243.016497
 869.140451, 6288.704781
 869.576537, 6334.931855
 870.012846, 6381.260205
 870.446832, 6427.418718
 870.884445, 6474.040353
 871.319061, 6520.419504
 871.756899, 6567.219706
 872.193985, 6614.016531
 872.632207, 6661.012226
 873.070710, 6708.115120
 873.513333, 6755.738678
 873.956834, 6803.535145
 874.400492, 6851.426992
 874.844860, 6899.473939
 875.289620, 6947.641555
 875.734848, 6995.938411
 876.184686, 7044.814665
 876.633802, 7093.691970
 877.082341, 7142.585609
 877.532087, 7191.689967
 877.982566, 7240.953545
 878.433219, 7290.315454
 878.887957, 7340.204792
 879.339902, 7389.867184
 879.794161, 7439.863605
 880.245220, 7489.586599
 880.701407, 7539.954644
 881.159159, 7590.575855
 881.614355, 7640.994004
 882.072952, 7691.869005
 882.534446, 7743.146299
 882.994437, 7794.337238
 883.457255, 7845.923814
 883.919050, 7897.477100
 884.379512, 7948.961806
 884.844358, 8001.017622
 885.310555, 8053.306305
 885.777754, 8105.788962
 886.245476, 8158.412122
 886.714606, 8211.275645
 887.184203, 8264.273663
 887.652873, 8317.248494
 888.123872, 8370.568521
 888.596293, 8424.131639
 889.069097, 8477.820395
 889.543247, 8531.744351
 890.017522, 8585.764841
 890.493877, 8640.104862
 890.972369, 8694.771730
 891.452438, 8749.702300
 891.931618, 8804.614459
 892.409608, 8859.472646
 892.892330, 8914.957505
 893.374647, 8970.479308
 893.860088, 9026.444805
 894.343580, 9082.269266
 894.831197, 9138.654372
 895.316950, 9194.907722
 895.803820, 9251.374378
 896.293957, 9308.304392
 896.782697, 9365.156443
 897.273072, 9422.282919
 897.764624, 9479.631028
 898.254797, 9536.902325
 898.749174, 9594.749463
 899.243593, 9652.686344
 899.740672, 9711.020209
 900.235296, 9769.150610
 900.730890, 9827.479480
 901.229199, 9886.212965
 901.729354, 9945.249248
 902.228191, 10004.215095
 902.728166, 10063.400377
 903.231582, 10123.078597
 903.733718, 10182.690496
 904.237947, 10242.636367
 904.744920, 10302.994687
 905.249575, 10363.162554
 905.759700, 10424.068977
 906.265723, 10484.571283
 906.776079, 10545.677856
 907.288803, 10607.154750
 907.800335, 10668.575218
 908.313752, 10730.308583
 908.823663, 10791.705975
 909.338923, 10853.833800
 909.852405, 10915.833276
 910.371377, 10978.582831
 910.890248, 11041.407282
 911.411131, 11104.562857
 911.929621, 11167.514979
 912.449235, 11230.690150
 912.969317, 11294.008737
 913.492172, 11357.751817
 914.014535, 11421.521727
 914.539564, 11485.704266
 915.063629, 11549.855673
 915.587586, 11614.080264
 916.113105, 11678.582907
 916.642982, 11743.707922
 917.170475, 11808.626789
 917.702607, 11874.204126
 918.231010, 11939.408808
 918.760753, 12004.865240
 919.299081, 12071.470926
 919.830790, 12137.344870
 920.367982, 12203.985812
 920.900765, 12270.166521
 921.439635, 12337.191074
 921.979190, 12404.388779
 922.519948, 12471.824338
 923.061489, 12539.445479
 923.601951, 12607.019464
 924.147714, 12675.344616
 924.694114, 12743.838257
 925.237346, 12812.022407
 925.784711, 12880.813398
 926.334331, 12949.976485
 926.879394, 13018.653479
 927.430473, 13088.176759
 927.983365, 13158.017450
 928.533587, 13227.608990
 929.085306, 13297.477613
 929.638016, 13367.559528
 930.194363, 13438.191078
 930.748403, 13508.617727
 931.305107, 13579.470841
 931.866458, 13651.004576
 932.427950, 13722.645266
 932.986301, 13793.973185
 933.544443, 13865.361881
 934.109659, 13937.743920
 934.671689, 14009.806224
 935.233143, 14081.882053
 935.798453, 14154.541006
 936.369820, 14228.067675
 936.932199, 14300.525173
 937.501779, 14373.998485
 938.070120, 14447.399887
 938.639947, 14521.081061
 939.211626, 14595.089694
 939.783597, 14669.224123
 940.360123, 14744.037586
 940.933846, 14818.575190
 941.509572, 14893.461072
 942.088454, 14968.845761
 942.670036, 15044.671058
 943.247443, 15120.039722
 943.825673, 15195.603193
 944.403519, 15271.203282
 944.986854, 15347.609406
 945.563568, 15423.234703
 946.152355, 15500.531248
 946.738586, 15577.580381
 947.319510, 15654.018489
 947.905926, 15731.266005
 948.494704, 15808.912184
 949.081513, 15886.385591
 949.670868, 15964.281930
 950.252091, 16041.188269
 950.837512, 16118.735043
 951.426090, 16196.785389
 952.019675, 16275.586156
 952.612582, 16354.383195
 953.208737, 16433.698484
 953.807557, 16513.455328
 954.403160, 16592.869646
 954.995900, 16671.987199
 955.589353, 16751.284425
 956.186068, 16831.102149
 956.783145, 16911.053131
 957.387695, 16992.090778
 957.988632, 17072.729260
 958.589317, 17153.418725
 959.192254, 17234.495293
 959.798146, 17316.054297
 960.405852, 17397.942862
 961.009918, 17479.425078
 961.616263, 17561.298804
 962.223086, 17643.321031
 962.827901, 17725.154932
 963.428300, 17806.472925
 964.036335, 17888.907890
 964.649807, 17972.163691
 965.255081, 18054.389031
 965.867752, 18137.702019
 966.482198, 18221.339312
 967.096803, 18305.081137
 967.711758, 18388.953259
 968.326052, 18472.817034
 968.937397, 18556.359308
 969.556214, 18641.004482
 970.165572, 18724.435829
 970.788245, 18809.771867
 971.400805, 18893.801949
 972.021428, 18979.018841
 972.637726, 19063.721730
 973.255395, 19148.692557
 973.873419, 19233.791398
 974.493826, 19319.297545
 975.117351, 19405.313118
 975.740910, 19491.412740
 976.358558, 19576.773987
 976.984981, 19663.426812
 977.614777, 19750.625609
 978.240673, 19837.362988
 978.871688, 19924.888490
 979.499599, 20012.061636
 980.130994, 20099.796644
 980.762547, 20187.631458
 981.388682, 20274.789318
 982.016994, 20362.326403
 982.646575, 20450.116455
 983.269067, 20536.992468
 983.905965, 20625.955105
 984.540656, 20714.685913
 985.170190, 20802.770426
 985.800926, 20891.097351
 986.440157, 20980.689231
 987.078359, 21070.212180
 987.718820, 21160.127161
 988.353429, 21249.294243
 988.987872, 21338.511116
 989.626455, 21428.383471
 990.268259, 21518.782674
 990.907085, 21608.835432
 991.553088, 21699.973210
 992.200075, 21791.323316
 992.843347, 21882.221457
 993.492028, 21973.956768
 994.139021, 22065.525715
 994.775608, 22155.691939
 995.418036, 22246.755544
 996.062950, 22338.241769
 996.711661, 22430.337230
 997.356270, 22521.920018
 998.004036, 22614.020838
 998.647701, 22705.607204
 999.297063, 22798.072921
 999.943786, 22890.231168
1000.602845, 22984.216848
1001.251571, 23076.797129
1001.901280, 23169.584924
1002.558782, 23263.553902
1003.213927, 23357.253556
1003.863771, 23450.261341
1004.517961, 23543.957263
1005.169035, 23637.272476
1005.820142, 23730.657116
1006.476638, 23824.879993
1007.124224, 23917.887824
1007.784955, 24012.848226
1008.438285, 24106.808711
1009.100166, 24202.063277
1009.714017, 24290.462845
