Time, Altitude
   0.000100,    0.000000
   0.000546,    0.000000
   0.002149,    0.000000
   0.006197,    0.000000
   0.029562,    0.000000
   0.060933,    0.000000
   0.093189,    0.000000
   0.125348,    0.000000
   0.157614,    0.000000
   0.190058,    0.000000
   0.222468,    0.000000
   0.254951,    0.000000
   0.287777,    0.000000
   0.320857,    0.000000
   0.354035,    0.000000
   0.387452,    0.000000
   0.420615,    0.000000
   0.454301,    0.000000
   0.488321,    0.000000
   0.522251,    0.000000
   0.556137,    0.000000
   0.590321,    0.000000
   0.624928,    0.000000
   0.660398,    0.000000
   0.695949,    0.000000
   0.731740,    0.000000
   0.768104,    0.000000
   0.804060,    0.000000
   0.840370,    0.000000
   0.876982,    0.000000
   0.914101,    0.000000
   0.951658,    0.000000
   0.988838,    0.000000
   1.026793,    0.000000
   1.065397,    0.000000
   1.103976,    0.000000
   1.143151,    0.000000
   1.182394,    0.000000
   1.222258,    0.000000
   1.263003,    0.000000
   1.303129,    0.000000
   1.343801,    0.000000
   1.385122,    0.000000
   1.426504,    0.000000
   1.468661,    0.000000
   1.510961,    0.000000
   1.553611,    0.000000
   1.597311,    0.000000
   1.641118,    0.000000
   1.684728,    0.000000
   1.729383,    0.000000
   1.773361,    0.000000
   1.818570,    0.000000
   1.864190,    0.000000
   1.908826,    0.000000
   1.954874,    0.000000
   2.001059,    0.000000
   2.047405,    0.000000
   2.093693,    0.000000
   2.141499,    0.000000
   2.188550,    0.000000
   2.237237,    0.000000
   2.285988,    0.000000
   2.334612,    0.000000
   2.383876,    0.000000
   2.433310,    0.000000
   2.483187,    0.000000
   2.533685,    0.000000
   2.584099,    0.000000
   2.635129,    0.000000
   2.686124,    0.000000
   2.737353,    0.000000
   2.789075,    0.000000
   2.841924,    0.000000
   2.894802,    0.000000
   2.947451,    0.000000
   3.001070,    0.000000
   3.054693,    0.000000
   3.108547,    0.000000
   3.163056,    0.000000
   3.218142,    0.000000
   3.273079,    0.000000
   3.327817,    0.000000
   3.383165,    0.000000
   3.439275,    0.000000
   3.495146,    0.000000
   3.551543,    0.000000
   3.608780,    0.000000
   3.665993,    0.000000
   3.724277,    0.000000
   3.782273,    0.000000
   3.841024,    0.000000
   3.899242,    0.000000
   3.958142,    0.000000
   4.017452,    0.000000
   4.077609,    0.000000
   4.137237,    0.000000
   4.197381,    0.000000
   4.257715,    0.000000
   4.260150,    0.000000
   4.267618,    0.000000
   4.268520,    0.000000
   4.268691,    0.000000
   4.268895,    0.000000
   4.268955,    0.000000
   4.268966,    0.000000
   4.268972,    0.000000
   4.268980,    0.000000
   4.269057,    0.000000
   4.269829,    0.000000
   4.273557,    0.000000
   4.285581,    0.000000
   4.318262,    0.000000
   4.374337,    0.000000
   4.429291,    0.000000
   4.484291,    0.000000
   4.539999,    0.000000
   4.595297,    0.000000
   4.651143,    0.000000
   4.707001,    0.000000
   4.763132,    0.000000
   4.819552,    0.000000
   4.876550,    0.000000
   4.933495,    0.000000
   4.990711,    0.000000
   5.048058,    0.000000
   5.105726,    0.000000
   5.163870,    0.000000
   5.221963,    0.000000
   5.280090,    0.000000
   5.338750,    0.000000
   5.397865,    0.000000
   5.457046,    0.000000
   5.516149,    0.000000
   5.575655,    0.000000
   5.635263,    0.000000
   5.695222,    0.000000
   5.755496,    0.000000
   5.816024,    0.000000
   5.877001,    0.000000
   5.938293,    0.000000
   5.999230,    0.000000
   6.061523,    0.000000
   6.123098,    0.000000
   6.184435,    0.000000
   6.246819,    0.000000
   6.309339,    0.000000
   6.372362,    0.000000
   6.435312,    0.000000
   6.498433,    0.000000
   6.561408,    0.000000
   6.624804,    0.000000
   6.688776,    0.000000
   6.752540,    0.000000
   6.816650,    0.000000
   6.881183,    0.000000
   6.946192,    0.000000
   7.011132,    0.000000
   7.075949,    0.000000
   7.141445,    0.000000
   7.207512,    0.000000
   7.273467,    0.000000
   7.339363,    0.000000
   7.405607,    0.000000
   7.471957,    0.000000
   7.538583,    0.000000
   7.605485,    0.000000
   7.672824,    0.000000
   7.740024,    0.000000
   7.807374,    0.000000
   7.875182,    0.000000
   7.942890,    0.000000
   8.010981,    0.000000
   8.079821,    0.000000
   8.148400,    0.000000
   8.217422,    0.000000
   8.286311,    0.000000
   8.355637,    0.000000
   8.425094,    0.000000
   8.494764,    0.000000
   8.564517,    0.000000
   8.634688,    0.000000
   8.705209,    0.000000
   8.719414,    0.000000
   8.728740,    0.000000
   8.734989,    0.000000
   8.739889,    0.000000
   8.743890,    0.000000
   8.747445,    0.000000
   8.750200,    0.000000
   8.752477,    0.000000
   8.755019,    0.000000
   8.757313,    0.000000
   8.757748,    0.000000
   8.758269,    0.000000
   8.758860,    0.000000
   8.758999,    0.000000
   8.759264,    0.000000
   8.759337,    0.000000
   8.759373,    0.000000
   8.759397,    0.000000
   8.759415,    0.000000
   8.759420,    0.000000
   8.759425,    0.000000
   8.759477,    0.000000
   8.759975,    0.000000
   8.762953,    0.000000
   8.775470,    0.000000
   8.819804,    0.000000
   8.884367,    0.000000
   8.947459,    0.000000
   9.010910,    0.000000
   9.074580,    0.000000
   9.137900,    0.000000
   9.201689,    0.000000
   9.265661,    0.000000
   9.329757,    0.000000
   9.393985,    0.000000
   9.458257,    0.000000
   9.522824,    0.000000
   9.587698,    0.000000
   9.652622,    0.000000
   9.717634,    0.000000
   9.782724,    0.000000
   9.848106,    0.000000
   9.913434,    0.000000
   9.979129,    0.000000
  10.044941,    0.000000
  10.110833,    0.000000
  10.176844,    0.000000
  10.243283,    0.000000
  10.310081,    0.000000
  10.377004,    0.000000
  10.443790,    0.000000
  10.510963,    0.000000
  10.578576,    0.000000
  10.645875,    0.000000
  10.713222,    0.000000
  10.781019,    0.000000
  10.848724,    0.000000
  10.916791,    0.000000
  10.984924,    0.000000
  11.053320,    0.000000
  11.121973,    0.000000
  11.190637,    0.000000
  11.259692,    0.000000
  11.328376,    0.000000
  11.397776,    0.000000
  11.467112,    0.000000
  11.536665,    0.000000
  11.606470,    0.000000
  11.676253,    0.000000
  11.746050,    0.000000
  11.816291,    0.000000
  11.886766,    0.000000
  11.957168,    0.000000
  12.027854,    0.000000
  12.098655,    0.000000
  12.169554,    0.000000
  12.240655,    0.000000
  12.311765,    0.000000
  12.383249,    0.000000
  12.454988,    0.000000
  12.526743,    0.000000
  12.598726,    0.000000
  12.670788,    0.000000
  12.742963,    0.000000
  12.815389,    0.000000
  12.887931,    0.000000
  12.960727,    0.000000
  13.033605,    0.000000
  13.106450,    0.000000
  13.179266,    0.000000
  13.252602,    0.000000
  13.326057,    0.000000
  13.399611,    0.000000
  13.473253,    0.000000
  13.547129,    0.000000
  13.562023,    0.000000
  13.572257,    0.000000
  13.579362,    0.000000
  13.580454,    0.000000
  13.581591,    0.000000
  13.582803,    0.000000
  13.584249,    0.000000
  13.584333,    0.000000
  13.584384,    0.000000
  13.584422,    0.000000
  13.584448,    0.000000
  13.584466,    0.000000
  13.584473,    0.000000
  13.584480,    0.000000
  13.584554,    0.000000
  13.585265,    0.000000
  13.590912,    0.000000
  13.611203,    0.000000
  13.681110,    0.000000
  13.745709,    0.000000
  13.810481,    0.000000
  13.875576,    0.000000
  13.940564,    0.000000
  14.005666,    0.000000
  14.071113,    0.000000
  14.136543,    0.000000
  14.202122,    0.000000
  14.267955,    0.000000
  14.333721,    0.000000
  14.399396,    0.000000
  14.465249,    0.000000
  14.531499,    0.000000
  14.597693,    0.000000
  14.664163,    0.000000
  14.730672,    0.000000
  14.797245,    0.000000
  14.863916,    0.000000
  14.930747,    0.000000
  14.997677,    0.000000
  15.064921,    0.000000
  15.132254,    0.000000
  15.199598,    0.000000
  15.267051,    0.000000
  15.334663,    0.000000
  15.402457,    0.000000
  15.470485,    0.000000
  15.538475,    0.000000
  15.606752,    0.000000
  15.674825,    0.000000
  15.743156,    0.000000
  15.811697,    0.000000
  15.880192,    0.000000
  15.948910,    0.000000
  16.017936,    0.000000
  16.086980,    0.000000
  16.156165,    0.000000
  16.225322,    0.000000
  16.294604,    0.000000
  16.363970,    0.000000
  16.433600,    0.000000
  16.503332,    0.000000
  16.573133,    0.000000
  16.642821,    0.000000
  16.713000,    0.000000
  16.783085,    0.000000
  16.853222,    0.000000
  16.923583,    0.000000
  16.994156,    0.000000
  17.064798,    0.000000
  17.135557,    0.000000
  17.206359,    0.000000
  17.277380,    0.000000
  17.348456,    0.000000
  17.419562,    0.000000
  17.490900,    0.000000
  17.562372,    0.000000
  17.633827,    0.000000
  17.705545,    0.000000
  17.777481,    0.000000
  17.849371,    0.000000
  17.921447,    0.000000
  17.993523,    0.000000
  18.065760,    0.000000
  18.138061,    0.000000
  18.210489,    0.000000
  18.283019,    0.000000
  18.355620,    0.000000
  18.428567,    0.000000
  18.501586,    0.000000
  18.574741,    0.000000
  18.647836,    0.000000
  18.721021,    0.000000
  18.794379,    0.000000
  18.867959,    0.000000
  18.882734,    0.000000
  18.937349,    0.000000
  18.937940,    0.000000
  18.938158,    0.000000
  18.938210,    0.000000
  18.938600,    0.000000
  18.938951,    0.000000
  18.941266,    0.000000
  18.954576,    0.000000
  19.016207,    0.000000
  19.089339,    0.000000
  19.162794,    0.000000
  19.236457,    0.000000
  19.310218,    0.000000
  19.384286,    0.000000
  19.458293,    0.000000
  19.532334,    0.000000
  19.606774,    0.000000
  19.681139,    0.000000
  19.755596,    0.000000
  19.830299,    0.000000
  19.905303,    0.000000
  19.980103,    0.000000
  20.055199,    0.000000
  20.130430,    0.000000
  20.205699,    0.000000
  20.280957,    0.000000
  20.356566,    0.000000
  20.432251,    0.000000
  20.507977,    0.000000
  20.583993,    0.000000
  20.659965,    0.000000
  20.735896,    0.000000
  20.812025,    0.000000
  20.888320,    0.000000
  20.964691,    0.000000
  21.041340,    0.000000
  21.117940,    0.000000
  21.194735,    0.000000
  21.271541,    0.000000
  21.348616,    0.000000
  21.425649,    0.000000
  21.502749,    0.000000
  21.580068,    0.000000
  21.657456,    0.000000
  21.735070,    0.000000
  21.812696,    0.000000
  21.890537,    0.000000
  21.968433,    0.000000
  22.046599,    0.000000
  22.124867,    0.000000
  22.203136,    0.000000
  22.281493,    0.000000
  22.359987,    0.000000
  22.438539,    0.000000
  22.487865,    0.000000
  22.517234,    0.000000
  22.595951,    0.000000
  22.674895,    0.000000
  22.754075,    0.000000
  22.833459,    0.000000
  22.913037,    0.000000
  22.992750,    0.000000
  23.072486,    0.000000
  23.152534,    0.000000
  23.232684,    0.000000
  23.312892,    0.000000
  23.393223,    0.000000
  23.473803,    0.000000
  23.554258,    0.000000
  23.634908,    0.000000
  23.715632,    0.000000
  23.796399,    0.000000
  23.877468,    0.000000
  23.958395,    0.000000
  24.039463,    0.000000
  24.120523,    0.000000
  24.201461,    0.000000
  24.282525,    0.000000
  24.363519,    0.000000
  24.444490,    0.000000
  24.525777,    0.000000
  24.606852,    0.000000
  24.687977,    0.000000
  24.693483,    0.000025
  24.698992,    0.000100
  24.704505,    0.000226
  24.710019,    0.000404
  24.715519,    0.000636
  24.721035,    0.000923
  24.726559,    0.001266
  24.732066,    0.001665
  24.737582,    0.002122
  24.743119,    0.002641
  24.748654,    0.003221
  24.754178,    0.003861
  24.759718,    0.004566
  24.765268,    0.005336
  24.770812,    0.006171
  24.776354,    0.007073
  24.781916,    0.008046
  24.787466,    0.009086
  24.793031,    0.010199
  24.798603,    0.011386
  24.804180,    0.012646
  24.809740,    0.013977
  24.815324,    0.015389
  24.820914,    0.016880
  24.826499,    0.018447
  24.832094,    0.020097
  24.837677,    0.021823
  24.843264,    0.023633
  24.848860,    0.025528
  24.854469,    0.027512
  24.860088,    0.029586
  24.865698,    0.031743
  24.871324,    0.033995
  24.876932,    0.036329
  24.882560,    0.038763
  24.888199,    0.041294
  24.893834,    0.043917
  24.899483,    0.046641
  24.905122,    0.049457
  24.910757,    0.052369
  24.916418,    0.055392
  24.922067,    0.058510
  24.927731,    0.061738
  24.933414,    0.065081
  24.939097,    0.068529
  24.944780,    0.072082
  24.950469,    0.075747
  24.956163,    0.079525
  24.961813,    0.083382
  24.967506,    0.087380
  24.973195,    0.091488
  24.978902,    0.095723
  24.984626,    0.100086
  24.990332,    0.104554
  24.996068,    0.109164
  25.001786,    0.113880
  25.007527,    0.118737
  25.013250,    0.123701
  25.019000,    0.128813
  25.024749,    0.134051
  25.030496,    0.139415
  25.036262,    0.144926
  25.042025,    0.150565
  25.047800,    0.156348
  25.053585,    0.162274
  25.059386,    0.168353
  25.065190,    0.174574
  25.071009,    0.180951
  25.076818,    0.187456
  25.082639,    0.194118
  25.083805,    0.195470
  25.084465,    0.196237
  25.084814,    0.196643
  25.084867,    0.196706
  25.084930,    0.196779
  25.084952,    0.196804
  25.084964,    0.196819
  25.084990,    0.196849
  25.085013,    0.196876
  25.085205,    0.197100
  25.085924,    0.197940
  25.087760,    0.200098
  25.092163,    0.205329
  25.097950,    0.212330
  25.103763,    0.219511
  25.109578,    0.226842
  25.115422,    0.234360
  25.121278,    0.242047
  25.127106,    0.249848
  25.132968,    0.257850
  25.138836,    0.266017
  25.144726,    0.274369
  25.150602,    0.282859
  25.156487,    0.291519
  25.162346,    0.300298
  25.168259,    0.309316
  25.174180,    0.318507
  25.180074,    0.327816
  25.185973,    0.337294
  25.191873,    0.346935
  25.197804,    0.356789
  25.203736,    0.366807
  25.209671,    0.376995
  25.215631,    0.387392
  25.221568,    0.397913
  25.227520,    0.408627
  25.233488,    0.419537
  25.239466,    0.430635
  25.245428,    0.441872
  25.251384,    0.453264
  25.257367,    0.464879
  25.263355,    0.476675
  25.269367,    0.488691
  25.275354,    0.500827
  25.281360,    0.513176
  25.287372,    0.525712
  25.293390,    0.538436
  25.299422,    0.551365
  25.305462,    0.564488
  25.311504,    0.577793
  25.317546,    0.591276
  25.323601,    0.604966
  25.329679,    0.618890
  25.335764,    0.633013
  25.341841,    0.647298
  25.347923,    0.661779
  25.354015,    0.676467
  25.360078,    0.691268
  25.366174,    0.706334
  25.372295,    0.721650
  25.378425,    0.737175
  25.384567,    0.752918
  25.390712,    0.768861
  25.396841,    0.784952
  25.403002,    0.801318
  25.409145,    0.817828
  25.415304,    0.834573
  25.421485,    0.851572
  25.427655,    0.868735
  25.433822,    0.886085
  25.440002,    0.903665
  25.446230,    0.921583
  25.452453,    0.939684
  25.458682,    0.958006
  25.464936,    0.976602
  25.471175,    0.995356
  25.477452,    1.014429
  25.483702,    1.033623
  25.489986,    1.053125
  25.496287,    1.072892
  25.502586,    1.092859
  25.508871,    1.112992
  25.515179,    1.133406
  25.521503,    1.154084
  25.527808,    1.174914
  25.534104,    1.195922
  25.540419,    1.217207
  25.546804,    1.238940
  25.553142,    1.260735
  25.559448,    1.282631
  25.565799,    1.304898
  25.572190,    1.327528
  25.578572,    1.350345
  25.584961,    1.373408
  25.591364,    1.396746
  25.597788,    1.420381
  25.604236,    1.444332
  25.610676,    1.468481
  25.617142,    1.492959
  25.621278,    1.508734
  25.623585,    1.517573
  25.630085,    1.542639
  25.636518,    1.567676
  25.643017,    1.593204
  25.649524,    1.618993
  25.656046,    1.645084
  25.662508,    1.671163
  25.669023,    1.697694
  25.675562,    1.724561
  25.682129,    1.751786
  25.688699,    1.779266
  25.695261,    1.806953
  25.701845,    1.834977
  25.708451,    1.863344
  25.715064,    1.891986
  25.721663,    1.920818
  25.728297,    1.950050
  25.734924,    1.979502
  25.741565,    2.009272
  25.748254,    2.039510
  25.754902,    2.069815
  25.761593,    2.100574
  25.768262,    2.131493
  25.774964,    2.162823
  25.781680,    2.194475
  25.788406,    2.226439
  25.795167,    2.258838
  25.801906,    2.291393
  25.808682,    2.324397
  25.815446,    2.357612
  25.822198,    2.391031
  25.828988,    2.424914
  25.835809,    2.459221
  25.842640,    2.493855
  25.849468,    2.528752
  25.856292,    2.563906
  25.863143,    2.599474
  25.870040,    2.635565
  25.876927,    2.671890
  25.883777,    2.708297
  25.890680,    2.745273
  25.897602,    2.782639
  25.904501,    2.820166
  25.911424,    2.858115
  25.918403,    2.896664
  25.925368,    2.935432
  25.932345,    2.974559
  25.939362,    3.014208
  25.946381,    3.054169
  25.953394,    3.094400
  25.960445,    3.135151
  25.967486,    3.176151
  25.974564,    3.217672
  25.981620,    3.259375
  25.988643,    3.301183
  25.995738,    3.343731
  26.002800,    3.386392
  26.009928,    3.429769
  26.017063,    3.473501
  26.024187,    3.517488
  26.031371,    3.562161
  26.038509,    3.606874
  26.045665,    3.652017
  26.052852,    3.697683
  26.060089,    3.743996
  26.067307,    3.790512
  26.074539,    3.837452
  26.081780,    3.884787
  26.089045,    3.932611
  26.096325,    3.980868
  26.103610,    4.029500
  26.110919,    4.078637
  26.118198,    4.127905
  26.125513,    4.177763
  26.132853,    4.228140
  26.140183,    4.278790
  26.147526,    4.329883
  26.154958,    4.381952
  26.162320,    4.433878
  26.169693,    4.486237
  26.177067,    4.538957
  26.184455,    4.592136
  26.191912,    4.646167
  26.199359,    4.700498
  26.206838,    4.755419
  26.214273,    4.810389
  26.221723,    4.865836
  26.229203,    4.921872
  26.236766,    4.978906
  26.244284,    5.035972
  26.251863,    5.093885
  26.259447,    5.152219
  26.267039,    5.210998
  26.274627,    5.270137
  26.282220,    5.329695
  26.289838,    5.389838
  26.297489,    5.450631
  26.305117,    5.511642
  26.312782,    5.573331
  26.320423,    5.635233
  26.328135,    5.698107
  26.335871,    5.761585
  26.343634,    5.825687
  26.351350,    5.889813
  26.359085,    5.954507
  26.366878,    6.020091
  26.374670,    6.086086
  26.382459,    6.152474
  26.390236,    6.219178
  26.398092,    6.286972
  26.405958,    6.355284
  26.413828,    6.424066
  26.421674,    6.493054
  26.429588,    6.563084
  26.437511,    6.633622
  26.445428,    6.704544
  26.453371,    6.776137
  26.461335,    6.848368
  26.469299,    6.921037
  26.477277,    6.994278
  26.485288,    7.068274
  26.493301,    7.142742
  26.501327,    7.217785
  26.509353,    7.293287
  26.517379,    7.369238
  26.525486,    7.446418
  26.533562,    7.523770
  26.541677,    7.601968
  26.549769,    7.680406
  26.557894,    7.759637
  26.566011,    7.839251
  26.574238,    7.920441
  26.582395,    8.001409
  26.590616,    8.083501
  26.598810,    8.165805
  26.607038,    8.248946
  26.615249,    8.332391
  26.623483,    8.416566
  26.631735,    8.501425
  26.640044,    8.587366
  26.648376,    8.674043
  26.656676,    8.760892
  26.664931,    8.847780
  26.673213,    8.935444
  26.681576,    9.024468
  26.689956,    9.114207
  26.698340,    9.204488
  26.706767,    9.295762
  26.715186,    9.387467
  26.723541,    9.478999
  26.732004,    9.572245
  26.740435,    9.665655
  26.748917,    9.760168
  26.757331,    9.854456
  26.765857,    9.950538
  26.774432,   10.047717
  26.782995,   10.145308
  26.791579,   10.243684
  26.800138,   10.342333
  26.808763,   10.442292
  26.817372,   10.542632
  26.825929,   10.642914
  26.834567,   10.744704
  26.843298,   10.848170
  26.851962,   10.951404
  26.860663,   11.055658
  26.869301,   11.159726
  26.877981,   11.264875
  26.886755,   11.371742
  26.895485,   11.478661
  26.904210,   11.586093
  26.912942,   11.694207
  26.921728,   11.803577
  26.930565,   11.914165
  26.939393,   12.025260
  26.948266,   12.137519
  26.957097,   12.249851
  26.965978,   12.363426
  26.974756,   12.476287
  26.983681,   12.591640
  26.992541,   12.706781
  27.001408,   12.822611
  27.010335,   12.939847
  27.019363,   13.059045
  27.028318,   13.177906
  27.037239,   13.296945
  27.046219,   13.417397
  27.055169,   13.538076
  27.064211,   13.660634
  27.073172,   13.782734
  27.082229,   13.906786
  27.091244,   14.030910
  27.100304,   14.156283
  27.109287,   14.281244
  27.118389,   14.408516
  27.127479,   14.536274
  27.136595,   14.665059
  27.145836,   14.796280
  27.154972,   14.926689
  27.164103,   15.057687
  27.173277,   15.189980
  27.182471,   15.323224
  27.191665,   15.457164
  27.200816,   15.591133
  27.210024,   15.726630
  27.219299,   15.863796
  27.228452,   15.999852
  27.237752,   16.138768
  27.247106,   16.279213
  27.256487,   16.420770
  27.265789,   16.561832
  27.275168,   16.704781
  27.284636,   16.849808
  27.293906,   16.992509
  27.303274,   17.137432
  27.312679,   17.283648
  27.322088,   17.430650
  27.331517,   17.578693
  27.340968,   17.727824
  27.350375,   17.876963
  27.359822,   18.027490
  27.369203,   18.177687
  27.378698,   18.330452
  27.388162,   18.483441
  27.397640,   18.637420
  27.407161,   18.792829
  27.416655,   18.948551
  27.426149,   19.105025
  27.435694,   19.263093
  27.445268,   19.422401
  27.454822,   19.582131
  27.464433,   19.743592
  27.474014,   19.905316
  27.483610,   20.068057
  27.493268,   20.232626
  27.502855,   20.396762
  27.512479,   20.562307
  27.522101,   20.728582
  27.531734,   20.895838
  27.541462,   21.065531
  27.551069,   21.233903
  27.560800,   21.405243
  27.570402,   21.575096
  27.580193,   21.749084
  27.589945,   21.923203
  27.599636,   22.097005
  27.609453,   22.273911
  27.619204,   22.450422
  27.629091,   22.630218
  27.638931,   22.809985
  27.648810,   22.991299
  27.658659,   23.172884
  27.668491,   23.354996
  27.678320,   23.537876
  27.688197,   23.722473
  27.698043,   23.907327
  27.707917,   24.093532
  27.717868,   24.282056
  27.727788,   24.470823
  27.737711,   24.660500
  27.747616,   24.850684
  27.757515,   25.041597
  27.767489,   25.234812
  27.777520,   25.430000
  27.787428,   25.623641
  27.797267,   25.816780
  27.807185,   26.012310
  27.817271,   26.212034
  27.827185,   26.409212
  27.837344,   26.612148
  27.847384,   26.813591
  27.857303,   27.013472
  27.867279,   27.215357
  27.877254,   27.418106
  27.887297,   27.623101
  27.897328,   27.828737
  27.907369,   28.035459
  27.917385,   28.242536
  27.927397,   28.450422
  27.937487,   28.660829
  27.947640,   28.873422
  27.957747,   29.085973
  27.967783,   29.297920
  27.977876,   29.511965
  27.988061,   29.728864
  27.998284,   29.947476
  28.008478,   30.166412
  28.018599,   30.384679
  28.028796,   30.605511
  28.038984,   30.827050
  28.049196,   31.050047
  28.059378,   31.273316
  28.069663,   31.499754
  28.079858,   31.725156
  28.090142,   31.953445
  28.100464,   32.183537
  28.110714,   32.412967
  28.121000,   32.644141
  28.131323,   32.877080
  28.141650,   33.111064
  28.151932,   33.344975
  28.162178,   33.579028
  28.172631,   33.818743
  28.183085,   34.059489
  28.193412,   34.298262
  28.203864,   34.540883
  28.214260,   34.783201
  28.223527,   35.000000
