Time, Speed
   0.000100,    0.000545
   0.000597,    0.003257
   0.002392,    0.013045
   0.006974,    0.038034
   0.016377,    0.089318
   0.034078,    0.185838
   0.063604,    0.346800
   0.096023,    0.523484
   0.128452,    0.700168
   0.161053,    0.877731
   0.193653,    1.055238
   0.226468,    1.233857
   0.259202,    1.411983
   0.292503,    1.593138
   0.325629,    1.773282
   0.358802,    1.953624
   0.392241,    2.135356
   0.425732,    2.317310
   0.459758,    2.502114
   0.493740,    2.686617
   0.528330,    2.874364
   0.562764,    3.061196
   0.597767,    3.251059
   0.632774,    3.440879
   0.667956,    3.631581
   0.703758,    3.825581
   0.739898,    4.021344
   0.776337,    4.218656
   0.812986,    4.417036
   0.849915,    4.616866
   0.886491,    4.814714
   0.924440,    5.019915
   0.962032,    5.223112
   0.999614,    5.426182
   1.038244,    5.634835
   1.076645,    5.842177
   1.115591,    6.052383
   1.154782,    6.263835
   1.194042,    6.475576
   1.233750,    6.689652
   1.273723,    6.905076
   1.315168,    7.128345
   1.356920,    7.353177
   1.398228,    7.575529
   1.439980,    7.800182
   1.481903,    8.025662
   1.525108,    8.257940
   1.568276,    8.489927
   1.611860,    8.724048
   1.655209,    8.956808
   1.699566,    9.194884
   1.743785,    9.432111
   1.788902,    9.674055
   1.833559,    9.913426
   1.879015,   10.156979
   1.924644,   10.401343
   1.970775,   10.648292
   2.017824,   10.900034
   2.064621,   11.150317
   2.112018,   11.403692
   2.160241,   11.661366
   2.208480,   11.919002
   2.256813,   12.177016
   2.306638,   12.442869
   2.355748,   12.704781
   2.405071,   12.967700
   2.455014,   13.233797
   2.505146,   13.500766
   2.555962,   13.771249
   2.607133,   14.043485
   2.658752,   14.317964
   2.710109,   14.590910
   2.762266,   14.867971
   2.814727,   15.146501
   2.868121,   15.429837
   2.921458,   15.712726
   2.974693,   15.994918
   3.028536,   16.280190
   3.082243,   16.564585
   3.136836,   16.853520
   3.191380,   17.142042
   3.246506,   17.433479
   3.302702,   17.730410
   3.359124,   18.028375
   3.415440,   18.325611
   3.471838,   18.623107
   3.528943,   18.924169
   3.585889,   19.224223
   3.643185,   19.525948
   3.701148,   19.831015
   3.759460,   20.137734
   3.817885,   20.444871
   3.876241,   20.751472
   3.935576,   21.063025
   3.995724,   21.378667
   4.055255,   21.690876
   4.115501,   22.006651
   4.175729,   22.322142
   4.236852,   22.642124
   4.249161,   22.706537
   4.255122,   22.737731
   4.258582,   22.755836
   4.261158,   22.769311
   4.263377,   22.780920
   4.265215,   22.790538
   4.266629,   22.797937
   4.267721,   22.803649
   4.268699,   22.808767
   4.268753,   22.809047
   4.268835,   22.809475
   4.268850,   22.809555
   4.268858,   22.809596
   4.268862,   22.809621
   4.268867,   22.809647
   4.268917,   22.809909
   4.269391,   22.812389
   4.271699,   22.824461
   4.281614,   22.876331
   4.308113,   23.014921
   4.362934,   23.301481
   4.417353,   23.585743
   4.472610,   23.874180
   4.528144,   24.163849
   4.583630,   24.453065
   4.639876,   24.746026
   4.695728,   25.036723
   4.752144,   25.330143
   4.808457,   25.622813
   4.865440,   25.918744
   4.923039,   26.217651
   4.980557,   26.515918
   5.038308,   26.815165
   5.096308,   27.115478
   5.154278,   27.415409
   5.212626,   27.717064
   5.270886,   28.018039
   5.329702,   28.321652
   5.388881,   28.626900
   5.448366,   28.933490
   5.507676,   29.238944
   5.567463,   29.546608
   5.627660,   29.856144
   5.688024,   30.166291
   5.748526,   30.476902
   5.809440,   30.789376
   5.870466,   31.102179
   5.931680,   31.415692
   5.993469,   31.731889
   6.055182,   32.047444
   6.117082,   32.363700
   6.179101,   32.680304
   6.241612,   32.999158
   6.304196,   33.318120
   6.367605,   33.641016
   6.430783,   33.962468
   6.494015,   34.283931
   6.557606,   34.606942
   6.621439,   34.930911
   6.685501,   35.255769
   6.749745,   35.581269
   6.814197,   35.907549
   6.878524,   36.232915
   6.943786,   36.562729
   7.008955,   36.891785
   7.074565,   37.222783
   7.139962,   37.552414
   7.205823,   37.884102
   7.271955,   38.216854
   7.338511,   38.551450
   7.405580,   38.888320
   7.472471,   39.224002
   7.539507,   39.560105
   7.606710,   39.896746
   7.674112,   40.234077
   7.742236,   40.574718
   7.810576,   40.916124
   7.878760,   41.256441
   7.947050,   41.596976
   8.015902,   41.939996
   8.084694,   42.282401
   8.153590,   42.625009
   8.222851,   42.969108
   8.292531,   43.314973
   8.362432,   43.661604
   8.432688,   44.009667
   8.502842,   44.356898
   8.573314,   44.705369
   8.643966,   45.054402
   8.714840,   45.404197
   8.729016,   45.474120
   8.739147,   45.524087
   8.745994,   45.557851
   8.751709,   45.586029
   8.756329,   45.608807
   8.757006,   45.612147
   8.757675,   45.615447
   8.758403,   45.619035
   8.758425,   45.619143
   8.758437,   45.619204
   8.758446,   45.619248
   8.758455,   45.619288
   8.758536,   45.619689
   8.759348,   45.623695
   8.763824,   45.645759
   8.781215,   45.731481
   8.841057,   46.026245
   8.904071,   46.336309
   8.967163,   46.646418
   9.030928,   46.959498
   9.094586,   47.271714
   9.158103,   47.582893
   9.222161,   47.896383
   9.286171,   48.209291
   9.350420,   48.523024
   9.415017,   48.838105
   9.479469,   49.152127
   9.544394,   49.468106
   9.609457,   49.784403
   9.674551,   50.100492
   9.740241,   50.419120
   9.805762,   50.736571
   9.871547,   51.054935
   9.937692,   51.374678
  10.003918,   51.694447
  10.070337,   52.014784
  10.136694,   52.334453
  10.203499,   52.655908
  10.270098,   52.976008
  10.337036,   53.297358
  10.404331,   53.620051
  10.471558,   53.942043
  10.538669,   54.263107
  10.606195,   54.585774
  10.673693,   54.907935
  10.741617,   55.231749
  10.809652,   55.555708
  10.877810,   55.879867
  10.946437,   56.205870
  11.015054,   56.531440
  11.084118,   56.858733
  11.153004,   57.184795
  11.222129,   57.511596
  11.291215,   57.837818
  11.360446,   58.164328
  11.430326,   58.493505
  11.500312,   58.822777
  11.570201,   59.151191
  11.640344,   59.480396
  11.710587,   59.809669
  11.780809,   60.138436
  11.851302,   60.468069
  11.922132,   60.798866
  11.992775,   61.128387
  12.063836,   61.459439
  12.134990,   61.790517
  12.206206,   62.121469
  12.277864,   62.454058
  12.349638,   62.786769
  12.421416,   63.119078
  12.493390,   63.451873
  12.565563,   63.785165
  12.637819,   64.118422
  12.710241,   64.452014
  12.782939,   64.786454
  12.855818,   65.121296
  12.928682,   65.455642
  13.001733,   65.790417
  13.074772,   66.124700
  13.148205,   66.460358
  13.221590,   66.795362
  13.295700,   67.133234
  13.369620,   67.469801
  13.443608,   67.806234
  13.517698,   68.142696
  13.532585,   68.210246
  13.542569,   68.255542
  13.551344,   68.295343
  13.578981,   68.420662
  13.579531,   68.423155
  13.580220,   68.426278
  13.580385,   68.427027
  13.580671,   68.428320
  13.580757,   68.428713
  13.580774,   68.428787
  13.580781,   68.428819
  13.580789,   68.428859
  13.580876,   68.429250
  13.581647,   68.432748
  13.586421,   68.454385
  13.613916,   68.578971
  13.680197,   68.878980
  13.744943,   69.171606
  13.809859,   69.464568
  13.875169,   69.758865
  13.940590,   70.053226
  14.005909,   70.346693
  14.071491,   70.640896
  14.136989,   70.934287
  14.202827,   71.228755
  14.268711,   71.522989
  14.334806,   71.817719
  14.401015,   72.112509
  14.467307,   72.407223
  14.533700,   72.701939
  14.600144,   72.996431
  14.666843,   73.291605
  14.733780,   73.587375
  14.800773,   73.882940
  14.867648,   74.177534
  14.934620,   74.472104
  15.001870,   74.767440
  15.069226,   75.062785
  15.136938,   75.359228
  15.204594,   75.654968
  15.272417,   75.950978
  15.340409,   76.247264
  15.408556,   76.543757
  15.476504,   76.838928
  15.544824,   77.135246
  15.613351,   77.431995
  15.681825,   77.728048
  15.750328,   78.023758
  15.819152,   78.320386
  15.888010,   78.616688
  15.956870,   78.912533
  16.026057,   79.209306
  16.095130,   79.505119
  16.164526,   79.801844
  16.234203,   80.099289
  16.303739,   80.395656
  16.373492,   80.692474
  16.443361,   80.989302
  16.513458,   81.286619
  16.583381,   81.582720
  16.653454,   81.878975
  16.723765,   82.175756
  16.794119,   82.472233
  16.864607,   82.768790
  16.935351,   83.065941
  17.006122,   83.362719
  17.077114,   83.659934
  17.148116,   83.956703
  17.219572,   84.254877
  17.290926,   84.552132
  17.362372,   84.849279
  17.433996,   85.146667
  17.505589,   85.443439
  17.577313,   85.740258
  17.649196,   86.037239
  17.721313,   86.334690
  17.793465,   86.631784
  17.865501,   86.927906
  17.938070,   87.225719
  18.010562,   87.522712
  18.083112,   87.819442
  18.155847,   88.116428
  18.228872,   88.414093
  18.301769,   88.710729
  18.374780,   89.007323
  18.447924,   89.303954
  18.521205,   89.600635
  18.594655,   89.897492
  18.668244,   90.194397
  18.742025,   90.491568
  18.815746,   90.787990
  18.889717,   91.084900
  18.904510,   91.144217
  18.916914,   91.193937
  18.926588,   91.232706
  18.926970,   91.234237
  18.927718,   91.237231
  18.927945,   91.238142
  18.928007,   91.238391
  18.928060,   91.238602
  18.928107,   91.238793
  18.928583,   91.240699
  18.932224,   91.255288
  18.952685,   91.337244
  19.016695,   91.593379
  19.090689,   91.888980
  19.164534,   92.183474
  19.238717,   92.478799
  19.312711,   92.772857
  19.387062,   93.067814
  19.461287,   93.361755
  19.535766,   93.656185
  19.610345,   93.950486
  19.685058,   94.244799
  19.760074,   94.539784
  19.835267,   94.834935
  19.910426,   95.129429
  19.985505,   95.423086
  20.061009,   95.717880
  20.136376,   96.011610
  20.212143,   96.306373
  20.287917,   96.600634
  20.363775,   96.894691
  20.439810,   97.188901
  20.515965,   97.483044
  20.592064,   97.776441
  20.668352,   98.070034
  20.744733,   98.363449
  20.821231,   98.656779
  20.897923,   98.950322
  20.974721,   99.243734
  21.051632,   99.537037
  21.128601,   99.830027
  21.205575,  100.122496
  21.282808,  100.415412
  21.360104,  100.708029
  21.437649,  101.001046
  21.515250,  101.293735
  21.592848,  101.585867
  21.670580,  101.877966
  21.748642,  102.170755
  21.826568,  102.462494
  21.904790,  102.754796
  21.983048,  103.046682
  22.061493,  103.338723
  22.081734,  103.413987
  22.140016,  103.630505
  22.218560,  103.921917
  22.297360,  104.213869
  22.376454,  104.506500
  22.455767,  104.799520
  22.535080,  105.092092
  22.614552,  105.384755
  22.694254,  105.677768
  22.774279,  105.971470
  22.854183,  106.264225
  22.934432,  106.557662
  23.014658,  106.850436
  23.095132,  107.143534
  23.175666,  107.436270
  23.256355,  107.728950
  23.337140,  108.021324
  23.417991,  108.313280
  23.498695,  108.604050
  23.579589,  108.894846
  23.660336,  109.184412
  23.741318,  109.474086
  23.822305,  109.763053
  23.903334,  110.051437
  23.984409,  110.339257
  24.065579,  110.626629
  24.146649,  110.912846
  24.227669,  111.198088
  24.308708,  111.482599
  24.314170,  111.501511
  24.319636,  111.520422
  24.325077,  111.539234
  24.330531,  111.558077
  24.336004,  111.576973
  24.341467,  111.595823
  24.346945,  111.614707
  24.352432,  111.633613
  24.357918,  111.652499
  24.363409,  111.671385
  24.368903,  111.690269
  24.374397,  111.709141
  24.379897,  111.728015
  24.385397,  111.746876
  24.390880,  111.765665
  24.396397,  111.784552
  24.401893,  111.803355
  24.407414,  111.822225
  24.412902,  111.840968
  24.418429,  111.859831
  24.423947,  111.878645
  24.429447,  111.897385
  24.434961,  111.916153
  24.440472,  111.934896
  24.445985,  111.953629
  24.451529,  111.972453
  24.457074,  111.991264
  24.462638,  112.010120
  24.468203,  112.028963
  24.473764,  112.047775
  24.479335,  112.066606
  24.484915,  112.085451
  24.490501,  112.104296
  24.496084,  112.123112
  24.501680,  112.141957
  24.507269,  112.160760
  24.512874,  112.179600
  24.518474,  112.198401
  24.524071,  112.217179
  24.529660,  112.235909
  24.535284,  112.254738
  24.540898,  112.273513
  24.546521,  112.292303
  24.552159,  112.311122
  24.557797,  112.329920
  24.563417,  112.348641
  24.569043,  112.367362
  24.574642,  112.385973
  24.580293,  112.404739
  24.585964,  112.423553
  24.591625,  112.442310
  24.597306,  112.461114
  24.602996,  112.479928
  24.608672,  112.498678
  24.614347,  112.517400
  24.620034,  112.536143
  24.625729,  112.554891
  24.631436,  112.573657
  24.637158,  112.592448
  24.642853,  112.611133
  24.648556,  112.629821
  24.654280,  112.648558
  24.659988,  112.667219
  24.665722,  112.685945
  24.671488,  112.704749
  24.677247,  112.723513
  24.682972,  112.742142
  24.688746,  112.760906
  24.694504,  112.779596
  24.700261,  112.798260
  24.706038,  112.816965
  24.711829,  112.835692
  24.717638,  112.854451
  24.723459,  112.873228
  24.729255,  112.891902
  24.735074,  112.910621
  24.740919,  112.929403
  24.746752,  112.948122
  24.752587,  112.966826
  24.758450,  112.985599
  24.764285,  113.004265
  24.770135,  113.022957
  24.775999,  113.041675
  24.781870,  113.060392
  24.787724,  113.079038
  24.793609,  113.097759
  24.799498,  113.116475
  24.805413,  113.135253
  24.811295,  113.153903
  24.817189,  113.172574
  24.823107,  113.191297
  24.829049,  113.210078
  24.834981,  113.228803
  24.840913,  113.247508
  24.846861,  113.266244
  24.852808,  113.284956
  24.858766,  113.303680
  24.864723,  113.322377
  24.870658,  113.340987
  24.876624,  113.359672
  24.882620,  113.378429
  24.888589,  113.397081
  24.894582,  113.415783
  24.900599,  113.434540
  24.906592,  113.453201
  24.912595,  113.471872
  24.918609,  113.490553
  24.924634,  113.509246
  24.930653,  113.527900
  24.936696,  113.546604
  24.942756,  113.565340
  24.948821,  113.584067
  24.954908,  113.602838
  24.960965,  113.621498
  24.967042,  113.640195
  24.973104,  113.658820
  24.979193,  113.677507
  24.985294,  113.696209
  24.991423,  113.714971
  24.997527,  113.733637
  25.003621,  113.752246
  25.009751,  113.770943
  25.015886,  113.789632
  25.022027,  113.808314
  25.028183,  113.827019
  25.034335,  113.845687
  25.040519,  113.864427
  25.046685,  113.883091
  25.052859,  113.901754
  25.059059,  113.920471
  25.065268,  113.939191
  25.071457,  113.957828
  25.077689,  113.976568
  25.083911,  113.995255
  25.090136,  114.013924
  25.096361,  114.032568
  25.097606,  114.036295
  25.100395,  114.044638
  25.100630,  114.045341
  25.100818,  114.045904
  25.100975,  114.046373
  25.101081,  114.046690
  25.101174,  114.046967
  25.101262,  114.047229
  25.101339,  114.047461
  25.101367,  114.047544
  25.101383,  114.047594
  25.101393,  114.047624
  25.101403,  114.047651
  25.101471,  114.047857
  25.101742,  114.048666
  25.102595,  114.051217
  25.105896,  114.061080
  25.111327,  114.077294
  25.117615,  114.096043
  25.123885,  114.114711
  25.130177,  114.133421
  25.136478,  114.152134
  25.142770,  114.170792
  25.149059,  114.189417
  25.155351,  114.208026
  25.161650,  114.226630
  25.167969,  114.245267
  25.174287,  114.263873
  25.180660,  114.282617
  25.186993,  114.301218
  25.193338,  114.319827
  25.199703,  114.338470
  25.206093,  114.357156
  25.212478,  114.375804
  25.218909,  114.394560
  25.225308,  114.413192
  25.231708,  114.431803
  25.238135,  114.450465
  25.244586,  114.469172
  25.246752,  114.475445
  25.251053,  114.487892
  25.257515,  114.506575
  25.264003,  114.525302
  25.270466,  114.543933
  25.276947,  114.562586
  25.283458,  114.581296
  25.289950,  114.599925
  25.296474,  114.618618
  25.303023,  114.637352
  25.309591,  114.656113
  25.316133,  114.674771
  25.322684,  114.693427
  25.329248,  114.712090
  25.335831,  114.730779
  25.342422,  114.749462
  25.349054,  114.768229
  25.355683,  114.786960
  25.362285,  114.805584
  25.368933,  114.824311
  25.375565,  114.842961
  25.382201,  114.861590
  25.388860,  114.880256
  25.395549,  114.898977
  25.402237,  114.917663
  25.408971,  114.936449
  25.415721,  114.955246
  25.422446,  114.973944
  25.429185,  114.992649
  25.435926,  115.011328
  25.442727,  115.030142
  25.449537,  115.048951
  25.456342,  115.067712
  25.463141,  115.086426
  25.469975,  115.105203
  25.476841,  115.124037
  25.483701,  115.142820
  25.490585,  115.161638
  25.497442,  115.180348
  25.504310,  115.199057
  25.511208,  115.217813
  25.518132,  115.236608
  25.525076,  115.255421
  25.532016,  115.274192
  25.538993,  115.293028
  25.545945,  115.311763
  25.552910,  115.330500
  25.559877,  115.349208
  25.566859,  115.367920
  25.573871,  115.386680
  25.580897,  115.405442
  25.587909,  115.424131
  25.594954,  115.442875
  25.601976,  115.461522
  25.609023,  115.480198
  25.616150,  115.499054
  25.623265,  115.517840
  25.630357,  115.536531
  25.637480,  115.555266
  25.644650,  115.574087
  25.651805,  115.592835
  25.658975,  115.611584
  25.666137,  115.630276
  25.673267,  115.648847
  25.680450,  115.667520
  25.687686,  115.686293
  25.694927,  115.705040
  25.702176,  115.723774
  25.709418,  115.742448
  25.716689,  115.761160
  25.723950,  115.779808
  25.731170,  115.798312
  25.738517,  115.817103
  25.745775,  115.835629
  25.753146,  115.854404
  25.760519,  115.873143
  25.767857,  115.891756
  25.775228,  115.910413
  25.782590,  115.929004
  25.789989,  115.947653
  25.797394,  115.966275
  25.804879,  115.985057
  25.812339,  116.003736
  25.819848,  116.022496
  25.827356,  116.041210
  25.834828,  116.059796
  25.842310,  116.078366
  25.849857,  116.097053
  25.857401,  116.115693
  25.864957,  116.134318
  25.872471,  116.152798
  25.880035,  116.171359
  25.887614,  116.189913
  25.895238,  116.208536
  25.902830,  116.227036
  25.910497,  116.245678
  25.918124,  116.264176
  25.925794,  116.282735
  25.933416,  116.301136
  25.941087,  116.319610
  25.948792,  116.338121
  25.956495,  116.356583
  25.964259,  116.375146
  25.972011,  116.393635
  25.979773,  116.412102
  25.987567,  116.430600
  25.995250,  116.448789
  26.003097,  116.467322
  26.010925,  116.485761
  26.018790,  116.504242
  26.026647,  116.522658
  26.034476,  116.540959
  26.042369,  116.559365
  26.050314,  116.577843
  26.058236,  116.596220
  26.066131,  116.614487
  26.074075,  116.632817
  26.082002,  116.651061
  26.089911,  116.669217
  26.097862,  116.687419
  26.105869,  116.705702
  26.113869,  116.723917
  26.121869,  116.742084
  26.129952,  116.760390
  26.138002,  116.778572
  26.146091,  116.796789
  26.154234,  116.815079
  26.162379,  116.833322
  26.170435,  116.851314
  26.178519,  116.869316
  26.186720,  116.887530
  26.194871,  116.905580
  26.203039,  116.923614
  26.211261,  116.941717
  26.219408,  116.959601
  26.227611,  116.977557
  26.235845,  116.995527
  26.244111,  117.013516
  26.252375,  117.031444
  26.260638,  117.049318
  26.268911,  117.067159
  26.277227,  117.085039
  26.285524,  117.102823
  26.293813,  117.120534
  26.302215,  117.138435
  26.310605,  117.156253
  26.318968,  117.173958
  26.327366,  117.191681
  26.335839,  117.209506
  26.344306,  117.227262
  26.352779,  117.244973
  26.361239,  117.262602
  26.369730,  117.280236
  26.378195,  117.297759
  26.386672,  117.315250
  26.395261,  117.332914
  26.403810,  117.350438
  26.412390,  117.367965
  26.420902,  117.385294
  26.429492,  117.402727
  26.438112,  117.420156
  26.446673,  117.437412
  26.455382,  117.454902
  26.464041,  117.472233
  26.472703,  117.489508
  26.481402,  117.506797
  26.490061,  117.523945
  26.498704,  117.541002
  26.507407,  117.558116
  26.516065,  117.575081
  26.524804,  117.592143
  26.533557,  117.609170
  26.542327,  117.626167
  26.551099,  117.643107
  26.559832,  117.659909
  26.568657,  117.676824
  26.577476,  117.693665
  26.586319,  117.710487
  26.595148,  117.727219
  26.604030,  117.743988
  26.612930,  117.760725
  26.621823,  117.777386
  26.630712,  117.793974
  26.639651,  117.810588
  26.648572,  117.827106
  26.657530,  117.843625
  26.666442,  117.859994
  26.675447,  117.876469
  26.684506,  117.892972
  26.693553,  117.909389
  26.702543,  117.925635
  26.711644,  117.942012
  26.720663,  117.958174
  26.729699,  117.974300
  26.738758,  117.990398
  26.747881,  118.006542
  26.756994,  118.022600
  26.766115,  118.038602
  26.775271,  118.054597
  26.784381,  118.070441
  26.793559,  118.086333
  26.802714,  118.102118
  26.811950,  118.117968
  26.821109,  118.133619
  26.830355,  118.149346
  26.839573,  118.164954
  26.848872,  118.180628
  26.858090,  118.196093
  26.867321,  118.211509
  26.876614,  118.226956
  26.885856,  118.242247
  26.895116,  118.257496
  26.904429,  118.272759
  26.913686,  118.287857
  26.923090,  118.303122
  26.932344,  118.318071
  26.941588,  118.332931
  26.950941,  118.347893
  26.960279,  118.362758
  26.969678,  118.377645
  26.979086,  118.392471
  26.988508,  118.407246
  26.997908,  118.421910
  27.007340,  118.436548
  27.016859,  118.451245
  27.026381,  118.465870
  27.035917,  118.480439
  27.045413,  118.494870
  27.054946,  118.509280
  27.064437,  118.523551
  27.073998,  118.537849
  27.083460,  118.551922
  27.093051,  118.566108
  27.102593,  118.580144
  27.112261,  118.594287
  27.121874,  118.608269
  27.131411,  118.622063
  27.141079,  118.635967
  27.150652,  118.649655
  27.160293,  118.663361
  27.170021,  118.677110
  27.179657,  118.690649
  27.189382,  118.704232
  27.199036,  118.717637
  27.208696,  118.730967
  27.218479,  118.744387
  27.228177,  118.757609
  27.237856,  118.770723
  27.247478,  118.783681
  27.257241,  118.796746
  27.267015,  118.809744
  27.276861,  118.822755
  27.286592,  118.835530
  27.296416,  118.848346
  27.306170,  118.860987
  27.316031,  118.873683
  27.325876,  118.886274
  27.335694,  118.898748
  27.345452,  118.911061
  27.355314,  118.923422
  27.365200,  118.935729
  27.375142,  118.948019
  27.384948,  118.960058
  27.394830,  118.972106
  27.404714,  118.984070
  27.414621,  118.995977
  27.424577,  119.007856
  27.434524,  119.019638
  27.444520,  119.031393
  27.454538,  119.043085
  27.464522,  119.054649
  27.474532,  119.066158
  27.484548,  119.077585
  27.494495,  119.088847
  27.504517,  119.100105
  27.514510,  119.111244
  27.524424,  119.122208
  27.534412,  119.133167
  27.544431,  119.144073
  27.554473,  119.154915
  27.564535,  119.165689
  27.574666,  119.176449
  27.584751,  119.187069
  27.594778,  119.197540
  27.604844,  119.207963
  27.614911,  119.218297
  27.624930,  119.228494
  27.634900,  119.238553
  27.645169,  119.248823
  27.655251,  119.258815
  27.665469,  119.268850
  27.675574,  119.278684
  27.685715,  119.288463
  27.695838,  119.298133
  27.706032,  119.307780
  27.716226,  119.317335
  27.726450,  119.326827
  27.736659,  119.336212
  27.746806,  119.345448
  27.757027,  119.354661
  27.767221,  119.363756
  27.777496,  119.372832
  27.780883,  119.375803
