Ground Distance, Speed
   0.000000,    0.000279
   0.000000,    0.001600
   0.000006,    0.005852
   0.000045,    0.015908
   0.000257,    0.037897
   0.002960,    0.128559
   0.008586,    0.218909
   0.017173,    0.309569
   0.028768,    0.400628
   0.043370,    0.491855
   0.060988,    0.583202
   0.081735,    0.675083
   0.105445,    0.766694
   0.132220,    0.858445
   0.162156,    0.950573
   0.195392,    1.043340
   0.231720,    1.136080
   0.271676,    1.230005
   0.315028,    1.324369
   0.362235,    1.419982
   0.413254,    1.516521
   0.468359,    1.614287
   0.526601,    1.711528
   0.588799,    1.809582
   0.655101,    1.908535
   0.724817,    2.007296
   0.798876,    2.107111
   0.877095,    2.207604
   0.961189,    2.310741
   1.048118,    2.412688
   1.140246,    2.516194
   1.237373,    2.620856
   1.339257,    2.726292
   1.445750,    2.832267
   1.558804,    2.940556
   1.673977,    3.046881
   1.796007,    3.155590
   1.923189,    3.264998
   2.057411,    3.376577
   2.196482,    3.488383
   2.342007,    3.601619
   2.493665,    3.715913
   2.649984,    3.830107
   2.812360,    3.945182
   2.984529,    4.063592
   3.160672,    4.181218
   3.342404,    4.299157
   3.534500,    4.420352
   3.732648,    4.541928
   3.936662,    4.663741
   4.148037,    4.786628
   4.363791,    4.908839
   4.587212,    5.032211
   4.817952,    5.156475
   5.058599,    5.282906
   5.308198,    5.410862
   5.562257,    5.538014
   5.824131,    5.666034
   6.094604,    5.795231
   6.374588,    5.925946
   6.660851,    6.056616
   6.956373,    6.188558
   7.258766,    6.320656
   7.578887,    6.457490
   7.901604,    6.592494
   8.234360,    6.728797
   8.575180,    6.865533
   8.929484,    7.004781
   9.292447,    7.144549
   9.665136,    7.285203
  10.049271,    7.427318
  10.441683,    7.569669
  10.839012,    7.711056
  11.250479,    7.854717
  11.671446,    7.998952
  12.102417,    8.143893
  12.544910,    8.289997
  12.999908,    8.437515
  13.459102,    8.583746
  13.937159,    8.733303
  14.426167,    8.883600
  14.924042,    9.033972
  15.433605,    9.185243
  15.956969,    9.337977
  16.495264,    9.492418
  17.043778,    9.647162
  17.600637,    9.801675
  18.171260,    9.957431
  18.752438,   10.113515
  19.346262,   10.270455
  19.956950,   10.429298
  20.576840,   10.588005
  21.212421,   10.748204
  21.855769,   10.907870
  22.513389,   11.068603
  23.177890,   11.228587
  23.867633,   11.392174
  24.566626,   11.555495
  25.283572,   11.720545
  25.312484,   11.727151
  25.330782,   11.731329
  25.334059,   11.732077
  25.339287,   11.733270
  25.340479,   11.733542
  25.342254,   11.733947
  25.342712,   11.734052
  25.343561,   11.734246
  25.343669,   11.734270
  25.343718,   11.734282
  25.343776,   11.734295
  25.344353,   11.734427
  25.349816,   11.735673
  25.380886,   11.742762
  25.492802,   11.768257
  25.789555,   11.835579
  26.414959,   11.976150
  27.076776,   12.123029
  27.756363,   12.271917
  28.440966,   12.419995
  29.139411,   12.569161
  29.847543,   12.718503
  30.565182,   12.867975
  31.301779,   13.019500
  32.044632,   13.170437
  32.801295,   13.322310
  33.569724,   13.474681
  34.351960,   13.627925
  35.144699,   13.781375
  35.951852,   13.935763
  36.767891,   14.090016
  37.601641,   14.245773
  38.442832,   14.401095
  39.294344,   14.556517
  40.156447,   14.712081
  41.038534,   14.869445
  41.926600,   15.026091
  42.834552,   15.184450
  43.753060,   15.342864
  44.687164,   15.502183
  45.635639,   15.662169
  46.593534,   15.821975
  47.571969,   15.983429
  48.565877,   16.145654
  49.566639,   16.307237
  50.581795,   16.469394
  51.610978,   16.632045
  52.654149,   16.795168
  53.706850,   16.958057
  54.780486,   17.122454
  55.869159,   17.287422
  56.975179,   17.453284
  58.093604,   17.619279
  59.226846,   17.785755
  60.375993,   17.952850
  61.543226,   18.120855
  62.724047,   18.289102
  63.911771,   18.456644
  65.114394,   18.624608
  66.339892,   18.794078
  67.578053,   18.963615
  68.825523,   19.132760
  70.094365,   19.303136
  71.378079,   19.473843
  72.679916,   19.645295
  73.992841,   19.816554
  75.324257,   19.988575
  76.677096,   20.161707
  78.035465,   20.333910
  79.420345,   20.507830
  80.820309,   20.682002
  82.225014,   20.855145
  83.661095,   21.030524
  85.106137,   21.205374
  86.574388,   21.381407
  88.057797,   21.557636
  89.554485,   21.733832
  91.066068,   21.910182
  92.600011,   22.087536
  94.146380,   22.264733
  95.717426,   22.443157
  97.299164,   22.621208
  98.894631,   22.799228
 100.517782,   22.978753
 102.160953,   23.158903
 103.817368,   23.338926
 104.151099,   23.375008
 104.333238,   23.394674
 104.490874,   23.411679
 104.635301,   23.427247
 104.740825,   23.438615
 104.817691,   23.446891
 104.909420,   23.456764
 104.996776,   23.466161
 105.014647,   23.468083
 105.016516,   23.468284
 105.017437,   23.468383
 105.018148,   23.468460
 105.018589,   23.468507
 105.018898,   23.468540
 105.019015,   23.468553
 105.019135,   23.468566
 105.020331,   23.468694
 105.030881,   23.469829
 105.104022,   23.477692
 105.447220,   23.514550
 106.630624,   23.641129
 108.138127,   23.801244
 109.659894,   23.961616
 111.190826,   24.121705
 112.744437,   24.282910
 114.307929,   24.443891
 115.879477,   24.604465
 117.476012,   24.766349
 119.083980,   24.928150
 120.701838,   25.089715
 122.339550,   25.252030
 123.995222,   25.414890
 125.665045,   25.577909
 127.344697,   25.740665
 129.044471,   25.904145
 130.755296,   26.067469
 132.476463,   26.230570
 134.218825,   26.394468
 135.978619,   26.558792
 137.752620,   26.723232
 139.540260,   26.887731
 141.340816,   27.052219
 143.168992,   27.218022
 144.998790,   27.382777
 146.847275,   27.548023
 148.713468,   27.713661
 150.593557,   27.879344
 152.492233,   28.045478
 154.408499,   28.211964
 156.337004,   28.378332
 158.278817,   28.544673
 160.237975,   28.711327
 162.220940,   28.878827
 164.214177,   29.046024
 166.227994,   29.213775
 168.256896,   29.381613
 170.298454,   29.549336
 172.357612,   29.717343
 174.437848,   29.885909
 176.540141,   30.055096
 178.655100,   30.224141
 180.776695,   30.392567
 182.921664,   30.561700
 185.084096,   30.731060
 187.265504,   30.900758
 189.468225,   31.070964
 191.677068,   31.240502
 193.909962,   31.410746
 196.155571,   31.580823
 198.419388,   31.751145
 200.698947,   31.921521
 203.001013,   32.092448
 205.322970,   32.263719
 207.664249,   32.435284
 210.016633,   32.606538
 212.391371,   32.778293
 214.778019,   32.949791
 217.185353,   33.121657
 219.612015,   33.293786
 222.059262,   33.466258
 224.511580,   33.637980
 226.973660,   33.809289
 229.463063,   33.981400
 231.975233,   34.153984
 234.511080,   34.327090
 237.054332,   34.499605
 239.617951,   34.672409
 242.206591,   34.845804
 244.810820,   35.019150
 247.443826,   35.193315
 247.549225,   35.200264
 247.565859,   35.201360
 247.570674,   35.201678
 247.579146,   35.202236
 247.581628,   35.202400
 247.586396,   35.202714
 247.587308,   35.202774
 247.587921,   35.202815
 247.588131,   35.202828
 247.588341,   35.202842
 247.590436,   35.202980
 247.611385,   35.204361
 247.745424,   35.213195
 248.379412,   35.254935
 250.050773,   35.364658
 252.371362,   35.516245
 254.692879,   35.667024
 257.037820,   35.818456
 259.391231,   35.969569
 261.758504,   36.120710
 264.140715,   36.271942
 266.541644,   36.423501
 268.951291,   36.574751
 271.373286,   36.725922
 273.805152,   36.876859
 276.259270,   37.028325
 278.723710,   37.179578
 281.211476,   37.331412
 283.714770,   37.483341
 286.225181,   37.634855
 288.746337,   37.786176
 291.292748,   37.938168
 293.847716,   38.089829
 296.417936,   38.241556
 299.006737,   38.393539
 301.609312,   38.545493
 304.226675,   38.697473
 306.859256,   38.849502
 309.503425,   39.001367
 312.171631,   39.153780
 314.841893,   39.305481
 317.532265,   39.457498
 320.240910,   39.609720
 322.968392,   39.762173
 325.703437,   39.914225
 328.454399,   40.066340
 331.221243,   40.218513
 334.006156,   40.370859
 336.802574,   40.523018
 339.622293,   40.675626
 342.459022,   40.828335
 345.308647,   40.980922
 348.175689,   41.133626
 351.051602,   41.285991
 353.946206,   41.438535
 356.855834,   41.591063
 359.779538,   41.743521
 362.720121,   41.896053
 365.677484,   42.048651
 368.650287,   42.201242
 371.641586,   42.353979
 374.644031,   42.506485
 377.669657,   42.659367
 380.702543,   42.811819
 383.757195,   42.964568
 386.836038,   43.117727
 389.918722,   43.270283
 393.019360,   43.422936
 396.141608,   43.575859
 399.276500,   43.728610
 402.422159,   43.881099
 405.590527,   44.033901
 408.774913,   44.186688
 411.972110,   44.339306
 415.180818,   44.491692
 418.417615,   44.644630
 421.667435,   44.797401
 424.940302,   44.950472
 428.223424,   45.103244
 431.514051,   45.255590
 434.826411,   45.408168
 438.159698,   45.560936
 441.515576,   45.713963
 444.879203,   45.866571
 448.258811,   46.019135
 451.656875,   46.171762
 455.067920,   46.324206
 458.503121,   46.476963
 461.960634,   46.629942
 465.422887,   46.782368
 468.910866,   46.935162
 468.938816,   46.936383
 468.946956,   46.936739
 468.952581,   46.936985
 468.955151,   46.937097
 468.980853,   46.938220
 469.006985,   46.939362
 469.193105,   46.947492
 470.177987,   46.990481
 473.552022,   47.137295
 477.059136,   47.289156
 480.576797,   47.440721
 484.113189,   47.592342
 487.659656,   47.743646
 491.225976,   47.895050
 494.812850,   48.046578
 498.414422,   48.197982
 502.045553,   48.349880
 505.688316,   48.501518
 509.354951,   48.653403
 513.023109,   48.804609
 516.706441,   48.955702
 520.411931,   49.106967
 524.135355,   49.258225
 527.879066,   49.409570
 531.629022,   49.560434
 535.400773,   49.711442
 539.192713,   49.862526
 543.006526,   50.013749
 546.837184,   50.164907
 550.689545,   50.316190
 554.560195,   50.467461
 558.439703,   50.618349
 562.336278,   50.769176
 566.248495,   50.919884
 570.174307,   51.070395
 574.124107,   51.221103
 578.094147,   51.371862
 582.082554,   51.522598
 586.080268,   51.672968
 590.105875,   51.823668
 594.154756,   51.974521
 598.216493,   52.125134
 602.294738,   52.275645
 606.392045,   52.426144
 610.504307,   52.576479
 614.622577,   52.726326
 618.771987,   52.876597
 622.939773,   53.026823
 627.116907,   53.176680
 631.234941,   53.323731
 631.323195,   53.326875
 635.539018,   53.476709
 639.777253,   53.626706
 644.029358,   53.776563
 648.312490,   53.926880
 652.619627,   54.077406
 656.952822,   54.228177
 661.293399,   54.378530
 665.663739,   54.529240
 670.044135,   54.679623
 674.451272,   54.830239
 678.886806,   54.981109
 683.334392,   55.131676
 687.800630,   55.282162
 692.284652,   55.432537
 696.783577,   55.582674
 701.304805,   55.732810
 705.836300,   55.882545
 710.397081,   56.032504
 714.958354,   56.181739
 719.550661,   56.331212
 724.147841,   56.480070
 728.757051,   56.628547
 733.388698,   56.776979
 738.017788,   56.924561
 742.669547,   57.072068
 747.330231,   57.219063
 752.004188,   57.365687
 756.693464,   57.512004
 757.009206,   57.521694
 757.322174,   57.531291
 757.637903,   57.540963
 757.954568,   57.550655
 758.270679,   57.560321
 758.587030,   57.569985
 758.904235,   57.579666
 759.221363,   57.589336
 759.537701,   57.598972
 759.855821,   57.608653
 760.173706,   57.618317
 760.491426,   57.627967
 760.809604,   57.637622
 761.128094,   57.647276
 761.445140,   57.656877
 761.763885,   57.666519
 762.082543,   57.676149
 762.402943,   57.685822
 762.723390,   57.695486
 763.043995,   57.705145
 763.364006,   57.714777
 763.685643,   57.724446
 764.006799,   57.734091
 764.327561,   57.743714
 764.649614,   57.753366
 764.971023,   57.762987
 765.293725,   57.772637
 765.616490,   57.782278
 765.939289,   57.791910
 766.262062,   57.801530
 766.583830,   57.811109
 766.907665,   57.820739
 767.231713,   57.830365
 767.557157,   57.840021
 767.880371,   57.849599
 768.206017,   57.859239
 768.531057,   57.868850
 768.857248,   57.878483
 769.183476,   57.888106
 769.510231,   57.897733
 769.837325,   57.907358
 770.163774,   57.916953
 770.490600,   57.926547
 770.816770,   57.936111
 771.145179,   57.945728
 771.473716,   57.955337
 771.803562,   57.964972
 772.133265,   57.974591
 772.464314,   57.984238
 772.794439,   57.993845
 773.122993,   58.003394
 773.453806,   58.012996
 773.782143,   58.022514
 774.112743,   58.032085
 774.444121,   58.041667
 774.775752,   58.051243
 775.108605,   58.060841
 775.442690,   58.070462
 775.775839,   58.080043
 776.109176,   58.089617
 776.443163,   58.099196
 776.778130,   58.108790
 777.114304,   58.118405
 777.449608,   58.127982
 777.786357,   58.137587
 778.122951,   58.147174
 778.460286,   58.156768
 778.796819,   58.166325
 779.133119,   58.175863
 779.472528,   58.185474
 779.811757,   58.195067
 780.150463,   58.204630
 780.489389,   58.214188
 780.829083,   58.223756
 781.169817,   58.233342
 781.511499,   58.242942
 781.853400,   58.252537
 782.195474,   58.262124
 782.538109,   58.271716
 782.881081,   58.281304
 783.223850,   58.290875
 783.567792,   58.300467
 783.911829,   58.310049
 784.256625,   58.319641
 784.600286,   58.329188
 784.944848,   58.338748
 785.290133,   58.348317
 785.636313,   58.357897
 785.981907,   58.367449
 786.328687,   58.377022
 786.676181,   58.386602
 787.024405,   58.396189
 787.372476,   58.405760
 787.721173,   58.415336
 788.070492,   58.424916
 788.420338,   58.434497
 788.771233,   58.444095
 789.120401,   58.453633
 789.470399,   58.463181
 789.821200,   58.472738
 790.171722,   58.482275
 790.524300,   58.491854
 790.877472,   58.501437
 791.229152,   58.510967
 791.581533,   58.520502
 791.935540,   58.530069
 792.290312,   58.539643
 792.645374,   58.549212
 793.001428,   58.558794
 793.355397,   58.568307
 793.711067,   58.577852
 794.068967,   58.587444
 794.427382,   58.597037
 794.785626,   58.606611
 795.143409,   58.616160
 795.503262,   58.625750
 795.862562,   58.635312
 796.222588,   58.644879
 796.580976,   58.654390
 796.940514,   58.663917
 797.012568,   58.665825
 797.178711,   58.670222
 797.192059,   58.670575
 797.200623,   58.670801
 797.207592,   58.670986
 797.212738,   58.671122
 797.214843,   58.671178
 797.215744,   58.671201
 797.216615,   58.671224
 797.217405,   58.671245
 797.222890,   58.671390
 797.249593,   58.672097
 797.327996,   58.674170
 797.669406,   58.683191
 798.032137,   58.692761
 798.394953,   58.702320
 798.756965,   58.711844
 799.120075,   58.721383
 799.484612,   58.730946
 799.848580,   58.740479
 800.214075,   58.750039
 800.579717,   58.759589
 800.946411,   58.769151
 801.315418,   58.778760
 801.682796,   58.788312
 802.047110,   58.797770
 802.414410,   58.807292
 802.785235,   58.816891
 803.155591,   58.826462
 803.525533,   58.836009
 803.896071,   58.845556
 804.267811,   58.855120
 804.639199,   58.864660
 805.011865,   58.874218
 805.385736,   58.883793
 805.760270,   58.893369
 806.134863,   58.902932
 806.511527,   58.912532
 806.888391,   58.922123
 807.263915,   58.931664
 807.640679,   58.941222
 808.016937,   58.950752
 808.393891,   58.960284
 808.771497,   58.969818
 809.152294,   58.979416
 809.451666,   58.986951
 809.533813,   58.989017
 809.912969,   58.998544
 810.295484,   59.008139
 810.675327,   59.017651
 811.058309,   59.027226
 811.441505,   59.036791
 811.824370,   59.046332
 812.209345,   59.055910
 812.594481,   59.065475
 812.981235,   59.075065
 813.367616,   59.084629
 813.754085,   59.094179
 814.141808,   59.103744
 814.531942,   59.113353
 814.920638,   59.122909
 815.311401,   59.132500
 815.702085,   59.142072
 816.093210,   59.151638
 816.485318,   59.161212
 816.878816,   59.170803
 817.270424,   59.180331
 817.664957,   59.189914
 818.061208,   59.199521
 818.455696,   59.209068
 818.850936,   59.218617
 819.248952,   59.228216
 819.647570,   59.237811
 820.046261,   59.247392
 820.447422,   59.257014
 820.845371,   59.266541
 821.247553,   59.276153
 821.651284,   59.285783
 822.051778,   59.295319
 822.455111,   59.304905
 822.859817,   59.314505
 823.265766,   59.324117
 823.671470,   59.333704
 824.075291,   59.343230
 824.482061,   59.352807
 824.891970,   59.362439
 825.302298,   59.372063
 825.711950,   59.381652
 826.122434,   59.391242
 826.532698,   59.400809
 826.945145,   59.410408
 827.358974,   59.420020
 827.774581,   59.429654
 828.187406,   59.439205
 828.602212,   59.448783
 829.018141,   59.458368
 829.433928,   59.467930
 829.849992,   59.477479
 830.268992,   59.487077
 830.691175,   59.496727
 831.110539,   59.506294
 831.528657,   59.515813
 831.950911,   59.525406
 832.371635,   59.534945
 832.795431,   59.544533
 833.219919,   59.554117
 833.643825,   59.563668
 834.069249,   59.573234
 834.497515,   59.582842
 834.926697,   59.592451
 835.356998,   59.602064
 835.784113,   59.611585
 836.215617,   59.621184
 836.646808,   59.630755
 837.079030,   59.640327
 837.508935,   59.649828
 837.944620,   59.659436
 838.379159,   59.668997
 838.814719,   59.678559
 839.251435,   59.688125
 839.686836,   59.697641
 840.126280,   59.707224
 840.565777,   59.716786
 841.007402,   59.726373
 841.446821,   59.735890
 841.888565,   59.745436
 842.330292,   59.754959
 842.774716,   59.764518
 843.219130,   59.774055
 843.663404,   59.783567
 844.111023,   59.793127
 844.557541,   59.802642
 845.005032,   59.812154
 845.451781,   59.821629
 845.902298,   59.831160
 846.351152,   59.840633
 846.804632,   59.850181
 847.254582,   59.859632
 847.706045,   59.869091
 848.163156,   59.878645
 848.617797,   59.888124
 849.072404,   59.897579
 849.531931,   59.907112
 849.990203,   59.916595
 850.451274,   59.926113
 850.908019,   59.935517
 851.367879,   59.944961
 851.827959,   59.954385
 852.287173,   59.963768
 852.752384,   59.973249
 853.219309,   59.982740
 853.687315,   59.992228
 854.153105,   60.001647
 854.622865,   60.011120
 855.093875,   60.020594
 855.566655,   60.030077
 856.035977,   60.039466
 856.508187,   60.048887
 856.983064,   60.058336
 857.455086,   60.067702
 857.930961,   60.077119
 858.407252,   60.086518
 858.882042,   60.095862
 859.360048,   60.105243
 859.837659,   60.114590
 860.315408,   60.123913
 860.793222,   60.133212
 861.275676,   60.142574
 861.758195,   60.151911
 862.237049,   60.161150
 862.718972,   60.170422
 863.205510,   60.179755
 863.693157,   60.189083
 864.178241,   60.198334
 864.664195,   60.207575
 865.153007,   60.216842
 865.642638,   60.226098
 866.131423,   60.235309
 866.625159,   60.244587
 867.122788,   60.253908
 867.618834,   60.263172
 868.118583,   60.272476
 868.619100,   60.281765
 869.114499,   60.290931
 869.613549,   60.300136
 870.115106,   60.309358
 870.615270,   60.318525
 871.115391,   60.327662
 871.616588,   60.336790
 872.119410,   60.345918
 872.626706,   60.355098
 873.130858,   60.364191
 873.637854,   60.373306
 874.142505,   60.382349
 874.651582,   60.391441
 875.161210,   60.400513
 875.669779,   60.409536
 876.184184,   60.418632
 876.696018,   60.427652
 877.210124,   60.436681
 877.724659,   60.445687
 878.235769,   60.454602
 878.750728,   60.463554
 879.268376,   60.472521
 879.782219,   60.481392
 880.298319,   60.490270
 880.819814,   60.499209
 881.337621,   60.508054
 881.860002,   60.516946
 882.381103,   60.525783
 882.903374,   60.534609
 883.431167,   60.543495
 883.959051,   60.552351
 884.481620,   60.561085
 885.012453,   60.569924
 885.536172,   60.578613
 886.061492,   60.587296
 886.588475,   60.595974
 887.120087,   60.604695
 887.649945,   60.613354
 888.185483,   60.622073
 888.717288,   60.630698
 889.251883,   60.639334
 889.791887,   60.648024
 890.326785,   60.656597
 890.862730,   60.665154
 891.400379,   60.673704
 891.935415,   60.682179
 892.477438,   60.690730
 893.018133,   60.699225
 893.557820,   60.707671
 894.100093,   60.716122
 894.644492,   60.724571
 895.189347,   60.732993
 895.730879,   60.741329
 896.276717,   60.749695
 896.830387,   60.758146
 897.384802,   60.766572
 897.937978,   60.774943
 898.493579,   60.783315
 899.046225,   60.791606
 899.599784,   60.799874
 900.155114,   60.808132
 900.707524,   60.816311
 901.261255,   60.824473
 901.815529,   60.832606
 902.375228,   60.840782
 902.931655,   60.848874
 903.498006,   60.857073
 904.059974,   60.865170
 904.617329,   60.873164
 905.186597,   60.881291
 905.752851,   60.889337
 906.314456,   60.897279
 906.880881,   60.905251
 907.450281,   60.913227
 908.015139,   60.921101
 908.583590,   60.928987
 909.156660,   60.936898
 909.720556,   60.944645
 910.294145,   60.952486
 910.860536,   60.960190
 911.434291,   60.967955
 912.003342,   60.975618
 912.578295,   60.983322
 913.151510,   60.990963
 913.727271,   60.998598
 914.299674,   61.006150
 914.873710,   61.013685
 915.456164,   61.021290
 916.032192,   61.028771
 916.611096,   61.036249
 917.186925,   61.043648
 917.760556,   61.050980
 918.336359,   61.058300
 918.920601,   61.065687
 919.497758,   61.072944
 920.081663,   61.080246
 920.663939,   61.087487
 921.248546,   61.094716
 921.828318,   61.101845
 922.413765,   61.109003
 922.996768,   61.116091
 923.582640,   61.123172
 924.175940,   61.130302
 924.761293,   61.137295
 925.350017,   61.144287
 925.943391,   61.151292
 926.539111,   61.158282
 927.133283,   61.165212
 927.728604,   61.172113
 928.320043,   61.178927
 928.918245,   61.185777
 929.518388,   61.192605
 930.117375,   61.199378
 930.712817,   61.206068
 931.312432,   61.212761
 931.907949,   61.219367
 932.507895,   61.225978
 933.102167,   61.232485
 933.701931,   61.239009
 934.301979,   61.245492
 934.905556,   61.251971
 935.509182,   61.258406
 936.108038,   61.264747
 936.714977,   61.271130
 937.314050,   61.277387
 937.918955,   61.283661
 938.528072,   61.289934
 939.130707,   61.296097
 939.735746,   61.302241
 940.346249,   61.308396
 940.956485,   61.314503
 941.564006,   61.320538
 942.175530,   61.326569
 942.788106,   61.332565
 943.397615,   61.338486
 944.005103,   61.344343
 944.614569,   61.350175
 945.226843,   61.355989
 945.837379,   61.361741
 946.453105,   61.367497
 947.068959,   61.373208
 947.682644,   61.378855
 948.295316,   61.384446
 948.915055,   61.390056
 949.535099,   61.395623
 950.153672,   61.401131
 950.773337,   61.406602
 951.396879,   61.412060
 952.014675,   61.417423
 952.634427,   61.422756
 953.257915,   61.428074
 953.875625,   61.433298
 954.499168,   61.438524
 955.124651,   61.443719
 955.750780,   61.448873
 956.378598,   61.453993
 957.001023,   61.459022
 957.630045,   61.464057
 958.255703,   61.469018
 958.879880,   61.473921
 959.511339,   61.478832
 960.141639,   61.483687
 960.771966,   61.488495
 961.398666,   61.493227
 962.029465,   61.497943
 962.658300,   61.502596
 963.283194,   61.507172
 963.888097,   61.511558
