Speed, Forces
 129.409423, 5566.870713
 131.084667, 5222.178663
 132.759911, 4920.327329
 134.435155, 4693.787464
 136.110399, 4538.960684
 137.785643, 4395.631107
 139.460887, 4290.750063
 141.136131, 4184.601546
 142.811375, 4093.107612
 144.486619, 4009.704490
 146.161863, 3925.328716
 147.837106, 3850.511558
 149.512350, 3781.535463
 151.187594, 3711.782155
 152.862838, 3644.827215
 154.538082, 3588.959623
 156.213326, 3532.483108
 157.888570, 3475.397668
 159.563814, 3423.379343
 161.239058, 3378.561034
 162.914302, 3333.274639
 164.589545, 3287.520158
 166.264789, 3242.428975
 167.940033, 3208.985131
 169.615277, 3175.206004
 171.290521, 3141.091594
 172.965765, 3106.641901
 174.641009, 3073.032643
 176.316253, 3051.954103
 177.991497, 3030.674333
 179.666741, 3009.193333
 181.341984, 2987.511101
 183.017228, 2965.627639
 184.692472, 2946.294286
 186.367716, 2935.939613
 188.042960, 2925.491442
 189.718204, 2914.949774
 191.393448, 2904.314608
 193.068692, 2893.585945
 194.743936, 2882.763784
 196.419180, 2874.503052
 198.094423, 2873.895269
 199.769667, 2873.282324
 201.444911, 2872.664217
 203.120155, 2872.040949
 204.795399, 2871.412518
 206.470643, 2870.778926
 208.145887, 2870.140173
 209.821131, 2869.496257
 211.496375, 2876.249099
 213.171619, 2885.581037
 214.846862, 2894.986600
 216.522106, 2904.465789
 218.197350, 2914.018604
 219.872594, 2923.645045
 221.547838, 2933.345112
 223.223082, 2943.118805
 224.898326, 2952.966123
 226.573570, 2962.887068
 228.248814, 2973.325539
 229.924058, 2993.895379
 231.599301, 3014.615640
 233.274545, 3035.486323
 234.949789, 3056.507427
 236.625033, 3077.678953
 238.300277, 3099.000900
 239.975521, 3120.473268
 241.650765, 3142.096058
 243.326009, 3163.869269
 245.001253, 3185.792902
 246.676497, 3207.866956
 248.351740, 3230.091431
 250.026984, 3252.466328
 251.702228, 3275.070440
 253.377472, 3305.941384
 255.052716, 3337.017113
 256.727960, 3368.297626
 258.403204, 3399.782925
 260.078448, 3431.473009
 261.753692, 3463.367877
 263.428936, 3495.467531
 265.104180, 3527.771969
 266.779423, 3560.281193
 268.454667, 3592.995201
 270.129911, 3625.913995
 271.805155, 3659.037573
 273.480399, 3692.365936
 275.155643, 3725.899085
 276.830887, 3759.637018
 278.506131, 3793.579736
 280.181375, 3827.727239
 281.856619, 3862.079527
 283.531862, 3896.636600
 285.207106, 3934.519785
 286.882350, 3976.230358
 288.557594, 4018.185212
 290.232838, 4060.384348
 291.908082, 4102.827765
 293.583326, 4145.515464
 295.258570, 4188.447443
