Speed, Forces
 121.265867, 8634.797223
 123.069266, 8569.508217
 124.872665, 8504.219211
 126.676064, 8438.930204
 128.479463, 8373.641198
 130.282862, 8308.352191
 132.086261, 8243.063185
 133.889660, 8177.774179
 135.693059, 8117.479242
 137.496458, 8062.793226
 139.299857, 8008.107210
 141.103256, 7953.421194
 142.906655, 7898.735178
 144.710054, 7844.049162
 146.513453, 7789.363147
 148.316852, 7734.677131
 150.120251, 7679.991115
 151.923650, 7625.305099
 153.727049, 7570.619083
 155.530448, 7515.933068
 157.333847, 7461.289251
 159.137246, 7411.281871
 160.940645, 7361.274491
 162.744044, 7311.267111
 164.547443, 7261.259730
 166.350842, 7211.252350
 168.154241, 7161.244970
 169.957639, 7111.237590
 171.761038, 7061.230209
 173.564437, 7011.222829
 175.367836, 6961.215449
 177.171235, 6911.208069
 178.974634, 6861.200689
 180.778033, 6812.964058
 182.581432, 6766.193714
 184.384831, 6719.423370
 186.188230, 6672.653026
 187.991629, 6625.882682
 189.795028, 6579.112338
 191.598427, 6532.341994
 193.401826, 6485.571650
 195.205225, 6438.801306
 197.008624, 6392.030962
 198.812023, 6345.260618
 200.615422, 6298.490274
 202.418821, 6251.911901
 204.222220, 6207.398934
 206.025619, 6162.885966
 207.829018, 6118.372998
 209.632417, 6073.860031
 211.435816, 6029.347063
 213.239215, 5984.834095
 215.042614, 5940.321128
 216.846013, 5895.808160
 218.649412, 5851.295192
 220.452811, 5806.782225
 222.256210, 5762.269257
 224.059609, 5717.756289
 225.863008, 5676.747623
 227.666407, 5637.859132
 229.469806, 5598.970640
 231.273205, 5560.082148
 233.076604, 5521.193656
 234.880003, 5482.305164
 236.683402, 5443.416672
 238.486801, 5404.528181
 240.290200, 5365.639689
 242.093599, 5326.751197
 243.896998, 5287.862705
 245.700397, 5248.974213
 247.503796, 5210.755675
 249.307195, 5176.026860
 251.110594, 5141.298046
 252.913993, 5106.569232
 254.717392, 5071.840418
 256.520791, 5037.111603
 258.324190, 5002.382789
 260.127589, 4967.653975
 261.930988, 4932.925161
 263.734387, 4898.196346
 265.537786, 4863.467532
 267.341185, 4828.738718
 269.144584, 4794.009904
 270.947983, 4761.416691
 272.751382, 4729.742830
 274.554781, 4698.068970
 276.358180, 4666.395109
 278.161579, 4634.721248
 279.964978, 4603.047387
 281.768377, 4571.373526
 283.571776, 4539.699665
 285.375175, 4508.025805
 287.178574, 4476.351944
 288.981973, 4444.678083
 290.785372, 4413.004222
 292.588771, 4381.554242
 294.392170, 4350.824721
 296.195569, 4320.095201
 297.998968, 4289.365681
 299.802367, 4258.636161
