Speed, Forces
 129.409423, 7611.088606
 131.084667, 7558.542597
 132.759911, 7505.996588
 134.435155, 7459.112048
 136.110399, 7412.366169
 137.785643, 7365.620291
 139.460887, 7318.874412
 141.136131, 7272.128534
 142.811375, 7225.382655
 144.486619, 7178.636777
 146.161863, 7131.890898
 147.837106, 7085.145020
 149.512350, 7038.399141
 151.187594, 6991.653263
 152.862838, 6944.907384
 154.538082, 6898.161505
 156.213326, 6855.608378
 157.888570, 6814.349708
 159.563814, 6773.091037
 161.239058, 6731.832367
 162.914302, 6690.573696
 164.589545, 6649.315025
 166.264789, 6608.056355
 167.940033, 6566.797684
 169.615277, 6525.539014
 171.290521, 6484.280343
 172.965765, 6443.021673
 174.641009, 6401.763002
 176.316253, 6360.504332
 177.991497, 6321.595316
 179.666741, 6284.592557
 181.341984, 6247.589798
 183.017228, 6210.587040
 184.692472, 6173.584281
 186.367716, 6136.581522
 188.042960, 6099.578763
 189.718204, 6062.576004
 191.393448, 6025.573246
 193.068692, 5988.570487
 194.743936, 5951.567728
 196.419180, 5914.564969
 198.094423, 5877.562211
 199.769667, 5841.693512
 201.444911, 5808.025303
 203.120155, 5774.357093
 204.795399, 5740.688883
 206.470643, 5707.020673
 208.145887, 5673.352463
 209.821131, 5639.684253
 211.496375, 5606.016043
 213.171619, 5572.347834
 214.846862, 5538.679624
 216.522106, 5505.011414
 218.197350, 5471.343204
 219.872594, 5437.674994
 221.547838, 5404.572626
 223.223082, 5375.322122
 224.898326, 5346.071617
 226.573570, 5316.821113
 228.248814, 5287.570609
 229.924058, 5258.320105
 231.599301, 5229.069601
 233.274545, 5199.819097
 234.949789, 5170.568593
 236.625033, 5141.318088
 238.300277, 5112.067584
 239.975521, 5082.817080
 241.650765, 5053.566576
 243.326009, 5024.316072
 245.001253, 4998.357010
 246.676497, 4972.699441
 248.351740, 4947.041873
 250.026984, 4921.384304
 251.702228, 4895.726736
 253.377472, 4870.069167
 255.052716, 4844.411599
 256.727960, 4818.754030
 258.403204, 4793.096462
 260.078448, 4767.438893
 261.753692, 4741.781325
 263.428936, 4716.123756
 265.104180, 4690.466188
 266.779423, 4666.817461
 268.454667, 4644.013046
 270.129911, 4621.208631
 271.805155, 4598.404216
 273.480399, 4575.599800
 275.155643, 4552.795385
 276.830887, 4529.990970
 278.506131, 4507.186555
 280.181375, 4484.382140
 281.856619, 4461.577725
 283.531862, 4438.773309
 285.207106, 4415.968894
 286.882350, 4393.164479
 288.557594, 4371.426445
 290.232838, 4350.789120
 291.908082, 4330.151795
 293.583326, 4309.514470
 295.258570, 4288.877145
