Time, Vertical Forces
   0.000100,    0.000001
   0.000739,    0.000032
   0.003192,    0.000594
   0.010823,    0.006826
   0.024250,    0.034265
   0.044979,    0.117853
   0.074596,    0.324069
   0.104330,    0.633744
   0.134065,    1.046184
   0.163869,    1.562621
   0.193707,    2.182907
   0.223662,    2.909444
   0.253643,    3.740724
   0.283578,    4.674494
   0.313608,    5.715383
   0.343852,    6.869031
   0.374432,    8.142883
   0.404940,    9.521206
   0.435592,   11.014126
   0.466691,   12.639377
   0.497414,   14.354257
   0.529078,   16.235229
   0.560516,   18.216709
   0.592142,   20.324498
   0.624137,   22.573622
   0.655967,   24.927485
   0.688174,   27.427273
   0.720414,   30.048401
   0.753287,   32.843288
   0.786414,   35.784579
   0.819995,   38.893899
   0.853135,   42.088392
   0.886634,   45.444499
   0.920841,   49.003176
   0.954798,   52.667377
   0.989673,   56.566910
   1.024534,   60.602618
   1.059484,   64.786795
   1.094625,   69.133242
   1.130411,   73.702991
   1.165938,   78.382603
   1.201923,   83.267647
   1.238205,   88.340945
   1.275068,   93.647058
   1.311728,   99.075566
   1.348703,  104.703584
   1.386149,  110.559743
   1.424187,  116.669203
   1.461956,  122.895939
   1.500069,  129.340866
   1.538712,  136.041255
   1.577467,  142.928368
   1.616273,  149.992331
   1.655379,  157.280374
   1.694971,  164.832298
   1.734403,  172.526713
   1.774730,  180.574099
   1.815592,  188.912118
   1.856419,  197.427337
   1.897659,  206.215900
   1.939041,  215.223330
   1.980834,  224.511780
   2.022645,  233.996874
   2.064926,  243.783733
   2.106899,  253.693821
   2.149625,  263.980064
   2.193047,  274.638431
   2.236232,  285.443507
   2.279402,  296.448333
   2.322643,  307.675157
   2.366789,  319.347020
   2.411165,  331.293286
   2.456015,  343.584786
   2.501098,  356.159804
   2.546355,  369.005043
   2.591792,  382.124035
   2.637439,  395.528550
   2.684018,  409.438376
   2.730133,  423.439663
   2.776082,  437.618043
   2.823102,  452.361879
   2.870268,  467.389509
   2.917732,  482.752728
   2.965183,  498.352277
   3.013174,  514.373818
   3.061135,  530.631014
   3.109731,  547.352529
   3.158504,  564.387769
   3.207347,  581.699801
   3.256583,  599.407235
   3.305757,  617.348231
   3.355815,  635.873715
   3.405625,  654.569856
   3.455790,  673.662692
   3.506213,  693.120460
   3.557356,  713.128267
   3.608053,  733.232030
   3.659440,  753.883327
   3.711312,  775.009080
   3.762869,  796.284497
   3.814583,  817.901832
   3.867039,  840.113253
   3.919497,  862.610713
   3.972588,  885.669214
   4.025604,  908.985469
   4.078972,  932.749179
   4.132362,  956.815514
   4.185896,  981.241102
   4.239578, 1006.028636
   4.293863, 1031.394612
   4.348175, 1057.074287
   4.402931, 1083.268428
   4.457796, 1109.820485
   4.468696, 1115.131841
   4.496557, 1128.762977
   4.508012, 1134.390006
   4.509220, 1134.984378
   4.510310, 1135.520738
   4.510506, 1135.617250
   4.510756, 1135.740446
   4.510834, 1135.778746
   4.510865, 1135.793972
   4.510923, 1135.822270
   4.510975, 1135.848151
   4.511391, 1136.052740
   4.514157, 1137.414335
   4.524471, 1142.498899
   4.555916, 1158.065799
   4.605748, 1182.936773
   4.656405, 1208.473454
   4.707250, 1234.360612
   4.758623, 1260.777505
   4.809774, 1287.338585
   4.861251, 1314.330225
   4.913371, 1341.924548
   4.965261, 1369.662202
   5.017644, 1397.930406
   5.069824, 1426.355861
   5.122355, 1455.241090
   5.175074, 1484.499110
   5.228246, 1514.281846
   5.281518, 1544.394702
   5.335039, 1574.924485
   5.388215, 1605.530705
   5.441821, 1636.659909
   5.495693, 1668.220644
   5.549678, 1700.125477
   5.603959, 1732.486063
   5.658515, 1765.293254
   5.713207, 1798.465445
   5.768044, 1832.009693
   5.823043, 1865.937886
   5.878092, 1900.182734
   5.933668, 1935.043439
   5.989215, 1970.175704
   6.045085, 2005.802713
   6.101050, 2041.782108
   6.156999, 2078.042188
   6.213502, 2114.955387
   6.269654, 2151.932426
   6.325922, 2189.276594
   6.383068, 2227.501806
   6.439848, 2265.778391
   6.496596, 2304.328481
   6.553449, 2343.243689
   6.611126, 2383.024044
   6.668936, 2423.198051
   6.726692, 2463.636773
   6.784484, 2504.401613
   6.842519, 2545.640330
   6.900806, 2587.361711
   6.959133, 2629.415659
   7.017999, 2672.165854
   7.076878, 2715.233952
   7.135810, 2758.647820
   7.195003, 2802.563419
   7.254191, 2846.783349
   7.313764, 2891.602078
   7.373505, 2936.858720
   7.433077, 2982.298539
   7.493001, 3028.317494
   7.553127, 3074.805671
   7.613492, 3121.792958
   7.673910, 3169.136385
   7.734608, 3217.014492
   7.795320, 3265.220388
   7.856409, 3314.042982
   7.917519, 3363.200992
   7.978831, 3412.839848
   8.040451, 3463.048597
   8.101960, 3513.486640
   8.163769, 3564.491008
   8.225548, 3615.790911
   8.287654, 3667.683912
   8.349751, 3719.889612
   8.411896, 3772.457241
   8.474337, 3825.596078
   8.537248, 3879.461312
   8.600186, 3933.674381
   8.663153, 3988.236921
   8.726096, 4043.102940
   8.789266, 4098.490070
   8.852834, 4154.553652
   8.916386, 4210.929221
   8.980208, 4267.871223
   9.044045, 4325.154096
   9.108006, 4382.874514
   9.172268, 4441.195531
   9.236911, 4500.192891
   9.249870, 4512.059624
   9.265511, 4526.401274
   9.277010, 4536.956450
   9.278818, 4538.616524
   9.280724, 4540.367280
   9.282348, 4541.860191
   9.282704, 4542.187105
   9.283137, 4542.584418
   9.283653, 4543.058452
   9.283774, 4543.170356
   9.283782, 4543.177700
   9.283790, 4543.184510
   9.283864, 4543.252610
   9.284509, 4543.845352
   9.288256, 4547.289847
   9.307371, 4564.874900
   9.363057, 4616.263705
   9.422298, 4671.188759
   9.481505, 4726.345496
   9.540633, 4781.690443
   9.600077, 4837.593664
   9.659647, 4893.877781
   9.719624, 4950.810931
   9.779516, 5007.927619
   9.839362, 5065.262359
   9.899473, 5123.114001
   9.959487, 5181.133760
  10.019705, 5239.612362
  10.080113, 5298.538230
  10.140655, 5357.856478
  10.201390, 5417.627456
  10.262201, 5477.734655
  10.323268, 5538.358603
  10.384243, 5599.153509
  10.445349, 5660.340777
  10.506763, 5722.098292
  10.568376, 5784.319766
  10.629953, 5846.766520
  10.691696, 5909.643873
  10.753431, 5972.774883
  10.815267, 6036.269975
  10.877362, 6100.292651
  10.939382, 6164.497732
  11.001731, 6229.303726
  11.064139, 6294.433039
  11.126811, 6360.098201
  11.189399, 6425.935999
  11.252238, 6492.299026
  11.315359, 6559.219691
  11.378302, 6626.212266
  11.441609, 6693.852651
  11.504788, 6761.614320
  11.568209, 6829.894480
  11.631504, 6898.297434
  11.695111, 6967.294449
  11.758820, 7036.660767
  11.822557, 7106.313388
  11.886602, 7176.560881
  11.950778, 7247.209437
  12.014773, 7317.913427
  12.079125, 7389.268773
  12.143633, 7461.054092
  12.208314, 7533.287341
  12.272901, 7605.671354
  12.337696, 7678.542598
  12.402519, 7751.699160
  12.467787, 7825.612411
  12.533070, 7899.798684
  12.598294, 7974.170410
  12.663551, 8048.831693
  12.728981, 8123.943813
  12.794388, 8199.278928
  12.860095, 8275.210449
  12.925961, 8351.577498
  12.991897, 8428.275445
  13.058068, 8505.496699
  13.124488, 8583.260334
  13.190474, 8660.763094
  13.256712, 8738.809058
  13.323212, 8817.411374
  13.389439, 8895.934825
  13.456111, 8975.233365
  13.522940, 9054.963241
  13.589825, 9135.004977
  13.656840, 9215.447390
  13.723915, 9296.204909
  13.791368, 9377.662153
  13.858631, 9459.133156
  13.926211, 9541.230962
  13.993640, 9623.384789
  14.061210, 9705.952341
  14.129172, 9789.238271
  14.196735, 9872.275098
  14.264687, 9956.026336
  14.332756, 10040.161181
  14.401015, 10124.768381
  14.469410, 10209.780770
  14.472152, 10213.193743
  14.474755, 10216.434493
  14.477556, 10219.922012
  14.478069, 10220.560749
  14.478653, 10221.287674
  14.478839, 10221.519177
  14.479116, 10221.864256
  14.479256, 10222.038685
  14.479313, 10222.109174
  14.479333, 10222.134159
  14.479343, 10222.145987
  14.479359, 10222.166092
  14.479373, 10222.184392
  14.479520, 10222.367391
  14.480843, 10224.014206
  14.487932, 10232.843774
  14.516597, 10268.566170
  14.578121, 10345.360724
  14.639312, 10421.903686
  14.700765, 10498.938790
  14.762494, 10576.483962
  14.824222, 10654.191063
  14.885858, 10731.944609
  14.947570, 10809.954114
  15.009573, 10888.492385
  15.071507, 10967.103039
  15.133456, 11045.891221
  15.195598, 11125.082375
  15.257749, 11204.442142
  15.320171, 11284.304130
  15.382701, 11364.461309
  15.445211, 11444.747017
  15.507791, 11525.276827
  15.570479, 11606.098883
  15.633369, 11687.334028
  15.696463, 11768.984850
  15.759475, 11850.681244
  15.822432, 11932.456538
  15.885562, 12014.604755
  15.948654, 12096.851117
  16.012014, 12179.594378
  16.075440, 12262.571101
  16.138817, 12345.627717
  16.202289, 12428.954766
  16.265978, 12512.710143
  16.329778, 12596.755087
  16.393513, 12680.855015
  16.457513, 12765.447467
  16.521607, 12850.305044
  16.585775, 12935.400083
  16.650009, 13020.720507
  16.714333, 13106.299496
  16.778693, 13192.063675
  16.843218, 13278.183984
  16.907712, 13364.397212
  16.972429, 13451.044148
  17.037082, 13537.737373
  17.101812, 13624.666419
  17.166835, 13712.121177
  17.231997, 13799.893593
  17.297105, 13887.722997
  17.362169, 13975.622587
  17.427373, 14063.837028
  17.492619, 14152.236105
  17.557983, 14240.920906
  17.623576, 14330.042053
  17.689245, 14419.390048
  17.754891, 14508.829727
  17.820694, 14598.605053
  17.886553, 14688.578518
  17.952506, 14778.800656
  18.018581, 14869.309199
  18.084705, 14960.002191
  18.151062, 15051.133358
  18.217245, 15142.142106
  18.283555, 15233.440154
  18.349984, 15325.015614
  18.416614, 15416.983317
  18.483392, 15509.266434
  18.550324, 15601.874987
  18.617287, 15694.637268
  18.684148, 15787.367975
  18.751244, 15880.534039
  18.818336, 15973.800288
  18.885524, 16067.308271
  18.952729, 16160.944087
  19.020056, 16254.854345
  19.087540, 16349.087209
  19.155050, 16443.458818
  19.222587, 16537.969314
  19.290356, 16632.905107
  19.358093, 16727.895160
  19.425921, 16823.110555
  19.493812, 16918.512167
  19.561860, 17014.230193
  19.629932, 17110.077147
  19.698168, 17206.249255
  19.766496, 17302.644747
  19.834876, 17399.205666
  19.903302, 17495.920855
  19.971820, 17592.857696
  20.040470, 17690.069847
  20.109302, 17787.627194
  20.178113, 17885.240918
  20.246961, 17982.994644
  20.315764, 18080.766522
  20.329607, 18100.448991
  20.378716, 18170.298300
  20.379269, 18171.084831
  20.380151, 18172.340021
  20.380294, 18172.543456
  20.380382, 18172.669039
  20.380417, 18172.718834
  20.380452, 18172.768500
  20.380801, 18173.265163
  20.384003, 18177.820832
  20.399918, 18200.467391
  20.460659, 18286.939690
  20.529468, 18384.972877
  20.598515, 18483.422169
  20.667406, 18581.726206
  20.736640, 18680.595672
  20.805793, 18779.423235
  20.875130, 18878.586706
  20.944509, 18977.884451
  21.014028, 19077.452640
  21.083573, 19177.128959
  21.153259, 19277.076760
  21.222942, 19377.087992
  21.292877, 19477.527611
  21.362872, 19578.119924
  21.432864, 19678.772412
  21.502998, 19779.693306
  21.573212, 19880.792408
  21.643393, 19981.905568
  21.713690, 20083.246392
  21.784048, 20184.733551
  21.854552, 20286.491358
  21.925141, 20388.427417
  21.995868, 20490.619212
  22.066473, 20592.690258
  22.137251, 20695.063248
  22.208077, 20797.559604
  22.279047, 20900.316330
  22.349989, 21003.083026
  22.421073, 21106.103985
  22.492261, 21209.324136
  22.563536, 21312.717080
  22.634903, 21416.289889
  22.706269, 21519.906204
  22.777783, 21623.781483
  22.849410, 21727.863105
  22.921139, 21832.134201
  22.992914, 21936.512896
  23.064842, 22041.154026
  23.136757, 22145.813568
  23.208783, 22250.670914
  23.280891, 22355.684759
  23.352968, 22460.688389
  23.425355, 22566.177555
  23.497683, 22671.612501
  23.570041, 22777.122437
  23.642485, 22882.788623
  23.715007, 22988.597421
  23.787591, 23094.523857
  23.860399, 23200.804168
  23.933266, 23307.197318
  24.006153, 23413.644584
  24.079121, 23520.231986
  24.152098, 23626.856058
  24.225333, 23733.878359
  24.298444, 23840.740121
  24.371753, 23947.909101
  24.445105, 24055.159311
  24.518631, 24162.680255
  24.592077, 24270.099740
  24.665704, 24377.798792
  24.739413, 24485.630896
  24.813266, 24593.685188
  24.887275, 24701.978729
  24.961232, 24810.206580
  25.035253, 24918.537798
  25.109496, 25027.200601
  25.183619, 25135.693999
  25.257915, 25244.446647
  25.332409, 25353.492018
  25.406849, 25462.462357
  25.481378, 25571.565663
  25.556013, 25680.823633
  25.630621, 25790.043355
  25.705344, 25899.428974
  25.780175, 26008.969660
  25.855083, 26118.619409
  25.930100, 26228.423947
  26.005213, 26338.362951
  26.080313, 26448.277008
  26.155560, 26558.397415
  26.230803, 26668.501098
  26.306198, 26778.818330
  26.381754, 26889.359463
  26.441786, 26977.178038
  26.457361, 26999.961437
  26.533023, 27227.377195
  26.608785, 27907.039926
  26.684568, 28586.923097
  26.760377, 29266.410134
  26.836405, 29945.815128
  26.912328, 30626.040527
  26.988387, 31305.045893
  27.064596, 31984.610791
  27.140675, 32664.338310
  27.216868, 33342.576834
  27.293195, 34021.123669
  27.369674, 34700.111001
  27.384960, 35268.472750
  27.399588, 35402.222150
  27.411806, 35526.922110
  27.412193, 35613.093610
  27.412210, 35615.826015
  27.412227, 35615.973142
  27.412394, 35616.394867
  27.413805, 35620.139452
  27.422600, 35646.070872
  27.456725, 35769.995449
  27.534498, 36151.873044
  27.613696, 36843.572194
  27.692963, 37544.516749
  27.772229, 38244.988081
  27.851585, 38944.650967
  27.930891, 39643.816126
  28.010203, 40341.623775
  28.089467, 41038.315460
  28.168885, 41733.911950
  28.248265, 42429.367439
  28.327715, 43123.569696
  28.407204, 43817.172979
  28.486787, 44510.047963
  28.566394, 45202.387637
  28.646011, 45893.677390
  28.725560, 46583.614098
  28.805032, 47271.653560
  28.884658, 47958.238805
  28.964182, 48644.251766
  29.043774, 49328.416604
  29.123383, 50011.681378
  29.202976, 50693.610448
  29.282694, 51374.307146
  29.362325, 52054.141498
  29.368358, 52556.071288
  29.374384, 52606.803599
  29.380396, 52657.441411
  29.386433, 52708.034355
  29.392467, 52758.758261
  29.398498, 52809.438729
  29.404560, 52860.155076
  29.410618, 52911.027159
  29.416653, 52961.801843
  29.422726, 53012.513740
  29.428775, 53063.376651
  29.434848, 53114.132354
  29.440899, 53164.964840
  29.446967, 53215.681404
  29.453055, 53266.529353
  29.459151, 53317.494561
  29.465236, 53368.460800
  29.471347, 53419.403888
  29.477438, 53470.435717
  29.483551, 53521.378879
  29.489675, 53572.462044
  29.495808, 53623.613196
  29.501946, 53674.802144
  29.508042, 53725.908406
  29.514092, 53776.630472
  29.520243, 53827.292082
  29.526372, 53878.487115
  29.532514, 53929.556700
  29.538674, 53980.724479
  29.544823, 54031.951123
  29.551000, 54083.151419
  29.557175, 54134.498696
  29.563341, 54185.791584
  29.569540, 54237.079112
  29.575698, 54288.446215
  29.581902, 54339.655549
  29.588119, 54391.144778
  29.594314, 54442.634783
  29.600501, 54493.951516
  29.606672, 54545.157412
  29.612839, 54596.240950
  29.619083, 54647.452162
  29.625325, 54699.090826
  29.631577, 54750.713195
  29.637822, 54802.356007
  29.644053, 54853.900366
  29.650331, 54905.445050
  29.656611, 54957.250079
  29.662902, 55009.062130
  29.669197, 55060.927660
  29.675453, 55112.697149
  29.681735, 55164.269066
  29.688045, 55216.029932
  29.694375, 55267.980463
  29.700699, 55320.003164
  29.707027, 55371.978800
  29.713335, 55423.898849
  29.719670, 55475.738454
  29.726007, 55527.708849
  29.732384, 55579.758746
  29.738736, 55631.961298
  29.745096, 55684.001581
  29.751469, 55736.091063
  29.757842, 55788.229475
  29.764253, 55840.420562
  29.770662, 55892.805753
  29.777036, 55945.066487
  29.783427, 55997.131691
  29.789875, 56049.395756
  29.796300, 56101.913790
  29.802724, 56154.262651
  29.809207, 56206.703078
  29.815632, 56259.331770
  29.822129, 56311.751928
  29.828647, 56364.610922
  29.835080, 56417.363214
  29.841555, 56469.682309
  29.848039, 56522.236202
  29.854534, 56574.831437
  29.860974, 56627.335706
  29.867491, 56642.038369
  29.874030, 56656.770847
  29.880620, 56671.601041
  29.887192, 56686.370443
  29.893753, 56701.095639
  29.900258, 56715.677728
  29.906862, 56730.461146
  29.913428, 56745.142639
  29.920033, 56759.891206
  29.926595, 56774.524101
  29.933218, 56789.274703
  29.939842, 56804.006905
  29.946483, 56818.758502
  29.953099, 56833.433704
  29.959722, 56848.105286
  29.966373, 56862.819432
  29.973044, 56877.560075
  29.979673, 56892.185324
  29.986351, 56906.898959
  29.993073, 56921.689618
  29.999802, 56936.476705
  30.006476, 56951.121376
  30.013168, 56965.784665
  30.019879, 56980.470058
  30.026624, 56995.208612
  30.033365, 57009.919230
  30.040065, 57024.518927
  30.046817, 57039.211910
  30.053591, 57053.930728
  30.060309, 57068.506944
  30.067074, 57083.165554
  30.073874, 57097.876478
  30.080652, 57112.521465
  30.087489, 57127.271480
  30.094279, 57141.897144
  30.101128, 57156.629864
  30.107965, 57171.315367
  30.114803, 57185.979510
  30.121666, 57200.675965
  30.128522, 57215.336762
  30.135393, 57230.006065
  30.142262, 57244.650233
  30.149131, 57259.271109
  30.156032, 57273.939428
  30.162974, 57288.669892
  30.169862, 57303.265271
  30.176823, 57317.992769
  30.183773, 57332.671964
  30.190744, 57347.374139
  30.197712, 57362.046918
  30.204699, 57376.735505
  30.211678, 57391.384501
  30.218723, 57406.149656
  30.225730, 57420.810352
  30.232697, 57435.364227
  30.239727, 57450.027321
  30.246794, 57464.742361
  30.253882, 57479.476813
  30.260895, 57494.031899
  30.267996, 57508.745265
  30.275064, 57523.368054
  30.282188, 57538.078939
  30.289317, 57552.777312
  30.296447, 57567.453218
  30.303588, 57582.126189
  30.310756, 57596.830372
  30.317932, 57611.525110
  30.325099, 57626.177378
  30.332215, 57640.698224
  30.339382, 57655.300043
  30.346591, 57669.961274
  30.353825, 57684.646725
  30.360974, 57699.135402
  30.361066, 57699.321793
  30.368312, 57713.815448
  30.375571, 57715.458897
  30.382781, 57716.948854
  30.390083, 57718.679835
  30.397403, 57720.254171
  30.404688, 57721.692062
  30.411975, 57723.167689
  30.419312, 57724.706519
  30.426686, 57726.199906
  30.434079, 57727.632774
  30.441441, 57728.936614
  30.448839, 57730.337261
  30.456264, 57731.694251
  30.463680, 57732.954206
  30.471081, 57734.166211
  30.478507, 57735.426296
  30.485943, 57736.625351
  30.493416, 57737.850872
  30.500934, 57739.060468
  30.508424, 57740.106219
  30.515917, 57741.173325
  30.523409, 57742.201703
  30.530957, 57743.306231
  30.538460, 57744.191637
  30.545990, 57745.178388
  30.553474, 57745.993580
  30.561019, 57746.978068
  30.568570, 57747.829651
  30.576142, 57748.679814
  30.583680, 57749.393496
  30.591291, 57750.274473
  30.598908, 57751.001191
  30.606556, 57751.743798
  30.614239, 57752.461985
  30.621920, 57753.081513
  30.629618, 57753.699884
  30.637313, 57754.249551
  30.645050, 57754.849698
  30.652786, 57755.337936
  30.660539, 57755.825166
  30.668275, 57756.215888
  30.676049, 57756.673005
  30.683813, 57757.010011
  30.691626, 57757.419124
  30.699427, 57757.685703
  30.707265, 57758.004953
  30.715022, 57758.072411
  30.722910, 57758.495716
  30.730807, 57758.662614
  30.738705, 57758.777425
  30.746623, 57758.892015
  30.754479, 57758.822440
  30.762367, 57758.888506
  30.770298, 57758.940909
  30.778207, 57758.836866
  30.786191, 57758.873173
  30.794122, 57758.644214
  30.802068, 57758.500483
  30.810082, 57758.416580
  30.818119, 57758.214630
  30.826187, 57757.987850
  30.834239, 57757.642754
  30.842311, 57757.322089
  30.850421, 57756.997717
  30.858420, 57756.371459
  30.866533, 57756.111567
  30.874669, 57755.648003
  30.882749, 57755.006749
  30.890913, 57754.577763
  30.899063, 57753.935188
  30.907179, 57753.221679
  30.915404, 57752.721686
  30.923684, 57752.080274
  30.931922, 57751.230142
  30.940150, 57750.398668
  30.948413, 57749.609612
  30.956690, 57748.742157
  30.964962, 57747.803132
  30.973220, 57746.809907
  30.981532, 57745.897601
  30.989902, 57744.947740
  30.998267, 57743.843620
  31.006657, 57742.752661
  31.015014, 57741.520524
  31.023424, 57740.400092
  31.031878, 57739.217165
  31.040306, 57737.871194
  31.048788, 57736.624258
  31.057274, 57735.244416
  31.065700, 57733.718615
  31.074183, 57732.358579
  31.082725, 57730.950922
  31.091261, 57729.387791
  31.099718, 57727.663824
  31.108174, 57726.042913
  31.116715, 57724.527434
  31.125369, 57722.997399
  31.133922, 57721.057253
  31.142606, 57719.472910
  31.151232, 57717.515967
  31.159840, 57715.592318
  31.168544, 57713.817940
  31.177216, 57711.776286
  31.185898, 57709.767732
  31.194640, 57707.793727
  31.203309, 57705.553838
  31.212040, 57703.507598
  31.220743, 57701.257611
  31.229413, 57698.968990
  31.238170, 57696.837922
  31.246933, 57694.514482
  31.255702, 57692.147330
  31.264558, 57689.865411
  31.273418, 57687.386436
  31.282213, 57684.756841
  31.291050, 57682.270551
  31.299934, 57679.739013
  31.308796, 57677.042773
  31.317707, 57674.424020
  31.326610, 57671.657460
  31.335590, 57668.980727
  31.344561, 57666.108492
  31.353557, 57663.244392
  31.362500, 57660.214201
  31.371496, 57657.318142
  31.380519, 57654.321812
  31.389498, 57651.166542
  31.398542, 57648.148220
  31.407577, 57644.952539
  31.416721, 57641.892842
  31.425884, 57638.616709
  31.435027, 57635.232676
  31.444134, 57631.785398
  31.453267, 57628.401102
  31.462348, 57624.850023
  31.471486, 57621.432343
  31.480615, 57617.856504
  31.489798, 57614.331498
  31.499062, 57610.777264
  31.508369, 57607.093298
  31.517668, 57603.273241
  31.526998, 57599.466592
  31.536359, 57595.600125
  31.545701, 57591.607936
  31.555050, 57587.610580
  31.564416, 57583.584828
  31.573783, 57579.478455
  31.583144, 57575.319637
  31.592564, 57571.208901
  31.601992, 57566.955284
  31.611391, 57562.599532
  31.620829, 57558.306924
  31.630330, 57553.982933
  31.639799, 57549.454604
  31.649334, 57545.027437
  31.658849, 57540.405091
  31.668359, 57535.769205
  31.677902, 57531.137742
  31.687461, 57526.423382
  31.697096, 57521.735828
  31.706731, 57516.859023
  31.716389, 57511.965605
  31.726100, 57507.056510
  31.735760, 57501.930791
  31.745374, 57496.791025
  31.755067, 57491.796771
  31.764710, 57486.540956
  31.774473, 57481.492745
  31.784162, 57476.073951
  31.793952, 57470.880056
  31.803672, 57465.356559
  31.813466, 57460.015036
  31.823285, 57454.519394
  31.833071, 57448.885054
  31.842923, 57443.353799
  31.852806, 57437.688442
  31.862595, 57431.795652
  31.872485, 57426.162809
  31.882357, 57420.270036
  31.892202, 57414.327626
  31.902184, 57408.562934
  31.912051, 57402.344749
  31.921924, 57396.305313
  31.931970, 57390.423895
  31.941918, 57384.044647
  31.951938, 57377.892260
  31.962034, 57371.648352
  31.972060, 57365.128977
  31.982038, 57358.631027
  31.992170, 57352.366513
  32.002316, 57345.776875
  32.012541, 57339.210380
  32.022611, 57332.256273
  32.032719, 57325.591789
  32.042838, 57318.817817
  32.053052, 57312.092141
  32.063199, 57305.054105
  32.073439, 57298.206145
  32.083668, 57291.120014
  32.093967, 57284.088075
  32.104151, 57276.738192
  32.114414, 57269.648832
  32.124783, 57262.485800
  32.135085, 57254.992324
  32.145433, 57247.630162
  32.155689, 57240.024053
  32.166132, 57232.759488
  32.176424, 57224.915725
  32.186927, 57217.549673
  32.197272, 57209.555217
  32.207763, 57201.974587
  32.218327, 57194.148892
  32.228752, 57185.977955
  32.239194, 57178.038375
  32.249721, 57170.111696
  32.260205, 57161.926054
  32.270729, 57153.813904
  32.281188, 57145.505309
  32.291726, 57137.356939
  32.302296, 57129.041084
  32.312892, 57120.645044
  32.323675, 57112.350875
  32.334354, 57103.538727
  32.345069, 57094.907974
  32.355780, 57086.156956
  32.366429, 57077.291944
  32.377022, 57068.435662
  32.387797, 57059.827414
  32.398477, 57050.722524
  32.409190, 57041.781498
  32.419818, 57032.636200
  32.430596, 57023.761083
  32.441407, 57014.581731
  32.452251, 57005.323220
  32.463012, 56995.863646
  32.473831, 56986.570939
  32.484676, 56977.144547
  32.495634, 56967.728944
  32.506522, 56957.978894
  32.517614, 56948.513066
  32.528492, 56938.391470
  32.539470, 56928.725144
  32.550354, 56918.724187
  32.561282, 56908.893876
  32.572246, 56898.962231
  32.583234, 56888.936468
  32.594316, 56878.902826
  32.605237, 56868.480776
  32.616342, 56858.494777
  32.627388, 56848.048492
  32.638576, 56837.797299
  32.649688, 56827.150498
  32.660770, 56816.568772
  32.671936, 56806.071816
  32.683117, 56795.375370
  32.694334, 56784.632032
  32.705621, 56773.831503
  32.716847, 56762.790681
  32.727993, 56751.737493
  32.739338, 56740.969012
  32.750511, 56729.608235
  32.761652, 56718.497503
  32.772812, 56707.412972
  32.784125, 56696.376888
  32.795310, 56684.883990
  32.806623, 56673.696892
  32.818049, 56662.315940
  32.829537, 56650.720194
  32.841005, 56638.932740
  32.852540, 56627.192702
  32.864044, 56615.241990
  32.875414, 56603.181533
  32.886855, 56591.384687
  32.898356, 56579.452311
  32.909888, 56567.380261
  32.921505, 56555.267951
  32.933004, 56542.838250
  32.944545, 56530.617709
  32.955989, 56518.183205
  32.967598, 56506.020160
  32.979147, 56493.439984
  32.990802, 56481.009646
  33.002506, 56468.361858
  33.014197, 56455.559066
  33.025928, 56442.757564
  33.037639, 56429.813911
  33.049324, 56416.832024
  33.061152, 56403.962471
  33.073047, 56390.818819
  33.084737, 56377.330507
  33.096359, 56364.130810
  33.108231, 56351.202692
  33.120024, 56337.684370
  33.131769, 56324.225784
  33.143610, 56310.880799
  33.155564, 56297.387007
  33.167419, 56283.546757
  33.179275, 56269.845718
  33.191337, 56256.245097
  33.203256, 56242.090011
  33.215210, 56228.181218
  33.227077, 56214.087666
  33.239037, 56200.180206
  33.251005, 56186.045581
  33.263009, 56171.869697
  33.275081, 56157.624343
  33.279532, 56137.665401
