 # GRANDEZZE ADIMENSIONALI
 
 # Cl        -> adim. risp. a Q e Sw
 # dT e T    -> adim. risp. a Q e Sw/2
 # dM e M    -> adim. risp. a Q , Sw/2 e b/2
 
 # Taglio totale adim  =    8.662750E-01
 # Momento totale adim =    3.265678E-01
 
 #    eta          c[m]          Cl           cCl  dT           T            dM           
    1.00000      1.05000      0.00000      0.00000      0.00000      0.86628      0.00000      0.00000
    0.99495      1.06403      0.08300      0.08831      0.00007      0.00007      0.00000      0.00000
    0.98485      1.09210      0.12234      0.13361      0.00036      0.00043      0.00000      0.00000
    0.97475      1.12017      0.14940      0.16735      0.00049      0.00092      0.00001      0.00001
    0.96465      1.14824      0.16759      0.19243      0.00058      0.00150      0.00001      0.00002
    0.95455      1.23085      0.26699      0.32863      0.00084      0.00234      0.00002      0.00004
    0.94444      1.30437      0.30637      0.39962      0.00118      0.00351      0.00003      0.00007
    0.93434      1.33244      0.33425      0.44537      0.00136      0.00488      0.00004      0.00011
    0.92424      1.36051      0.35731      0.48612      0.00150      0.00638      0.00006      0.00017
    0.91414      1.38858      0.37817      0.52512      0.00163      0.00801      0.00007      0.00024
    0.90404      1.41664      0.39791      0.56369      0.00176      0.00977      0.00009      0.00033
    0.89394      1.44471      0.41710      0.60259      0.00188      0.01165      0.00011      0.00044
    0.88384      1.47278      0.43613      0.64232      0.00201      0.01366      0.00013      0.00057
    0.87374      1.50085      0.45528      0.68331      0.00214      0.01580      0.00015      0.00072
    0.86364      1.52891      0.47477      0.72588      0.00227      0.01807      0.00017      0.00089
    0.85354      1.55698      0.49480      0.77039      0.00241      0.02049      0.00019      0.00108
    0.84343      1.58505      0.51554      0.81716      0.00256      0.02305      0.00022      0.00130
    0.83333      1.61312      0.53717      0.86652      0.00272      0.02577      0.00025      0.00155
    0.82323      1.64118      0.55986      0.91883      0.00288      0.02865      0.00027      0.00182
    0.81313      1.66925      0.58378      0.97447      0.00306      0.03171      0.00030      0.00213
    0.80303      1.69732      0.60911      1.03386      0.00324      0.03495      0.00034      0.00247
    0.79293      1.72539      0.63601      1.09736      0.00344      0.03839      0.00037      0.00284
    0.78283      1.75346      0.66449      1.16515      0.00365      0.04204      0.00041      0.00324
    0.77273      1.78152      0.69405      1.23647      0.00388      0.04592      0.00044      0.00369
    0.76263      1.80959      0.72159      1.30579      0.00410      0.05002      0.00048      0.00417
    0.75253      1.96146      0.66882      1.31186      0.00422      0.05424      0.00053      0.00470
    0.74242      2.03135      0.82288      1.67156      0.00482      0.05906      0.00057      0.00527
    0.73232      2.05942      0.90252      1.85868      0.00570      0.06476      0.00063      0.00590
    0.72222      2.08749      0.95830      2.00044      0.00623      0.07099      0.00069      0.00658
    0.71212      2.11555      1.00130      2.11829      0.00665      0.07763      0.00075      0.00733
    0.70202      2.14362      1.03588      2.22054      0.00700      0.08464      0.00082      0.00815
    0.69192      2.17169      1.06438      2.31151      0.00731      0.09195      0.00089      0.00904
    0.68182      2.19976      1.08824      2.39387      0.00759      0.09955      0.00097      0.01001
    0.67172      2.22783      1.10844      2.46941      0.00785      0.10739      0.00105      0.01106
    0.66162      2.25589      1.12567      2.53939      0.00808      0.11548      0.00113      0.01218
    0.65152      2.28396      1.14047      2.60479      0.00830      0.12378      0.00121      0.01339
    0.64141      2.31203      1.15324      2.66632      0.00851      0.13229      0.00129      0.01468
    0.63131      2.34010      1.16430      2.72457      0.00870      0.14099      0.00138      0.01606
    0.62121      2.36816      1.17390      2.77998      0.00888      0.14987      0.00147      0.01753
    0.61111      2.39623      1.18224      2.83292      0.00906      0.15893      0.00156      0.01909
    0.60101      2.42430      1.18949      2.88369      0.00923      0.16816      0.00165      0.02074
    0.59091      2.45237      1.19579      2.93252      0.00939      0.17755      0.00175      0.02249
    0.58081      2.48043      1.20125      2.97962      0.00954      0.18709      0.00184      0.02433
    0.57071      2.50850      1.20596      3.02515      0.00969      0.19678      0.00194      0.02627
    0.56061      2.53657      1.21000      3.06924      0.00984      0.20662      0.00204      0.02831
    0.55051      2.56464      1.21343      3.11202      0.00998      0.21659      0.00214      0.03044
    0.54040      2.59271      1.21632      3.15356      0.01011      0.22671      0.00224      0.03268
    0.53030      2.62077      1.21871      3.19396      0.01024      0.23695      0.00234      0.03502
    0.52020      2.64884      1.22064      3.23327      0.01037      0.24733      0.00245      0.03747
    0.51010      2.67691      1.22213      3.27154      0.01050      0.25782      0.00255      0.04002
    0.50000      2.70498      1.22323      3.30881      0.01062      0.26844      0.00266      0.04268
    0.48990      2.73304      1.22395      3.34510      0.01074      0.27918      0.00277      0.04545
    0.47980      2.76111      1.22430      3.38044      0.01085      0.29004      0.00287      0.04832
    0.46970      2.78918      1.22431      3.41482      0.01097      0.30101      0.00299      0.05131
    0.45960      2.81725      1.22398      3.44826      0.01108      0.31208      0.00310      0.05440
    0.44949      2.84531      1.22331      3.48071      0.01118      0.32327      0.00321      0.05761
    0.43939      2.87338      1.22231      3.51216      0.01129      0.33455      0.00332      0.06093
    0.42929      2.90145      1.22095      3.54253      0.01139      0.34594      0.00344      0.06437
    0.41919      2.92952      1.21921      3.57169      0.01148      0.35742      0.00355      0.06792
    0.40909      2.95759      1.21699      3.59936      0.01157      0.36900      0.00367      0.07159
    0.39899      2.96327      1.22313      3.62447      0.01166      0.38066      0.00379      0.07538
    0.38889      2.96051      1.23139      3.64555      0.01173      0.39239      0.00390      0.07928
    0.37879      3.05342      1.20319      3.67385      0.01181      0.40420      0.00402      0.08330
    0.36869      3.14633      1.17705      3.70338      0.01191      0.41611      0.00414      0.08745
    0.35859      3.23924      1.15207      3.73184      0.01200      0.42811      0.00426      0.09171
    0.34848      3.33215      1.12714      3.75581      0.01209      0.44020      0.00439      0.09610
    0.33838      3.44122      1.10506      3.80277      0.01220      0.45239      0.00451      0.10061
    0.32828      3.61797      1.07127      3.87581      0.01239      0.46479      0.00463      0.10524
    0.31818      3.71088      1.05677      3.92154      0.01258      0.47737      0.00476      0.11000
    0.30808      3.80378      1.04115      3.96030      0.01272      0.49009      0.00489      0.11488
    0.29798      3.89669      1.02519      3.99487      0.01284      0.50293      0.00502      0.11990
    0.28788      3.98960      1.00914      4.02605      0.01295      0.51588      0.00515      0.12504
    0.27778      4.08251      0.99304      4.05411      0.01304      0.52892      0.00528      0.13032
    0.26768      4.17542      0.97692      4.07907      0.01313      0.54205      0.00541      0.13573
    0.25758      4.26833      0.96077      4.10087      0.01320      0.55525      0.00554      0.14127
    0.24747      4.36124      0.94454      4.11938      0.01327      0.56852      0.00568      0.14695
    0.23737      4.45415      0.92821      4.13439      0.01332      0.58184      0.00581      0.15276
    0.22727      4.54706      0.91173      4.14569      0.01336      0.59520      0.00594      0.15870
    0.21717      4.63997      0.89505      4.15299      0.01339      0.60860      0.00608      0.16478
    0.20707      4.73287      0.87810      4.15593      0.01341      0.62201      0.00622      0.17100
    0.19697      4.82578      0.86082      4.15412      0.01341      0.63542      0.00635      0.17735
    0.18687      4.91869      0.84312      4.14703      0.01340      0.64882      0.00649      0.18383
    0.17677      5.01160      0.82488      4.13399      0.01337      0.66218      0.00662      0.19045
    0.16667      5.10451      0.80598      4.11415      0.01331      0.67550      0.00676      0.19721
    0.15657      5.19742      0.78622      4.08630      0.01324      0.68873      0.00689      0.20410
    0.14646      5.29033      0.76529      4.04865      0.01313      0.70186      0.00702      0.21112
    0.13636      5.38324      0.74272      3.99824      0.01299      0.71485      0.00716      0.21828
    0.12626      5.47615      0.71751      3.92917      0.01279      0.72764      0.00729      0.22556
    0.11616      5.47405      0.69791      3.82039      0.01251      0.74015      0.00741      0.23298
    0.10606      5.41446      0.67868      3.67468      0.01210      0.75225      0.00754      0.24051
    0.09596      5.50736      0.65219      3.59185      0.01173      0.76398      0.00766      0.24817
    0.08586      5.60027      0.63058      3.53140      0.01150      0.77547      0.00778      0.25595
    0.07576      5.69318      0.61208      3.48466      0.01132      0.78680      0.00789      0.26384
    0.06566      5.78609      0.59587      3.44776      0.01119      0.79799      0.00800      0.27184
    0.05556      5.87900      0.58149      3.41857      0.01108      0.80907      0.00812      0.27996
    0.04545      5.97191      0.56862      3.39573      0.01100      0.82007      0.00823      0.28818
    0.03535      6.06482      0.55704      3.37832      0.01093      0.83100      0.00834      0.29652
    0.02525      6.15773      0.54659      3.36573      0.01088      0.84189      0.00845      0.30497
    0.01515      6.25064      0.53715      3.35754      0.01085      0.85274      0.00856      0.31353
    0.00505      6.34355      0.52865      3.35350      0.01083      0.86357      0.00867      0.32220
    0.00000      6.39000      0.00000      0.00000      0.00271      0.86628      0.00437      0.32657
