Time, Horizontal Forces
   0.000000, 1459.364518
   0.000000, 1459.364518
   0.000006, 1459.364508
   0.000054, 1459.364429
   0.001226, 1459.362473
   0.005208, 1459.355830
   0.012180, 1459.344203
   0.022034, 1459.327773
   0.034834, 1459.306439
   0.050646, 1459.280094
   0.069385, 1459.248881
   0.091116, 1459.212694
   0.116078, 1459.171142
   0.144283, 1459.124205
   0.175647, 1459.072027
   0.210347, 1459.014317
   0.247870, 1458.951933
   0.289132, 1458.883354
   0.334020, 1458.808773
   0.382009, 1458.729065
   0.433144, 1458.644160
   0.487976, 1458.553144
   0.546808, 1458.455523
   0.610573, 1458.349750
   0.678004, 1458.237934
   0.749448, 1458.119505
   0.825692, 1457.993162
   0.904702, 1457.862282
   0.988142, 1457.724110
   1.075992, 1457.578688
   1.168868, 1457.424999
   1.266739, 1457.263102
   1.367491, 1457.096501
   1.474305, 1456.919938
   1.587052, 1456.733636
   1.703862, 1456.540694
   1.826705, 1456.337862
   1.954031, 1456.127705
   2.087747, 1455.907088
   2.228970, 1455.674174
   2.372548, 1455.437469
   2.522632, 1455.190134
   2.679805, 1454.931221
   2.841946, 1454.664228
   3.012001, 1454.384319
   3.187568, 1454.095454
   3.369605, 1453.796067
   3.561334, 1453.480872
   3.758829, 1453.156334
   3.960707, 1452.824736
   4.172858, 1452.476412
   4.387173, 1452.124688
   4.613044, 1451.754159
   4.846684, 1451.371053
   5.080836, 1450.987277
   5.328148, 1450.582111
   5.582063, 1450.166314
   5.842758, 1449.739606
   6.109030, 1449.303968
   6.390221, 1448.844132
   6.673104, 1448.381744
   6.972224, 1447.893044
   7.278258, 1447.393285
   7.589991, 1446.884464
   7.912451, 1446.358386
   8.242704, 1445.819853
   8.582706, 1445.265695
   8.933889, 1444.693594
   9.291451, 1444.111390
   9.660467, 1443.510835
  10.036340, 1442.899429
  10.421097, 1442.273885
  10.816838, 1441.630811
  11.228745, 1440.961811
  11.648507, 1440.280410
  12.074036, 1439.590008
  12.515173, 1438.874658
  12.964179, 1438.146933
  13.423002, 1437.403692
  13.895445, 1436.638799
  14.381103, 1435.852938
  14.873667, 1435.056337
  15.372599, 1434.249878
  15.885375, 1433.421493
  16.413703, 1432.568459
  16.948265, 1431.705839
  17.496454, 1430.821723
  18.061617, 1429.910749
  18.635411, 1428.986389
  19.229062, 1428.030593
  19.828899, 1427.065398
  20.445826, 1426.073284
  21.066362, 1425.075947
  21.703470, 1424.052578
  22.354490, 1423.007481
  23.024499, 1421.932545
  23.698244, 1420.852266
  24.387530, 1419.747733
  25.088776, 1418.624716
  25.117278, 1418.579086
  25.204813, 1418.438953
  25.215389, 1418.422022
  25.217400, 1418.418804
  25.219797, 1418.414966
  25.220499, 1418.413842
  25.220625, 1418.413641
  25.220702, 1418.413518
  25.220792, 1418.413374
  25.221697, 1418.411924
  25.230752, 1418.397430
  25.274522, 1418.327365
  25.415966, 1418.100974
  25.802349, 1417.482719
  26.472008, 1416.411810
  27.136488, 1415.349949
  27.809638, 1414.275000
  28.499724, 1413.173801
  29.192980, 1412.068340
  29.901402, 1410.939514
  30.618349, 1409.797934
  31.347197, 1408.638251
  32.088296, 1407.459941
  32.845610, 1406.256740
  33.610900, 1405.041773
  34.388540, 1403.808118
  35.176717, 1402.558683
  35.978134, 1401.289216
  36.795132, 1399.996049
  37.620406, 1398.690776
  38.455126, 1397.371567
  39.306604, 1396.026905
  40.173925, 1394.658281
  41.051509, 1393.274537
  41.937183, 1391.879122
  42.838248, 1390.460565
  43.750245, 1389.025921
  44.677091, 1387.569065
  45.618379, 1386.090680
  46.573272, 1384.592119
  47.545030, 1383.068313
  48.531676, 1381.522409
  49.522424, 1379.971331
  50.545311, 1378.371240
  51.566421, 1376.775235
  52.593496, 1375.171212
  53.648233, 1373.525336
  54.715513, 1371.861265
  55.801741, 1370.169059
  56.897089, 1368.464070
  58.005808, 1366.739712
  59.122356, 1365.004629
  60.256824, 1363.243180
  61.412241, 1361.450722
  62.574501, 1359.649181
  63.753757, 1357.822850
  64.951577, 1355.969357
  66.169197, 1354.086853
  67.396499, 1352.191024
  68.632369, 1350.283610
  69.892273, 1348.340796
  71.174402, 1346.365448
  72.465644, 1344.377816
  73.766970, 1342.376428
  75.086477, 1340.348872
  76.419443, 1338.302454
  77.769412, 1336.231780
  79.136448, 1334.136805
  80.524081, 1332.012180
  81.920471, 1329.876081
  83.331621, 1327.719354
  84.764137, 1325.531961
  86.206330, 1323.331800
  87.668521, 1321.103171
  89.158850, 1318.833750
  90.655615, 1316.556641
  92.174165, 1314.248533
  93.701946, 1311.928557
  95.251615, 1309.577541
  96.816520, 1307.205637
  98.398557, 1304.810024
  99.994870, 1302.395074
 101.613219, 1299.949108
 103.252239, 1297.474263
 103.583892, 1296.973770
 103.801931, 1296.644782
 103.948145, 1296.424192
 104.062875, 1296.251112
 104.156593, 1296.109740
 104.239910, 1295.984065
 104.304493, 1295.886653
 104.357876, 1295.806135
 104.417485, 1295.716231
 104.471323, 1295.635033
 104.481529, 1295.619640
 104.493736, 1295.601230
 104.507622, 1295.580289
 104.510885, 1295.575367
 104.517103, 1295.565989
 104.518810, 1295.563415
 104.519652, 1295.562146
 104.520228, 1295.561277
 104.520631, 1295.560669
 104.520759, 1295.560476
 104.520881, 1295.560292
 104.522106, 1295.558445
 104.533785, 1295.540831
 104.603681, 1295.435423
 104.897754, 1294.992000
 105.942511, 1293.417413
 107.472856, 1291.113142
 108.978526, 1288.848514
 110.502935, 1286.558197
 112.042803, 1284.247186
 113.584332, 1281.936212
 115.147503, 1279.595359
 116.725448, 1277.234986
 118.316763, 1274.857242
 119.921712, 1272.461781
 121.538098, 1270.051928
 123.172334, 1267.618171
 124.824848, 1265.159949
 126.489157, 1262.686958
 128.166270, 1260.197742
 129.855950, 1257.692698
 131.563851, 1255.163500
 133.280955, 1252.623553
 135.018392, 1250.056446
 136.769697, 1247.471802
 138.533868, 1244.871142
 140.312013, 1242.252884
 142.112552, 1239.604701
 143.933853, 1236.929080
 145.769592, 1234.235385
 147.612566, 1231.534219
 149.477314, 1228.804323
 151.365477, 1226.043391
 153.256031, 1223.282212
 155.159059, 1220.506074
 157.086051, 1217.698290
 159.021640, 1214.881312
 160.978865, 1212.036220
 162.949349, 1209.175260
 164.938795, 1206.290214
 166.947190, 1203.381175
 168.967404, 1200.458532
 171.010648, 1197.506129
 173.054425, 1194.556518
 175.131118, 1191.563026
 177.217525, 1188.559185
 179.322177, 1185.532765
 181.446169, 1182.482267
 183.581283, 1179.419551
 185.728530, 1176.343204
 187.901315, 1173.234097
 190.093240, 1170.101478
 192.294777, 1166.959019
 194.517173, 1163.790723
 196.755201, 1160.604112
 199.008325, 1157.400009
 201.279946, 1154.173642
 203.563899, 1150.933826
 205.872024, 1147.663838
 208.200596, 1144.369048
 210.541944, 1141.060376
 212.903013, 1137.728070
 215.278975, 1134.379012
 217.670972, 1131.011649
 220.083695, 1127.619453
 222.512690, 1124.208758
 224.962685, 1120.773002
 227.427946, 1117.320297
 229.904580, 1113.856142
 232.392684, 1110.380437
 234.911130, 1106.866907
 237.446279, 1103.334681
 239.997540, 1099.784645
 242.564511, 1096.217418
 245.152359, 1092.625894
 245.675619, 1091.900265
 246.035474, 1091.401350
 246.285447, 1091.054831
 246.323879, 1091.001559
 246.363886, 1090.946105
 246.406558, 1090.886959
 246.457443, 1090.816431
 246.460431, 1090.812289
 246.462208, 1090.809827
 246.463531, 1090.807993
 246.464456, 1090.806711
 246.465080, 1090.805847
 246.465346, 1090.805478
 246.465605, 1090.805119
 246.468192, 1090.801533
 246.493218, 1090.766846
 246.692071, 1090.491258
 247.407140, 1089.500542
 249.878101, 1086.080603
 252.171543, 1082.911249
 254.480863, 1079.724678
 256.811501, 1076.513477
 259.148086, 1073.298880
 261.498542, 1070.070021
 263.871338, 1066.815355
 266.253386, 1063.552901
 268.650711, 1060.274461
 271.067284, 1056.974683
 273.491307, 1053.669734
 275.921883, 1050.360853
 278.368909, 1047.034612
 280.840727, 1043.679774
 283.320441, 1040.319344
 285.820501, 1036.936510
 288.332124, 1033.543231
 290.856162, 1030.138402
 293.394041, 1026.720154
 295.948057, 1023.285460
 298.516010, 1019.837345
 301.106172, 1016.364787
 303.709962, 1012.879375
 306.324348, 1009.385214
 308.953225, 1005.877149
 311.598494, 1002.352713
 314.261166,  998.810636
 316.943359,  995.248185
 319.634382,  991.679624
 322.347078,  988.087987
 325.062053,  984.498998
 327.797645,  980.888459
 330.552031,  977.258871
 333.314942,  973.623822
 336.097290,  969.969014
 338.902614,  966.289905
 341.719176,  962.601964
 344.551980,  958.898696
 347.394131,  955.189167
 350.251980,  951.465138
 353.123780,  947.728946
 356.017104,  943.970824
 358.925257,  940.199548
 361.846893,  936.416927
 364.774378,  932.632873
 367.733163,  928.814576
 370.698635,  924.993888
 373.676925,  921.162941
 376.675422,  917.312304
 379.693678,  913.442647
 382.725635,  909.561814
 385.773368,  905.667209
 388.833701,  901.762949
 391.914288,  897.839342
 395.008086,  893.905435
 398.113991,  889.962680
 401.240823,  885.999952
 404.384423,  882.022610
 407.538109,  878.039162
 410.714331,  874.033953
 413.911140,  870.009546
 417.116820,  865.980750
 420.341762,  861.934566
 423.577625,  857.881519
 426.831733,  853.812496
 430.099642,  849.733126
 433.384318,  845.639767
 436.684611,  841.533924
 439.999145,  837.417372
 443.340562,  833.274505
 446.696369,  829.120912
 450.069577,  824.952933
 453.451077,  820.781872
 456.847793,  816.599230
 460.263720,  812.400164
 463.701138,  808.181964
 464.392721,  807.334175
 466.953019,  804.198143
 466.980732,  804.164220
 466.990979,  804.151678
 466.993432,  804.148675
 467.011721,  804.126289
 467.028215,  804.106100
 467.136889,  803.973082
 467.761878,  803.208234
 470.660633,  799.663963
 474.110439,  795.452676
 477.586534,  791.216683
 481.083559,  786.962632
 484.596371,  782.696862
 488.134934,  778.407372
 491.681768,  774.115424
 495.241351,  769.815634
 498.831347,  765.486766
 502.428957,  761.156401
 506.042146,  756.814988
 509.678596,  752.453387
 513.340950,  748.068552
 517.004649,  743.689937
 520.694132,  739.288384
 524.401566,  734.873345
 528.122189,  730.450554
 531.853602,  726.022903
 535.613782,  721.569151
 539.389131,  717.105511
 543.177905,  712.634098
 546.992657,  708.140190
 550.816606,  703.643628
 554.649850,  699.144324
 558.504525,  694.628092
 562.379052,  690.096878
 566.268903,  685.556054
 570.184398,  680.993667
 574.108871,  676.429210
 578.054830,  671.848196
 582.012874,  667.261609
 585.996286,  662.654138
 589.989118,  658.044306
 593.996932,  653.425730
 598.027629,  648.789389
 602.073567,  644.144159
 606.142848,  639.480821
 610.224420,  634.812118
 614.328908,  630.125970
 618.447908,  625.432054
 622.592845,  620.717443
 626.754922,  615.992240
 630.928687,  611.262690
 635.118898,  606.523452
 639.328040,  601.771790
 643.552052,  597.012356
 646.210443,  594.021609
 647.795480,  592.240100
 652.051720,  580.868135
 656.332055,  558.326611
 660.636934,  535.686573
 664.964739,  512.949370
 669.314999,  490.124175
 673.684524,  467.217910
 678.067216,  444.252248
 682.479014,  421.232922
 686.908412,  398.112585
 691.352986,  374.941598
 695.816369,  351.725708
 700.305585,  328.442382
 704.799839,  305.094893
 709.316982,  281.740485
 713.850293,  258.320506
 718.397976,  234.864352
 722.974688,  211.360392
 727.555349,  187.790748
 732.156064,  164.227055
 736.768221,  140.622893
 741.385338,  117.021692
 746.021588,   93.427338
 750.665623,   69.806312
 755.320205,   46.196388
 760.004774,   22.558361
 764.688959,   -1.126783
 769.387760,    0.000000
 769.707060,    0.000000
 770.026659,    0.000000
 770.346517,    0.000000
 770.666469,    0.000000
 770.985634,    0.000000
 771.305846,    0.000000
 771.626541,    0.000000
 771.946328,    0.000000
 772.266659,    0.000000
 772.588248,    0.000000
 772.909830,    0.000000
 773.230806,    0.000000
 773.552743,    0.000000
 773.875332,    0.000000
 774.197573,    0.000000
 774.519804,    0.000000
 774.843280,    0.000000
 775.166073,    0.000000
 775.489821,    0.000000
 775.814011,    0.000000
 776.138524,    0.000000
 776.462115,    0.000000
 776.787144,    0.000000
 777.112609,    0.000000
 777.437848,    0.000000
 777.763689,    0.000000
 778.088891,    0.000000
 778.414358,    0.000000
 778.740419,    0.000000
 779.067289,    0.000000
 779.394840,    0.000000
 779.721906,    0.000000
 780.049897,    0.000000
 780.376949,    0.000000
 780.705209,    0.000000
 781.034164,    0.000000
 781.362969,    0.000000
 781.692620,    0.000000
 782.021723,    0.000000
 782.350646,    0.000000
 782.681143,    0.000000
 783.011000,    0.000000
 783.341819,    0.000000
 783.673760,    0.000000
 784.005820,    0.000000
 784.337858,    0.000000
 784.670352,    0.000000
 785.003191,    0.000000
 785.333454,    0.000000
 785.666370,    0.000000
 785.999034,    0.000000
 786.332839,    0.000000
 786.667674,    0.000000
 787.001570,    0.000000
 787.337189,    0.000000
 787.671885,    0.000000
 788.007947,    0.000000
 788.343023,    0.000000
 788.679697,    0.000000
 789.016387,    0.000000
 789.353037,    0.000000
 789.690854,    0.000000
 790.028561,    0.000000
 790.366997,    0.000000
 790.706053,    0.000000
 791.046119,    0.000000
 791.386438,    0.000000
 791.727725,    0.000000
 792.068433,    0.000000
 792.409917,    0.000000
 792.478322,    0.000000
 792.517043,    0.000000
 792.537470,    0.000000
 792.540633,    0.000000
 792.544317,    0.000000
 792.545586,    0.000000
 792.546314,    0.000000
 792.547813,    0.000000
 792.549170,    0.000000
 792.560454,    0.000000
 792.602599,    0.000000
 792.710364,    0.000000
 792.968746,    0.000000
 793.308340,    0.000000
 793.649570,    0.000000
 793.990955,    0.000000
 794.334073,    0.000000
 794.677987,    0.000000
 795.020260,    0.000000
 795.364633,    0.000000
 795.709446,    0.000000
 796.055532,    0.000000
 796.400918,    0.000000
 796.746847,    0.000000
 797.091330,    0.000000
 797.439004,    0.000000
 797.787248,    0.000000
 798.133915,    0.000000
 798.480964,    0.000000
 798.828145,    0.000000
 799.177201,    0.000000
 799.526346,    0.000000
 799.875722,    0.000000
 800.226665,    0.000000
 800.576269,    0.000000
 800.926826,    0.000000
 801.278379,    0.000000
 801.630599,    0.000000
 801.981956,    0.000000
 802.332946,    0.000000
 802.685633,    0.000000
 803.038650,    0.000000
 803.393177,    0.000000
 803.746221,    0.000000
 804.100481,    0.000000
 804.455171,    0.000000
 804.810269,    0.000000
 805.166256,    0.000000
 805.522744,    0.000000
 805.879410,    0.000000
 806.236138,    0.000000
 806.593659,    0.000000
 806.952638,    0.000000
 807.312098,    0.000000
 807.671106,    0.000000
 808.030503,    0.000000
 808.390534,    0.000000
 808.748911,    0.000000
 809.109274,    0.000000
 809.471228,    0.000000
 809.833737,    0.000000
 810.196989,    0.000000
 810.560507,    0.000000
 810.923154,    0.000000
 811.287743,    0.000000
 811.651321,    0.000000
 812.015903,    0.000000
 812.381838,    0.000000
 812.747179,    0.000000
 813.112414,    0.000000
 813.478450,    0.000000
 813.847418,    0.000000
 814.216125,    0.000000
 814.585292,    0.000000
 814.955972,    0.000000
 815.325837,    0.000000
 815.698011,    0.000000
 816.068632,    0.000000
 816.441279,    0.000000
 816.815069,    0.000000
 817.188759,    0.000000
 817.561731,    0.000000
 817.936075,    0.000000
 818.311440,    0.000000
 818.685806,    0.000000
 819.059638,    0.000000
 819.434660,    0.000000
 819.813851,    0.000000
 820.190397,    0.000000
 820.565060,    0.000000
 820.942428,    0.000000
 821.322288,    0.000000
 821.701660,    0.000000
 822.081489,    0.000000
 822.462259,    0.000000
 822.844283,    0.000000
 823.227803,    0.000000
 823.610931,    0.000000
 823.995716,    0.000000
 824.241828,    0.000000
 824.379097,    0.000000
 824.765990,    0.000000
 825.148939,    0.000000
 825.535918,    0.000000
 825.923351,    0.000000
 826.311842,    0.000000
 826.696734,    0.000000
 827.084876,    0.000000
 827.474511,    0.000000
 827.865902,    0.000000
 828.257528,    0.000000
 828.648713,    0.000000
 829.041268,    0.000000
 829.435240,    0.000000
 829.829656,    0.000000
 830.223337,    0.000000
 830.619137,    0.000000
 831.014575,    0.000000
 831.410969,    0.000000
 831.810259,    0.000000
 832.207123,    0.000000
 832.606641,    0.000000
 833.004960,    0.000000
 833.405295,    0.000000
 833.806479,    0.000000
 834.208358,    0.000000
 834.612422,    0.000000
 835.015193,    0.000000
 835.420266,    0.000000
 835.824699,    0.000000
 836.228430,    0.000000
 836.634547,    0.000000
 837.042545,    0.000000
 837.451211,    0.000000
 837.859787,    0.000000
 838.268199,    0.000000
 838.678257,    0.000000
 839.091143,    0.000000
 839.503531,    0.000000
 839.913722,    0.000000
 840.327181,    0.000000
 840.741842,    0.000000
 841.155181,    0.000000
 841.570043,    0.000000
 841.988324,    0.000000
 842.405849,    0.000000
 842.824130,    0.000000
 843.244868,    0.000000
 843.665787,    0.000000
 844.086451,    0.000000
 844.509440,    0.000000
 844.931915,    0.000000
 845.356665,    0.000000
 845.780195,    0.000000
 846.201759,    0.000000
 846.627727,    0.000000
 847.051793,    0.000000
 847.479909,    0.000000
 847.908480,    0.000000
 848.336497,    0.000000
 848.768140,    0.000000
 849.197134,    0.000000
 849.627247,    0.000000
 850.059323,    0.000000
 850.494462,    0.000000
 850.928488,    0.000000
 851.363461,    0.000000
 851.799069,    0.000000
 852.236170,    0.000000
 852.674209,    0.000000
 853.112655,    0.000000
 853.552647,    0.000000
 853.990829,    0.000000
 854.431277,    0.000000
 854.873327,    0.000000
 855.314808,    0.000000
 855.757177,    0.000000
 856.204987,    0.000000
 856.648605,    0.000000
 857.092979,    0.000000
 857.537479,    0.000000
 857.982913,    0.000000
 858.432534,    0.000000
 858.881689,    0.000000
 859.332764,    0.000000
 859.781322,    0.000000
 860.230861,    0.000000
 860.682259,    0.000000
 861.138735,    0.000000
 861.592531,    0.000000
 862.050110,    0.000000
 862.508068,    0.000000
 862.966584,    0.000000
 863.424969,    0.000000
 863.883692,    0.000000
 864.343997,    0.000000
 864.806348,    0.000000
 865.267441,    0.000000
 865.730754,    0.000000
 866.192766,    0.000000
 866.659115,    0.000000
 867.127012,    0.000000
 867.596568,    0.000000
 868.063397,    0.000000
 868.531464,    0.000000
 869.003061,    0.000000
 869.474690,    0.000000
 869.946228,    0.000000
 870.417133,    0.000000
 870.892822,    0.000000
 871.369229,    0.000000
 871.846001,    0.000000
 872.321320,    0.000000
 872.800908,    0.000000
 873.281072,    0.000000
 873.760945,    0.000000
 874.242469,    0.000000
 874.725379,    0.000000
 875.208324,    0.000000
 875.692177,    0.000000
 876.178127,    0.000000
 876.664285,    0.000000
 877.151312,    0.000000
 877.638437,    0.000000
 878.125590,    0.000000
 878.617736,    0.000000
 879.108087,    0.000000
 879.600919,    0.000000
 880.092396,    0.000000
 880.585968,    0.000000
 881.079069,    0.000000
 881.579020,    0.000000
 882.074723,    0.000000
 882.574431,    0.000000
 883.072548,    0.000000
 883.572862,    0.000000
 884.072144,    0.000000
 884.572938,    0.000000
 885.074943,    0.000000
 885.580473,    0.000000
 886.087434,    0.000000
 886.592542,    0.000000
 887.095042,    0.000000
 887.599213,    0.000000
 888.108351,    0.000000
 888.618707,    0.000000
 889.129283,    0.000000
 889.642605,    0.000000
 890.155486,    0.000000
 890.664578,    0.000000
 891.180352,    0.000000
 891.694183,    0.000000
 892.211233,    0.000000
 892.724237,    0.000000
 893.244147,    0.000000
 893.767112,    0.000000
 894.289416,    0.000000
 894.813056,    0.000000
 895.335292,    0.000000
 895.861597,    0.000000
 896.387045,    0.000000
 896.909365,    0.000000
 897.436695,    0.000000
 897.969820,    0.000000
 898.498884,    0.000000
 899.030319,    0.000000
 899.557979,    0.000000
 900.088296,    0.000000
 900.624412,    0.000000
 901.157942,    0.000000
 901.691203,    0.000000
 902.225025,    0.000000
 902.762212,    0.000000
 903.302523,    0.000000
 903.842455,    0.000000
 904.385183,    0.000000
 904.925423,    0.000000
 905.468792,    0.000000
 906.005951,    0.000000
 906.552134,    0.000000
 907.094493,    0.000000
 907.637292,    0.000000
 908.183858,    0.000000
 908.736697,    0.000000
 909.285137,    0.000000
 909.831594,    0.000000
 910.381724,    0.000000
 910.930091,    0.000000
 911.484163,    0.000000
 912.033376,    0.000000
 912.588547,    0.000000
 913.141240,    0.000000
 913.696685,    0.000000
 914.247542,    0.000000
 914.805780,    0.000000
 915.363350,    0.000000
 915.922595,    0.000000
 916.489566,    0.000000
 917.050207,    0.000000
 917.610595,    0.000000
 918.173724,    0.000000
 918.738099,    0.000000
 919.302625,    0.000000
 919.864504,    0.000000
 920.430019,    0.000000
 920.999691,    0.000000
 921.562004,    0.000000
 922.133347,    0.000000
 922.708153,    0.000000
 923.284672,    0.000000
 923.856378,    0.000000
 924.432927,    0.000000
 925.015008,    0.000000
 925.584987,    0.000000
 926.161070,    0.000000
 926.739502,    0.000000
 927.318259,    0.000000
 927.898322,    0.000000
 928.479857,    0.000000
 929.058662,    0.000000
 929.640083,    0.000000
 930.217495,    0.000000
 930.802014,    0.000000
 931.384629,    0.000000
 931.968263,    0.000000
 932.554556,    0.000000
 933.139283,    0.000000
 933.724097,    0.000000
 934.312121,    0.000000
 934.902001,    0.000000
 935.490696,    0.000000
 936.083018,    0.000000
 936.673558,    0.000000
 937.265079,    0.000000
 937.860485,    0.000000
 938.451603,    0.000000
 939.045076,    0.000000
 939.638446,    0.000000
 940.232606,    0.000000
 940.832680,    0.000000
 941.425387,    0.000000
 942.025814,    0.000000
 942.618353,    0.000000
 943.222588,    0.000000
 943.824548,    0.000000
 944.422720,    0.000000
 945.028845,    0.000000
 945.630913,    0.000000
 946.241438,    0.000000
 946.849127,    0.000000
 947.459312,    0.000000
 948.067687,    0.000000
 948.675126,    0.000000
 949.282436,    0.000000
 949.892751,    0.000000
 950.501233,    0.000000
 951.111479,    0.000000
 951.726616,    0.000000
 952.339847,    0.000000
 952.953351,    0.000000
 953.565823,    0.000000
 954.177985,    0.000000
 954.794851,    0.000000
 955.415311,    0.000000
 956.028206,    0.000000
 956.636911,    0.000000
 957.250538,    0.000000
 957.874645,    0.000000
 958.488167,    0.000000
 959.116916,    0.000000
 959.738366,    0.000000
 960.352399,    0.000000
 960.969994,    0.000000
 961.587636,    0.000000
 962.209505,    0.000000
 962.830711,    0.000000
 963.452594,    0.000000
 964.072957,    0.000000
 964.693170,    0.000000
 965.318310,    0.000000
 965.947323,    0.000000
 966.573608,    0.000000
 967.195553,    0.000000
 967.821084,    0.000000
 968.452357,    0.000000
 969.085996,    0.000000
 969.717968,    0.000000
 970.345444,    0.000000
 970.977716,    0.000000
 971.609439,    0.000000
 972.242743,    0.000000
 972.874263,    0.000000
 973.512161,    0.000000
 974.144581,    0.000000
 974.782533,    0.000000
 975.422936,    0.000000
 976.058938,    0.000000
 976.697217,    0.000000
 977.337808,    0.000000
 977.978709,    0.000000
 978.616873,    0.000000
 979.252910,    0.000000
 979.901759,    0.000000
 980.550806,    0.000000
 981.191991,    0.000000
 981.840950,    0.000000
 982.486548,    0.000000
 983.062022,    0.000000
