Time, Horizontal Forces
   0.000000, 15377.592542
   0.000000, 15377.533743
   0.000006, 15377.322638
   0.000054, 15376.789532
   0.001226, 15373.712767
   0.005208, 15369.582757
   0.012180, 15365.337541
   0.022034, 15361.106295
   0.034834, 15356.862353
   0.050646, 15352.596282
   0.069385, 15348.335955
   0.091116, 15344.067499
   0.116078, 15339.755202
   0.144283, 15335.410900
   0.175647, 15331.054992
   0.210347, 15326.669259
   0.247870, 15322.318234
   0.289132, 15317.899883
   0.334020, 15313.439304
   0.382009, 15308.991887
   0.433144, 15304.551681
   0.487976, 15300.073818
   0.546808, 15295.542110
   0.610573, 15290.898906
   0.678004, 15286.246646
   0.749448, 15281.564690
   0.825692, 15276.809332
   0.904702, 15272.108984
   0.988142, 15267.364036
   1.075992, 15262.581323
   1.168868, 15257.733967
   1.266739, 15252.831204
   1.367491, 15247.979442
   1.474305, 15243.028365
   1.587052, 15237.994426
   1.703862, 15232.965631
   1.826705, 15227.861039
   1.954031, 15222.749502
   2.087747, 15217.559080
   2.228970, 15212.256067
   2.372548, 15207.035587
   2.522632, 15201.746146
   2.679805, 15196.374395
   2.841946, 15190.996911
   3.012001, 15185.520840
   3.187568, 15180.028630
   3.369605, 15174.493049
   3.561334, 15168.823698
   3.758829, 15163.142850
   3.960707, 15157.489799
   4.172858, 15151.703902
   4.387173, 15146.008142
   4.613044, 15140.155600
   4.846684, 15134.252350
   5.080836, 15128.478994
   5.328148, 15122.525608
   5.582063, 15116.557136
   5.842758, 15110.570715
   6.109030, 15104.594383
   6.390221, 15098.424859
   6.673104, 15092.355599
   6.972224, 15086.078286
   7.278258, 15079.795740
   7.589991, 15073.532591
   7.912451, 15067.189865
   8.242704, 15060.828498
   8.582706, 15054.413244
   8.933889, 15047.921208
   9.291451, 15041.443214
   9.660467, 15034.889316
  10.036340, 15028.343310
  10.421097, 15021.770543
  10.816838, 15015.137801
  11.228745, 15008.364089
  11.648507, 15001.590227
  12.074036, 14994.849137
  12.515173, 14987.987457
  12.964179, 14981.128915
  13.423002, 14974.244502
  13.895445, 14967.280114
  14.381103, 14960.245827
  14.873667, 14953.234391
  15.372599, 14946.252258
  15.885375, 14939.196065
  16.413703, 14932.046671
  16.948265, 14924.931748
  17.496454, 14917.753744
  18.061617, 14910.473046
  18.635411, 14903.199565
  19.229062, 14895.794173
  19.828899, 14888.429709
  20.445826, 14880.973658
  21.066362, 14873.589521
  21.703470, 14866.123439
  22.354490, 14858.609682
  23.024499, 14850.993223
  23.698244, 14843.448308
  24.387530, 14835.842628
  25.088776, 14828.217605
  25.117278, 14827.910025
  25.204813, 14826.966494
  25.215389, 14826.852610
  25.217400, 14826.830962
  25.219797, 14826.805152
  25.220499, 14826.797594
  25.220625, 14826.796238
  25.220702, 14826.795403
  25.220792, 14826.794129
  25.221697, 14826.781389
  25.230752, 14826.653984
  25.274522, 14826.038449
  25.415966, 14824.053124
  25.802349, 14818.658949
  26.472008, 14809.408806
  27.136488, 14800.349988
  27.809638, 14791.290151
  28.499724, 14782.120374
  29.192980, 14773.024405
  29.901402, 14763.845223
  30.618349, 14754.670500
  31.347197, 14745.457845
  32.088296, 14736.204443
  32.845610, 14726.863333
  33.610900, 14717.537638
  34.388540, 14708.174613
  35.176717, 14698.797184
  35.978134, 14689.374446
  36.795132, 14679.881089
  37.620406, 14670.403148
  38.455126, 14660.927040
  39.306604, 14651.371294
  40.173925, 14641.748871
  41.051509, 14632.123056
  41.937183, 14622.517562
  42.838248, 14612.854029
  43.750245, 14603.181560
  44.677091, 14593.459757
  45.618379, 14583.694608
  46.573272, 14573.896216
  47.545030, 14564.032935
  48.531676, 14554.126757
  49.522424, 14544.285799
  50.545311, 14534.234091
  51.566421, 14524.306493
  52.593496, 14514.425197
  53.648233, 14504.383443
  54.715513, 14494.328077
  55.801741, 14484.200278
  56.897089, 14474.092681
  58.005808, 14463.966215
  59.122356, 14453.871469
  60.256824, 14443.717823
  61.412241, 14433.480490
  62.574501, 14423.285267
  63.753757, 14413.043332
  64.951577, 14402.742819
  66.169197, 14392.375157
  67.396499, 14382.027370
  68.632369, 14371.708313
  69.892273, 14361.290073
  71.174402, 14350.790413
  72.465644, 14340.317687
  73.766970, 14329.863546
  75.086477, 14319.363507
  76.419443, 14308.856092
  77.769412, 14298.314146
  79.136448, 14287.738300
  80.524081, 14277.102752
  81.920471, 14266.498823
  83.331621, 14255.880868
  84.764137, 14245.200408
  86.206330, 14234.545297
  87.668521, 14223.839804
  89.158850, 14213.026663
  90.655615, 14202.264293
  92.174165, 14191.442624
  93.701946, 14180.651692
  95.251615, 14169.802652
  96.816520, 14158.943166
  98.398557, 14148.060706
  99.994870, 14137.175435
 101.613219, 14126.235385
 103.252239, 14115.251259
 103.583892, 14113.040148
 103.801931, 14111.588577
 103.948145, 14110.616104
 104.062875, 14109.853544
 104.156593, 14109.230981
 104.239910, 14108.677771
 104.304493, 14108.249113
 104.357876, 14107.894899
 104.417485, 14107.499495
 104.471323, 14107.142473
 104.481529, 14107.074800
 104.493736, 14106.993869
 104.507622, 14106.901816
 104.510885, 14106.880181
 104.517103, 14106.838962
 104.518810, 14106.827650
 104.519652, 14106.822068
 104.520228, 14106.818253
 104.520631, 14106.815578
 104.520759, 14106.814645
 104.520881, 14106.813596
 104.522106, 14106.803108
 104.533785, 14106.703079
 104.603681, 14106.104571
 104.897754, 14103.588933
 105.942511, 14094.683250
 107.472856, 14081.726370
 108.978526, 14069.078563
 110.502935, 14056.372426
 112.042803, 14043.636544
 113.584332, 14030.984625
 115.147503, 14018.252855
 116.725448, 14005.498571
 118.316763, 13992.733714
 119.921712, 13979.956650
 121.538098, 13967.185169
 123.172334, 13954.369249
 124.824848, 13941.506792
 126.489157, 13928.648938
 128.166270, 13915.788105
 129.855950, 13902.926382
 131.563851, 13890.021424
 133.280955, 13877.141803
 135.018392, 13864.204602
 136.769697, 13851.258923
 138.533868, 13838.312472
 140.312013, 13825.357461
 142.112552, 13812.333599
 143.933853, 13799.254253
 145.769592, 13786.165774
 147.612566, 13773.119388
 149.477314, 13760.012584
 151.365477, 13746.835457
 153.256031, 13733.734895
 155.159059, 13720.640368
 157.086051, 13707.473750
 159.021640, 13694.340658
 160.978865, 13681.153070
 162.949349, 13667.968197
 164.938795, 13654.748441
 166.947190, 13641.494823
 168.967404, 13628.254846
 171.010648, 13614.955716
 173.054425, 13601.743817
 175.131118, 13588.410381
 177.217525, 13575.105552
 179.322177, 13561.775133
 181.446169, 13548.412996
 183.581283, 13535.071185
 185.728530, 13521.743266
 187.901315, 13508.346810
 190.093240, 13494.922461
 192.294777, 13481.528778
 194.517173, 13468.097636
 196.755201, 13454.661269
 199.008325, 13441.223204
 201.279946, 13427.763610
 203.563899, 13414.319312
 205.872024, 13400.821216
 208.200596, 13387.292166
 210.541944, 13373.777131
 212.903013, 13360.236369
 215.278975, 13346.698026
 217.670972, 13333.155838
 220.083695, 13319.583808
 222.512690, 13306.007545
 224.962685, 13292.401189
 227.427946, 13278.797079
 229.904580, 13265.216685
 232.392684, 13251.659266
 234.911130, 13238.022748
 237.446279, 13224.382002
 239.997540, 13210.740489
 242.564511, 13197.100579
 245.152359, 13183.435276
 245.675619, 13180.682485
 246.035474, 13178.791344
 246.285447, 13177.478619
 246.323879, 13177.276864
 246.363886, 13177.066857
 246.406558, 13176.842888
 246.457443, 13176.575841
 246.460431, 13176.560160
 246.462208, 13176.550837
 246.463531, 13176.543893
 246.464456, 13176.539042
 246.465080, 13176.535768
 246.465346, 13176.534283
 246.465605, 13176.532492
 246.468192, 13176.514581
 246.493218, 13176.341331
 246.692071, 13174.965132
 247.407140, 13170.022055
 249.878101, 13153.009299
 252.171543, 13137.312535
 254.480863, 13121.596982
 256.811501, 13105.826532
 259.148086, 13090.105513
 261.498542, 13074.380497
 263.871338, 13058.595653
 266.253386, 13042.838575
 268.650711, 13027.069571
 271.067284, 13011.263199
 273.491307, 12995.496887
 275.921883, 12979.776024
 278.368909, 12964.036642
 280.840727, 12948.226117
 283.320441, 12932.453067
 285.820501, 12916.638612
 288.332124, 12900.838815
 290.856162, 12885.048387
 293.394041, 12869.258600
 295.948057, 12853.455546
 298.516010, 12837.653217
 301.106172, 12821.801397
 303.709962, 12805.953248
 306.324348, 12790.127289
 308.953225, 12774.300047
 311.598494, 12758.460471
 314.261166, 12742.603029
 316.943359, 12726.715768
 319.634382, 12710.862267
 322.347078, 12694.967206
 325.062053, 12679.144252
 327.797645, 12663.286506
 330.552031, 12647.405287
 333.314942, 12631.559981
 336.097290, 12615.688206
 338.902614, 12599.770638
 341.719176, 12583.874353
 344.551980, 12567.971266
 347.394131, 12552.100173
 350.251980, 12536.225661
 353.123780, 12520.357680
 356.017104, 12504.454898
 358.925257, 12488.554636
 361.846893, 12472.664444
 364.774378, 12456.825633
 367.733163, 12440.901057
 370.698635, 12425.023762
 373.676925, 12409.160721
 376.675422, 12393.272939
 379.693678, 12377.363431
 382.725635, 12361.464506
 385.773368, 12345.565470
 388.833701, 12329.683046
 391.914288, 12313.777839
 395.008086, 12297.886566
 398.113991, 12282.014918
 401.240823, 12266.118143
 404.384423, 12250.217884
 407.538109, 12234.348017
 410.714331, 12218.446182
 413.911140, 12202.522827
 417.116820, 12186.636470
 420.341762, 12170.735733
 423.577625, 12154.861918
 426.831733, 12138.979244
 430.099642, 12123.109654
 433.384318, 12107.238928
 436.684611, 12091.372877
 439.999145, 12075.518282
 443.340562, 12059.615224
 446.696369, 12043.723721
 450.069577, 12027.829735
 453.451077, 12011.976175
 456.847793, 11996.130506
 460.263720, 11980.274390
 463.701138, 11964.397750
 464.392721, 11961.213015
 466.953019, 11949.450420
 466.980732, 11949.323337
 466.990979, 11949.276352
 466.993432, 11949.265102
 467.011721, 11949.180259
 467.028215, 11949.103741
 467.136889, 11948.599632
 467.761878, 11945.702014
 470.660633, 11932.296566
 474.110439, 11916.415006
 477.586534, 11900.491005
 481.083559, 11884.549839
 484.596371, 11868.615316
 488.134934, 11852.642754
 491.681768, 11836.711312
 495.241351, 11820.800710
 498.831347, 11804.832545
 502.428957, 11788.908612
 506.042146, 11772.993549
 509.678596, 11757.053921
 513.340950, 11741.078871
 517.004649, 11725.175540
 520.694132, 11709.237860
 524.401566, 11693.300203
 528.122189, 11677.383179
 531.853602, 11661.496962
 535.613782, 11645.565407
 539.389131, 11629.646652
 543.177905, 11613.748095
 546.992657, 11597.817441
 550.816606, 11581.925003
 554.649850, 11566.070122
 558.504525, 11550.202707
 562.379052, 11534.329668
 566.268903, 11518.469795
 570.184398, 11502.581403
 574.108871, 11486.732334
 578.054830, 11470.872154
 582.012874, 11455.038828
 585.996286, 11439.179497
 589.989118, 11423.357865
 593.996932, 11407.551798
 598.027629, 11391.730419
 602.073567, 11375.924017
 606.142848, 11360.101233
 610.224420, 11344.305257
 614.328908, 11328.495166
 618.447908, 11312.703588
 622.592845, 11296.887059
 626.754922, 11281.079541
 630.928687, 11265.301765
 635.118898, 11249.535734
 639.328040, 11233.772290
 643.552052, 11218.026783
 646.210443, 11208.154797
 647.795480, 11202.282421
 652.051720, 11186.547767
 656.332055, 11170.638296
 660.636934, 11154.519584
 664.964739, 11138.203272
 669.314999, 11121.698786
 673.684524, 11105.022673
 678.067216, 11088.202427
 682.479014, 11071.188703
 686.908412, 11054.026098
 691.352986, 11036.731172
 695.816369, 11019.296867
 700.305585, 11001.702893
 704.799839, 10984.027103
 709.316982, 10966.220788
 713.850293, 10948.303959
 718.397976, 10930.290323
 722.974688, 10912.138740
 727.555349, 10893.931257
 732.156064, 10875.631184
 736.768221, 10857.262569
 741.385338, 10838.858208
 746.021588, 10820.380314
 750.665623, 10801.861363
 755.320205, 10783.303305
 760.004774, 10764.644308
 764.688959, 10745.977168
 769.387760, 10727.277953
 769.707060, 10722.716347
 770.026659, 10721.453921
 770.346517, 10720.191027
 770.666469, 10718.928233
 770.985634, 10717.668470
 771.305846, 10716.406580
 771.626541, 10715.142971
 771.946328, 10713.882499
 772.266659, 10712.621620
 772.588248, 10711.356971
 772.909830, 10710.092027
 773.230806, 10708.829656
 773.552743, 10707.565368
 773.875332, 10706.298950
 774.197573, 10705.033801
 774.519804, 10703.769630
 774.843280, 10702.502233
 775.166073, 10701.236723
 775.489821, 10699.969440
 775.814011, 10698.700739
 776.138524, 10697.431404
 776.462115, 10696.165435
 776.787144, 10694.896414
 777.112609, 10693.625650
 777.437848, 10692.356006
 777.763689, 10691.085416
 778.088891, 10689.817121
 778.414358, 10688.549290
 778.740419, 10687.280202
 779.067289, 10686.008945
 779.394840, 10684.735756
 779.721906, 10683.464368
 780.049897, 10682.191324
 780.376949, 10680.921302
 780.705209, 10679.649131
 781.034164, 10678.374720
 781.362969, 10677.101088
 781.692620, 10675.825844
 782.021723, 10674.552502
 782.350646, 10673.281032
 782.681143, 10672.005765
 783.011000, 10670.732120
 783.341819, 10669.456950
 783.673760, 10668.178505
 784.005820, 10666.899741
 784.337858, 10665.621891
 784.670352, 10664.343617
 785.003191, 10663.064884
 785.333454, 10661.794672
 785.666370, 10660.519425
 785.999034, 10659.243795
 786.332839, 10657.965898
 786.667674, 10656.684967
 787.001570, 10655.407056
 787.337189, 10654.125712
 787.671885, 10652.846790
 788.007947, 10651.565533
 788.343023, 10650.287178
 788.679697, 10649.005869
 789.016387, 10647.724280
 789.353037, 10646.443864
 789.690854, 10645.161065
 790.028561, 10643.878738
 790.366997, 10642.595419
 790.706053, 10641.310767
 791.046119, 10640.023726
 791.386438, 10638.736238
 791.727725, 10637.446813
 792.068433, 10636.159460
 792.409917, 10634.871439
 792.478322, 10634.390337
 792.517043, 10634.220054
 792.537470, 10634.128075
 792.540633, 10634.102037
 792.544317, 10634.088571
 792.545586, 10634.081809
 792.546314, 10634.078622
 792.547813, 10634.073939
 792.549170, 10634.069020
 792.560454, 10634.037205
 792.602599, 10633.913306
 792.710364, 10633.585704
 792.968746, 10632.795206
 793.308340, 10631.661753
 793.649570, 10630.458468
 793.990955, 10629.254486
 794.334073, 10628.046761
 794.677987, 10626.836551
 795.020260, 10625.913652
 795.364633, 10624.986169
 795.709446, 10624.058592
 796.055532, 10623.128685
 796.400918, 10622.201754
 796.746847, 10621.274464
 797.091330, 10620.352146
 797.439004, 10619.422389
 797.787248, 10618.492224
 798.133915, 10617.567381
 798.480964, 10616.642632
 798.828145, 10615.718639
 799.177201, 10614.790782
 799.526346, 10613.863817
 799.875722, 10612.937364
 800.226665, 10612.007899
 800.576269, 10611.083112
 800.926826, 10610.156945
 801.278379, 10609.229292
 801.630599, 10608.301030
 801.981956, 10607.376194
 802.332946, 10606.453471
 802.685633, 10605.527444
 803.038650, 10604.601713
 803.393177, 10603.673192
 803.746221, 10602.749720
 804.100481, 10601.824242
 804.455171, 10600.898817
 804.810269, 10599.973506
 805.166256, 10599.047067
 805.522744, 10598.120513
 805.879410, 10597.194691
 806.236138, 10596.269906
 806.593659, 10595.344264
 806.952638, 10594.416058
 807.312098, 10593.487825
 807.671106, 10592.561975
 808.030503, 10591.636340
 808.390534, 10590.710296
 808.748911, 10589.789720
 809.109274, 10588.865269
 809.471228, 10587.937973
 809.833737, 10587.010502
 810.196989, 10586.082378
 810.560507, 10585.154827
 810.923154, 10584.230747
 811.287743, 10583.302982
 811.651321, 10582.379047
 812.015903, 10581.453824
 812.381838, 10580.526440
 812.747179, 10579.601836
 813.112414, 10578.678770
 813.478450, 10577.754959
 813.847418, 10576.825046
 814.216125, 10575.897088
 814.585292, 10574.969277
 814.955972, 10574.038979
 815.325837, 10573.112035
 815.698011, 10572.180630
 816.068632, 10571.254433
 816.441279, 10570.324503
 816.815069, 10569.393064
 817.188759, 10568.463214
 817.561731, 10567.536492
 817.936075, 10566.607712
 818.311440, 10565.677751
 818.685806, 10564.751623
 819.059638, 10563.828165
 819.434660, 10562.903123
 819.813851, 10561.969182
 820.190397, 10561.043132
 820.565060, 10560.123076
 820.942428, 10559.197752
 821.322288, 10558.267715
 821.701660, 10557.340267
 822.081489, 10556.413105
 822.462259, 10555.485052
 822.844283, 10554.555361
 823.227803, 10553.623455
 823.610931, 10552.693936
 823.995716, 10551.761836
 824.241828, 10551.166412
 824.379097, 10550.834572
 824.765990, 10549.900269
 825.148939, 10548.976931
 825.535918, 10548.045332
 825.923351, 10547.114108
 826.311842, 10546.181816
 826.696734, 10545.259619
 827.084876, 10544.331107
 827.474511, 10543.400509
 827.865902, 10542.467216
 828.257528, 10541.534871
 828.648713, 10540.605080
 829.041268, 10539.673547
 829.435240, 10538.740176
 829.829656, 10537.807282
 830.223337, 10536.877659
 830.619137, 10535.944572
 831.014575, 10535.013886
 831.410969, 10534.082496
 831.810259, 10533.145874
 832.207123, 10532.216504
 832.606641, 10531.282493
 833.004960, 10530.352860
 833.405295, 10529.420106
 833.806479, 10528.486970
 834.208358, 10527.553816
 834.612422, 10526.617209
 835.015193, 10525.685212
 835.420266, 10524.749513
 835.824699, 10523.816925
 836.228430, 10522.887580
 836.634547, 10521.954378
 837.042545, 10521.018513
 837.451211, 10520.082778
 837.859787, 10519.148918
 838.268199, 10518.217097
 838.678257, 10517.283200
 839.091143, 10516.344561
 839.503531, 10515.408755
 839.913722, 10514.479628
 840.327181, 10513.544804
 840.741842, 10512.608983
 841.155181, 10511.677864
 841.570043, 10510.745037
 841.988324, 10509.806274
 842.405849, 10508.870964
 842.824130, 10507.935716
 843.244868, 10506.996753
 843.665787, 10506.059168
 844.086451, 10505.123937
 844.509440, 10504.185336
 844.931915, 10503.249677
 845.356665, 10502.310799
 845.780195, 10501.376429
 846.201759, 10500.448199
 846.627727, 10499.512099
 847.051793, 10498.582002
 847.479909, 10497.644870
 847.908480, 10496.708603
 848.336497, 10495.775403
 848.768140, 10494.836182
 849.197134, 10493.904598
 849.627247, 10492.972463
 850.059323, 10492.037966
 850.494462, 10491.098762
 850.928488, 10490.163881
 851.363461, 10489.228885
 851.799069, 10488.294455
 852.236170, 10487.358769
 852.674209, 10486.423026
 853.112655, 10485.488379
 853.552647, 10484.552408
 853.990829, 10483.622254
 854.431277, 10482.689268
 854.873327, 10481.754884
 855.314808, 10480.823699
 855.757177, 10479.892642
 856.204987, 10478.952177
 856.648605, 10478.022543
 857.092979, 10477.093351
 857.537479, 10476.165920
 857.982913, 10475.238577
 858.432534, 10474.304587
 858.881689, 10473.373639
 859.332764, 10472.440800
 859.781322, 10471.515244
 860.230861, 10470.589741
 860.682259, 10469.662509
 861.138735, 10468.726979
 861.592531, 10467.799076
 862.050110, 10466.865586
 862.508068, 10465.933490
 862.966584, 10465.002431
 863.424969, 10464.073808
 863.883692, 10463.146677
 864.343997, 10462.218537
 864.806348, 10461.288482
 865.267441, 10460.363163
 865.730754, 10459.435608
 866.192766, 10458.512873
 866.659115, 10457.583724
 867.127012, 10456.653761
 867.596568, 10455.722785
 868.063397, 10454.799489
 868.531464, 10453.876019
 869.003061, 10452.947888
 869.474690, 10452.022012
 869.946228, 10451.098629
 870.417133, 10450.178797
 870.892822, 10449.251969
 871.369229, 10448.326107
 871.846001, 10447.401907
 872.321320, 10446.482884
 872.800908, 10445.558001
 873.281072, 10444.634416
 873.760945, 10443.713797
 874.242469, 10442.792434
 874.725379, 10441.870856
 875.208324, 10440.951652
 875.692177, 10440.033172
 876.178127, 10439.113182
 876.664285, 10438.195274
 877.151312, 10437.278213
 877.638437, 10436.363457
 878.125590, 10435.451141
 878.617736, 10434.532006
 879.108087, 10433.618757
 879.600919, 10432.703435
 880.092396, 10431.793172
 880.585968, 10430.881590
 881.079069, 10429.973440
 881.579020, 10429.055290
 882.074723, 10428.147541
 882.574431, 10427.235081
 883.072548, 10426.328150
 883.572862, 10425.419854
 884.072144, 10424.516067
 884.572938, 10423.612188
 885.074943, 10422.708785
 885.580473, 10421.801730
 886.087434, 10420.894823
 886.592542, 10419.993937
 887.095042, 10419.100383
 887.599213, 10418.206544
 888.108351, 10417.306634
 888.618707, 10416.407330
 889.129283, 10415.510401
 889.642605, 10414.611438
 890.155486, 10413.716042
 890.664578, 10412.830022
 891.180352, 10411.935182
 891.694183, 10411.046522
 892.211233, 10410.155131
 892.724237, 10409.273526
 893.244147, 10408.382909
 893.767112, 10407.489964
 894.289416, 10406.601054
 894.813056, 10405.712788
 895.335292, 10404.829814
 895.861597, 10403.942904
 896.387045, 10403.060387
 896.909365, 10402.186042
 897.436695, 10401.306267
 897.969820, 10400.419841
 898.498884, 10399.543171
 899.030319, 10398.665584
 899.557979, 10397.797218
 900.088296, 10396.927483
 900.624412, 10396.051294
 901.157942, 10395.182386
 901.691203, 10394.316964
 902.225025, 10393.453682
 902.762212, 10392.588041
 903.302523, 10391.720486
 903.842455, 10390.856670
 904.385183, 10389.991531
 904.925423, 10389.133498
 905.468792, 10388.273657
 906.005951, 10387.426759
 906.552134, 10386.568813
 907.094493, 10385.720047
 907.637292, 10384.873758
 908.183858, 10384.024798
 908.736697, 10383.169366
 909.285137, 10382.323990
 909.831594, 10381.484891
 910.381724, 10380.643401
 910.930091, 10379.807854
 911.484163, 10378.966905
 912.033376, 10378.136599
 912.588547, 10377.300590
 913.141240, 10376.471616
 913.696685, 10375.641835
 914.247542, 10374.822199
 914.805780, 10373.994923
 915.363350, 10373.171996
 915.922595, 10372.349973
 916.489566, 10371.520043
 917.050207, 10370.702798
 917.610595, 10369.889319
 918.173724, 10369.075283
 918.738099, 10368.262890
 919.302625, 10367.453729
 919.864504, 10366.651789
 920.430019, 10365.848112
 920.999691, 10365.042032
 921.562004, 10364.249812
 922.133347, 10363.448383
 922.708153, 10362.645669
 923.284672, 10361.844162
 923.856378, 10361.052908
 924.432927, 10360.258544
 925.015008, 10359.460219
 925.584987, 10358.682058
 926.161070, 10357.899150
 926.739502, 10357.116676
 927.318259, 10356.337402
 927.898322, 10355.560025
 928.479857, 10354.784347
 929.058662, 10354.015963
 929.640083, 10353.247777
 930.217495, 10352.488527
 930.802014, 10351.723630
 931.384629, 10350.964925
 931.968263, 10350.208600
 932.554556, 10349.452566
 933.139283, 10348.702281
 933.724097, 10347.955613
 934.312121, 10347.208604
 934.902001, 10346.463027
 935.490696, 10345.722729
 936.083018, 10344.981687
 936.673558, 10344.246685
 937.265079, 10343.514277
 937.860485, 10342.780918
 938.451603, 10342.056667
 939.045076, 10341.333371
 939.638446, 10340.614047
 940.232606, 10339.897618
 940.832680, 10339.177975
 941.425387, 10338.471031
 942.025814, 10337.758793
 942.618353, 10337.059779
 943.222588, 10336.350920
 943.824548, 10335.648702
 944.422720, 10334.954830
 945.028845, 10334.255725
 945.630913, 10333.565283
 946.241438, 10332.869192
 946.849127, 10332.180390
 947.459312, 10331.492826
 948.067687, 10330.811362
 948.675126, 10330.134991
 949.282436, 10329.462806
 949.892751, 10328.791368
 950.501233, 10328.126009
 951.111479, 10327.462799
 951.726616, 10326.798405
 952.339847, 10326.140200
 952.953351, 10325.485830
 953.565823, 10324.836678
 954.177985, 10324.191968
 954.794851, 10323.546462
 955.415311, 10322.901409
 956.028206, 10322.268369
 956.636911, 10321.643738
 957.250538, 10321.018174
 957.874645, 10320.386167
 958.488167, 10319.769048
 959.116916, 10319.140903
 959.738366, 10318.524317
 960.352399, 10317.919257
 960.969994, 10317.314866
 961.587636, 10316.714622
 962.209505, 10316.114504
 962.830711, 10315.519272
 963.452594, 10314.927638
 964.072957, 10314.341688
 964.693170, 10313.760109
 965.318310, 10313.178191
 965.947323, 10312.597005
 966.573608, 10312.022663
 967.195553, 10311.456571
 967.821084, 10310.891508
 968.452357, 10310.325621
 969.085996, 10309.762023
 969.717968, 10309.204309
 970.345444, 10308.654911
 970.977716, 10308.105696
 971.609439, 10307.561353
 972.242743, 10307.020056
 972.874263, 10306.484681
 973.512161, 10305.948357
 974.144581, 10305.421061
 974.782533, 10304.893613
 975.422936, 10304.368647
 976.058938, 10303.851759
 976.697217, 10303.337498
 977.337808, 10302.825886
 977.978709, 10302.318549
 978.616873, 10301.817874
 979.252910, 10301.323332
 979.901759, 10300.823420
 980.550806, 10300.327994
 981.191991, 10299.843127
 981.840950, 10299.356993
 982.486548, 10298.877981
 983.062022, 10298.454870
