Time, Horizontal Forces
   0.000000, 13918.228023
   0.000000, 13918.169224
   0.000006, 13917.958115
   0.000054, 13917.424974
   0.001226, 13914.347368
   0.005208, 13910.214501
   0.012180, 13905.964283
   0.022034, 13901.725969
   0.034834, 13897.472850
   0.050646, 13893.195446
   0.069385, 13888.921692
   0.091116, 13884.637668
   0.116078, 13880.307497
   0.144283, 13875.943003
   0.175647, 13871.564649
   0.210347, 13867.154090
   0.247870, 13862.776228
   0.289132, 13858.328376
   0.334020, 13853.835714
   0.382009, 13849.354008
   0.433144, 13844.877277
   0.487976, 13840.360260
   0.546808, 13835.786558
   0.610573, 13831.097852
   0.678004, 13826.397491
   0.749448, 13821.664589
   0.825692, 13816.854880
   0.904702, 13812.098230
   0.988142, 13807.293843
   1.075992, 13802.448572
   1.168868, 13797.535102
   1.266739, 13792.562693
   1.367491, 13787.639263
   1.474305, 13782.612232
   1.587052, 13777.498149
   1.703862, 13772.386353
   1.826705, 13767.194507
   1.954031, 13761.992564
   2.087747, 13756.707237
   2.228970, 13751.304028
   2.372548, 13745.981722
   2.522632, 13740.585882
   2.679805, 13735.102751
   2.841946, 13729.610412
   3.012001, 13724.013928
   3.187568, 13718.397454
   3.369605, 13712.733083
   3.561334, 13706.928140
   3.758829, 13701.107682
   3.960707, 13695.311983
   4.172858, 13689.376244
   4.387173, 13683.529177
   4.613044, 13677.517241
   4.846684, 13671.449185
   5.080836, 13665.510736
   5.328148, 13659.383055
   5.582063, 13653.235714
   5.842758, 13647.065731
   6.109030, 13640.901995
   6.390221, 13634.534659
   6.673104, 13628.266487
   6.972224, 13621.778944
   7.278258, 13615.281410
   7.589991, 13608.799376
   7.912451, 13602.230340
   8.242704, 13595.637307
   8.582706, 13588.983663
   8.933889, 13582.245520
   9.291451, 13575.517072
   9.660467, 13568.704826
  10.036340, 13561.895804
  10.421097, 13555.053940
  10.816838, 13548.144559
  11.228745, 13541.083055
  11.648507, 13534.016066
  12.074036, 13526.977977
  12.515173, 13519.808566
  12.964179, 13512.636970
  13.423002, 13505.432829
  13.895445, 13498.139397
  14.381103, 13490.767047
  14.873667, 13483.412927
  15.372599, 13476.083870
  15.885375, 13468.671320
  16.413703, 13461.154966
  16.948265, 13453.668959
  17.496454, 13446.110625
  18.061617, 13438.438042
  18.635411, 13430.766918
  19.229062, 13422.950359
  19.828899, 13415.170686
  20.445826, 13407.287845
  21.066362, 13399.474672
  21.703470, 13391.568355
  22.354490, 13383.605015
  23.024499, 13375.526138
  23.698244, 13367.516506
  24.387530, 13359.435676
  25.088776, 13351.327551
  25.117278, 13351.000342
  25.204813, 13349.996528
  25.215389, 13349.875361
  25.217400, 13349.852328
  25.219797, 13349.824867
  25.220499, 13349.816826
  25.220625, 13349.815384
  25.220702, 13349.814496
  25.220792, 13349.813160
  25.221697, 13349.799796
  25.230752, 13349.666155
  25.274522, 13349.020480
  25.415966, 13346.937766
  25.802349, 13341.277629
  26.472008, 13331.566800
  27.136488, 13322.051188
  27.809638, 13312.528927
  28.499724, 13302.885434
  29.192980, 13293.313916
  29.901402, 13283.649133
  30.618349, 13273.983322
  31.347197, 13264.271793
  32.088296, 13254.511502
  32.845610, 13244.652797
  33.610900, 13234.804445
  34.388540, 13224.910724
  35.176717, 13214.995810
  35.978134, 13205.026969
  36.795132, 13194.977316
  37.620406, 13184.937869
  38.455126, 13174.894262
  39.306604, 13164.760065
  40.173925, 13154.548885
  41.051509, 13144.327808
  41.937183, 13134.122031
  42.838248, 13123.848261
  43.750245, 13113.558633
  44.677091, 13103.210117
  45.618379, 13092.808993
  46.573272, 13082.365947
  47.545030, 13071.847152
  48.531676, 13061.275954
  49.522424, 13050.767750
  50.545311, 13040.027711
  51.566421, 13029.413540
  52.593496, 13018.842221
  53.648233, 13008.092441
  54.715513, 12997.321222
  55.801741, 12986.465466
  56.897089, 12975.624413
  58.005808, 12964.756160
  59.122356, 12953.915011
  60.256824, 12943.003622
  61.412241, 12931.995205
  62.574501, 12921.024992
  63.753757, 12909.997402
  64.951577, 12898.899549
  66.169197, 12887.722067
  67.396499, 12876.558729
  68.632369, 12865.419136
  69.892273, 12854.165132
  71.174402, 12842.815713
  72.465644, 12831.487943
  73.766970, 12820.172841
  75.086477, 12808.800583
  76.419443, 12797.412836
  77.769412, 12785.980123
  79.136448, 12774.503056
  80.524081, 12762.953532
  81.920471, 12751.430692
  83.331621, 12739.884951
  84.764137, 12728.263513
  86.206330, 12716.661933
  87.668521, 12704.997724
  89.158850, 12693.208318
  90.655615, 12681.466376
  92.174165, 12669.651801
  93.701946, 12657.862856
  95.251615, 12646.002451
  96.816520, 12634.122615
  98.398557, 12622.209605
  99.994870, 12610.285465
 101.613219, 12598.293205
 103.252239, 12586.244444
 103.583892, 12583.818030
 103.801931, 12582.224935
 103.948145, 12581.157567
 104.062875, 12580.320551
 104.156593, 12579.637172
 104.239910, 12579.029900
 104.304493, 12578.559337
 104.357876, 12578.170486
 104.417485, 12577.736407
 104.471323, 12577.344454
 104.481529, 12577.270160
 104.493736, 12577.181309
 104.507622, 12577.080248
 104.510885, 12577.056495
 104.517103, 12577.011242
 104.518810, 12576.998822
 104.519652, 12576.992695
 104.520228, 12576.988506
 104.520631, 12576.985569
 104.520759, 12576.984553
 104.520881, 12576.983425
 104.522106, 12576.972142
 104.533785, 12576.864537
 104.603681, 12576.220684
 104.897754, 12573.514293
 105.942511, 12563.931251
 107.472856, 12549.983115
 108.978526, 12536.361105
 110.502935, 12522.669715
 112.042803, 12508.939677
 113.584332, 12495.293618
 115.147503, 12481.554856
 116.725448, 12467.785181
 118.316763, 12453.997460
 119.921712, 12440.189912
 121.538098, 12426.381755
 123.172334, 12412.518877
 124.824848, 12398.598937
 126.489157, 12384.677246
 128.166270, 12370.745596
 129.855950, 12356.806248
 131.563851, 12342.813275
 133.280955, 12328.841014
 135.018392, 12314.799489
 136.769697, 12300.741943
 138.533868, 12286.676734
 140.312013, 12272.595395
 142.112552, 12258.432332
 143.933853, 12244.201982
 145.769592, 12229.954724
 147.612566, 12215.746343
 149.477314, 12201.465187
 151.365477, 12187.100357
 153.256031, 12172.811985
 155.159059, 12158.523213
 157.086051, 12144.148736
 159.021640, 12129.803831
 160.978865, 12115.392335
 162.949349, 12100.976728
 164.938795, 12086.515877
 166.947190, 12072.010842
 168.967404, 12057.513596
 171.010648, 12042.944396
 173.054425, 12028.463627
 175.131118, 12013.842444
 177.217525, 11999.245416
 179.322177, 11984.613086
 181.446169, 11969.938678
 183.581283, 11955.279342
 185.728530, 11940.628033
 187.901315, 11925.894095
 190.093240, 11911.122149
 192.294777, 11896.376637
 194.517173, 11881.582550
 196.755201, 11866.775359
 199.008325, 11851.958947
 201.279946, 11837.111428
 203.563899, 11822.273419
 205.872024, 11807.368632
 208.200596, 11792.422222
 210.541944, 11777.483856
 212.903013, 11762.509595
 215.278975, 11747.530547
 217.670972, 11732.539780
 220.083695, 11717.508488
 222.512690, 11702.465005
 224.962685, 11687.380648
 227.427946, 11672.291246
 229.904580, 11657.220634
 232.392684, 11642.168029
 234.911130, 11627.020053
 237.446279, 11611.859806
 239.997540, 11596.691132
 242.564511, 11581.516664
 245.152359, 11566.306352
 245.675619, 11563.241408
 246.035474, 11561.135643
 246.285447, 11559.673851
 246.323879, 11559.449180
 246.363886, 11559.215318
 246.406558, 11558.965905
 246.457443, 11558.668518
 246.460431, 11558.651055
 246.462208, 11558.640673
 246.463531, 11558.632940
 246.464456, 11558.627537
 246.465080, 11558.623892
 246.465346, 11558.622248
 246.465605, 11558.620303
 246.468192, 11558.600849
 246.493218, 11558.412678
 246.692071, 11556.917926
 247.407140, 11551.548660
 249.878101, 11533.064708
 252.171543, 11516.004544
 254.480863, 11498.918185
 256.811501, 11481.766333
 259.148086, 11464.662452
 261.498542, 11447.548439
 263.871338, 11430.363495
 266.253386, 11413.202968
 268.650711, 11396.023638
 271.067284, 11378.797760
 273.491307, 11361.609719
 275.921883, 11344.465434
 278.368909, 11327.295163
 280.840727, 11310.041446
 283.320441, 11292.822799
 285.820501, 11275.553110
 288.332124, 11258.293585
 290.856162, 11241.038460
 293.394041, 11223.778203
 295.948057, 11206.497605
 298.516010, 11189.211959
 301.106172, 11171.866306
 303.709962, 11154.518795
 306.324348, 11137.189711
 308.953225, 11119.853362
 311.598494, 11102.497636
 314.261166, 11085.116456
 316.943359, 11067.696693
 319.634382, 11050.308060
 322.347078, 11032.867941
 325.062053, 11015.501069
 327.797645, 10998.090133
 330.552031, 10980.647530
 333.314942, 10963.238490
 336.097290, 10945.794483
 338.902614, 10928.294228
 341.719176, 10910.811456
 344.551980, 10893.315289
 347.394131, 10875.848424
 350.251980, 10858.371900
 353.123780, 10840.896676
 356.017104, 10823.377217
 358.925257, 10805.854620
 361.846893, 10788.337212
 364.774378, 10770.870568
 367.733163, 10753.303429
 370.698635, 10735.782543
 373.676925, 10718.271497
 376.675422, 10700.727240
 379.693678, 10683.153074
 382.725635, 10665.584684
 385.773368, 10648.010258
 388.833701, 10630.448292
 391.914288, 10612.855219
 395.008086, 10595.271650
 398.113991, 10577.703899
 401.240823, 10560.102429
 404.384423, 10542.491189
 407.538109, 10524.907714
 410.714331, 10507.282909
 413.911140, 10489.628326
 417.116820, 10472.008852
 420.341762, 10454.367520
 423.577625, 10436.750157
 426.831733, 10419.117061
 430.099642, 10401.492600
 433.384318, 10383.860983
 436.684611, 10366.228672
 439.999145, 10348.603210
 443.340562, 10330.917964
 446.696369, 10313.239660
 450.069577, 10295.552684
 453.451077, 10277.904808
 456.847793, 10260.259841
 460.263720, 10242.597361
 463.701138, 10224.906127
 464.392721, 10221.356689
 466.953019, 10208.245029
 466.980732, 10208.103352
 466.990979, 10208.050972
 466.993432, 10208.038430
 467.011721, 10207.943957
 467.028215, 10207.858755
 467.136889, 10207.297424
 467.761878, 10204.070782
 470.660633, 10189.140651
 474.110439, 10171.447472
 477.586534, 10153.701221
 481.083559, 10135.930039
 484.596371, 10118.160457
 488.134934, 10100.342633
 491.681768, 10082.564872
 495.241351, 10064.804577
 498.831347, 10046.974211
 502.428957, 10029.187432
 506.042146, 10011.404771
 509.678596, 9993.588860
 513.340950, 9975.727532
 517.004649, 9957.940599
 520.694132, 9940.109449
 524.401566, 9922.272522
 528.122189, 9904.452892
 531.853602, 9886.661979
 535.613782, 9868.814499
 539.389131, 9850.975566
 543.177905, 9833.153487
 546.992657, 9815.289634
 550.816606, 9797.462855
 554.649850, 9779.672454
 558.504525, 9761.862237
 562.379052, 9744.039950
 566.268903, 9726.226696
 570.184398, 9708.375647
 574.108871, 9690.563030
 578.054830, 9672.732179
 582.012874, 9654.925785
 585.996286, 9637.084403
 589.989118, 9619.279703
 593.996932, 9601.486808
 598.027629, 9583.670957
 602.073567, 9565.866261
 606.142848, 9548.037392
 610.224420, 9530.233023
 614.328908, 9512.407035
 618.447908, 9494.596219
 622.592845, 9476.751547
 626.754922, 9458.911332
 630.928687, 9441.098988
 635.118898, 9423.294221
 639.328040, 9405.486697
 643.552052, 9387.693767
 646.210443, 9376.535215
 647.795480, 9369.896466
 652.051720, 9353.791964
 656.332055, 9340.354464
 660.636934, 9326.718740
 664.964739, 9312.386515
 669.314999, 9296.321412
 673.684524, 9280.088371
 678.067216, 9263.715726
 682.479014, 9246.517092
 686.908412, 9227.530011
 691.352986, 9208.407988
 695.816369, 9189.142279
 700.305585, 9169.252686
 704.799839, 9147.272175
 709.316982, 9125.156781
 713.850293, 9102.920471
 718.397976, 9080.581365
 722.974688, 9055.950111
 727.555349, 9031.151729
 732.156064, 9006.261670
 736.768221, 8981.292339
 741.385338, 8955.099735
 746.021588, 8927.968017
 750.665623, 8900.784400
 755.320205, 8873.565770
 760.004774, 8846.209909
 764.688959, 8816.689285
 769.387760, 8787.156465
 769.707060, 8771.731827
 770.026659, 8767.390743
 770.346517, 8762.996087
 770.666469, 8758.549791
 770.985634, 8754.062441
 771.305846, 8749.515240
 771.626541, 8744.909807
 771.946328, 8740.264119
 772.266659, 8735.564500
 772.588248, 8730.798280
 772.909830, 8725.978929
 773.230806, 8721.117267
 773.552743, 8716.195109
 773.875332, 8711.212108
 774.197573, 8706.181901
 774.519804, 8701.102755
 774.843280, 8695.957056
 775.166073, 8690.767272
 775.489821, 8685.516176
 775.814011, 8680.206346
 776.138524, 8674.840627
 776.462115, 8669.436891
 776.787144, 8663.964938
 777.112609, 8658.432685
 777.437848, 8652.852257
 777.763689, 8647.213226
 778.088891, 8641.474969
 778.414358, 8635.559836
 778.740419, 8629.584718
 779.067289, 8623.545094
 779.394840, 8617.441959
 779.721906, 8611.293828
 780.049897, 8605.082151
 780.376949, 8598.832146
 780.705209, 8592.515281
 781.034164, 8586.132816
 781.362969, 8579.700023
 781.692620, 8573.203068
 782.021723, 8566.661986
 782.350646, 8560.075133
 782.681143, 8553.411494
 783.011000, 8546.703260
 783.341819, 8539.929702
 783.673760, 8533.082667
 784.005820, 8526.179028
 784.337858, 8519.224393
 784.670352, 8512.210649
 785.003191, 8505.138184
 785.333454, 8498.060874
 785.666370, 8490.892209
 785.999034, 8483.669111
 786.332839, 8476.374531
 786.667674, 8469.005802
 787.001570, 8461.600523
 787.337189, 8454.113940
 787.671885, 8446.588538
 788.007947, 8438.988157
 788.343023, 8431.351565
 788.679697, 8423.635178
 789.016387, 8415.862049
 789.353037, 8408.038236
 789.690854, 8400.139463
 790.028561, 8392.187729
 790.366997, 8384.169735
 790.706053, 8376.084920
 791.046119, 8367.925241
 791.386438, 8359.705054
 791.727725, 8351.411473
 792.068433, 8343.075015
 792.409917, 8334.671585
 792.478322, 8332.140156
 792.517043, 8331.089583
 792.537470, 8330.526958
 792.540633, 8330.395542
 792.544317, 8330.305755
 792.545586, 8330.266849
 792.546314, 8330.247136
 792.547813, 8330.212645
 792.549170, 8330.178856
 792.560454, 8329.931984
 792.602599, 8328.990546
 792.710364, 8326.540017
 792.968746, 8320.629106
 793.308340, 8312.461035
 793.649570, 8303.956253
 793.990955, 8295.391048
 794.334073, 8286.734916
 794.677987, 8278.003235
 795.020260, 8270.346918
 795.364633, 8262.629855
 795.709446, 8254.889160
 796.055532, 8247.106023
 796.400918, 8239.324826
 796.746847, 8231.517592
 797.091330, 8223.729309
 797.439004, 8215.855032
 797.787248, 8207.953945
 798.133915, 8200.074842
 798.480964, 8192.173309
 798.828145, 8184.254981
 799.177201, 8176.280070
 799.526346, 8168.289284
 799.875722, 8160.279334
 800.226665, 8152.219574
 800.576269, 8144.176699
 800.926826, 8136.098064
 801.278379, 8127.982576
 801.630599, 8119.837748
 801.981956, 8111.699025
 802.332946, 8103.554996
 802.685633, 8095.357736
 803.038650, 8087.138921
 803.393177, 8078.870977
 803.746221, 8070.623728
 804.100481, 8062.334206
 804.455171, 8054.020707
 804.810269, 8045.683713
 805.166256, 8037.311912
 805.522744, 8028.914339
 805.879410, 8020.498616
 806.236138, 8012.067500
 806.593659, 8003.603667
 806.952638, 7995.091288
 807.312098, 7986.553436
 807.671106, 7978.012304
 808.030503, 7969.447907
 808.390534, 7960.854394
 808.748911, 7952.286426
 809.109274, 7943.657029
 809.471228, 7934.975457
 809.833737, 7926.266495
 810.196989, 7917.525534
 810.560507, 7908.764042
 810.923154, 7900.009476
 811.287743, 7891.193932
 811.651321, 7882.388749
 812.015903, 7873.545175
 812.381838, 7864.654625
 812.747179, 7855.764396
 813.112414, 7846.862658
 813.478450, 7837.927336
 813.847418, 7828.906224
 814.216125, 7819.877207
 814.585292, 7810.822704
 814.955972, 7801.716803
 815.325837, 7792.616634
 815.698011, 7783.445321
 816.068632, 7774.297997
 816.441279, 7765.086351
 816.815069, 7755.832067
 817.188759, 7746.565834
 817.561731, 7737.303109
 817.936075, 7727.991987
 818.311440, 7718.641027
 818.685806, 7709.300658
 819.059638, 7699.959340
 819.434660, 7690.574002
 819.813851, 7681.069840
 820.190397, 7671.617551
 820.565060, 7662.198323
 820.942428, 7652.696784
 821.322288, 7643.118049
 821.701660, 7633.537133
 822.081489, 7623.930270
 822.462259, 7614.285120
 822.844283, 7604.593691
 823.227803, 7594.849684
 823.610931, 7585.101091
 823.995716, 7575.295697
 824.241828, 7569.016390
 824.379097, 7565.511514
 824.765990, 7555.623020
 825.148939, 7545.820843
 825.535918, 7535.900893
 825.923351, 7525.954612
 826.311842, 7515.966444
 826.696734, 7506.056304
 827.084876, 7496.047903
 827.474511, 7485.986305
 827.865902, 7475.864551
 828.257528, 7465.721928
 828.648713, 7455.575974
 829.041268, 7445.379709
 829.435240, 7435.131773
 829.829656, 7424.857397
 830.223337, 7414.587382
 830.619137, 7404.247213
 831.014575, 7393.901662
 831.410969, 7383.516187
 831.810259, 7373.039850
 832.207123, 7362.612252
 832.606641, 7352.099954
 833.004960, 7341.604291
 833.405295, 7331.040546
 833.806479, 7320.439391
 834.208358, 7309.804817
 834.612422, 7299.097316
 835.015193, 7288.408997
 835.420266, 7277.644437
 835.824699, 7266.881819
 836.228430, 7256.122862
 836.634547, 7245.285192
 837.042545, 7234.382162
 837.451211, 7223.446006
 837.859787, 7212.497067
 838.268199, 7201.537343
 838.678257, 7190.518247
 839.091143, 7179.407794
 839.503531, 7168.295365
 839.913722, 7157.227001
 840.327181, 7146.055166
 840.741842, 7134.835471
 841.155181, 7123.636285
 841.570043, 7112.380511
 841.988324, 7101.016512
 842.405849, 7089.657618
 842.824130, 7078.262691
 843.244868, 7066.785283
 843.665787, 7055.287361
 844.086451, 7043.780904
 844.509440, 7032.195249
 844.931915, 7020.608086
 845.356665, 7008.942919
 845.780195, 6997.295634
 846.201759, 6985.687034
 846.627727, 6973.941593
 847.051793, 6962.233091
 847.479909, 6950.397112
 847.908480, 6938.532863
 848.336497, 6926.668291
 848.768140, 6914.687435
 849.197134, 6902.764427
 849.627247, 6890.794715
 850.059323, 6878.754636
 850.494462, 6866.613327
 850.928488, 6854.487245
 851.363461, 6842.318908
 851.799069, 6830.116956
 852.236170, 6817.857354
 852.674209, 6805.555492
 853.112655, 6793.226356
 853.552647, 6780.837775
 853.990829, 6768.484339
 854.431277, 6756.051143
 854.873327, 6743.556780
 855.314808, 6731.062593
 855.757177, 6718.527366
 856.204987, 6705.821819
 856.648605, 6693.219221
 857.092979, 6680.579278
 857.537479, 6667.919834
 857.982913, 6655.217923
 858.432534, 6642.380555
 858.881689, 6629.540422
 859.332764, 6616.629262
 859.781322, 6603.774181
 860.230861, 6590.875048
 860.682259, 6577.906591
 861.138735, 6564.775966
 861.592531, 6551.706314
 862.050110, 6538.511408
 862.508068, 6525.289306
 862.966584, 6512.034838
 863.424969, 6498.767885
 863.883692, 6485.474977
 864.343997, 6472.119976
 864.806348, 6458.689318
 865.267441, 6445.278959
 865.730754, 6431.787745
 866.192766, 6418.318196
 866.659115, 6404.705880
 867.127012, 6391.031921
 867.596568, 6377.292938
 868.063397, 6363.617433
 868.531464, 6349.889323
 869.003061, 6336.041192
 869.474690, 6322.175678
 869.946228, 6308.296402
 870.417133, 6294.419424
 870.892822, 6280.384976
 871.369229, 6266.312752
 871.846001, 6252.213204
 872.321320, 6238.140160
 872.800908, 6223.924178
 873.281072, 6209.674512
 873.760945, 6195.416908
 874.242469, 6181.093694
 874.725379, 6166.712622
 875.208324, 6152.313907
 875.692177, 6137.871560
 876.178127, 6123.349982
 876.664285, 6108.805530
 877.151312, 6094.218471
 877.638437, 6079.611879
 878.125590, 6064.987932
 878.617736, 6050.197375
 879.108087, 6035.444122
 879.600919, 6020.599523
 880.092396, 6005.779101
 880.585968, 5990.878918
 881.079069, 5975.976370
 881.579020, 5960.849931
 882.074723, 5945.835312
 882.574431, 5930.682634
 883.072548, 5915.561535
 883.572862, 5900.357008
 884.072144, 5885.167216
 884.572938, 5869.914787
 885.074943, 5854.608836
 885.580473, 5839.178624
 886.087434, 5823.687882
 886.592542, 5808.237052
 887.095042, 5792.849517
 887.599213, 5777.394305
 888.108351, 5761.770188
 888.618707, 5746.091951
 889.129283, 5730.390221
 889.642605, 5714.587266
 890.155486, 5698.781156
 890.664578, 5683.075309
 891.180352, 5667.146642
 891.694183, 5651.261315
 892.211233, 5635.259835
 892.724237, 5619.367064
 893.244147, 5603.243665
 893.767112, 5587.008682
 894.289416, 5570.777389
 894.813056, 5554.487774
 895.335292, 5538.225129
 895.861597, 5521.819006
 896.387045, 5505.422886
 896.909365, 5489.107820
 897.436695, 5472.619676
 897.969820, 5455.933400
 898.498884, 5439.357522
 899.030319, 5422.690620
 899.557979, 5406.125623
 900.088296, 5389.460749
 900.624412, 5372.596879
 901.157942, 5355.797727
 901.691203, 5338.990560
 902.225025, 5322.149240
 902.762212, 5305.185230
 903.302523, 5288.105875
 903.842455, 5271.021923
 904.385183, 5253.832810
 904.925423, 5236.705981
 905.468792, 5219.463412
 906.005951, 5202.401654
 906.552134, 5185.036778
 907.094493, 5167.777150
 907.637292, 5150.487240
 908.183858, 5133.060973
 908.736697, 5115.418127
 909.285137, 5097.899224
 909.831594, 5080.427447
 910.381724, 5062.821993
 910.930091, 5045.256817
 911.484163, 5027.492587
 912.033376, 5009.868078
 912.588547, 4992.036135
 913.141240, 4974.267696
 913.696685, 4956.394663
 914.247542, 4938.653438
 914.805780, 4920.658429
 915.363350, 4902.668894
 915.922595, 4884.609322
 916.489566, 4866.283951
 917.050207, 4848.147144
 917.610595, 4830.002634
 918.173724, 4811.753486
 918.738099, 4793.448063
 919.302625, 4775.121891
 919.864504, 4756.866000
 920.430019, 4738.476281
 920.999691, 4719.935559
 921.562004, 4701.618826
 922.133347, 4682.992279
 922.708153, 4664.236988
 923.284672, 4645.409900
 923.856378, 4626.724335
 924.432927, 4607.864801
 925.015008, 4588.808436
 925.584987, 4570.132899
 926.161070, 4551.241979
 926.739502, 4532.258533
 927.318259, 4513.249011
 927.898322, 4494.181225
 928.479857, 4475.049637
 929.058662, 4455.992682
 929.640083, 4436.834412
 930.217495, 4417.793255
 930.802014, 4398.502649
 931.384629, 4379.259822
 931.968263, 4359.968374
 932.554556, 4340.574072
 933.139283, 4321.216687
 933.724097, 4301.841676
 934.312121, 4282.345513
 934.902001, 4262.773000
 935.490696, 4243.225064
 936.083018, 4223.542008
 936.673558, 4203.903536
 937.265079, 4184.217881
 937.860485, 4164.388363
 938.451603, 4144.687213
 939.045076, 4124.893272
 939.638446, 4105.088479
 940.232606, 4085.243083
 940.832680, 4065.185837
 941.425387, 4045.360785
 942.025814, 4025.263346
 942.618353, 4005.416111
 943.222588, 3985.162991
 943.824548, 3964.972104
 944.422720, 3944.894455
 945.028845, 3924.535920
 945.630913, 3904.299916
 946.241438, 3883.765684
 946.849127, 3863.313043
 947.459312, 3842.762581
 948.067687, 3822.259419
 948.675126, 3801.774292
 949.282436, 3781.280134
 949.892751, 3760.671179
 950.501233, 3740.110840
 951.111479, 3719.477686
 951.726616, 3698.665876
 952.339847, 3677.905357
 952.953351, 3657.122567
 953.565823, 3636.361764
 954.177985, 3615.598658
 954.794851, 3594.663145
 955.415311, 3573.592723
 956.028206, 3552.766583
 956.636911, 3532.070506
 957.250538, 3511.194742
 957.874645, 3489.949849
 958.488167, 3469.052989
 959.116916, 3447.624964
 959.738366, 3426.433315
 960.352399, 3405.482648
 960.969994, 3384.398516
 961.587636, 3363.300971
 962.209505, 3342.047138
 962.830711, 3320.804230
 963.452594, 3299.526442
 964.072957, 3278.289122
 964.693170, 3257.045522
 965.318310, 3235.621677
 965.947323, 3214.053583
 966.573608, 3192.567677
 967.195553, 3171.219509
 967.821084, 3149.737198
 968.452357, 3128.046507
 969.085996, 3106.263337
 969.717968, 3084.526475
 970.345444, 3062.933422
 970.977716, 3041.164523
 971.609439, 3019.403846
 972.242743, 2997.578044
 972.874263, 2975.803235
 973.512161, 2953.797977
 974.144581, 2931.971346
 974.782533, 2909.943422
 975.422936, 2887.820557
 976.058938, 2865.839612
 976.697217, 2843.769882
 977.337808, 2821.610211
 977.978709, 2799.429867
 978.616873, 2777.334502
 979.252910, 2755.303198
 979.901759, 2732.818362
 980.550806, 2710.316905
 981.191991, 2688.078533
 981.840950, 2665.561091
 982.486548, 2643.150951
 983.062022, 2623.167179
