Time, Horizontal Forces
   0.000000,    0.000000
   0.000000,    0.000000
   0.000006,    0.000000
   0.000054,    0.000000
   0.001226,    0.000000
   0.005208,    0.000000
   0.012180,    0.000000
   0.022034,    0.000000
   0.034834,    0.000000
   0.050646,    0.000000
   0.069385,    0.000000
   0.091116,    0.000000
   0.116078,    0.000000
   0.144283,    0.000000
   0.175647,    0.000000
   0.210347,    0.000000
   0.247870,    0.000000
   0.289132,    0.000000
   0.334020,    0.000000
   0.382009,    0.000000
   0.433144,    0.000000
   0.487976,    0.000000
   0.546808,    0.000000
   0.610573,    0.000000
   0.678004,    0.000000
   0.749448,    0.000000
   0.825692,    0.000000
   0.904702,    0.000000
   0.988142,    0.000000
   1.075992,    0.000000
   1.168868,    0.000000
   1.266739,    0.000000
   1.367491,    0.000000
   1.474305,    0.000000
   1.587052,    0.000000
   1.703862,    0.000000
   1.826705,    0.000000
   1.954031,    0.000000
   2.087747,    0.000000
   2.228970,    0.000000
   2.372548,    0.000000
   2.522632,    0.000000
   2.679805,    0.000000
   2.841946,    0.000000
   3.012001,    0.000000
   3.187568,    0.000000
   3.369605,    0.000000
   3.561334,    0.000000
   3.758829,    0.000000
   3.960707,    0.000000
   4.172858,    0.000000
   4.387173,    0.000000
   4.613044,    0.000000
   4.846684,    0.000000
   5.080836,    0.000000
   5.328148,    0.000000
   5.582063,    0.000000
   5.842758,    0.000000
   6.109030,    0.000000
   6.390221,    0.000000
   6.673104,    0.000000
   6.972224,    0.000000
   7.278258,    0.000000
   7.589991,    0.000000
   7.912451,    0.000000
   8.242704,    0.000000
   8.582706,    0.000000
   8.933889,    0.000000
   9.291451,    0.000000
   9.660467,    0.000000
  10.036340,    0.000000
  10.421097,    0.000000
  10.816838,    0.000000
  11.228745,    0.000000
  11.648507,    0.000000
  12.074036,    0.000000
  12.515173,    0.000000
  12.964179,    0.000000
  13.423002,    0.000000
  13.895445,    0.000000
  14.381103,    0.000000
  14.873667,    0.000000
  15.372599,    0.000000
  15.885375,    0.000000
  16.413703,    0.000000
  16.948265,    0.000000
  17.496454,    0.000000
  18.061617,    0.000000
  18.635411,    0.000000
  19.229062,    0.000000
  19.828899,    0.000000
  20.445826,    0.000000
  21.066362,    0.000000
  21.703470,    0.000000
  22.354490,    0.000000
  23.024499,    0.000000
  23.698244,    0.000000
  24.387530,    0.000000
  25.088776,    0.000000
  25.117278,    0.000000
  25.204813,    0.000000
  25.215389,    0.000000
  25.217400,    0.000000
  25.219797,    0.000000
  25.220499,    0.000000
  25.220625,    0.000000
  25.220702,    0.000000
  25.220792,    0.000000
  25.221697,    0.000000
  25.230752,    0.000000
  25.274522,    0.000000
  25.415966,    0.000000
  25.802349,    0.000000
  26.472008,    0.000000
  27.136488,    0.000000
  27.809638,    0.000000
  28.499724,    0.000000
  29.192980,    0.000000
  29.901402,    0.000000
  30.618349,    0.000000
  31.347197,    0.000000
  32.088296,    0.000000
  32.845610,    0.000000
  33.610900,    0.000000
  34.388540,    0.000000
  35.176717,    0.000000
  35.978134,    0.000000
  36.795132,    0.000000
  37.620406,    0.000000
  38.455126,    0.000000
  39.306604,    0.000000
  40.173925,    0.000000
  41.051509,    0.000000
  41.937183,    0.000000
  42.838248,    0.000000
  43.750245,    0.000000
  44.677091,    0.000000
  45.618379,    0.000000
  46.573272,    0.000000
  47.545030,    0.000000
  48.531676,    0.000000
  49.522424,    0.000000
  50.545311,    0.000000
  51.566421,    0.000000
  52.593496,    0.000000
  53.648233,    0.000000
  54.715513,    0.000000
  55.801741,    0.000000
  56.897089,    0.000000
  58.005808,    0.000000
  59.122356,    0.000000
  60.256824,    0.000000
  61.412241,    0.000000
  62.574501,    0.000000
  63.753757,    0.000000
  64.951577,    0.000000
  66.169197,    0.000000
  67.396499,    0.000000
  68.632369,    0.000000
  69.892273,    0.000000
  71.174402,    0.000000
  72.465644,    0.000000
  73.766970,    0.000000
  75.086477,    0.000000
  76.419443,    0.000000
  77.769412,    0.000000
  79.136448,    0.000000
  80.524081,    0.000000
  81.920471,    0.000000
  83.331621,    0.000000
  84.764137,    0.000000
  86.206330,    0.000000
  87.668521,    0.000000
  89.158850,    0.000000
  90.655615,    0.000000
  92.174165,    0.000000
  93.701946,    0.000000
  95.251615,    0.000000
  96.816520,    0.000000
  98.398557,    0.000000
  99.994870,    0.000000
 101.613219,    0.000000
 103.252239,    0.000000
 103.583892,    0.000000
 103.801931,    0.000000
 103.948145,    0.000000
 104.062875,    0.000000
 104.156593,    0.000000
 104.239910,    0.000000
 104.304493,    0.000000
 104.357876,    0.000000
 104.417485,    0.000000
 104.471323,    0.000000
 104.481529,    0.000000
 104.493736,    0.000000
 104.507622,    0.000000
 104.510885,    0.000000
 104.517103,    0.000000
 104.518810,    0.000000
 104.519652,    0.000000
 104.520228,    0.000000
 104.520631,    0.000000
 104.520759,    0.000000
 104.520881,    0.000000
 104.522106,    0.000000
 104.533785,    0.000000
 104.603681,    0.000000
 104.897754,    0.000000
 105.942511,    0.000000
 107.472856,    0.000000
 108.978526,    0.000000
 110.502935,    0.000000
 112.042803,    0.000000
 113.584332,    0.000000
 115.147503,    0.000000
 116.725448,    0.000000
 118.316763,    0.000000
 119.921712,    0.000000
 121.538098,    0.000000
 123.172334,    0.000000
 124.824848,    0.000000
 126.489157,    0.000000
 128.166270,    0.000000
 129.855950,    0.000000
 131.563851,    0.000000
 133.280955,    0.000000
 135.018392,    0.000000
 136.769697,    0.000000
 138.533868,    0.000000
 140.312013,    0.000000
 142.112552,    0.000000
 143.933853,    0.000000
 145.769592,    0.000000
 147.612566,    0.000000
 149.477314,    0.000000
 151.365477,    0.000000
 153.256031,    0.000000
 155.159059,    0.000000
 157.086051,    0.000000
 159.021640,    0.000000
 160.978865,    0.000000
 162.949349,    0.000000
 164.938795,    0.000000
 166.947190,    0.000000
 168.967404,    0.000000
 171.010648,    0.000000
 173.054425,    0.000000
 175.131118,    0.000000
 177.217525,    0.000000
 179.322177,    0.000000
 181.446169,    0.000000
 183.581283,    0.000000
 185.728530,    0.000000
 187.901315,    0.000000
 190.093240,    0.000000
 192.294777,    0.000000
 194.517173,    0.000000
 196.755201,    0.000000
 199.008325,    0.000000
 201.279946,    0.000000
 203.563899,    0.000000
 205.872024,    0.000000
 208.200596,    0.000000
 210.541944,    0.000000
 212.903013,    0.000000
 215.278975,    0.000000
 217.670972,    0.000000
 220.083695,    0.000000
 222.512690,    0.000000
 224.962685,    0.000000
 227.427946,    0.000000
 229.904580,    0.000000
 232.392684,    0.000000
 234.911130,    0.000000
 237.446279,    0.000000
 239.997540,    0.000000
 242.564511,    0.000000
 245.152359,    0.000000
 245.675619,    0.000000
 246.035474,    0.000000
 246.285447,    0.000000
 246.323879,    0.000000
 246.363886,    0.000000
 246.406558,    0.000000
 246.457443,    0.000000
 246.460431,    0.000000
 246.462208,    0.000000
 246.463531,    0.000000
 246.464456,    0.000000
 246.465080,    0.000000
 246.465346,    0.000000
 246.465605,    0.000000
 246.468192,    0.000000
 246.493218,    0.000000
 246.692071,    0.000000
 247.407140,    0.000000
 249.878101,    0.000000
 252.171543,    0.000000
 254.480863,    0.000000
 256.811501,    0.000000
 259.148086,    0.000000
 261.498542,    0.000000
 263.871338,    0.000000
 266.253386,    0.000000
 268.650711,    0.000000
 271.067284,    0.000000
 273.491307,    0.000000
 275.921883,    0.000000
 278.368909,    0.000000
 280.840727,    0.000000
 283.320441,    0.000000
 285.820501,    0.000000
 288.332124,    0.000000
 290.856162,    0.000000
 293.394041,    0.000000
 295.948057,    0.000000
 298.516010,    0.000000
 301.106172,    0.000000
 303.709962,    0.000000
 306.324348,    0.000000
 308.953225,    0.000000
 311.598494,    0.000000
 314.261166,    0.000000
 316.943359,    0.000000
 319.634382,    0.000000
 322.347078,    0.000000
 325.062053,    0.000000
 327.797645,    0.000000
 330.552031,    0.000000
 333.314942,    0.000000
 336.097290,    0.000000
 338.902614,    0.000000
 341.719176,    0.000000
 344.551980,    0.000000
 347.394131,    0.000000
 350.251980,    0.000000
 353.123780,    0.000000
 356.017104,    0.000000
 358.925257,    0.000000
 361.846893,    0.000000
 364.774378,    0.000000
 367.733163,    0.000000
 370.698635,    0.000000
 373.676925,    0.000000
 376.675422,    0.000000
 379.693678,    0.000000
 382.725635,    0.000000
 385.773368,    0.000000
 388.833701,    0.000000
 391.914288,    0.000000
 395.008086,    0.000000
 398.113991,    0.000000
 401.240823,    0.000000
 404.384423,    0.000000
 407.538109,    0.000000
 410.714331,    0.000000
 413.911140,    0.000000
 417.116820,    0.000000
 420.341762,    0.000000
 423.577625,    0.000000
 426.831733,    0.000000
 430.099642,    0.000000
 433.384318,    0.000000
 436.684611,    0.000000
 439.999145,    0.000000
 443.340562,    0.000000
 446.696369,    0.000000
 450.069577,    0.000000
 453.451077,    0.000000
 456.847793,    0.000000
 460.263720,    0.000000
 463.701138,    0.000000
 464.392721,    0.000000
 466.953019,    0.000000
 466.980732,    0.000000
 466.990979,    0.000000
 466.993432,    0.000000
 467.011721,    0.000000
 467.028215,    0.000000
 467.136889,    0.000000
 467.761878,    0.000000
 470.660633,    0.000000
 474.110439,    0.000000
 477.586534,    0.000000
 481.083559,    0.000000
 484.596371,    0.000000
 488.134934,    0.000000
 491.681768,    0.000000
 495.241351,    0.000000
 498.831347,    0.000000
 502.428957,    0.000000
 506.042146,    0.000000
 509.678596,    0.000000
 513.340950,    0.000000
 517.004649,    0.000000
 520.694132,    0.000000
 524.401566,    0.000000
 528.122189,    0.000000
 531.853602,    0.000000
 535.613782,    0.000000
 539.389131,    0.000000
 543.177905,    0.000000
 546.992657,    0.000000
 550.816606,    0.000000
 554.649850,    0.000000
 558.504525,    0.000000
 562.379052,    0.000000
 566.268903,    0.000000
 570.184398,    0.000000
 574.108871,    0.000000
 578.054830,    0.000000
 582.012874,    0.000000
 585.996286,    0.000000
 589.989118,    0.000000
 593.996932,    0.000000
 598.027629,    0.000000
 602.073567,    0.000000
 606.142848,    0.000000
 610.224420,    0.000000
 614.328908,    0.000000
 618.447908,    0.000000
 622.592845,    0.000000
 626.754922,    0.000000
 630.928687,    0.000000
 635.118898,    0.000000
 639.328040,    0.000000
 643.552052,    0.000000
 646.210443,    0.000000
 647.795480,    0.000000
 652.051720,    0.000000
 656.332055,    0.000000
 660.636934,    0.000000
 664.964739,    0.000000
 669.314999,    0.000000
 673.684524,    0.000000
 678.067216,    0.000000
 682.479014,    0.000000
 686.908412,    0.000000
 691.352986,    0.000000
 695.816369,    0.000000
 700.305585,    0.000000
 704.799839,    0.000000
 709.316982,    0.000000
 713.850293,    0.000000
 718.397976,    0.000000
 722.974688,    0.000000
 727.555349,    0.000000
 732.156064,    0.000000
 736.768221,    0.000000
 741.385338,    0.000000
 746.021588,    0.000000
 750.665623,    0.000000
 755.320205,    0.000000
 760.004774,    0.000000
 764.688959,    0.000000
 769.387760,    0.000000
 769.707060,    2.297227
 770.026659,    4.647303
 770.346517,    7.050025
 770.666469,    9.504184
 770.985634,   12.002872
 771.305846,   14.560341
 771.626541,   17.172435
 771.946328,   19.827746
 772.266659,   22.538113
 772.588248,   25.309917
 772.909830,   28.132558
 773.230806,   31.000624
 773.552743,   33.928059
 773.875332,   36.912397
 774.197573,   39.944465
 774.519804,   43.027290
 774.843280,   46.173041
 775.166073,   49.363155
 775.489821,   52.613744
 775.814011,   55.919973
 776.138524,   59.280745
 776.462115,   62.683046
 776.787144,   66.151619
 777.112609,   69.676242
 777.437848,   73.249750
 777.763689,   76.881241
 778.088891,   80.556888
 778.414358,   84.286712
 778.740419,   88.074625
 779.067289,   91.923370
 779.394840,   95.831765
 779.721906,   99.785926
 780.049897,  103.802904
 780.376949,  107.859882
 780.705209,  111.983396
 781.034164,  116.167429
 781.362969,  120.401349
 781.692620,  124.698023
 782.021723,  129.039374
 782.350646,  133.430022
 782.681143,  137.893554
 783.011000,  142.400341
 783.341819,  146.972201
 783.673760,  151.611790
 784.005820,  156.305352
 784.337858,  161.050884
 784.670352,  165.855233
 785.003191,  170.716945
 785.333454,  175.592905
 785.666370,  180.559996
 785.999034,  185.575550
 786.332839,  190.660626
 786.667674,  195.814013
 787.001570,  201.005454
 787.337189,  206.276336
 787.671885,  211.585368
 788.007947,  216.968768
 788.343023,  222.389044
 788.679697,  227.887905
 789.016387,  233.439949
 789.353037,  239.044185
 789.690854,  244.720830
 790.028561,  250.448683
 790.366997,  256.242030
 790.706053,  262.099254
 791.046119,  268.027388
 791.386438,  274.013538
 791.727725,  280.070438
 792.068433,  286.170783
 792.409917,  292.338708
 792.478322,  293.583818
 792.517043,  294.289755
 792.537470,  294.662504
 792.540633,  294.720248
 792.544317,  294.787511
 792.545586,  294.810698
 792.546314,  294.823983
 792.547813,  294.851364
 792.549170,  294.876145
 792.560454,  295.082210
 792.602599,  295.852177
 792.710364,  297.823550
 792.968746,  302.565504
 793.308340,  308.840030
 793.649570,  315.198070
 793.990955,  321.612459
 794.334073,  328.113162
 794.677987,  334.683004
 795.020260,  341.236413
 795.364633,  347.845064
 795.709446,  354.477206
 796.055532,  361.148977
 796.400918,  367.822339
 796.746847,  374.521280
 797.091330,  381.207185
 797.439004,  387.970166
 797.787248,  394.759441
 798.133915,  401.533067
 798.480964,  408.329206
 798.828145,  415.143018
 799.177201,  422.008764
 799.526346,  428.891427
 799.875722,  435.793837
 800.226665,  442.742428
 800.576269,  449.679701
 800.926826,  456.651055
 801.278379,  463.657460
 801.630599,  470.692447
 801.981956,  477.725399
 802.332946,  484.766156
 802.685633,  491.856166
 803.038650,  498.968059
 803.393177,  506.125716
 803.746221,  513.268688
 804.100481,  520.451508
 804.455171,  527.658340
 804.810269,  534.888777
 805.166256,  542.152644
 805.522744,  549.442119
 805.879410,  556.750593
 806.236138,  564.075670
 806.593659,  571.432415
 806.952638,  578.834611
 807.312098,  586.262220
 807.671106,  593.695932
 808.030503,  601.153139
 808.390534,  608.638945
 808.748911,  616.105722
 809.109274,  623.629264
 809.471228,  631.201551
 809.833737,  638.800992
 810.196989,  646.431622
 810.560507,  654.083443
 810.923154,  661.732463
 811.287743,  669.438025
 811.651321,  677.137780
 812.015903,  684.874361
 812.381838,  692.655303
 812.747179,  700.439224
 813.112414,  708.236467
 813.478450,  716.066377
 813.847418,  723.974748
 814.216125,  731.893335
 814.585292,  739.837558
 814.955972,  747.830175
 815.325837,  755.821048
 815.698011,  763.877699
 816.068632,  771.916565
 816.441279,  780.015260
 816.815069,  788.154759
 817.188759,  796.308082
 817.561731,  804.461615
 817.936075,  812.661054
 818.311440,  820.898890
 818.685806,  829.130696
 819.059638,  837.366620
 819.434660,  845.644642
 819.813851,  854.030809
 820.190397,  862.374522
 820.565060,  870.692323
 820.942428,  879.086102
 821.322288,  887.551407
 821.701660,  896.021965
 822.081489,  904.518788
 822.462259,  913.052803
 822.844283,  921.631110
 823.227803,  930.259316
 823.610931,  938.894940
 823.995716,  947.584247
 824.241828,  953.150585
 824.379097,  956.258106
 824.765990,  965.027821
 825.148939,  973.724323
 825.535918,  982.528679
 825.923351,  991.359787
 826.311842, 1000.231478
 826.696734, 1009.037203
 827.084876, 1017.933600
 827.474511, 1026.880669
 827.865902, 1035.884640
 828.257528, 1044.910588
 828.648713, 1053.942900
 829.041268, 1063.023410
 829.435240, 1072.153362
 829.829656, 1081.310301
 830.223337, 1090.466768
 830.619137, 1099.689215
 831.014575, 1108.919891
 831.410969, 1118.189623
 831.810259, 1127.543922
 832.207123, 1136.858144
 832.606641, 1146.251480
 833.004960, 1155.633398
 833.405295, 1165.079633
 833.806479, 1174.562794
 834.208358, 1184.079328
 834.612422, 1193.664623
 835.015193, 1203.236234
 835.420266, 1212.879623
 835.824699, 1222.524771
 836.228430, 1232.170118
 836.634547, 1241.889531
 837.042545, 1251.671086
 837.451211, 1261.485897
 837.859787, 1271.315710
 838.268199, 1281.158727
 838.678257, 1291.058601
 839.091143, 1301.044123
 839.503531, 1311.034990
 839.913722, 1320.989771
 840.327181, 1331.041168
 840.741842, 1341.139204
 841.155181, 1351.222341
 841.570043, 1361.359993
 841.988324, 1371.598729
 842.405849, 1381.836471
 842.824130, 1392.110297
 843.244868, 1402.462122
 843.665787, 1412.836089
 844.086451, 1423.221386
 844.509440, 1433.681815
 844.931915, 1444.147252
 845.356665, 1454.686809
 845.780195, 1465.213862
 846.201759, 1475.709567
 846.627727, 1486.332650
 847.051793, 1496.925967
 847.479909, 1507.638299
 847.908480, 1518.379913
 848.336497, 1529.125504
 848.768140, 1539.980132
 849.197134, 1550.786043
 849.627247, 1561.637973
 850.059323, 1572.557411
 850.494462, 1583.572410
 850.928488, 1594.577340
 851.363461, 1605.624363
 851.799069, 1616.705653
 852.236170, 1627.843061
 852.674209, 1639.022636
 853.112655, 1650.230776
 853.552647, 1661.496745
 853.990829, 1672.734522
 854.431277, 1684.048636
 854.873327, 1695.422216
 855.314808, 1706.799432
 855.757177, 1718.217817
 856.204987, 1729.795212
 856.648605, 1741.282625
 857.092979, 1752.807888
 857.537479, 1764.354741
 857.982913, 1775.944142
 858.432534, 1787.661000
 858.881689, 1799.384250
 859.332764, 1811.176232
 859.781322, 1822.920848
 860.230861, 1834.709557
 860.682259, 1846.565489
 861.138735, 1858.573611
 861.592531, 1870.529886
 862.050110, 1882.604686
 862.508068, 1894.708331
 862.966584, 1906.845563
 863.424969, 1918.998177
 863.883692, 1931.178514
 864.343997, 1943.419709
 864.806348, 1955.734239
 865.267441, 1968.034129
 865.730754, 1980.412167
 866.192766, 1992.774301
 866.659115, 2005.271482
 867.127012, 2017.829304
 867.596568, 2030.450910
 868.063397, 2043.018234
 868.531464, 2055.637930
 869.003061, 2068.372030
 869.474690, 2081.126195
 869.946228, 2093.897091
 870.417133, 2106.669930
 870.892822, 2119.591818
 871.369229, 2132.552617
 871.846001, 2145.542714
 872.321320, 2158.512498
 872.800908, 2171.618162
 873.281072, 2184.759046
 873.760945, 2197.911406
 874.242469, 2211.128461
 874.725379, 2224.403093
 875.208324, 2237.698196
 875.692177, 2251.037777
 876.178127, 2264.454754
 876.664285, 2277.897085
 877.151312, 2291.383015
 877.638437, 2304.891225
 878.125590, 2318.419699
 878.617736, 2332.106573
 879.108087, 2345.763189
 879.600919, 2359.508640
 880.092396, 2373.235968
 880.585968, 2387.041453
 881.079069, 2400.853402
 881.579020, 2414.877211
 882.074723, 2428.801670
 882.574431, 2442.858512
 883.072548, 2456.890392
 883.572862, 2471.004041
 884.072144, 2485.108350
 884.572938, 2499.275164
 885.074943, 2513.496052
 885.580473, 2527.836795
 886.087434, 2542.238226
 886.592542, 2556.606956
 887.095042, 2570.921179
 887.599213, 2585.302716
 888.108351, 2599.845847
 888.618707, 2614.443806
 889.129283, 2629.068093
 889.642605, 2643.791142
 890.155486, 2658.521611
 890.664578, 2673.163062
 891.180352, 2688.016719
 891.694183, 2702.834441
 892.211233, 2717.765018
 892.724237, 2732.598623
 893.244147, 2747.652012
 893.767112, 2762.814169
 894.289416, 2777.977466
 894.813056, 2793.199841
 895.335292, 2808.401587
 895.861597, 2823.742063
 896.387045, 2839.077798
 896.909365, 2854.342280
 897.436695, 2869.773298
 897.969820, 2885.394441
 898.498884, 2900.916893
 899.030319, 2916.529247
 899.557979, 2932.050762
 900.088296, 2947.670492
 900.624412, 2963.481447
 901.157942, 2979.236418
 901.691203, 2995.003576
 902.225025, 3010.807443
 902.762212, 3026.731152
 903.302523, 3042.767888
 903.842455, 3058.813700
 904.385183, 3074.963068
 904.925423, 3091.058679
 905.468792, 3107.267841
 906.005951, 3123.311734
 906.552134, 3139.645451
 907.094493, 3155.884942
 907.637292, 3172.157677
 908.183858, 3188.563545
 908.736697, 3205.178198
 909.285137, 3221.680983
 909.831594, 3238.144175
 910.381724, 3254.738157
 910.930091, 3271.298990
 911.484163, 3288.052373
 912.033376, 3304.678815
 912.588547, 3321.505824
 913.141240, 3338.277773
 913.696685, 3355.153336
 914.247542, 3371.909274
 914.805780, 3388.909801
 915.363350, 3405.910071
 915.922595, 3422.981454
 916.489566, 3440.309121
 917.050207, 3457.463461
 917.610595, 3474.630021
 918.173724, 3491.900541
 918.738099, 3509.229301
 919.302625, 3526.582686
 919.864504, 3543.874463
 920.430019, 3561.297970
 920.999691, 3578.869582
 921.562004, 3596.233861
 922.133347, 3613.896872
 922.708153, 3631.687075
 923.284672, 3649.550519
 923.856378, 3667.284759
 924.432927, 3685.189221
 925.015008, 3703.285745
 925.584987, 3721.025677
 926.161070, 3738.975278
 926.739502, 3757.017921
 927.318259, 3775.090482
 927.898322, 3793.223581
 928.479857, 3811.422519
 929.058662, 3829.555590
 929.640083, 3847.790207
 930.217495, 3865.918452
 930.802014, 3884.289352
 931.384629, 3902.619914
 931.968263, 3921.001954
 932.554556, 3939.487193
 933.139283, 3957.942426
 933.724097, 3976.419630
 934.312121, 3995.017575
 934.902001, 4013.693586
 935.490696, 4032.351367
 936.083018, 4051.143373
 936.673558, 4069.898054
 937.265079, 4088.703036
 937.860485, 4107.650735
 938.451603, 4126.481019
 939.045076, 4145.405241
 939.638446, 4164.345090
 940.232606, 4183.329024
 940.832680, 4202.520942
 941.425387, 4221.495938
 942.025814, 4240.736956
 942.618353, 4259.743671
 943.222588, 4279.144436
 943.824548, 4298.490954
 944.422720, 4317.734272
 945.028845, 4337.252187
 945.630913, 4356.657989
 946.241438, 4376.355231
 946.849127, 4395.979647
 947.459312, 4415.703379
 948.067687, 4435.387149
 948.675126, 4455.059012
 949.282436, 4474.744945
 949.892751, 4494.546576
 950.501233, 4514.306909
 951.111479, 4534.142643
 951.726616, 4554.155617
 952.339847, 4574.124747
 952.953351, 4594.120767
 953.565823, 4614.101081
 954.177985, 4634.089045
 954.794851, 4654.248468
 955.415311, 4674.543351
 956.028206, 4694.608404
 956.636911, 4714.553514
 957.250538, 4734.677196
 957.874645, 4755.162273
 958.488167, 4775.317225
 959.116916, 4795.990097
 959.738366, 4816.440499
 960.352399, 4836.663788
 960.969994, 4857.021356
 961.587636, 4877.397334
 962.209505, 4897.929763
 962.830711, 4918.457154
 963.452594, 4939.023763
 964.072957, 4959.556749
 964.693170, 4980.101284
 965.318310, 5000.825669
 965.947323, 5021.695198
 966.573608, 5042.490781
 967.195553, 5063.158557
 967.821084, 5083.961727
 968.452357, 5104.972305
 969.085996, 5126.078128
 969.717968, 5147.144733
 970.345444, 5168.077540
 970.977716, 5189.186431
 971.609439, 5210.292973
 972.242743, 5231.468320
 972.874263, 5252.599809
 973.512161, 5273.960625
 974.144581, 5295.153684
 974.782533, 5316.547874
 975.422936, 5338.040008
 976.058938, 5359.399948
 976.697217, 5380.851853
 977.337808, 5402.396903
 977.978709, 5423.967785
 978.616873, 5445.461716
 979.252910, 5466.898976
 979.901759, 5488.783343
 980.550806, 5510.689746
 981.191991, 5532.345769
 981.840950, 5554.279369
 982.486548, 5576.114248
 983.062022, 5595.589914
