Ground distance, Vertical Forces
   0.000000,    0.000000
   0.000003,    0.000000
   0.000055,    0.000000
   0.000836,    0.000000
   0.008093,    0.000000
   0.025426,    0.000000
   0.052360,    0.000000
   0.089033,    0.000000
   0.135348,    0.000000
   0.191629,    0.000000
   0.257747,    0.000000
   0.334484,    0.000000
   0.421795,    0.000000
   0.519289,    0.000000
   0.627030,    0.000000
   0.744716,    0.000000
   0.874223,    0.000000
   1.014667,    0.000000
   1.168101,    0.000000
   1.333267,    0.000000
   1.509419,    0.000000
   1.697931,    0.000000
   1.897857,    0.000000
   2.110869,    0.000000
   2.339267,    0.000000
   2.581917,    0.000000
   2.839218,    0.000000
   3.109016,    0.000000
   3.395577,    0.000000
   3.695761,    0.000000
   4.014978,    0.000000
   4.342106,    0.000000
   4.684198,    0.000000
   5.050060,    0.000000
   5.433207,    0.000000
   5.830771,    0.000000
   6.240014,    0.000000
   6.678284,    0.000000
   7.125847,    0.000000
   7.596768,    0.000000
   8.079133,    0.000000
   8.591636,    0.000000
   9.127842,    0.000000
   9.683632,    0.000000
  10.262504,    0.000000
  10.848068,    0.000000
  11.457402,    0.000000
  12.090228,    0.000000
  12.746254,    0.000000
  13.424914,    0.000000
  14.133824,    0.000000
  14.859193,    0.000000
  15.612696,    0.000000
  16.399458,    0.000000
  17.213132,    0.000000
  18.040065,    0.000000
  18.896519,    0.000000
  19.765686,    0.000000
  20.678374,    0.000000
  21.614051,    0.000000
  22.573565,    0.000000
  23.565086,    0.000000
  24.587426,    0.000000
  25.635571,    0.000000
  26.728150,    0.000000
  27.836362,    0.000000
  28.988601,    0.000000
  30.169874,    0.000000
  31.384483,    0.000000
  32.617333,    0.000000
  33.886624,    0.000000
  35.190105,    0.000000
  36.535553,    0.000000
  37.914439,    0.000000
  39.315560,    0.000000
  40.754630,    0.000000
  42.250925,    0.000000
  43.785492,    0.000000
  45.339080,    0.000000
  46.933751,    0.000000
  48.560693,    0.000000
  50.201971,    0.000000
  51.904433,    0.000000
  53.627148,    0.000000
  55.390999,    0.000000
  57.187945,    0.000000
  59.035104,    0.000000
  60.922706,    0.000000
  62.856868,    0.000000
  64.827119,    0.000000
  66.822805,    0.000000
  68.867035,    0.000000
  70.962511,    0.000000
  73.104728,    0.000000
  75.295251,    0.000000
  77.526439,    0.000000
  79.785061,    0.000000
  82.116616,    0.000000
  82.589824,    0.000000
  82.640766,    0.000000
  82.685018,    0.000000
  82.726471,    0.000000
  82.735290,    0.000000
  82.737438,    0.000000
  82.741734,    0.000000
  82.742026,    0.000000
  82.742610,    0.000000
  82.743146,    0.000000
  82.748509,    0.000000
  82.783077,    0.000000
  82.948674,    0.000000
  83.591162,    0.000000
  85.165276,    0.000000
  87.309330,    0.000000
  89.494183,    0.000000
  91.710080,    0.000000
  93.978669,    0.000000
  96.257026,    0.000000
  98.582658,    0.000000
 100.936807,    0.000000
 103.348723,    0.000000
 105.805085,    0.000000
 108.287575,    0.000000
 110.827921,    0.000000
 113.415596,    0.000000
 116.018984,    0.000000
 118.683319,    0.000000
 121.377520,    0.000000
 124.121266,    0.000000
 126.882955,    0.000000
 129.694259,    0.000000
 132.554107,    0.000000
 135.451536,    0.000000
 138.381088,    0.000000
 141.364700,    0.000000
 144.391829,    0.000000
 147.464263,    0.000000
 150.590280,    0.000000
 153.741312,    0.000000
 156.956860,    0.000000
 160.232297,    0.000000
 163.536406,    0.000000
 166.846821,    0.000000
 170.220678,    0.000000
 173.647040,    0.000000
 177.115396,    0.000000
 180.659928,    0.000000
 184.224394,    0.000000
 187.853646,    0.000000
 191.523325,    0.000000
 195.251836,    0.000000
 199.019818,    0.000000
 202.835904,    0.000000
 206.711146,    0.000000
 210.631619,    0.000000
 214.601328,    0.000000
 218.623898,    0.000000
 222.682740,    0.000000
 226.772212,    0.000000
 230.954184,    0.000000
 235.166674,    0.000000
 239.432181,    0.000000
 243.755555,    0.000000
 248.141335,    0.000000
 252.556969,    0.000000
 257.054699,    0.000000
 261.574169,    0.000000
 266.160356,    0.000000
 270.804567,    0.000000
 275.500413,    0.000000
 280.235226,    0.000000
 285.055791,    0.000000
 289.905015,    0.000000
 294.847573,    0.000000
 299.799004,    0.000000
 304.822583,    0.000000
 309.904063,    0.000000
 315.047741,    0.000000
 320.223634,    0.000000
 325.481360,    0.000000
 330.769548,    0.000000
 336.148008,    0.000000
 341.578539,    0.000000
 342.669521,    0.000000
 342.800075,    0.000000
 342.825802,    0.000000
 342.835591,    0.000000
 342.854109,    0.000000
 342.860222,    0.000000
 342.861937,    0.000000
 342.862695,    0.000000
 342.863906,    0.000000
 342.865004,    0.000000
 342.875985,    0.000000
 342.962076,    0.000000
 343.474832,    0.000000
 345.432130,    0.000000
 350.333185,    0.000000
 355.260368,    0.000000
 360.216631,    0.000000
 365.244424,    0.000000
 370.322441,    0.000000
 375.447550,    0.000000
 380.621318,    0.000000
 385.837563,    0.000000
 391.107400,    0.000000
 396.414022,    0.000000
 401.771618,    0.000000
 407.193029,    0.000000
 412.645566,    0.000000
 418.156886,    0.000000
 423.707267,    0.000000
 429.322115,    0.000000
 434.985677,    0.000000
 440.668880,    0.000000
 446.420014,    0.000000
 452.233737,    0.000000
 458.095536,    0.000000
 463.985896,    0.000000
 469.949741,    0.000000
 475.954471,    0.000000
 482.027094,    0.000000
 488.132671,    0.000000
 494.279307,    0.000000
 500.482067,    0.000000
 506.742162,    0.000000
 513.070872,    0.000000
 519.448311,    0.000000
 525.865789,    0.000000
 532.360878,    0.000000
 538.903895,    0.000000
 545.478216,    0.000000
 552.106875,    0.000000
 558.809874,    0.000000
 565.545159,    0.000000
 572.351262,    0.000000
 579.207066,    0.000000
 586.119448,    0.000000
 593.084543,    0.000000
 600.127498,    0.000000
 607.218240,    0.000000
 614.334543,    0.000000
 621.501705,    0.000000
 628.760476,    0.000000
 636.051490,    0.000000
 643.401127,    0.000000
 650.823971,    0.000000
 658.277766,    0.000000
 665.806951,    0.000000
 673.402520,    0.000000
 681.050827,    0.000000
 688.733949,    0.000000
 696.491798,    0.000000
 704.306401,    0.000000
 712.183152,    0.000000
 720.139203,    0.000000
 728.138672,    0.000000
 736.172644,    0.000000
 744.274773,    0.000000
 752.442355,    0.000000
 760.647663,    0.000000
 768.941079,    0.000000
 777.290946,    0.000000
 785.669540,    0.000000
 794.164703,    0.000000
 802.674297,    0.000000
 804.390428,    0.000000
 805.531376,    0.000000
 806.453546,    0.000000
 807.136734,    0.000000
 807.676447,    0.000000
 807.808801,    0.000000
 807.998949,    0.000000
 808.216487,    0.000000
 808.265119,    0.000000
 808.278804,    0.000000
 808.306173,    0.000000
 808.308466,    0.000000
 808.310198,    0.000000
 808.310856,    0.000000
 808.311610,    0.000000
 808.319150,    0.000000
 808.386185,    0.000000
 808.763364,    0.000000
 810.418900,    0.000000
 817.135954,    0.000000
 824.681904,    0.000000
 832.293117,    0.000000
 839.929924,    0.000000
 847.619792,    0.000000
 855.348501,    0.000000
 863.130855,    0.000000
 870.943993,    0.000000
 878.845236,    0.000000
 886.802175,    0.000000
 894.763881,    0.000000
 902.799042,    0.000000
 910.873188,    0.000000
 918.994920,    0.000000
 927.140309,    0.000000
 935.320193,    0.000000
 943.575056,    0.000000
 951.853709,    0.000000
 960.216623,    0.000000
 968.625605,    0.000000
 977.051714,    0.000000
 985.549707,    0.000000
 994.096550,    0.000000
1002.691362,    0.000000
1011.356967,    0.000000
1020.048039,    0.000000
1028.781976,    0.000000
1037.572980,    0.000000
1046.402817,    0.000000
1055.299739,    0.000000
1064.231039,    0.000000
1073.228076,    0.000000
1082.280735,    0.000000
1091.388446,    0.000000
1100.557529,    0.000000
1109.745833,    0.000000
1118.985190,    0.000000
1128.305184,    0.000000
1137.664757,    0.000000
1147.084248,    0.000000
1156.527403,    0.000000
1166.054817,    0.000000
1175.617604,    0.000000
1185.230065,    0.000000
1194.906789,    0.000000
1204.631648,    0.000000
1214.385095,    0.000000
1224.220714,    0.000000
1234.087268,    0.000000
1244.010938,    0.000000
1253.993659,    0.000000
1264.025781,    0.000000
1274.125179,    0.000000
1284.257882,    0.000000
1294.431508,    0.000000
1304.662952,    0.000000
1314.951239,    0.000000
1325.296659,    0.000000
1335.708142,    0.000000
1346.173838,    0.000000
1356.694270,    0.000000
1367.258070,    0.000000
1377.867215,    0.000000
1388.543014,    0.000000
1399.283468,    0.000000
1410.082057,    0.000000
1420.892395,    0.000000
1431.789215,    0.000000
1442.741374,    0.000000
1453.726890,    0.000000
1464.769209,    0.000000
1475.871681,    0.000000
1487.037023,    0.000000
1498.243926,    0.000000
1509.511928,    0.000000
1520.825237,    0.000000
1523.093482,    0.000000
1530.766533,    0.000000
1530.857317,    0.000000
1530.922893,    0.000000
1530.954939,    0.000000
1530.978030,    0.000000
1531.000347,    0.000000
1531.024051,    0.000000
1531.045706,    0.000000
1531.261186,    0.000000
1532.492009,    0.000000
1539.451560,    0.000000
1550.854818,    0.000000
1562.326786,    0.000000
1573.837321,    0.000000
1585.372509,    0.000000
1596.980066,    0.000000
1608.661370,    0.000000
1620.387163,    0.000000
1632.187053,    0.000000
1644.057302,    0.000000
1655.970158,    0.000000
1667.919338,    0.000000
1679.937564,    0.000000
1692.010329,    0.000000
1704.138743,    0.000000
1716.311733,    0.000000
1728.531895,    0.000000
1740.829154,    0.000000
1753.177855,    0.000000
1765.598986,    0.000000
1778.047622,    0.000000
1790.586975,    0.000000
1803.176627,    0.000000
1815.821325,    0.000000
1828.500488,    0.000000
1841.235709,    0.000000
1854.062940,    0.000000
1866.930239,    0.000000
1879.833782,    0.000000
1892.833303,    0.000000
1905.882360,    0.000000
1918.974000,    0.000000
1932.149750,    0.000000
1945.390125,    0.000000
1958.658423,    0.000000
1971.975647,    0.000000
1985.358918,    0.000000
1998.796690,    0.000000
2012.288530,    0.000000
2025.852590,    0.000000
2039.503177,    0.000000
2053.202680,    0.000000
2060.014011,    0.000000
2066.970364,    0.000000
2080.790471,   23.410091
2094.669727,   69.500286
2108.595984,  115.090422
2122.595811,  160.143536
2136.656762,  204.749051
2150.790673,  248.868288
2165.021642,  292.539796
2179.290195,  335.840197
2193.641560,  378.586383
2208.053854,  420.919757
2222.531730,  462.775903
2237.090703,  504.170518
2251.718638,  545.150992
2266.385315,  585.685430
2281.083037,  625.692725
2295.831287,  665.156645
2310.684994,  704.133087
2325.555235,  742.778808
2340.496085,  780.854687
2355.468185,  818.512102
2370.495370,  855.651204
2385.544739,  892.341502
2400.698511,  928.498314
2415.860373,  964.338766
2431.078037,  999.625074
2446.328953, 1034.482095
2461.607858, 1068.861475
2462.638153, 1104.226427
2463.668121, 1106.486081
2464.699764, 1108.742450
2465.732112, 1111.000229
2466.765609, 1113.257143
2467.798157, 1115.514420
2468.833254, 1117.766908
2469.868491, 1120.022844
2470.905528, 1122.276556
2471.942399, 1124.532026
2472.980260, 1126.784656
2474.014465, 1129.037559
2475.053462, 1131.279307
2476.094795, 1133.529348
2477.135110, 1135.782437
2478.178106, 1138.030584
2479.221858, 1140.282364
2480.261530, 1142.533920
2481.304682, 1144.773542
2482.350114, 1147.018444
2483.397782, 1149.265901
2484.443649, 1151.516227
2485.483634, 1153.760757
2486.534266, 1155.988609
2487.583726, 1158.238171
2488.635619, 1160.482493
2489.688917, 1162.729769
2490.742956, 1164.977758
2491.795405, 1167.225216
2492.849488, 1169.466594
2493.899178, 1171.709735
2494.957035, 1173.939873
2496.011588, 1176.186232
2497.071151, 1178.422353
2498.127843, 1180.667581
2499.188316, 1182.903676
2500.248566, 1185.145848
2501.310332, 1187.385019
2502.371535, 1189.625259
2503.435257, 1191.861642
2504.500411, 1194.101102
2505.566300, 1196.341301
2506.632909, 1198.580697
2507.701571, 1200.819113
2508.773621, 1203.059345
2509.847060, 1205.304535
2510.919951, 1207.550474
2511.994559, 1209.792665
2513.067714, 1212.036422
2514.145218, 1214.274172
2515.217057, 1216.519702
2516.293351, 1218.750000
2517.373634, 1220.987276
2518.456483, 1223.230637
2519.540400, 1225.477124
2520.621025, 1227.723921
2521.705887, 1229.960731
2522.794363, 1232.204019
2523.876810, 1234.453448
2524.963899, 1236.686914
2526.057430, 1238.927413
2527.145778, 1241.180071
2528.238473, 1243.418660
2529.325780, 1245.664875
2530.424552, 1247.895847
2531.521111, 1250.149464
2532.614239, 1252.396293
2533.714539, 1254.632587
2534.818568, 1256.881563
2535.917648, 1259.136713
2537.024050, 1261.378055
2538.124441, 1263.633394
2539.232811, 1265.872597
2540.335649, 1268.127130
2541.447333, 1270.366480
2542.554646, 1270.246556
2543.669456, 1270.125964
2544.785098, 1270.005428
2545.898717, 1269.885254
2547.015229, 1269.764915
2548.132466, 1269.644643
2549.253554, 1269.524103
2550.376914, 1269.403467
2551.498769, 1269.283140
2552.619594, 1269.163071
2553.746955, 1269.042451
2554.873479, 1268.922069
2555.999732, 1268.801866
2557.114338, 1268.683053
2558.247376, 1268.562425
2559.380065, 1268.441986
2560.514947, 1268.321466
2561.648907, 1268.201195
2562.774421, 1268.081970
2563.910169, 1267.961814
2565.047446, 1267.841649
2566.187599, 1267.721333
2567.332732, 1267.600648
2568.472216, 1267.480712
2569.617192, 1267.360354
2570.761152, 1267.240258
2571.904410, 1267.120392
2573.052597, 1267.000165
2574.197554, 1266.880433
2575.351478, 1266.759922
2576.500677, 1266.640062
2577.657074, 1266.519610
2578.812135, 1266.399458
2579.970280, 1266.279145
2581.123747, 1266.159477
2582.278749, 1266.039810
2583.438195, 1265.919844
2584.601868, 1265.799602
2585.768471, 1265.679221
2586.931620, 1265.559359
2588.095730, 1265.439562
2589.268716, 1265.319016
2590.440161, 1265.198793
2591.609904, 1265.078911
2592.786238, 1264.958519
2593.961392, 1264.838415
2595.136335, 1264.718500
2596.318036, 1264.598063
2597.494646, 1264.478313
2598.675196, 1264.358331
2599.850899, 1264.239009
2601.037266, 1264.118775
2602.220000, 1263.999079
2602.457792, 1263.975034
2602.622931, 1263.958340
2602.740782, 1263.946428
2602.837796, 1263.936624
2603.111269, 1263.908992
2603.144128, 1263.905673
2603.148661, 1263.905215
2603.150042, 1263.905079
2603.151451, 1263.904948
2603.161409, 1263.904021
2603.213328, 1263.899188
2603.400756, 1263.881744
2603.858398, 1263.839167
2604.882283, 1263.743994
2606.066015, 1263.634108
2607.259254, 1263.523497
2608.453912, 1263.412914
2609.655459, 1263.301853
2610.854746, 1263.191162
2612.056925, 1263.080366
2613.262887, 1262.969383
2614.465466, 1262.858873
2615.670166, 1262.748330
2616.881501, 1262.637343
2618.090654, 1262.526719
2619.303537, 1262.415919
2620.517187, 1262.305215
2621.733689, 1262.194416
2622.952525, 1262.083571
2624.177557, 1261.972331
2625.396617, 1261.861802
2626.620561, 1261.750997
2627.847010, 1261.640136
2629.072846, 1261.529499
2630.303656, 1261.418584
2631.536050, 1261.307698
2632.768392, 1261.196988
2634.002386, 1261.086302
2635.245919, 1260.974935
2636.485487, 1260.864097
2637.502412, 1260.773297
2637.727179, 1260.753244
2638.970846, 1260.642389
2640.213614, 1260.531791
2641.466227, 1260.420493
2642.717448, 1260.309498
2643.973530, 1260.198250
2645.228161, 1260.087310
2646.480759, 1259.976729
2647.740667, 1259.865683
2649.005671, 1259.754370
2650.274477, 1259.642906
2651.543388, 1259.531616
2652.812531, 1259.420490
2654.086132, 1259.309159
2655.358332, 1259.198136
2656.637134, 1259.086724
2657.917725, 1258.975343
2659.197052, 1258.864261
2660.476096, 1258.753390
2661.760099, 1258.642279
2663.050720, 1258.530785
2664.340633, 1258.419545
2665.631811, 1258.308387
2666.928142, 1258.196978
2668.223221, 1258.085871
2669.520146, 1257.974798
2670.819931, 1257.863676
2672.123367, 1257.752437
2673.432787, 1257.640885
2674.739661, 1257.529748
2676.053129, 1257.418249
2677.364102, 1257.307161
2678.677811, 1257.196040
2679.993796, 1257.084928
2681.320586, 1256.973106
2682.647768, 1256.861456
2683.971551, 1256.750296
2685.297207, 1256.639182
2686.623256, 1256.528239
2687.954886, 1256.417036
2689.294300, 1256.305391
2690.622648, 1256.194874
2691.967596, 1256.083186
2693.308388, 1255.972053
2694.656347, 1255.860537
2695.999645, 1255.749618
2697.349131, 1255.638400
2698.699010, 1255.527363
2700.059224, 1255.415691
2701.412652, 1255.304791
2702.775446, 1255.193341
2704.135270, 1255.082350
2705.502772, 1254.970952
2706.877252, 1254.859205
2708.247672, 1254.748010
2709.630687, 1254.636016
2711.008834, 1254.524641
2712.393847, 1254.412935
2713.769262, 1254.302227
2715.158603, 1254.190624
2716.548440, 1254.079208
2717.942599, 1253.967675
2719.335235, 1253.856493
2720.730120, 1253.745360
2722.125416, 1253.634425
2723.524108, 1253.523450
2724.933286, 1253.411877
2726.337363, 1253.300942
2727.751364, 1253.189458
2729.168701, 1253.077949
2730.576849, 1252.967399
2732.003852, 1252.855608
2733.417060, 1252.745136
2734.848075, 1252.633513
2736.269442, 1252.522884
2737.698257, 1252.411916
2739.129591, 1252.300997
2740.560829, 1252.190329
2742.004862, 1252.078918
2743.449921, 1251.967677
2744.903155, 1251.856057
2746.346480, 1251.745447
2747.790971, 1251.634997
2749.233576, 1251.524940
2750.685867, 1251.414394
2752.143502, 1251.303696
2753.607466, 1251.192772
2755.072817, 1251.081999
2756.536250, 1250.971628
2758.013855, 1250.860449
2759.499225, 1250.748948
2760.973471, 1250.638545
2762.452020, 1250.528080
2763.930594, 1250.417876
2765.419401, 1250.307175
2766.916191, 1250.196148
2768.404824, 1250.085993
2769.898876, 1249.975705
2771.398921, 1249.865245
2772.907560, 1249.754425
2774.414271, 1249.644020
2775.924712, 1249.533616
2777.443649, 1249.422869
2778.959344, 1249.312635
2780.485435, 1249.201925
2782.008894, 1249.091686
2783.528902, 1248.981977
2785.064790, 1248.871405
2786.592979, 1248.761670
2788.135514, 1248.651191
2789.678581, 1248.540962
2791.213911, 1248.431573
2792.762029, 1248.321561
2794.306935, 1248.212066
2795.862116, 1248.102136
2797.417486, 1247.992486
2798.987091, 1247.882130
2800.559661, 1247.771865
2802.128262, 1247.662178
2803.694091, 1247.552983
2805.258076, 1247.444214
2806.833387, 1247.334959
2808.404629, 1247.226286
2809.998175, 1247.116377
2811.581158, 1247.007504
2813.159081, 1246.899282
2814.737881, 1246.791304
2816.324908, 1246.683070
2817.916086, 1246.574861
2819.502018, 1246.467316
2821.110018, 1246.358589
2822.703018, 1246.251187
2824.308324, 1246.143270
2825.928518, 1246.034671
2827.543624, 1245.926733
2829.163121, 1245.818822
2830.789853, 1245.710752
2832.408072, 1245.603570
2834.038332, 1245.495915
2835.663759, 1245.388903
2837.286419, 1245.282396
2838.926488, 1245.175076
2840.574006, 1245.067600
2842.208322, 1244.961315
2843.839451, 1244.855564
2845.482211, 1244.749390
2847.123678, 1244.643631
2848.758915, 1244.538603
2850.428115, 1244.431733
2852.080367, 1244.326286
2853.747084, 1244.220256
2855.413942, 1244.114560
2857.075681, 1244.009530
2858.765650, 1243.903064
2860.450825, 1243.797252
2862.123716, 1243.692557
2863.799452, 1243.588030
2865.492375, 1243.482784
2867.187964, 1243.377727
2868.878155, 1243.273359
2870.563756, 1243.169625
2872.256391, 1243.065812
2873.960065, 1242.961681
2875.665848, 1242.857780
2877.376614, 1242.753938
2879.087208, 1242.650469
2880.794331, 1242.547571
2882.508995, 1242.444583
2884.244666, 1242.340704
2885.954939, 1242.238711
2887.689238, 1242.135656
2889.432358, 1242.032453
2891.177465, 1241.929510
2892.915798, 1241.827344
2894.653168, 1241.725609
2896.393347, 1241.624086
2898.136609, 1241.522760
2899.874992, 1241.422095
2901.627120, 1241.321015
2903.382222, 1241.220146
2905.134479, 1241.119823
2906.911144, 1241.018494
2908.661231, 1240.919065
2910.416837, 1240.819706
2912.201247, 1240.719111
2913.980957, 1240.619177
2915.761612, 1240.519585
2917.539186, 1240.420561
2919.315131, 1240.322021
2921.125439, 1240.221980
2922.920231, 1240.123201
2924.705866, 1240.025325
2926.521879, 1239.926193
2928.315299, 1239.828699
2930.123016, 1239.730836
2931.922803, 1239.633808
2933.760661, 1239.535146
2935.572003, 1239.438321
2937.383359, 1239.341907
2939.214526, 1239.244856
2941.033744, 1239.148854
2942.857140, 1239.053049
2944.703018, 1238.956487
2946.542962, 1238.860660
2948.363248, 1238.766276
2950.203093, 1238.671300
2952.045464, 1238.576620
2953.879683, 1238.482781
2955.711694, 1238.389478
2957.559225, 1238.295812
2959.409831, 1238.202420
2961.268528, 1238.109052
2963.124677, 1238.016247
2964.984616, 1237.923686
2966.837714, 1237.831899
2968.687262, 1237.740719
2970.556434, 1237.649009
2972.425122, 1237.557762
2974.307848, 1237.466275
2976.179735, 1237.375757
2978.068698, 1237.284861
2979.961261, 1237.194243
2981.843742, 1237.104555
2983.731343, 1237.015072
2985.635505, 1236.925260
2987.534663, 1236.836139
2989.439244, 1236.747221
2991.351422, 1236.658408
2993.243980, 1236.570962
2995.159272, 1236.482926
2997.084707, 1236.394890
2998.995679, 1236.307979
3000.880595, 1236.222704
3002.776235, 1236.137398
3004.714021, 1236.050664
3006.637555, 1235.965038
3008.546825, 1235.880510
3010.462638, 1235.796155
3012.383242, 1235.712056
3014.292523, 1235.628915
3016.230412, 1235.545000
3018.173010, 1235.461358
3020.101170, 1235.378810
3022.036164, 1235.296443
3023.990269, 1235.213744
3025.932243, 1235.132038
3027.878908, 1235.050613
3029.818061, 1234.969981
3031.761136, 1234.889663
3033.704886, 1234.809796
3035.642465, 1234.730660
3037.604083, 1234.651027
3039.563787, 1234.571959
3041.512324, 1234.493824
3043.490600, 1234.414990
3045.468147, 1234.336681
3047.429237, 1234.259514
3049.398838, 1234.182503
3051.386209, 1234.105297
3053.374065, 1234.028573
3055.338706, 1233.953239
3057.322374, 1233.877672
3059.296993, 1233.802947
3061.291561, 1233.727969
3063.293192, 1233.653234
3065.278024, 1233.579629
3067.268224, 1233.506328
3069.252025, 1233.433764
3071.254571, 1233.361021
3073.266207, 1233.288461
3075.278482, 1233.216393
3077.271254, 1233.145531
3079.287088, 1233.074363
3081.280987, 1233.004478
3083.294489, 1232.934418
3085.307176, 1232.864903
3087.315431, 1232.796054
3089.326791, 1232.727614
3091.357787, 1232.659028
3093.397173, 1232.590686
3095.399759, 1232.524093
3097.447545, 1232.456525
3099.469563, 1232.390331
3101.486434, 1232.324824
3103.509501, 1232.259636
3105.552424, 1232.194337
3107.576989, 1232.130149
3109.606696, 1232.066322
3111.641992, 1232.002847
3113.677607, 1231.939889
3115.719748, 1231.877259
3117.751789, 1231.815467
3119.823199, 1231.753019
3121.870846, 1231.691825
3123.941821, 1231.630477
3126.006170, 1231.569870
3128.054486, 1231.510269
3130.107614, 1231.451066
3132.156703, 1231.392514
3134.210215, 1231.334373
3136.264367, 1231.276752
3138.334958, 1231.219213
3140.393034, 1231.162564
3142.455745, 1231.106329
3144.511886, 1231.050813
3145.818099, 1231.015825
