Ground distance, Vertical Forces
   0.000000, 48645.496260
   0.000003, 48645.496260
   0.000055, 48645.496260
   0.000836, 48645.496260
   0.008093, 48645.496260
   0.025426, 48645.496260
   0.052360, 48645.496260
   0.089033, 48645.496260
   0.135348, 48645.496260
   0.191629, 48645.496260
   0.257747, 48645.496260
   0.334484, 48645.496260
   0.421795, 48645.496260
   0.519289, 48645.496260
   0.627030, 48645.496260
   0.744716, 48645.496260
   0.874223, 48645.496260
   1.014667, 48645.496260
   1.168101, 48645.496260
   1.333267, 48645.496260
   1.509419, 48645.496260
   1.697931, 48645.496260
   1.897857, 48645.496260
   2.110869, 48645.496260
   2.339267, 48645.496260
   2.581917, 48645.496260
   2.839218, 48645.496260
   3.109016, 48645.496260
   3.395577, 48645.496260
   3.695761, 48645.496260
   4.014978, 48645.496260
   4.342106, 48645.496260
   4.684198, 48645.496260
   5.050060, 48645.496260
   5.433207, 48645.496260
   5.830771, 48645.496260
   6.240014, 48645.496260
   6.678284, 48645.496260
   7.125847, 48645.496260
   7.596768, 48645.496260
   8.079133, 48645.496260
   8.591636, 48645.496260
   9.127842, 48645.496260
   9.683632, 48645.496260
  10.262504, 48645.496260
  10.848068, 48645.496260
  11.457402, 48645.496260
  12.090228, 48645.496260
  12.746254, 48645.496260
  13.424914, 48645.496260
  14.133824, 48645.496260
  14.859193, 48645.496260
  15.612696, 48645.496260
  16.399458, 48645.496260
  17.213132, 48645.496260
  18.040065, 48645.496260
  18.896519, 48645.496260
  19.765686, 48645.496260
  20.678374, 48645.496260
  21.614051, 48645.496260
  22.573565, 48645.496260
  23.565086, 48645.496260
  24.587426, 48645.496260
  25.635571, 48645.496260
  26.728150, 48645.496260
  27.836362, 48645.496260
  28.988601, 48645.496260
  30.169874, 48645.496260
  31.384483, 48645.496260
  32.617333, 48645.496260
  33.886624, 48645.496260
  35.190105, 48645.496260
  36.535553, 48645.496260
  37.914439, 48645.496260
  39.315560, 48645.496260
  40.754630, 48645.496260
  42.250925, 48645.496260
  43.785492, 48645.496260
  45.339080, 48645.496260
  46.933751, 48645.496260
  48.560693, 48645.496260
  50.201971, 48645.496260
  51.904433, 48645.496260
  53.627148, 48645.496260
  55.390999, 48645.496260
  57.187945, 48645.496260
  59.035104, 48645.496260
  60.922706, 48645.496260
  62.856868, 48645.496260
  64.827119, 48645.496260
  66.822805, 48645.496260
  68.867035, 48645.496260
  70.962511, 48645.496260
  73.104728, 48645.496260
  75.295251, 48645.496260
  77.526439, 48645.496260
  79.785061, 48645.496260
  82.116616, 48645.496260
  82.589824, 48645.496260
  82.640766, 48645.496260
  82.685018, 48645.496260
  82.726471, 48645.496260
  82.735290, 48645.496260
  82.737438, 48645.496260
  82.741734, 48645.496260
  82.742026, 48645.496260
  82.742610, 48645.496260
  82.743146, 48645.496260
  82.748509, 48645.496260
  82.783077, 48645.496260
  82.948674, 48645.496260
  83.591162, 48645.496260
  85.165276, 48645.496260
  87.309330, 48645.496260
  89.494183, 48645.496260
  91.710080, 48645.496260
  93.978669, 48645.496260
  96.257026, 48645.496260
  98.582658, 48645.496260
 100.936807, 48645.496260
 103.348723, 48645.496260
 105.805085, 48645.496260
 108.287575, 48645.496260
 110.827921, 48645.496260
 113.415596, 48645.496260
 116.018984, 48645.496260
 118.683319, 48645.496260
 121.377520, 48645.496260
 124.121266, 48645.496260
 126.882955, 48645.496260
 129.694259, 48645.496260
 132.554107, 48645.496260
 135.451536, 48645.496260
 138.381088, 48645.496260
 141.364700, 48645.496260
 144.391829, 48645.496260
 147.464263, 48645.496260
 150.590280, 48645.496260
 153.741312, 48645.496260
 156.956860, 48645.496260
 160.232297, 48645.496260
 163.536406, 48645.496260
 166.846821, 48645.496260
 170.220678, 48645.496260
 173.647040, 48645.496260
 177.115396, 48645.496260
 180.659928, 48645.496260
 184.224394, 48645.496260
 187.853646, 48645.496260
 191.523325, 48645.496260
 195.251836, 48645.496260
 199.019818, 48645.496260
 202.835904, 48645.496260
 206.711146, 48645.496260
 210.631619, 48645.496260
 214.601328, 48645.496260
 218.623898, 48645.496260
 222.682740, 48645.496260
 226.772212, 48645.496260
 230.954184, 48645.496260
 235.166674, 48645.496260
 239.432181, 48645.496260
 243.755555, 48645.496260
 248.141335, 48645.496260
 252.556969, 48645.496260
 257.054699, 48645.496260
 261.574169, 48645.496260
 266.160356, 48645.496260
 270.804567, 48645.496260
 275.500413, 48645.496260
 280.235226, 48645.496260
 285.055791, 48645.496260
 289.905015, 48645.496260
 294.847573, 48645.496260
 299.799004, 48645.496260
 304.822583, 48645.496260
 309.904063, 48645.496260
 315.047741, 48645.496260
 320.223634, 48645.496260
 325.481360, 48645.496260
 330.769548, 48645.496260
 336.148008, 48645.496260
 341.578539, 48645.496260
 342.669521, 48645.496260
 342.800075, 48645.496260
 342.825802, 48645.496260
 342.835591, 48645.496260
 342.854109, 48645.496260
 342.860222, 48645.496260
 342.861937, 48645.496260
 342.862695, 48645.496260
 342.863906, 48645.496260
 342.865004, 48645.496260
 342.875985, 48645.496260
 342.962076, 48645.496260
 343.474832, 48645.496260
 345.432130, 48645.496260
 350.333185, 48645.496260
 355.260368, 48645.496260
 360.216631, 48645.496260
 365.244424, 48645.496260
 370.322441, 48645.496260
 375.447550, 48645.496260
 380.621318, 48645.496260
 385.837563, 48645.496260
 391.107400, 48645.496260
 396.414022, 48645.496260
 401.771618, 48645.496260
 407.193029, 48645.496260
 412.645566, 48645.496260
 418.156886, 48645.496260
 423.707267, 48645.496260
 429.322115, 48645.496260
 434.985677, 48645.496260
 440.668880, 48645.496260
 446.420014, 48645.496260
 452.233737, 48645.496260
 458.095536, 48645.496260
 463.985896, 48645.496260
 469.949741, 48645.496260
 475.954471, 48645.496260
 482.027094, 48645.496260
 488.132671, 48645.496260
 494.279307, 48645.496260
 500.482067, 48645.496260
 506.742162, 48645.496260
 513.070872, 48645.496260
 519.448311, 48645.496260
 525.865789, 48645.496260
 532.360878, 48645.496260
 538.903895, 48645.496260
 545.478216, 48645.496260
 552.106875, 48645.496260
 558.809874, 48645.496260
 565.545159, 48645.496260
 572.351262, 48645.496260
 579.207066, 48645.496260
 586.119448, 48645.496260
 593.084543, 48645.496260
 600.127498, 48645.496260
 607.218240, 48645.496260
 614.334543, 48645.496260
 621.501705, 48645.496260
 628.760476, 48645.496260
 636.051490, 48645.496260
 643.401127, 48645.496260
 650.823971, 48645.496260
 658.277766, 48645.496260
 665.806951, 48645.496260
 673.402520, 48645.496260
 681.050827, 48645.496260
 688.733949, 48645.496260
 696.491798, 48645.496260
 704.306401, 48645.496260
 712.183152, 48645.496260
 720.139203, 48645.496260
 728.138672, 48645.496260
 736.172644, 48645.496260
 744.274773, 48645.496260
 752.442355, 48645.496260
 760.647663, 48645.496260
 768.941079, 48645.496260
 777.290946, 48645.496260
 785.669540, 48645.496260
 794.164703, 48645.496260
 802.674297, 48645.496260
 804.390428, 48645.496260
 805.531376, 48645.496260
 806.453546, 48645.496260
 807.136734, 48645.496260
 807.676447, 48645.496260
 807.808801, 48645.496260
 807.998949, 48645.496260
 808.216487, 48645.496260
 808.265119, 48645.496260
 808.278804, 48645.496260
 808.306173, 48645.496260
 808.308466, 48645.496260
 808.310198, 48645.496260
 808.310856, 48645.496260
 808.311610, 48645.496260
 808.319150, 48645.496260
 808.386185, 48645.496260
 808.763364, 48645.496260
 810.418900, 48645.496260
 817.135954, 48645.496260
 824.681904, 48645.496260
 832.293117, 48645.496260
 839.929924, 48645.496260
 847.619792, 48645.496260
 855.348501, 48645.496260
 863.130855, 48645.496260
 870.943993, 48645.496260
 878.845236, 48645.496260
 886.802175, 48645.496260
 894.763881, 48645.496260
 902.799042, 48645.496260
 910.873188, 48645.496260
 918.994920, 48645.496260
 927.140309, 48645.496260
 935.320193, 48645.496260
 943.575056, 48645.496260
 951.853709, 48645.496260
 960.216623, 48645.496260
 968.625605, 48645.496260
 977.051714, 48645.496260
 985.549707, 48645.496260
 994.096550, 48645.496260
1002.691362, 48645.496260
1011.356967, 48645.496260
1020.048039, 48645.496260
1028.781976, 48645.496260
1037.572980, 48645.496260
1046.402817, 48645.496260
1055.299739, 48645.496260
1064.231039, 48645.496260
1073.228076, 48645.496260
1082.280735, 48645.496260
1091.388446, 48645.496260
1100.557529, 48645.496260
1109.745833, 48645.496260
1118.985190, 48645.496260
1128.305184, 48645.496260
1137.664757, 48645.496260
1147.084248, 48645.496260
1156.527403, 48645.496260
1166.054817, 48645.496260
1175.617604, 48645.496260
1185.230065, 48645.496260
1194.906789, 48645.496260
1204.631648, 48645.496260
1214.385095, 48645.496260
1224.220714, 48645.496260
1234.087268, 48645.496260
1244.010938, 48645.496260
1253.993659, 48645.496260
1264.025781, 48645.496260
1274.125179, 48645.496260
1284.257882, 48645.496260
1294.431508, 48645.496260
1304.662952, 48645.496260
1314.951239, 48645.496260
1325.296659, 48645.496260
1335.708142, 48645.496260
1346.173838, 48645.496260
1356.694270, 48645.496260
1367.258070, 48645.496260
1377.867215, 48645.496260
1388.543014, 48645.496260
1399.283468, 48645.496260
1410.082057, 48645.496260
1420.892395, 48645.496260
1431.789215, 48645.496260
1442.741374, 48645.496260
1453.726890, 48645.496260
1464.769209, 48645.496260
1475.871681, 48645.496260
1487.037023, 48645.496260
1498.243926, 48645.496260
1509.511928, 48645.496260
1520.825237, 48645.496260
1523.093482, 48645.496260
1530.766533, 48645.496260
1530.857317, 48645.496260
1530.922893, 48645.496260
1530.954939, 48645.496260
1530.978030, 48645.496260
1531.000347, 48645.496260
1531.024051, 48645.496260
1531.045706, 48645.496260
1531.261186, 48645.496260
1532.492009, 48645.496260
1539.451560, 48645.496260
1550.854818, 48645.496260
1562.326786, 48645.496260
1573.837321, 48645.496260
1585.372509, 48645.496260
1596.980066, 48645.496260
1608.661370, 48645.496260
1620.387163, 48645.496260
1632.187053, 48645.496260
1644.057302, 48645.496260
1655.970158, 48645.496260
1667.919338, 48645.496260
1679.937564, 48645.496260
1692.010329, 48645.496260
1704.138743, 48645.496260
1716.311733, 48645.496260
1728.531895, 48645.496260
1740.829154, 48645.496260
1753.177855, 48645.496260
1765.598986, 48645.496260
1778.047622, 48645.496260
1790.586975, 48645.496260
1803.176627, 48645.496260
1815.821325, 48645.496260
1828.500488, 48645.496260
1841.235709, 48645.496260
1854.062940, 48645.496260
1866.930239, 48645.496260
1879.833782, 48645.496260
1892.833303, 48645.496260
1905.882360, 48645.496260
1918.974000, 48645.496260
1932.149750, 48645.496260
1945.390125, 48645.496260
1958.658423, 48645.496260
1971.975647, 48645.496260
1985.358918, 48645.496260
1998.796690, 48645.496260
2012.288530, 48645.496260
2025.852590, 48645.496260
2039.503177, 48645.496260
2053.202680, 48645.496260
2060.014011, 48645.496260
2066.970364, 48645.496260
2080.790471, 48645.496260
2094.669727, 48645.496260
2108.595984, 48645.496260
2122.595811, 48645.496260
2136.656762, 48645.496260
2150.790673, 48645.496260
2165.021642, 48645.496260
2179.290195, 48645.496260
2193.641560, 48645.496260
2208.053854, 48645.496260
2222.531730, 48645.496260
2237.090703, 48645.496260
2251.718638, 48645.496260
2266.385315, 48645.496260
2281.083037, 48645.496260
2295.831287, 48645.496260
2310.684994, 48645.496260
2325.555235, 48645.496260
2340.496085, 48645.496260
2355.468185, 48645.496260
2370.495370, 48645.496260
2385.544739, 48645.496260
2400.698511, 48645.496260
2415.860373, 48645.496260
2431.078037, 48645.496260
2446.328953, 48645.496260
2461.607858, 48645.496260
2462.638153, 48645.496192
2463.668121, 48645.495984
2464.699764, 48645.495627
2465.732112, 48645.495111
2466.765609, 48645.494429
2467.798157, 48645.493572
2468.833254, 48645.492529
2469.868491, 48645.491291
2470.905528, 48645.489848
2471.942399, 48645.488192
2472.980260, 48645.486311
2474.014465, 48645.484206
2475.053462, 48645.481848
2476.094795, 48645.479231
2477.135110, 48645.476352
2478.178106, 48645.473190
2479.221858, 48645.469739
2480.261530, 48645.466006
2481.304682, 48645.461952
2482.350114, 48645.457570
2483.397782, 48645.452845
2484.443649, 48645.447784
2485.483634, 48645.442400
2486.534266, 48645.436592
2487.583726, 48645.430409
2488.635619, 48645.423817
2489.688917, 48645.416808
2490.742956, 48645.409371
2491.795405, 48645.401513
2492.849488, 48645.393195
2493.899178, 48645.384454
2494.957035, 48645.375169
2496.011588, 48645.365426
2497.071151, 48645.355131
2498.127843, 48645.344347
2499.188316, 48645.332991
2500.248566, 48645.321089
2501.310332, 48645.308606
2502.371535, 48645.295551
2503.435257, 48645.281871
2504.500411, 48645.267560
2505.566300, 48645.252612
2506.632909, 48645.237010
2507.701571, 48645.220717
2508.773621, 48645.203691
2509.847060, 48645.185944
2510.919951, 48645.167491
2511.994559, 48645.148275
2513.067714, 48645.128336
2514.145218, 48645.107546
2515.217057, 48645.086084
2516.293351, 48645.063732
2517.373634, 48645.040472
2518.456483, 48645.016310
2519.540400, 48644.991257
2520.621025, 48644.965399
2521.705887, 48644.938536
2522.794363, 48644.910656
2523.876810, 48644.881990
2524.963899, 48644.852239
2526.057430, 48644.821320
2527.145778, 48644.789540
2528.238473, 48644.756604
2529.325780, 48644.722786
2530.424552, 48644.687534
2531.521111, 48644.651254
2532.614239, 48644.613972
2533.714539, 48644.575303
2534.818568, 48644.535329
2535.917648, 48644.494345
2537.024050, 48644.451869
2538.124441, 48644.408388
2539.232811, 48644.363326
2540.335649, 48644.317205
2541.447333, 48644.269398
2542.554646, 48644.220723
2543.669456, 48644.170649
2544.785098, 48644.119457
2545.898717, 48644.067272
2547.015229, 48644.013857
2548.132466, 48643.959305
2549.253554, 48643.903448
2550.376914, 48643.846351
2551.498769, 48643.788198
2552.619594, 48643.728961
2553.746955, 48643.668225
2554.873479, 48643.606373
2555.999732, 48643.543369
2557.114338, 48643.479861
2558.247376, 48643.414118
2559.380065, 48643.347195
2560.514947, 48643.278932
2561.648907, 48643.209507
2562.774421, 48643.139391
2563.910169, 48643.067409
2565.047446, 48642.994088
2566.187599, 48642.919327
2567.332732, 48642.842967
2568.472216, 48642.765713
2569.617192, 48642.686802
2570.761152, 48642.606668
2571.904410, 48642.525286
2573.052597, 48642.442240
2574.197554, 48642.358111
2575.351478, 48642.271986
2576.500677, 48642.184872
2577.657074, 48642.095855
2578.812135, 48642.005573
2579.970280, 48641.913672
2581.123747, 48641.820762
2582.278749, 48641.726343
2583.438195, 48641.630158
2584.601868, 48641.532204
2585.768471, 48641.432567
2586.931620, 48641.331788
2588.095730, 48641.229481
2589.268716, 48641.124926
2590.440161, 48641.019029
2591.609904, 48640.911805
2592.786238, 48640.802475
2593.961392, 48640.691746
2595.136335, 48640.579520
2596.318036, 48640.465112
2597.494646, 48640.349659
2598.675196, 48640.232269
2599.850899, 48640.113810
2601.037266, 48639.992701
2602.220000, 48639.870379
2602.457792, 48639.845594
2602.622931, 48639.828344
2602.740782, 48639.816015
2602.837796, 48639.805854
2603.111269, 48639.777152
2603.144128, 48639.773698
2603.148661, 48639.773221
2603.150042, 48639.773076
2603.151451, 48639.772928
2603.161409, 48639.771881
2603.213328, 48639.766419
2603.400756, 48639.746677
2603.858398, 48639.698305
2604.882283, 48639.589214
2606.066015, 48639.461592
2607.259254, 48639.331310
2608.453912, 48639.199221
2609.655459, 48639.064694
2610.854746, 48638.928737
2612.056925, 48638.790757
2613.262887, 48638.650629
2614.465466, 48638.509176
2615.670166, 48638.365748
2616.881501, 48638.219779
2618.090654, 48638.072314
2619.303537, 48637.922620
2620.517187, 48637.771047
2621.733689, 48637.617316
2622.952525, 48637.461474
2624.177557, 48637.303000
2625.396617, 48637.143460
2626.620561, 48636.981426
2627.847010, 48636.817189
2629.072846, 48636.651153
2630.303656, 48636.482544
2631.536050, 48636.311803
2632.768392, 48636.139143
2634.002386, 48635.964314
2635.245919, 48635.786165
2636.485487, 48635.606607
2637.502412, 48635.457821
2637.727179, 48635.424755
2638.970846, 48635.240612
2640.213614, 48635.054592
2641.466227, 48634.865057
2642.717448, 48634.673678
2643.973530, 48634.479481
2645.228161, 48634.283424
2646.480759, 48634.085599
2647.740667, 48633.884508
2649.005671, 48633.680463
2650.274477, 48633.473644
2651.543388, 48633.264632
2652.812531, 48633.053397
2654.086132, 48632.839214
2655.358332, 48632.623053
2656.637134, 48632.403529
2657.917725, 48632.181439
2659.197052, 48631.957300
2660.476096, 48631.730937
2661.760099, 48631.501400
2663.050720, 48631.268350
2664.340633, 48631.033087
2665.631811, 48630.795239
2666.928142, 48630.554063
2668.223221, 48630.310731
2669.520146, 48630.064648
2670.819931, 48629.815601
2672.123367, 48629.563409
2673.432787, 48629.307585
2674.739661, 48629.049775
2676.053129, 48628.788155
2677.364102, 48628.524515
2678.677811, 48628.257790
2679.993796, 48627.988052
2681.320586, 48627.713502
2682.647768, 48627.436254
2683.971551, 48627.157097
2685.297207, 48626.874914
2686.623256, 48626.590005
2687.954886, 48626.301225
2689.294300, 48626.008048
2690.622648, 48625.714597
2691.967596, 48625.414736
2693.308388, 48625.113042
2694.656347, 48624.806949
2695.999645, 48624.499124
2697.349131, 48624.187065
2698.699010, 48623.872083
2700.059224, 48623.551812
2701.412652, 48623.230262
2702.775446, 48622.903576
2704.135270, 48622.574681
2705.502772, 48622.240975
2706.877252, 48621.902571
2708.247672, 48621.562166
2709.630687, 48621.215583
2711.008834, 48620.867162
2712.393847, 48620.513920
2713.769262, 48620.160053
2715.158603, 48619.799483
2716.548440, 48619.435636
2717.942599, 48619.067482
2719.335235, 48618.696545
2720.730120, 48618.321806
2722.125416, 48617.943738
2723.524108, 48617.561507
2724.933286, 48617.173118
2726.337363, 48616.782834
2727.751364, 48616.386451
2729.168701, 48615.985758
2730.576849, 48615.584304
2732.003852, 48615.174048
2733.417060, 48614.764346
2734.848075, 48614.346011
2736.269442, 48613.927026
2737.698257, 48613.502350
2739.129591, 48613.073398
2740.560829, 48612.640933
2742.004862, 48612.201000
2743.449921, 48611.757122
2744.903155, 48611.307054
2746.346480, 48610.856392
2747.790971, 48610.401700
2749.233576, 48609.943928
2750.685867, 48609.479362
2752.143502, 48609.009321
2753.607466, 48608.533429
2755.072817, 48608.053252
2756.536250, 48607.569860
2758.013855, 48607.077878
2759.499225, 48606.579339
2760.973471, 48606.080584
2762.452020, 48605.576408
2763.930594, 48605.068240
2765.419401, 48604.552517
2766.916191, 48604.029931
2768.404824, 48603.506104
2769.898876, 48602.976259
2771.398921, 48602.440130
2772.907560, 48601.896715
2774.414271, 48601.349761
2775.924712, 48600.797195
2777.443649, 48600.237208
2778.959344, 48599.674090
2780.485435, 48599.102731
2782.008894, 48598.527962
2783.528902, 48597.950104
2785.064790, 48597.361740
2786.592979, 48596.771854
2788.135514, 48596.171894
2789.678581, 48595.567151
2791.213911, 48594.960886
2792.762029, 48594.344957
2794.306935, 48593.725673
2795.862116, 48593.097581
2797.417486, 48592.464694
2798.987091, 48591.821216
2800.559661, 48591.171674
2802.128262, 48590.518923
2803.694091, 48589.862480
2805.258076, 48589.201964
2806.833387, 48588.531755
2808.404629, 48587.858354
2809.998175, 48587.170357
2811.581158, 48586.481884
2813.159081, 48585.790602
2814.737881, 48585.093914
2816.324908, 48584.388521
2817.916086, 48583.676159
2819.502018, 48582.961027
2821.110018, 48582.230711
2822.703018, 48581.501997
2824.308324, 48580.762392
2825.928518, 48580.010559
2827.543624, 48579.255703
2829.163121, 48578.493382
2830.789853, 48577.722183
2832.408072, 48576.949564
2834.038332, 48576.165679
2835.663759, 48575.378589
2837.286419, 48574.587317
2838.926488, 48573.781935
2840.574006, 48572.967190
2842.208322, 48572.153308
2843.839451, 48571.335374
2845.482211, 48570.505896
2847.123678, 48569.671331
2848.758915, 48568.834215
2850.428115, 48567.973808
2852.080367, 48567.116249
2853.747084, 48566.245230
2855.413942, 48565.368144
2857.075681, 48564.487768
2858.765650, 48563.586295
2860.450825, 48562.681195
2862.123716, 48561.776570
2863.799452, 48560.864274
2865.492375, 48559.936373
2867.187964, 48559.000701
2868.878155, 48558.061705
2870.563756, 48557.118979
2872.256391, 48556.165989
2873.960065, 48555.200366
2875.665848, 48554.227077
2877.376614, 48553.244430
2879.087208, 48552.255339
2880.794331, 48551.261718
2882.508995, 48550.257117
2884.244666, 48549.233465
2885.954939, 48548.218141
2887.689238, 48547.181794
2889.432358, 48546.133301
2891.177465, 48545.076693
2892.915798, 48544.017285
2894.653168, 48542.951566
2896.393347, 48541.877195
2898.136609, 48540.793950
2899.874992, 48539.706775
2901.627120, 48538.603952
2903.382222, 48537.492143
2905.134479, 48536.375017
2906.911144, 48535.235050
2908.661231, 48534.104954
2910.416837, 48532.964116
2912.201247, 48531.797175
2913.980957, 48530.625877
2915.761612, 48529.446512
2917.539186, 48528.261744
2919.315131, 48527.070618
2921.125439, 48525.848770
2922.920231, 48524.629729
2924.705866, 48523.409317
2926.521879, 48522.160360
2928.315299, 48520.919222
2930.123016, 48519.660409
2931.922803, 48518.399343
2933.760661, 48517.103578
2935.572003, 48515.818558
2937.383359, 48514.525619
2939.214526, 48513.210482
2941.033744, 48511.895890
2942.857140, 48510.570223
2944.703018, 48509.219979
2946.542962, 48507.865817
2948.363248, 48506.517991
2950.203093, 48505.147449
2952.045464, 48503.766712
2953.879683, 48502.383805
2955.711694, 48500.994300
2957.559225, 48499.584644
2959.409831, 48498.164191
2961.268528, 48496.728994
2963.124677, 48495.287217
2964.984616, 48493.833908
2966.837714, 48492.377381
2968.687262, 48490.915105
2970.556434, 48489.428629
2972.425122, 48487.933795
2974.307848, 48486.418873
2976.179735, 48484.903843
2978.068698, 48483.366049
2979.961261, 48481.816299
2981.843742, 48480.265827
2983.731343, 48478.702130
2985.635505, 48477.115559
2987.534663, 48475.523982
2989.439244, 48473.918642
2991.351422, 48472.297594
2993.243980, 48470.683982
2995.159272, 48469.041658
2997.084707, 48467.381159
2998.995679, 48465.723722
3000.880595, 48464.079683
3002.776235, 48462.417059
3004.714021, 48460.707885
3006.637555, 48459.001683
3008.546825, 48457.298659
3010.462638, 48455.580297
3012.383242, 48453.848068
3014.292523, 48452.116539
3016.230412, 48450.349351
3018.173010, 48448.568031
3020.101170, 48446.790194
3022.036164, 48444.996269
3023.990269, 48443.174662
3025.932243, 48441.354427
3027.878908, 48439.519839
3029.818061, 48437.682404
3031.761136, 48435.831300
3033.704886, 48433.969572
3035.642465, 48432.103803
3037.604083, 48430.204752
3039.563787, 48428.297354
3041.512324, 48426.390705
3043.490600, 48424.444617
3045.468147, 48422.488821
3047.429237, 48420.538991
3049.398838, 48418.570352
3051.386209, 48416.573427
3053.374065, 48414.565423
3055.338706, 48412.570448
3057.322374, 48410.545628
3059.296993, 48408.519526
3061.291561, 48406.462287
3063.293192, 48404.386972
3065.278024, 48402.318384
3067.268224, 48400.233501
3069.252025, 48398.144643
3071.254571, 48396.025223
3073.266207, 48393.885218
3075.278482, 48391.733524
3077.271254, 48389.591822
3079.287088, 48387.414322
3081.280987, 48385.249608
3083.294489, 48383.052589
3085.307176, 48380.845377
3087.315431, 48378.631969
3089.326791, 48376.404057
3091.357787, 48374.143128
3093.397173, 48371.861456
3095.399759, 48369.609823
3097.447545, 48367.295949
3099.469563, 48364.999848
3101.486434, 48362.698352
3103.509501, 48360.378498
3105.552424, 48358.024389
3107.576989, 48355.680037
3109.606696, 48353.318330
3111.641992, 48350.938646
3113.677607, 48348.547086
3115.719748, 48346.136287
3117.751789, 48343.725895
3119.823199, 48341.256972
3121.870846, 48338.804619
3123.941821, 48336.312430
3126.006170, 48333.816298
3128.054486, 48331.327782
3130.107614, 48328.821643
3132.156703, 48326.308667
3134.210215, 48323.778467
3136.264367, 48321.235647
3138.334958, 48318.660493
3140.393034, 48316.088971
3142.455745, 48313.499712
3144.511886, 48310.906787
3145.818099, 48309.253388
