Speed, Forces
  77.597351, 14630.172735
  78.312362, 14532.310401
  79.027373, 14432.664223
  79.742384, 14337.948490
  80.457395, 14247.772766
  81.172406, 14165.207837
  81.887417, 14086.782784
  82.602428, 14012.015134
  83.317439, 13944.020584
  84.032450, 13880.020533
  84.747461, 13819.049183
  85.462472, 13765.281075
  86.177483, 13713.672519
  86.892494, 13667.281455
  87.607505, 13624.765128
  88.322516, 13585.461618
  89.037527, 13551.410487
  89.752538, 13519.216749
  90.467549, 13492.970217
  91.182560, 13467.897282
  91.897572, 13448.761184
  92.612583, 13430.808894
  93.327594, 13418.055500
  94.042605, 13407.212508
  94.757616, 13400.080520
  95.472627, 13396.324291
  96.187638, 13394.018848
  96.902649, 13397.315655
  97.617660, 13400.636879
  98.332671, 13409.313259
  99.047682, 13419.693395
  99.762693, 13431.399005
 100.477704, 13448.780087
 101.192715, 13466.285295
 101.907726, 13486.922913
 102.622737, 13511.406970
 103.337748, 13536.062213
 104.052759, 13564.483774
 104.767770, 13596.080850
 105.482781, 13627.894306
 106.197792, 13662.884615
 106.912803, 13701.587970
 107.627814, 13740.551034
 108.342825, 13780.827763
 109.057837, 13826.613874
 109.772848, 13872.701157
 110.487859, 13919.089613
 111.202870, 13969.743406
 111.917881, 14022.912739
 112.632892, 14076.422844
 113.347903, 14130.273720
 114.062914, 14189.653142
 114.777925, 14250.224077
 115.492936, 14311.173518
 116.207947, 14372.501465
 116.922958, 14438.843194
 117.637969, 14506.811733
 118.352980, 14575.194648
 119.067991, 14643.991939
 119.783002, 14715.420767
 120.498013, 14790.760534
 121.213024, 14866.548683
 121.928035, 14942.785213
 122.643046, 15019.470125
 123.358057, 15099.976287
 124.073068, 15183.119052
 124.788079, 15266.742339
 125.503090, 15350.846148
 126.218102, 15435.430478
 126.933113, 15522.610165
 127.648124, 15613.545349
 128.363135, 15704.991331
 129.078146, 15796.948109
 129.793157, 15889.415684
 130.508168, 15982.394056
 131.223179, 16079.386307
 131.938190, 16178.614567
 132.653201, 16278.382034
 133.368212, 16378.688709
 134.083223, 16479.534591
 134.798234, 16580.919681
 135.513245, 16684.651239
 136.228256, 16792.159143
 136.943267, 16900.232800
 137.658278, 17008.872211
 138.373289, 17118.077375
 139.088300, 17227.848292
 139.803311, 17338.184963
 140.518322, 17450.751489
 141.233333, 17567.082473
 141.948344, 17684.003893
 142.663355, 17801.515746
 143.378367, 17919.618034
 144.093378, 18038.310757
 144.808389, 18157.593914
 145.523400, 18277.467505
 146.238411, 18400.186237
 146.953422, 18525.918622
 147.668433, 18652.264258
 148.383444, 18779.223145
