Speed, Forces
  61.801651, 14630.172735
  62.621060, 14487.248127
  63.440470, 14348.917772
  64.259880, 14221.699651
  65.079290, 14105.157235
  65.898700, 13998.830833
  66.718110, 13902.237584
  67.537520, 13814.871463
  68.356930, 13737.779744
  69.176340, 13669.598945
  69.995750, 13609.507928
  70.815160, 13556.919586
  71.634570, 13511.223647
  72.453980, 13475.291672
  73.273390, 13446.169994
  74.092800, 13422.544685
  74.912210, 13406.965971
  75.731620, 13398.350288
  76.551030, 13393.692084
  77.370439, 13398.440125
  78.189849, 13407.022278
  79.009259, 13421.958176
  79.828669, 13442.789457
  80.648079, 13467.955754
  81.467489, 13499.975436
  82.286899, 13535.391512
  83.106309, 13577.469369
  83.925719, 13623.131437
  84.745129, 13674.067745
  85.564539, 13729.948851
  86.383949, 13788.474389
  87.203359, 13854.524413
  88.022769, 13921.198009
  88.842179, 13995.446118
  89.661589, 14072.297337
  90.480999, 14151.209297
  91.300409, 14238.137825
  92.119818, 14325.850042
  92.939228, 14417.098974
  93.758638, 14514.839290
  94.578048, 14613.437564
  95.397458, 14715.085530
  96.216868, 14823.631803
  97.036278, 14933.106440
  97.855688, 15043.509440
  98.675098, 15162.388156
  99.494508, 15282.694715
 100.313918, 15403.996183
 101.133328, 15528.772650
 101.952738, 15659.831940
 102.772148, 15791.948823
 103.591558, 15925.123300
 104.410968, 16061.939170
 105.230378, 16204.753668
 106.049788, 16348.684584
 106.869197, 16493.731917
 107.688607, 16639.895667
 108.508017, 16794.119475
 109.327427, 16949.821798
 110.146837, 17106.695501
 110.966247, 17264.740584
 111.785657, 17424.524835
 112.605067, 17591.909609
 113.424477, 17760.516864
 114.243887, 17930.346601
 115.063297, 18101.398819
 115.882707, 18273.673519
 116.702117, 18451.328162
 117.521527, 18632.799542
 118.340937, 18815.540644
 119.160347, 18999.551468
 119.979757, 19184.832014
 120.799167, 19371.382281
 121.618576, 19562.051355
 122.437986, 19757.601239
 123.257396, 19954.464223
 124.076806, 20152.640310
 124.896216, 20352.129497
 125.715626, 20552.931786
 126.535036, 20755.047177
 127.354446, 20960.823629
 128.173856, 21171.727035
 128.993266, 21383.983060
 129.812676, 21597.591706
 130.632086, 21812.552972
 131.451496, 22028.866857
 132.270906, 22246.533363
 133.090316, 22465.552489
 133.909726, 22687.115677
 134.729136, 22914.685099
 135.548546, 23143.642798
 136.367955, 23373.988775
 137.187365, 23605.723029
 138.006775, 23838.845561
 138.826185, 24073.356371
 139.645595, 24309.255458
 140.465005, 24546.542822
 141.284415, 24785.218464
 142.103825, 25028.468656
 142.923235, 25275.450970
