Speed, Forces
  71.734067, 14630.172735
  72.536230, 14509.803182
  73.338393, 14390.921105
  74.140556, 14280.218858
  74.942718, 14177.278784
  75.744881, 14081.666747
  76.547044, 13992.932131
  77.349207, 13910.607844
  78.151369, 13836.863335
  78.953532, 13769.450403
  79.755695, 13707.391517
  80.557858, 13650.979003
  81.360021, 13602.674464
  82.162183, 13558.566073
  82.964346, 13519.532573
  83.766509, 13487.875958
  84.568672, 13459.155971
  85.370834, 13437.449633
  86.172997, 13419.733291
  86.975160, 13406.579253
  87.777323, 13399.062540
  88.579485, 13394.491053
  89.381648, 13396.320519
  90.183811, 13400.345358
  90.985974, 13410.618115
  91.788136, 13423.236576
  92.590299, 13441.000300
  93.392462, 13462.193201
  94.194625, 13486.446131
  94.996787, 13516.177810
  95.798950, 13546.161610
  96.601113, 13584.087067
  97.403276, 13622.624065
  98.205439, 13664.751722
  99.007601, 13711.770552
  99.809764, 13759.171880
 100.611927, 13812.349427
 101.414090, 13868.205811
 102.216252, 13924.505761
 103.018415, 13987.247499
 103.820578, 14051.953757
 104.622741, 14117.161903
 105.424903, 14187.883264
 106.227066, 14261.426999
 107.029229, 14335.528197
 107.831392, 14412.545739
 108.633554, 14494.889835
 109.435717, 14577.844222
 110.237880, 14661.408901
 111.040043, 14750.458253
 111.842205, 14842.201250
 112.644368, 14934.604620
 113.446531, 15027.668365
 114.248694, 15126.542244
 115.050857, 15227.692261
 115.853019, 15329.549989
 116.655182, 15432.115426
 117.457345, 15538.441761
 118.259508, 15648.973962
 119.061670, 15760.258462
 119.863833, 15872.295262
 120.665996, 15985.084361
 121.468159, 16103.393784
 122.270321, 16224.044516
 123.072484, 16345.489391
 123.874647, 16467.728407
 124.676810, 16590.761566
 125.478972, 16717.958966
 126.281135, 16848.715670
 127.083298, 16980.305613
 127.885461, 17112.728794
 128.687623, 17245.985215
 129.489786, 17380.074874
 130.291949, 17519.537219
 131.094112, 17661.215727
 131.896275, 17803.763825
 132.698437, 17947.181511
 133.500600, 18091.468786
 134.302763, 18236.625651
 135.104926, 18384.316365
 135.907088, 18536.888933
 136.709251, 18690.364693
 137.511414, 18844.743646
 138.313577, 19000.025792
 139.115739, 19156.211130
 139.917902, 19313.299661
 140.720065, 19471.291385
 141.522228, 19635.460525
 142.324390, 19800.718070
 143.126553, 19966.909665
 143.928716, 20134.035310
 144.730879, 20302.095004
 145.533041, 20471.088749
 146.335204, 20641.016543
 147.137367, 20811.878387
 147.939530, 20986.780608
 148.741693, 21164.708955
 149.543855, 21343.599463
 150.346018, 21523.452132
 151.148181, 21704.266962
