Speed, Forces
  66.497277, 14630.172735
  67.379774, 14487.116763
  68.262272, 14348.674800
  69.144769, 14221.364869
  70.027267, 14104.750444
  70.909764, 13998.371789
  71.792261, 13901.745958
  72.674759, 13814.366797
  73.557256, 13737.195983
  74.439753, 13669.031592
  75.322251, 13608.976302
  76.204748, 13556.442725
  77.087245, 13510.820261
  77.969743, 13474.849670
  78.852240, 13445.830662
  79.734738, 13422.326025
  80.617235, 13406.730154
  81.499732, 13398.263860
  82.382230, 13393.772070
  83.264727, 13398.525459
  84.147224, 13407.301881
  85.029722, 13422.254836
  85.912219, 13443.307745
  86.794717, 13468.503165
  87.677214, 13500.771209
  88.559711, 13536.228783
  89.442209, 13578.580979
  90.324706, 13624.297187
  91.207203, 13675.532924
  92.089701, 13731.481036
  92.972198, 13790.330074
  93.854695, 13856.460150
  94.737193, 13923.214971
  95.619690, 13997.821512
  96.502188, 14074.767291
  97.384685, 14154.059264
  98.267182, 14241.095775
  99.149680, 14328.917452
 100.032177, 14420.578518
 100.914674, 14518.441896
 101.797172, 14617.164846
 102.679669, 14719.255341
 103.562167, 14827.940018
 104.444664, 14937.554806
 105.327161, 15048.099705
 106.209659, 15167.461397
 107.092156, 15287.923772
 107.974653, 15409.382929
 108.857151, 15534.668406
 109.739648, 15665.899302
 110.622145, 15798.189782
 111.504643, 15931.539848
 112.387140, 16068.900064
 113.269638, 16211.904120
 114.152135, 16356.026695
 115.034632, 16501.267789
 115.917130, 16647.700910
 116.799627, 16802.439564
 117.682124, 16958.351803
 118.564622, 17115.437627
 119.447119, 17273.697036
 120.329617, 17434.097991
 121.212114, 17601.711043
 122.094611, 17770.548879
 122.977109, 17940.611497
 123.859606, 18111.898899
 124.742103, 18284.411083
 125.624601, 18462.729711
 126.507098, 18644.452533
 127.389595, 18827.447467
 128.272093, 19011.714514
 129.154590, 19197.253673
 130.037088, 19384.064944
 130.919585, 19575.439708
 131.802082, 19771.264455
 132.684580, 19968.404776
 133.567077, 20166.860670
 134.449574, 20366.632138
 135.332072, 20567.719179
 136.214569, 20770.121793
 137.097067, 20976.650339
 137.979564, 21187.854705
 138.862061, 21400.414238
 139.744559, 21614.328937
 140.627056, 21829.598803
 141.509553, 22046.223834
 142.392051, 22264.204033
 143.274548, 22483.539397
 144.157046, 22705.903942
 145.039543, 22933.803166
 145.922040, 23163.093281
 146.804538, 23393.774287
 147.687035, 23625.846184
 148.569532, 23859.308973
 149.452030, 24094.162652
 150.334527, 24330.407222
 151.217024, 24568.042683
 152.099522, 24807.069035
 152.982019, 25051.181099
 153.864517, 25298.527502
