Speed, Forces
  84.189821, 14630.172735
  84.809798, 14553.431125
  85.429775, 14471.763184
  86.049752, 14393.819255
  86.669729, 14320.256490
  87.289706, 14248.105583
  87.909683, 14182.181482
  88.529661, 14117.267955
  89.149638, 14057.107063
  89.769615, 13998.957363
  90.389592, 13944.573552
  91.009569, 13892.692687
  91.629546, 13844.092682
  92.249523, 13797.964220
  92.869500, 13755.147599
  93.489477, 13714.233670
  94.109454, 13677.192866
  94.729431, 13640.934162
  95.349408, 13609.654460
  95.969385, 13578.170709
  96.589362, 13551.929773
  97.209339, 13526.224849
  97.829316, 13503.387612
  98.449293, 13483.431317
  99.069270, 13463.368199
  99.689247, 13449.123188
 100.309224, 13434.789310
 100.929201, 13422.604953
 101.549178, 13413.973881
 102.169155, 13405.289953
 102.789132, 13400.171422
 103.409109, 13397.172294
 104.029086, 13394.155131
 104.649063, 13395.246613
 105.269040, 13397.886714
 105.889017, 13400.542410
 106.508994, 13406.945216
 107.128971, 13415.221111
 107.748948, 13423.545040
 108.368925, 13434.317601
 108.988902, 13448.215138
 109.608879, 13462.191956
 110.228856, 13476.349826
 110.848833, 13495.844131
 111.468810, 13515.447774
 112.088787, 13535.160753
 112.708764, 13557.019111
 113.328742, 13582.212794
 113.948719, 13607.544680
 114.568696, 13633.014769
 115.188673, 13661.323000
 115.808650, 13692.225099
 116.428627, 13723.293075
 117.048604, 13754.526928
 117.668581, 13787.962957
 118.288558, 13824.568215
 118.908535, 13861.365834
 119.528512, 13898.355813
 120.148489, 13935.538152
 120.768466, 13977.814971
 121.388443, 14020.321493
 122.008420, 14063.045667
 122.628397, 14105.987495
 123.248374, 14150.423853
 123.868351, 14198.604246
 124.488328, 14247.026394
 125.108305, 14295.690295
 125.728282, 14344.595951
 126.348259, 14394.543949
 126.968236, 14448.613553
 127.588213, 14502.947822
 128.208190, 14557.546755
 128.828167, 14612.410352
 129.448144, 14667.538614
 130.068121, 14725.947003
 130.688098, 14786.172023
 131.308075, 14846.683426
 131.928052, 14907.481213
 132.548029, 14968.565383
 133.168006, 15029.935937
 133.787983, 15094.606584
 134.407960, 15160.990031
 135.027937, 15227.680390
 135.647914, 15294.677660
 136.267891, 15361.981842
 136.887868, 15429.592935
 137.507845, 15498.177636
 138.127823, 15570.701083
 138.747800, 15643.550778
 139.367777, 15716.726722
 139.987754, 15790.228914
 140.607731, 15864.057355
 141.227708, 15938.212045
 141.847685, 16012.692983
 142.467662, 16091.649387
 143.087639, 16170.961757
 143.707616, 16250.618520
 144.327593, 16330.619679
 144.947570, 16410.965232
 145.567547, 16491.655179
