Speed, Forces
  61.801651, 39530.482530
  62.758553, 39194.098514
  63.715455, 38857.714498
  64.672357, 38521.330481
  65.629259, 38184.946465
  66.586162, 37848.562449
  67.543064, 37512.178433
  68.499966, 37195.482341
  69.456868, 36901.790717
  70.413771, 36608.099092
  71.370673, 36314.407468
  72.327575, 36020.715843
  73.284477, 35727.024219
  74.241380, 35433.332595
  75.198282, 35139.640970
  76.155184, 34845.949346
  77.112086, 34552.257721
  78.068989, 34258.566097
  79.025891, 33964.874473
  79.982793, 33671.182848
  80.939695, 33377.491224
  81.896597, 33083.799599
  82.853500, 32790.107975
  83.810402, 32496.416351
  84.767304, 32202.724726
  85.724206, 31941.202880
  86.681109, 31694.808220
  87.638011, 31448.413560
  88.594913, 31202.018899
  89.551815, 30955.624239
  90.508718, 30709.229579
  91.465620, 30462.834918
  92.422522, 30216.440258
  93.379424, 29970.045598
  94.336326, 29723.650937
  95.293229, 29477.256277
  96.250131, 29230.861617
  97.207033, 28984.466956
  98.163935, 28738.072296
  99.120838, 28491.677635
 100.077740, 28245.282975
 101.034642, 27998.888315
 101.991544, 27752.493654
 102.948447, 27542.506732
 103.905349, 27336.602277
 104.862251, 27130.697822
 105.819153, 26924.793367
 106.776056, 26718.888912
 107.732958, 26512.984457
 108.689860, 26307.080001
 109.646762, 26101.175546
 110.603664, 25895.271091
 111.560567, 25689.366636
 112.517469, 25483.462181
 113.474371, 25277.557726
 114.431273, 25071.653271
 115.388176, 24865.748815
 116.345078, 24659.844360
 117.301980, 24453.939905
 118.258882, 24248.035450
 119.215785, 24046.253735
 120.172687, 23875.233919
 121.129589, 23704.214103
 122.086491, 23533.194287
 123.043394, 23362.174471
 124.000296, 23191.154655
 124.957198, 23020.134838
 125.914100, 22849.115022
 126.871002, 22678.095206
 127.827905, 22507.075390
 128.784807, 22336.055574
 129.741709, 22165.035758
 130.698611, 21994.015942
 131.655514, 21822.996126
 132.612416, 21651.976310
 133.569318, 21480.956494
 134.526220, 21309.936678
 135.483123, 21138.916862
 136.440025, 20973.972503
 137.396927, 20820.970578
 138.353829, 20667.968653
 139.310731, 20514.966728
 140.267634, 20361.964803
 141.224536, 20208.962878
 142.181438, 20055.960953
 143.138340, 19902.959028
 144.095243, 19749.957103
 145.052145, 19596.955178
 146.009047, 19443.953253
 146.965949, 19290.951328
 147.922852, 19137.949403
 148.879754, 18984.947478
 149.836656, 18831.945553
 150.793558, 18678.943628
 151.750461, 18525.941703
 152.707363, 18372.939778
 153.664265, 18219.937853
 154.621167, 18066.935928
 155.578069, 17913.934003
 156.534972, 17760.932078
