Speed, Forces
  84.189821, 21016.243826
  84.809798, 20922.669106
  85.429775, 20829.094386
  86.049752, 20735.519666
  86.669729, 20641.944946
  87.289706, 20548.370226
  87.909683, 20454.795506
  88.529661, 20361.220786
  89.149638, 20267.646066
  89.769615, 20174.071346
  90.389592, 20080.496626
  91.009569, 19986.921906
  91.629546, 19893.347186
  92.249523, 19799.772466
  92.869500, 19706.197746
  93.489477, 19612.623026
  94.109454, 19519.048306
  94.729431, 19425.473586
  95.349408, 19349.764533
  95.969385, 19282.940863
  96.589362, 19216.117192
  97.209339, 19149.293521
  97.829316, 19082.469851
  98.449293, 19015.646180
  99.069270, 18948.822510
  99.689247, 18881.998839
 100.309224, 18815.175168
 100.929201, 18748.351498
 101.549178, 18681.527827
 102.169155, 18614.704157
 102.789132, 18547.880486
 103.409109, 18481.056816
 104.029086, 18414.233145
 104.649063, 18347.409474
 105.269040, 18280.585804
 105.889017, 18213.762133
 106.508994, 18146.938463
 107.128971, 18080.114792
 107.748948, 18013.291121
 108.368925, 17946.467451
 108.988902, 17879.643780
 109.608879, 17812.820110
 110.228856, 17745.996439
 110.848833, 17681.008876
 111.468810, 17626.705858
 112.088787, 17572.402839
 112.708764, 17518.099820
 113.328742, 17463.796802
 113.948719, 17409.493783
 114.568696, 17355.190765
 115.188673, 17300.887746
 115.808650, 17246.584728
 116.428627, 17192.281709
 117.048604, 17137.978690
 117.668581, 17083.675672
 118.288558, 17029.372653
 118.908535, 16975.069635
 119.528512, 16920.766616
 120.148489, 16866.463597
 120.768466, 16812.160579
 121.388443, 16757.857560
 122.008420, 16703.554542
 122.628397, 16649.251523
 123.248374, 16594.948505
 123.868351, 16540.645486
 124.488328, 16486.342467
 125.108305, 16432.039449
 125.728282, 16377.736430
 126.348259, 16323.433412
 126.968236, 16275.141210
 127.588213, 16230.448679
 128.208190, 16185.756149
 128.828167, 16141.063618
 129.448144, 16096.371087
 130.068121, 16051.678557
 130.688098, 16006.986026
 131.308075, 15962.293495
 131.928052, 15917.600965
 132.548029, 15872.908434
 133.168006, 15828.215904
 133.787983, 15783.523373
 134.407960, 15738.830842
 135.027937, 15694.138312
 135.647914, 15649.445781
 136.267891, 15604.753250
 136.887868, 15560.060720
 137.507845, 15515.368189
 138.127823, 15470.675659
 138.747800, 15425.983128
 139.367777, 15381.290597
 139.987754, 15336.598067
 140.607731, 15291.905536
 141.227708, 15247.213006
 141.847685, 15202.520475
 142.467662, 15158.714060
 143.087639, 15122.522206
 143.707616, 15086.330353
 144.327593, 15050.138500
 144.947570, 15013.946647
 145.567547, 14977.754793
