Speed, Forces
  71.734067, 30677.128078
  72.536230, 30488.945090
  73.338393, 30300.762103
  74.140556, 30112.579116
  74.942718, 29924.396129
  75.744881, 29736.213141
  76.547044, 29548.030154
  77.349207, 29359.847167
  78.151369, 29171.664179
  78.953532, 28983.481192
  79.755695, 28795.298205
  80.557858, 28607.115217
  81.360021, 28418.932230
  82.162183, 28231.565292
  82.964346, 28083.217483
  83.766509, 27934.869674
  84.568672, 27786.521864
  85.370834, 27638.174055
  86.172997, 27489.826246
  86.975160, 27341.478437
  87.777323, 27193.130627
  88.579485, 27044.782818
  89.381648, 26896.435009
  90.183811, 26748.087199
  90.985974, 26599.739390
  91.788136, 26451.391581
  92.590299, 26303.043771
  93.392462, 26154.695962
  94.194625, 26006.348153
  94.996787, 25858.000344
  95.798950, 25709.652534
  96.601113, 25561.304725
  97.403276, 25412.956916
  98.205439, 25264.609106
  99.007601, 25128.569238
  99.809764, 25003.038520
 100.611927, 24877.507802
 101.414090, 24751.977083
 102.216252, 24626.446365
 103.018415, 24500.915646
 103.820578, 24375.384928
 104.622741, 24249.854210
 105.424903, 24124.323491
 106.227066, 23998.792773
 107.029229, 23873.262055
 107.831392, 23747.731336
 108.633554, 23622.200618
 109.435717, 23496.669900
 110.237880, 23371.139181
 111.040043, 23245.608463
 111.842205, 23120.077744
 112.644368, 22994.547026
 113.446531, 22869.016308
 114.248694, 22743.485589
 115.050857, 22619.441617
 115.853019, 22519.390848
 116.655182, 22419.340079
 117.457345, 22319.289311
 118.259508, 22219.238542
 119.061670, 22119.187774
 119.863833, 22019.137005
 120.665996, 21919.086237
 121.468159, 21819.035468
 122.270321, 21718.984699
 123.072484, 21618.933931
 123.874647, 21518.883162
 124.676810, 21418.832394
 125.478972, 21318.781625
 126.281135, 21218.730857
 127.083298, 21118.680088
 127.885461, 21018.629319
 128.687623, 20918.578551
 129.489786, 20818.527782
 130.291949, 20718.477014
 131.094112, 20618.426245
 131.896275, 20529.121855
 132.698437, 20447.686574
 133.500600, 20366.251293
 134.302763, 20284.816013
 135.104926, 20203.380732
 135.907088, 20121.945451
 136.709251, 20040.510170
 137.511414, 19959.074889
 138.313577, 19877.639608
 139.115739, 19796.204327
 139.917902, 19714.769046
 140.720065, 19633.333765
 141.522228, 19551.898484
 142.324390, 19470.463203
 143.126553, 19389.027922
 143.928716, 19307.592641
 144.730879, 19226.157360
 145.533041, 19144.722079
 146.335204, 19063.286798
 147.137367, 18981.851517
 147.939530, 18900.973596
 148.741693, 18825.331257
 149.543855, 18749.688917
 150.346018, 18674.046577
 151.148181, 18598.404237
