Speed, Forces
  61.801651, 39530.482530
  62.621060, 39242.431778
  63.440470, 38954.381026
  64.259880, 38666.330274
  65.079290, 38378.279522
  65.898700, 38090.228770
  66.718110, 37802.178018
  67.537520, 37514.127266
  68.356930, 37239.382855
  69.176340, 36987.890247
  69.995750, 36736.397640
  70.815160, 36484.905033
  71.634570, 36233.412426
  72.453980, 35981.919819
  73.273390, 35730.427212
  74.092800, 35478.934604
  74.912210, 35227.441997
  75.731620, 34975.949390
  76.551030, 34724.456783
  77.370439, 34472.964176
  78.189849, 34221.471569
  79.009259, 33969.978961
  79.828669, 33718.486354
  80.648079, 33466.993747
  81.467489, 33215.501140
  82.286899, 32964.008533
  83.106309, 32712.515926
  83.925719, 32461.023319
  84.745129, 32209.530711
  85.564539, 31982.315973
  86.383949, 31771.324476
  87.203359, 31560.332979
  88.022769, 31349.341482
  88.842179, 31138.349985
  89.661589, 30927.358487
  90.480999, 30716.366990
  91.300409, 30505.375493
  92.119818, 30294.383996
  92.939228, 30083.392499
  93.758638, 29872.401002
  94.578048, 29661.409505
  95.397458, 29450.418008
  96.216868, 29239.426511
  97.036278, 29028.435013
  97.855688, 28817.443516
  98.675098, 28606.452019
  99.494508, 28395.460522
 100.313918, 28184.469025
 101.133328, 27973.477528
 101.952738, 27762.486031
 102.772148, 27580.442391
 103.591558, 27404.123273
 104.410968, 27227.804155
 105.230378, 27051.485037
 106.049788, 26875.165918
 106.869197, 26698.846800
 107.688607, 26522.527682
 108.508017, 26346.208564
 109.327427, 26169.889445
 110.146837, 25993.570327
 110.966247, 25817.251209
 111.785657, 25640.932091
 112.605067, 25464.612973
 113.424477, 25288.293854
 114.243887, 25111.974736
 115.063297, 24935.655618
 115.882707, 24759.336500
 116.702117, 24583.017381
 117.521527, 24406.698263
 118.340937, 24230.379145
 119.160347, 24056.161732
 119.979757, 23909.714861
 120.799167, 23763.267990
 121.618576, 23616.821119
 122.437986, 23470.374248
 123.257396, 23323.927377
 124.076806, 23177.480507
 124.896216, 23031.033636
 125.715626, 22884.586765
 126.535036, 22738.139894
 127.354446, 22591.693023
 128.173856, 22445.246152
 128.993266, 22298.799281
 129.812676, 22152.352410
 130.632086, 22005.905539
 131.451496, 21859.458668
 132.270906, 21713.011797
 133.090316, 21566.564926
 133.909726, 21420.118055
 134.729136, 21273.671184
 135.548546, 21127.224313
 136.367955, 20985.495878
 137.187365, 20854.478001
 138.006775, 20723.460125
 138.826185, 20592.442248
 139.645595, 20461.424371
 140.465005, 20330.406495
 141.284415, 20199.388618
 142.103825, 20068.370741
 142.923235, 19937.352865
