Time, Altitude
   0.000000,    0.000000
   0.001667,    0.000000
   0.003333,    0.000000
   0.005000,    0.000000
   0.006667,    0.000000
   0.008333,    0.000000
   0.010000,    0.000000
   0.011667,    0.000000
   0.013333,    0.000000
   0.015000,    0.000000
   0.016667,    0.000000
   0.018333,    0.000000
   0.020000,    0.000000
   0.021667,    0.000000
   0.023333,    0.000000
   0.025000,    0.000000
   0.026667,    0.000000
   0.028333,    0.000000
   0.030000,    0.000000
   0.031667,    0.000000
   0.033333,    0.000000
   0.035000,    0.000000
   0.036667,    0.000000
   0.038333,    0.000000
   0.040000,    0.000000
   0.041667,    0.000000
   0.043333,    0.000000
   0.045000,    0.000000
   0.046667,    0.000000
   0.048333,    0.000000
   0.050000,    0.000000
   0.051667,    0.000000
   0.053333,    0.000000
   0.055000,    0.000000
   0.056667,    0.000000
   0.058333,    0.000000
   0.060000,    0.000000
   0.061667,    0.000000
   0.063333,    0.000000
   0.065000,    0.000000
   0.066667,    0.000000
   0.068333,    0.000000
   0.070000,    0.000000
   0.071667,    0.000000
   0.073333,    0.000000
   0.075000,    0.000000
   0.076667,    0.000000
   0.078333,    0.000000
   0.080000,    0.000000
   0.081667,    0.000000
   0.083333,    0.000000
   0.085000,    0.000000
   0.086667,    0.000000
   0.088333,    0.000000
   0.090000,    0.000000
   0.091667,    0.000000
   0.093333,    0.000000
   0.095000,    0.000000
   0.096667,    0.000000
   0.098333,    0.000000
   0.100000,    0.000000
   0.101667,    0.000000
   0.103333,    0.000000
   0.105000,    0.000000
   0.106667,    0.000000
   0.108333,    0.000000
   0.110000,    0.000000
   0.111667,    0.000000
   0.113333,    0.000000
   0.115000,    0.000000
   0.116667,    0.000000
   0.118333,    0.000000
   0.120000,    0.000000
   0.121667,    0.000000
   0.123333,    0.000000
   0.125000,    0.000000
   0.126667,    0.000000
   0.128333,    0.000000
   0.130000,    0.000000
   0.131667,    0.000000
   0.133333,    0.000000
   0.135000,    0.000000
   0.136667,    0.000000
   0.138333,    0.000000
   0.140000,    0.000000
   0.141667,    0.000000
   0.143333,    0.000000
   0.145000,    0.000000
   0.146667,    0.000000
   0.148333,    0.000000
   0.150000,    0.000000
   0.151667,    0.000000
   0.153333,    0.000000
   0.155000,    0.000000
   0.156667,    0.000000
   0.158333,    0.000000
   0.160000,    0.000000
   0.161667,    0.000000
   0.163333,    0.000000
   0.165000,    0.000000
   0.166667,    0.000000
   0.168333,    0.000000
   0.170000,    0.000000
   0.171667,    0.000000
   0.173333,    0.000000
   0.175000,    0.000000
   0.176667,    0.000000
   0.178333,    0.000000
   0.180000,    0.000000
   0.181667,    0.000000
   0.183333,    0.000000
   0.185000,    0.000000
   0.186667,    0.000000
   0.188333,    0.000000
   0.190000,    0.000000
   0.191667,    0.000000
   0.193333,    0.000000
   0.195000,    0.000000
   0.196667,    0.000000
   0.198333,    0.000000
   0.200000,    0.000000
   0.201667,    0.000000
   0.203333,    0.000000
   0.205000,    0.000000
   0.206667,    0.000000
   0.208333,    0.000000
   0.210000,    0.000000
   0.211667,    0.000000
   0.213333,    0.000000
   0.215000,    0.000000
   0.216667,    0.000000
   0.218333,    0.000000
   0.220000,    0.000000
   0.221667,    0.000000
   0.223333,    0.000000
   0.225000,    0.000000
   0.226667,    0.000000
   0.228333,    0.000000
   0.230000,    0.000000
   0.231667,    0.000000
   0.233333,    0.000000
   0.235000,    0.000000
   0.236667,    0.000000
   0.238333,    0.000000
   0.240000,    0.000000
   0.241667,    0.000000
   0.243333,    0.000000
   0.245000,    0.000000
   0.246667,    0.000000
   0.248333,    0.000000
   0.250000,    0.000000
   0.251667,    0.000000
   0.253333,    0.000000
   0.255000,    0.000000
   0.256667,    0.000000
   0.258333,    0.000000
   0.260000,    0.000000
   0.261667,    0.000000
   0.263333,    0.000000
   0.265000,    0.000000
   0.266667,    0.000000
   0.268333,    0.000000
   0.270000,    0.000000
   0.271667,    0.000000
   0.273333,    0.000000
   0.275000,    0.000000
   0.276667,    0.000000
   0.278333,    0.000000
   0.280000,    0.000000
   0.281667,    0.000000
   0.283333,    0.000000
   0.285000,    0.000000
   0.286667,    0.000000
   0.288333,    0.000000
   0.290000,    0.000000
   0.291667,    0.000000
   0.293333,    0.000000
   0.295000,    0.000000
   0.296667,    0.000000
   0.298333,    0.000000
   0.300000,    0.000000
   0.301667,    0.000000
   0.303333,    0.000000
   0.305000,    0.000000
   0.306667,    0.000000
   0.308333,    0.000000
   0.310000,    0.000000
   0.311667,    0.000000
   0.312369,    0.000000
   0.314036,    0.000000
   0.315703,    0.000000
   0.317369,    0.000000
   0.319036,    0.000000
   0.320703,    0.000000
   0.322369,    0.000000
   0.324036,    0.000000
   0.325703,    0.000000
   0.327369,    0.000000
   0.329036,    0.000000
   0.330703,    0.000000
   0.332369,    0.000000
   0.334036,    0.000000
   0.335703,    0.000000
   0.337369,    0.000000
   0.339036,    0.000000
   0.340703,    0.000000
   0.342369,    0.000000
   0.344036,    0.000000
   0.345703,    0.000000
   0.347369,    0.000000
   0.349036,    0.000000
   0.350703,    0.000000
   0.352369,    0.000000
   0.354036,    0.000000
   0.355703,    0.000000
   0.357369,    0.000000
   0.359036,    0.000000
   0.360703,    0.000000
   0.362369,    0.000000
   0.364036,    0.000000
   0.365703,    0.000000
   0.367369,    0.000000
   0.368518,    0.000000
   0.370185,    0.502638
   0.371852,    1.005276
   0.373518,    1.507914
   0.375185,    2.010552
   0.376852,    2.513190
   0.378518,    3.015828
   0.380185,    3.518466
   0.381852,    4.021104
   0.383518,    4.523742
   0.385185,    5.026380
   0.386852,    6.338912
   0.388518,    7.651444
   0.390185,    8.963976
   0.391852,   10.276508
   0.393518,   11.589040
   0.395185,   13.472968
   0.396852,   15.356897
   0.398518,   17.240826
   0.400185,   19.124754
   0.401852,   21.008683
   0.403518,   23.507505
   0.405185,   26.006327
   0.406852,   28.505149
   0.408518,   31.003971
   0.410185,   33.502792
   0.410185,   35.000000
   1.604481, 1920.000000
   2.823272, 3805.000000
   4.081386, 5690.000000
   5.429985, 7575.000000
   6.915721, 9460.000000
   8.560390, 11345.000000
  10.397371, 13230.000000
  12.485334, 15115.000000
  14.968358, 17000.000000
  14.968358, 17000.000000
  15.830802, 17000.000000
  16.693245, 17000.000000
  17.555688, 17000.000000
  18.418132, 17000.000000
  19.280575, 17000.000000
  20.143018, 17000.000000
  21.005461, 17000.000000
  21.867905, 17000.000000
  22.730348, 17000.000000
  23.592791, 17000.000000
  24.455235, 17000.000000
  25.317678, 17000.000000
  26.180121, 17000.000000
  27.042565, 17000.000000
  27.905008, 17000.000000
  28.767451, 17000.000000
  29.629895, 17000.000000
  30.492338, 17000.000000
  31.354781, 17000.000000
  32.217225, 17000.000000
  33.079668, 17000.000000
  33.942111, 17000.000000
  34.804555, 17000.000000
  35.666998, 17000.000000
  36.529441, 17000.000000
  37.391885, 17000.000000
  38.254328, 17000.000000
  39.116771, 17000.000000
  39.979215, 17000.000000
  39.979215, 17000.000000
  41.139143, 15277.777778
  42.301874, 13555.555556
  43.463193, 11833.333333
  44.619342, 10111.111111
  45.768081, 8388.888889
  46.905098, 6666.666667
  48.026307, 4944.444444
  49.143709, 3222.222222
  50.253604, 1500.000000
  50.253604, 1500.000000
  50.833005, 2444.444444
  51.418049, 3388.888889
  52.008556, 4333.333333
  52.607292, 5277.777778
  53.225054, 6222.222222
  53.871173, 7166.666667
  54.548638, 8111.111111
  55.259779, 9055.555556
  56.006440, 10000.000000
  56.006440, 10000.000000
  57.858634, 10000.000000
  59.711637, 10000.000000
  61.565449, 10000.000000
  63.420072, 10000.000000
  65.275506, 10000.000000
  67.131752, 10000.000000
  68.988810, 10000.000000
  70.846682, 10000.000000
  72.705368, 10000.000000
  72.705368, 10000.000000
  73.351774, 9055.555556
  73.988012, 8111.111111
  74.626788, 7166.666667
  75.268241, 6222.222222
  75.912514, 5277.777778
  76.559398, 4333.333333
  77.208755, 3388.888889
  77.860123, 2444.444444
  78.512585, 1500.000000
  78.512585, 1500.000000
  83.512585, 1500.000000
  88.512585, 1500.000000
  93.512585, 1500.000000
  98.512585, 1500.000000
 103.512585, 1500.000000
 108.512585, 1500.000000
 113.512585, 1500.000000
 118.512585, 1500.000000
 123.512585, 1500.000000
 123.512585, 1500.000000
 123.514252, 1499.051170
 123.515918, 1498.102350
 123.517585, 1497.153530
 123.519252, 1496.205125
 123.520918, 1495.256800
 123.522585, 1494.308474
 123.524252, 1493.360149
 123.525918, 1492.411824
 123.527585, 1491.463499
 123.529252, 1490.515173
 123.530918, 1489.566848
 123.532585, 1488.618523
 123.534252, 1487.670198
 123.535918, 1486.722476
 123.537585, 1485.774872
 123.539252, 1484.827267
 123.540918, 1483.879662
 123.542585, 1482.932058
 123.544252, 1481.984453
 123.545918, 1481.036848
 123.547585, 1480.089244
 123.549252, 1479.141639
 123.550918, 1478.194034
 123.552585, 1477.246682
 123.554252, 1476.299378
 123.555918, 1475.352074
 123.557585, 1474.404770
 123.559252, 1473.457466
 123.560918, 1472.510163
 123.562585, 1471.562859
 123.564252, 1470.615555
 123.565918, 1469.668251
 123.567585, 1468.720947
 123.569252, 1467.774562
 123.570918, 1466.828354
 123.572585, 1465.882146
 123.574252, 1464.935938
 123.575918, 1463.989730
 123.577585, 1463.043522
 123.579252, 1462.097315
 123.580918, 1461.151107
 123.582585, 1460.204899
 123.584252, 1459.258691
 123.585918, 1458.312470
 123.587585, 1457.366247
 123.589252, 1456.420023
 123.590918, 1455.473800
 123.592585, 1454.527577
 123.594252, 1453.581353
 123.595918, 1452.635130
 123.597585, 1451.688907
 123.599252, 1450.742683
 123.600918, 1449.796460
 123.602585, 1448.850139
 123.604252, 1447.903799
 123.605918, 1446.957459
 123.607585, 1446.011119
 123.609252, 1445.064779
 123.610918, 1444.118439
 123.612585, 1443.172100
 123.614252, 1442.225760
 123.615918, 1441.279420
 123.617585, 1440.333080
 123.619252, 1439.387047
 123.620918, 1438.441072
 123.622585, 1437.495098
 123.624252, 1436.549124
 123.625918, 1435.603150
 123.627585, 1434.657176
 123.629252, 1433.711202
 123.630918, 1432.765227
 123.632585, 1431.819253
 123.634252, 1430.873279
 123.635918, 1429.926959
 123.637585, 1428.980572
 123.639252, 1428.034185
 123.640918, 1427.087798
 123.642585, 1426.141411
 123.644252, 1425.195024
 123.645918, 1424.248637
 123.647585, 1423.302250
 123.649252, 1422.355863
 123.650918, 1421.409477
 123.652585, 1420.463209
 123.654252, 1419.516964
 123.655918, 1418.570720
 123.657585, 1417.624475
 123.659252, 1416.678230
 123.660918, 1415.731986
 123.662585, 1414.785741
 123.664252, 1413.839496
 123.665918, 1412.893252
 123.667585, 1411.947007
 123.669252, 1411.001036
 123.670918, 1410.055119
 123.672585, 1409.109201
 123.674252, 1408.163283
 123.675918, 1407.217365
 123.677585, 1406.271447
 123.679252, 1405.325530
 123.680918, 1404.379612
 123.682585, 1403.433694
 123.684252, 1402.487776
 123.685918, 1401.542759
 123.687585, 1400.597916
 123.689252, 1399.653072
 123.690918, 1398.708229
 123.692585, 1397.763385
 123.694252, 1396.818542
 123.695918, 1395.873699
 123.697585, 1394.928855
 123.699252, 1393.984012
 123.700918, 1393.039168
 123.702585, 1392.094929
 123.704252, 1391.150806
 123.705918, 1390.206684
 123.707585, 1389.262561
 123.709252, 1388.318438
 123.710918, 1387.374316
 123.712585, 1386.430193
 123.714252, 1385.486070
 123.715918, 1384.541948
 123.717585, 1383.597825
 123.719252, 1382.654219
 123.720918, 1381.710714
 123.722585, 1380.767208
 123.724252, 1379.823702
 123.725918, 1378.880196
 123.727585, 1377.936690
 123.729252, 1376.993184
 123.730918, 1376.049679
 123.732585, 1375.106173
 123.734252, 1374.162667
 123.735918, 1373.218915
 123.737585, 1372.275115
 123.739252, 1371.331316
 123.740918, 1370.387516
 123.742585, 1369.443716
 123.744252, 1368.499917
 123.745918, 1367.556117
 123.747585, 1366.612317
 123.749252, 1365.668518
 123.750918, 1364.724718
 123.752585, 1363.781028
 123.754252, 1362.837358
 123.755918, 1361.893689
 123.757585, 1360.950019
 123.759252, 1360.006350
 123.760918, 1359.062681
 123.762585, 1358.119011
 123.764252, 1357.175342
 123.765918, 1356.231672
 123.767585, 1355.288003
 123.769252, 1354.344742
 123.770918, 1353.401561
 123.772585, 1352.458379
 123.774252, 1351.515197
 123.775918, 1350.572016
 123.777585, 1349.628834
 123.779252, 1348.685652
 123.780918, 1347.742471
 123.782585, 1346.799289
 123.784252, 1345.856107
 123.785918, 1344.912573
 123.787585, 1343.968970
 123.789252, 1343.025367
 123.790918, 1342.081764
 123.792585, 1341.138161
 123.794252, 1340.194558
 123.795918, 1339.250956
 123.797585, 1338.307353
 123.799252, 1337.363750
 123.800918, 1336.420147
 123.802585, 1335.476555
 123.804252, 1334.532966
 123.805918, 1333.589377
 123.807585, 1332.645787
 123.809252, 1331.702198
 123.810918, 1330.758608
 123.812585, 1329.815019
 123.814252, 1328.871429
 123.815918, 1327.927840
 123.817585, 1326.984250
 123.819252, 1326.040985
 123.820918, 1325.097782
 123.822585, 1324.154579
 123.824252, 1323.211376
 123.825918, 1322.268173
 123.827585, 1321.324970
 123.829252, 1320.381768
 123.830918, 1319.438565
 123.832585, 1318.495362
 123.834252, 1317.552159
 123.835918, 1316.608539
 123.837585, 1315.664839
 123.839252, 1314.721140
 123.840918, 1313.777440
 123.842585, 1312.833740
 123.844252, 1311.890040
 123.845918, 1310.946340
 123.847585, 1310.002640
 123.849252, 1309.058940
 123.850918, 1308.115241
 123.852585, 1307.171509
 123.854252, 1306.227772
 123.855918, 1305.284034
 123.857585, 1304.340297
 123.859252, 1303.396559
 123.860918, 1302.452822
 123.862585, 1301.509084
 123.864252, 1300.565347
 123.865918, 1299.621609
 123.867585, 1298.677872
 123.869252, 1297.734440
 123.870918, 1296.791066
 123.872585, 1295.847693
 123.874252, 1294.904319
 123.875918, 1293.960946
 123.877585, 1293.017572
 123.879252, 1292.074199
 123.880918, 1291.130825
 123.882585, 1290.187452
 123.884252, 1289.244079
 123.885918, 1288.300293
 123.887585, 1287.356428
 123.889252, 1286.412562
 123.890918, 1285.468697
 123.892585, 1284.524832
 123.894252, 1283.580966
 123.895918, 1282.637101
 123.897585, 1281.693236
 123.899252, 1280.749370
 123.900918, 1279.805505
 123.902585, 1278.861635
 123.904252, 1277.917765
 123.905918, 1276.973894
 123.907585, 1276.030023
 123.909252, 1275.086153
 123.910918, 1274.142282
 123.912585, 1273.198411
 123.914252, 1272.254541
 123.915918, 1271.310670
 123.917585, 1270.366799
 123.919252, 1269.423283
 123.920918, 1268.479834
 123.922585, 1267.536386
 123.924252, 1266.592938
 123.925918, 1265.649489
 123.927585, 1264.706041
 123.929252, 1263.762592
 123.930918, 1262.819144
 123.932585, 1261.875696
 123.934252, 1260.932247
 123.935918, 1259.988447
 123.937585, 1259.044579
 123.939252, 1258.100712
 123.940918, 1257.156844
 123.942585, 1256.212976
 123.944252, 1255.269108
 123.945918, 1254.325240
 123.947585, 1253.381372
 123.949252, 1252.437504
 123.950918, 1251.493636
 123.952585, 1250.549838
 123.954252, 1249.606054
 123.955918, 1248.662269
 123.957585, 1247.718484
 123.959252, 1246.774700
 123.960918, 1245.830915
 123.962585, 1244.887130
 123.964252, 1243.943346
 123.965918, 1242.999561
 123.967585, 1242.055776
 123.969252, 1241.112427
 123.970918, 1240.169161
 123.972585, 1239.225895
 123.974252, 1238.282629
 123.975918, 1237.339363
 123.977585, 1236.396097
 123.979252, 1235.452831
 123.980918, 1234.509565
 123.982585, 1233.566299
 123.984252, 1232.623033
 123.985918, 1231.679497
 123.987585, 1230.735909
 123.989252, 1229.792320
 123.990918, 1228.848732
 123.992585, 1227.905143
 123.994252, 1226.961555
 123.995918, 1226.017966
 123.997585, 1225.074378
 123.999252, 1224.130789
 124.000918, 1223.187200
 124.002585, 1222.243759
 124.004252, 1221.300347
 124.005918, 1220.356934
 124.007585, 1219.413521
 124.009252, 1218.470108
 124.010918, 1217.526696
 124.012585, 1216.583283
 124.014252, 1215.639870
 124.015918, 1214.696457
 124.017585, 1213.753045
 124.019252, 1212.809413
 124.020918, 1211.865740
 124.022585, 1210.922066
 124.024252, 1209.978393
 124.025918, 1209.034720
 124.027585, 1208.091046
 124.029252, 1207.147373
 124.030918, 1206.203699
 124.032585, 1205.260026
 124.034252, 1204.316352
 124.035918, 1203.371490
 124.037585, 1202.426397
 124.039252, 1201.481305
 124.040918, 1200.536213
 124.042585, 1199.591121
 124.044252, 1198.646029
 124.045918, 1197.700937
 124.047585, 1196.755844
 124.049252, 1195.810752
 124.050918, 1194.865660
 124.052585, 1193.920977
 124.054252, 1192.976372
 124.055918, 1192.031767
 124.057585, 1191.087163
 124.059252, 1190.142558
 124.060918, 1189.197954
 124.062585, 1188.253349
 124.064252, 1187.308744
 124.065918, 1186.364140
 124.067585, 1185.419535
 124.069252, 1184.475509
 124.070918, 1183.531595
 124.072585, 1182.587681
 124.074252, 1181.643767
 124.075918, 1180.699852
 124.077585, 1179.755938
 124.079252, 1178.812024
 124.080918, 1177.868110
 124.082585, 1176.924196
 124.084252, 1175.980282
 124.085918, 1175.036798
 124.087585, 1174.093398
 124.089252, 1173.149997
 124.090918, 1172.206597
 124.092585, 1171.263197
 124.094252, 1170.319796
 124.095918, 1169.376396
 124.097585, 1168.432996
 124.099252, 1167.489595
 124.100918, 1166.546195
 124.102585, 1165.602557
 124.104252, 1164.658873
 124.105918, 1163.715190
 124.107585, 1162.771506
 124.109252, 1161.827822
 124.110918, 1160.884139
 124.112585, 1159.940455
 124.114252, 1158.996771
 124.115918, 1158.053088
 124.117585, 1157.109404
 124.119252, 1156.165936
 124.120918, 1155.222511
 124.122585, 1154.279085
 124.124252, 1153.335659
 124.125918, 1152.392234
 124.127585, 1151.448808
 124.129252, 1150.505382
 124.130918, 1149.561956
 124.132585, 1148.618531
 124.134252, 1147.675105
 124.135918, 1146.732031
 124.137585, 1145.789024
 124.139252, 1144.846017
 124.140918, 1143.903011
 124.142585, 1142.960004
 124.144252, 1142.016997
 124.145918, 1141.073991
 124.147585, 1140.130984
 124.149252, 1139.187978
 124.150918, 1138.244971
 124.152585, 1137.302923
 124.154252, 1136.361061
 124.155918, 1135.419198
 124.157585, 1134.477336
 124.159252, 1133.535473
 124.160918, 1132.593611
 124.162585, 1131.651748
 124.164252, 1130.709885
 124.165918, 1129.768023
 124.167585, 1128.826160
 124.169252, 1127.884931
 124.170918, 1126.943823
 124.172585, 1126.002716
 124.174252, 1125.061608
 124.175918, 1124.120501
 124.177585, 1123.179393
 124.179252, 1122.238286
 124.180918, 1121.297178
 124.182585, 1120.356071
 124.184252, 1119.414963
 124.185918, 1118.474374
 124.187585, 1117.533884
 124.189252, 1116.593394
 124.190918, 1115.652905
 124.192585, 1114.712415
 124.194252, 1113.771925
 124.195918, 1112.831436
 124.197585, 1111.890946
 124.199252, 1110.950456
 124.200918, 1110.009967
 124.202585, 1109.069198
 124.204252, 1108.128377
 124.205918, 1107.187555
 124.207585, 1106.246733
 124.209252, 1105.305911
 124.210918, 1104.365089
 124.212585, 1103.424267
 124.214252, 1102.483445
 124.215918, 1101.542623
 124.217585, 1100.601802
 124.219252, 1099.661037
 124.220918, 1098.720284
 124.222585, 1097.779531
 124.224252, 1096.838778
 124.225918, 1095.898025
 124.227585, 1094.957272
 124.229252, 1094.016518
 124.230918, 1093.075765
 124.232585, 1092.135012
 124.234252, 1091.194259
 124.235918, 1090.253846
 124.237585, 1089.313498
 124.239252, 1088.373151
 124.240918, 1087.432804
 124.242585, 1086.492456
 124.244252, 1085.552109
 124.245918, 1084.611761
 124.247585, 1083.671414
 124.249252, 1082.731066
 124.250918, 1081.790719
 124.252585, 1080.849932
 124.254252, 1079.909061
 124.255918, 1078.968190
 124.257585, 1078.027318
 124.259252, 1077.086447
 124.260918, 1076.145576
 124.262585, 1075.204704
 124.264252, 1074.263833
 124.265918, 1073.322962
 124.267585, 1072.382090
 124.269252, 1071.441138
 124.270918, 1070.500170
 124.272585, 1069.559203
 124.274252, 1068.618235
 124.275918, 1067.677267
 124.277585, 1066.736300
 124.279252, 1065.795332
 124.280918, 1064.854364
 124.282585, 1063.913397
 124.284252, 1062.972429
 124.285918, 1062.032474
 124.287585, 1061.092714
 124.289252, 1060.152954
 124.290918, 1059.213195
 124.292585, 1058.273435
 124.294252, 1057.333675
 124.295918, 1056.393915
 124.297585, 1055.454155
 124.299252, 1054.514395
 124.300918, 1053.574636
 124.302585, 1052.635489
 124.304252, 1051.696460
 124.305918, 1050.757432
 124.307585, 1049.818403
 124.309252, 1048.879375
 124.310918, 1047.940346
 124.312585, 1047.001317
 124.314252, 1046.062289
 124.315918, 1045.123260
 124.317585, 1044.184232
 124.319252, 1043.245633
 124.320918, 1042.307117
 124.322585, 1041.368601
 124.324252, 1040.430084
 124.325918, 1039.491568
 124.327585, 1038.553052
 124.329252, 1037.614536
 124.330918, 1036.676020
 124.332585, 1035.737504
 124.334252, 1034.798988
 124.335918, 1033.860043
 124.337585, 1032.921016
 124.339252, 1031.981989
 124.340918, 1031.042962
 124.342585, 1030.103935
 124.344252, 1029.164908
 124.345918, 1028.225881
 124.347585, 1027.286854
 124.349252, 1026.347827
 124.350918, 1025.408800
 124.352585, 1024.469634
 124.354252, 1023.530441
 124.355918, 1022.591248
 124.357585, 1021.652055
 124.359252, 1020.712862
 124.360918, 1019.773669
 124.362585, 1018.834476
 124.364252, 1017.895282
 124.365918, 1016.956089
 124.367585, 1016.016896
 124.369252, 1015.077661
 124.370918, 1014.138417
 124.372585, 1013.199173
 124.374252, 1012.259930
 124.375918, 1011.320686
 124.377585, 1010.381442
 124.379252, 1009.442199
 124.380918, 1008.502955
 124.382585, 1007.563711
 124.384252, 1006.624467
 124.385918, 1005.684713
 124.387585, 1004.744860
 124.389252, 1003.805007
 124.390918, 1002.865154
 124.392585, 1001.925301
 124.394252, 1000.985448
 124.395918, 1000.045595
 124.397585,  999.105742
 124.399252,  998.165889
 124.400918,  997.226036
 124.402585,  996.286647
 124.404252,  995.347348
 124.405918,  994.408049
 124.407585,  993.468749
 124.409252,  992.529450
 124.410918,  991.590150
 124.412585,  990.650851
 124.414252,  989.711552
 124.415918,  988.772252
 124.417585,  987.832953
 124.419252,  986.893322
 124.420918,  985.953627
 124.422585,  985.013933
 124.424252,  984.074238
 124.425918,  983.134544
 124.427585,  982.194849
 124.429252,  981.255155
 124.430918,  980.315460
 124.432585,  979.375765
 124.434252,  978.436071
 124.435918,  977.496390
 124.437585,  976.556711
 124.439252,  975.617032
 124.440918,  974.677354
 124.442585,  973.737675
 124.444252,  972.797996
 124.445918,  971.858318
 124.447585,  970.918639
 124.449252,  969.978961
 124.450918,  969.039282
 124.452585,  968.099910
 124.454252,  967.160597
 124.455918,  966.221285
 124.457585,  965.281972
 124.459252,  964.342659
 124.460918,  963.403347
 124.462585,  962.464034
 124.464252,  961.524721
 124.465918,  960.585409
 124.467585,  959.646096
 124.469252,  958.706319
 124.470918,  957.766452
 124.472585,  956.826586
 124.474252,  955.886719
 124.475918,  954.946852
 124.477585,  954.006985
 124.479252,  953.067119
 124.480918,  952.127252
 124.482585,  951.187385
 124.484252,  950.247519
 124.485918,  949.307560
 124.487585,  948.367583
 124.489252,  947.427607
 124.490918,  946.487630
 124.492585,  945.547653
 124.494252,  944.607677
 124.495918,  943.667700
 124.497585,  942.727723
 124.499252,  941.787747
 124.500918,  940.847770
 124.502585,  939.908811
 124.504252,  938.970049
 124.505918,  938.031287
 124.507585,  937.092524
 124.509252,  936.153762
 124.510918,  935.215000
 124.512585,  934.276238
 124.514252,  933.337475
 124.515918,  932.398713
 124.517585,  931.459951
 124.519252,  930.521817
 124.520918,  929.583804
 124.522585,  928.645792
 124.524252,  927.707779
 124.525918,  926.769767
 124.527585,  925.831755
 124.529252,  924.893742
 124.530918,  923.955730
 124.532585,  923.017717
 124.534252,  922.079705
 124.535918,  921.142147
 124.537585,  920.204677
 124.539252,  919.267207
 124.540918,  918.329738
 124.542585,  917.392268
 124.544252,  916.454798
 124.545918,  915.517328
 124.547585,  914.579858
 124.549252,  913.642388
 124.550918,  912.704919
 124.552585,  911.767051
 124.554252,  910.829106
 124.555918,  909.891161
 124.557585,  908.953217
 124.559252,  908.015272
 124.560918,  907.077327
 124.562585,  906.139383
 124.564252,  905.201438
 124.565918,  904.263494
 124.567585,  903.325549
 124.569252,  902.387503
 124.570918,  901.449437
 124.572585,  900.511371
 124.574252,  899.573305
 124.575918,  898.635240
 124.577585,  897.697174
 124.579252,  896.759108
 124.580918,  895.821042
 124.582585,  894.882976
 124.584252,  893.944911
 124.585918,  893.006844
 124.587585,  892.068777
 124.589252,  891.130710
 124.590918,  890.192643
 124.592585,  889.254576
 124.594252,  888.316509
 124.595918,  887.378442
 124.597585,  886.440375
 124.599252,  885.502308
 124.600918,  884.564241
 124.602585,  883.625703
 124.604252,  882.687075
 124.605918,  881.748447
 124.607585,  880.809818
 124.609252,  879.871190
 124.610918,  878.932562
 124.612585,  877.993933
 124.614252,  877.055305
 124.615918,  876.116677
 124.617585,  875.178048
 124.619252,  874.239926
 124.620918,  873.301902
 124.622585,  872.363877
 124.624252,  871.425853
 124.625918,  870.487828
 124.627585,  869.549804
 124.629252,  868.611779
 124.630918,  867.673755
 124.632585,  866.735730
 124.634252,  865.797706
 124.635918,  864.859384
 124.637585,  863.921004
 124.639252,  862.982624
 124.640918,  862.044245
 124.642585,  861.105865
 124.644252,  860.167485
 124.645918,  859.229106
 124.647585,  858.290726
 124.649252,  857.352346
 124.650918,  856.413967
 124.652585,  855.475627
 124.654252,  854.537294
 124.655918,  853.598962
 124.657585,  852.660629
 124.659252,  851.722297
 124.660918,  850.783964
 124.662585,  849.845632
 124.664252,  848.907299
 124.665918,  847.968967
 124.667585,  847.030634
 124.669252,  846.092625
 124.670918,  845.154679
 124.672585,  844.216732
 124.674252,  843.278786
 124.675918,  842.340839
 124.677585,  841.402893
 124.679252,  840.464947
 124.680918,  839.527000
 124.682585,  838.589054
 124.684252,  837.651107
 124.685918,  836.712698
 124.687585,  835.774199
 124.689252,  834.835700
 124.690918,  833.897201
 124.692585,  832.958702
 124.694252,  832.020203
 124.695918,  831.081704
 124.697585,  830.143205
 124.699252,  829.204705
 124.700918,  828.266206
 124.702585,  827.327604
 124.704252,  826.388982
 124.705918,  825.450360
 124.707585,  824.511737
 124.709252,  823.573115
 124.710918,  822.634493
 124.712585,  821.695870
 124.714252,  820.757248
 124.715918,  819.818626
 124.717585,  818.880003
 124.719252,  817.942379
 124.720918,  817.004948
 124.722585,  816.067516
 124.724252,  815.130085
 124.725918,  814.192653
 124.727585,  813.255222
 124.729252,  812.317790
 124.730918,  811.380358
 124.732585,  810.442927
 124.734252,  809.505495
 124.735918,  808.568660
 124.737585,  807.631941
 124.739252,  806.695221
 124.740918,  805.758501
 124.742585,  804.821781
 124.744252,  803.885061
 124.745918,  802.948341
 124.747585,  802.011621
 124.749252,  801.074901
 124.750918,  800.138181
 124.752585,  799.201873
 124.754252,  798.265645
 124.755918,  797.329416
 124.757585,  796.393188
 124.759252,  795.456959
 124.760918,  794.520730
 124.762585,  793.584502
 124.764252,  792.648273
 124.765918,  791.712045
 124.767585,  790.775816
 124.769252,  789.839134
 124.770918,  788.902365
 124.772585,  787.965596
 124.774252,  787.028827
 124.775918,  786.092058
 124.777585,  785.155289
 124.779252,  784.218519
 124.780918,  783.281750
 124.782585,  782.344981
 124.784252,  781.408212
 124.785918,  780.471281
 124.787585,  779.534318
 124.789252,  778.597356
 124.790918,  777.660393
 124.792585,  776.723430
 124.794252,  775.786468
 124.795918,  774.849505
 124.797585,  773.912543
 124.799252,  772.975580
 124.800918,  772.038618
 124.802585,  771.101591
 124.804252,  770.164552
 124.805918,  769.227513
 124.807585,  768.290474
 124.809252,  767.353435
 124.810918,  766.416396
 124.812585,  765.479357
 124.814252,  764.542318
 124.815918,  763.605279
 124.817585,  762.668240
 124.819252,  761.730664
 124.820918,  760.792984
 124.822585,  759.855304
 124.824252,  758.917625
 124.825918,  757.979945
 124.827585,  757.042266
 124.829252,  756.104586
 124.830918,  755.166907
 124.832585,  754.229227
 124.834252,  753.291548
 124.835918,  752.354315
 124.837585,  751.417168
 124.839252,  750.480021
 124.840918,  749.542874
 124.842585,  748.605728
 124.844252,  747.668581
 124.845918,  746.731434
 124.847585,  745.794287
 124.849252,  744.857141
 124.850918,  743.919994
 124.852585,  742.982493
 124.854252,  742.044923
 124.855918,  741.107354
 124.857585,  740.169784
 124.859252,  739.232215
 124.860918,  738.294645
 124.862585,  737.357075
 124.864252,  736.419506
 124.865918,  735.481936
 124.867585,  734.544367
 124.869252,  733.606790
 124.870918,  732.669213
 124.872585,  731.731635
 124.874252,  730.794058
 124.875918,  729.856480
 124.877585,  728.918903
 124.879252,  727.981325
 124.880918,  727.043747
 124.882585,  726.106170
 124.884252,  725.168592
 124.885918,  724.231305
 124.887585,  723.294073
 124.889252,  722.356841
 124.890918,  721.419610
 124.892585,  720.482378
 124.894252,  719.545147
 124.895918,  718.607915
 124.897585,  717.670683
 124.899252,  716.733452
 124.900918,  715.796220
 124.902585,  714.858502
 124.904252,  713.920689
 124.905918,  712.982877
 124.907585,  712.045064
 124.909252,  711.107252
 124.910918,  710.169439
 124.912585,  709.231627
 124.914252,  708.293814
 124.915918,  707.356002
 124.917585,  706.418189
 124.919252,  705.480265
 124.920918,  704.542319
 124.922585,  703.604374
 124.924252,  702.666428
 124.925918,  701.728482
 124.927585,  700.790536
 124.929252,  699.852590
 124.930918,  698.914645
 124.932585,  697.976699
 124.934252,  697.038753
 124.935918,  696.101815
 124.937585,  695.165072
 124.939252,  694.228329
 124.940918,  693.291585
 124.942585,  692.354842
 124.944252,  691.418099
 124.945918,  690.481356
 124.947585,  689.544612
 124.949252,  688.607869
 124.950918,  687.671126
 124.952585,  686.735000
 124.954252,  685.798993
 124.955918,  684.862987
 124.957585,  683.926980
 124.959252,  682.990974
 124.960918,  682.054967
 124.962585,  681.118960
 124.964252,  680.182954
 124.965918,  679.246947
 124.967585,  678.310941
 124.969252,  677.375377
 124.970918,  676.439899
 124.972585,  675.504421
 124.974252,  674.568943
 124.975918,  673.633465
 124.977585,  672.697987
 124.979252,  671.762509
 124.980918,  670.827031
 124.982585,  669.891553
 124.984252,  668.956075
 124.985918,  668.020180
 124.987585,  667.084205
 124.989252,  666.148230
 124.990918,  665.212255
 124.992585,  664.276279
 124.994252,  663.340304
 124.995918,  662.404329
 124.997585,  661.468354
 124.999252,  660.532379
 125.000918,  659.596403
 125.002585,  658.660310
 125.004252,  657.724193
 125.005918,  656.788076
 125.007585,  655.851960
 125.009252,  654.915843
 125.010918,  653.979726
 125.012585,  653.043610
 125.014252,  652.107493
 125.015918,  651.171376
 125.017585,  650.235259
 125.019252,  649.299125
 125.020918,  648.362988
 125.022585,  647.426851
 125.024252,  646.490714
 125.025918,  645.554576
 125.027585,  644.618439
 125.029252,  643.682302
 125.030918,  642.746164
 125.032585,  641.810027
 125.034252,  640.873890
 125.035918,  639.937260
 125.037585,  639.000536
 125.039252,  638.063811
 125.040918,  637.127087
 125.042585,  636.190362
 125.044252,  635.253638
 125.045918,  634.316913
 125.047585,  633.380189
 125.049252,  632.443464
 125.050918,  631.506740
 125.052585,  630.570508
 125.054252,  629.634370
 125.055918,  628.698233
 125.057585,  627.762096
 125.059252,  626.825959
 125.060918,  625.889822
 125.062585,  624.953685
 125.064252,  624.017547
 125.065918,  623.081410
 125.067585,  622.145273
 125.069252,  621.208818
 125.070918,  620.272302
 125.072585,  619.335786
 125.074252,  618.399269
 125.075918,  617.462753
 125.077585,  616.526237
 125.079252,  615.589721
 125.080918,  614.653204
 125.082585,  613.716688
 125.084252,  612.780172
 125.085918,  611.843679
 125.087585,  610.907191
 125.089252,  609.970703
 125.090918,  609.034215
 125.092585,  608.097727
 125.094252,  607.161239
 125.095918,  606.224751
 125.097585,  605.288263
 125.099252,  604.351774
 125.100918,  603.415286
 125.102585,  602.479110
 125.104252,  601.542995
 125.105918,  600.606879
 125.107585,  599.670763
 125.109252,  598.734648
 125.110918,  597.798532
 125.112585,  596.862416
 125.114252,  595.926301
 125.115918,  594.990185
 125.117585,  594.054069
 125.119252,  593.117475
 125.120918,  592.180789
 125.122585,  591.244103
 125.124252,  590.307417
 125.125918,  589.370731
 125.127585,  588.434044
 125.129252,  587.497358
 125.130918,  586.560672
 125.132585,  585.623986
 125.134252,  584.687299
 125.135918,  583.750501
 125.137585,  582.813681
 125.139252,  581.876861
 125.140918,  580.940041
 125.142585,  580.003221
 125.144252,  579.066402
 125.145918,  578.129582
 125.147585,  577.192762
 125.149252,  576.255942
 125.150918,  575.319122
 125.152585,  574.383304
 125.154252,  573.447680
 125.155918,  572.512056
 125.157585,  571.576431
 125.159252,  570.640807
 125.160918,  569.705183
 125.162585,  568.769558
 125.164252,  567.833934
 125.165918,  566.898310
 125.167585,  565.962685
 125.169252,  565.027662
 125.170918,  564.092755
 125.172585,  563.157848
 125.174252,  562.222941
 125.175918,  561.288033
 125.177585,  560.353126
 125.179252,  559.418219
 125.180918,  558.483312
 125.182585,  557.548404
 125.184252,  556.613497
 125.185918,  555.679008
 125.187585,  554.744600
 125.189252,  553.810192
 125.190918,  552.875784
 125.192585,  551.941376
 125.194252,  551.006968
 125.195918,  550.072560
 125.197585,  549.138152
 125.199252,  548.203744
 125.200918,  547.269336
 125.202585,  546.334478
 125.204252,  545.399532
 125.205918,  544.464587
 125.207585,  543.529641
 125.209252,  542.594696
 125.210918,  541.659750
 125.212585,  540.724805
 125.214252,  539.789860
 125.215918,  538.854914
 125.217585,  537.919969
 125.219252,  536.984869
 125.220918,  536.049739
 125.222585,  535.114609
 125.224252,  534.179480
 125.225918,  533.244350
 125.227585,  532.309220
 125.229252,  531.374090
 125.230918,  530.438961
 125.232585,  529.503831
 125.234252,  528.568701
 125.235918,  527.633518
 125.237585,  526.698324
 125.239252,  525.763130
 125.240918,  524.827936
 125.242585,  523.892742
 125.244252,  522.957548
 125.245918,  522.022354
 125.247585,  521.087161
 125.249252,  520.151967
 125.250918,  519.216773
 125.252585,  518.281049
 125.254252,  517.345224
 125.255918,  516.409398
 125.257585,  515.473573
 125.259252,  514.537747
 125.260918,  513.601922
 125.262585,  512.666096
 125.264252,  511.730270
 125.265918,  510.794445
 125.267585,  509.858619
 125.269252,  508.923256
 125.270918,  507.987982
 125.272585,  507.052708
 125.274252,  506.117434
 125.275918,  505.182160
 125.277585,  504.246886
 125.279252,  503.311612
 125.280918,  502.376338
 125.282585,  501.441065
 125.284252,  500.505791
 125.285918,  499.570171
 125.287585,  498.634484
 125.289252,  497.698798
 125.290918,  496.763111
 125.292585,  495.827424
 125.294252,  494.891738
 125.295918,  493.956051
 125.297585,  493.020365
 125.299252,  492.084678
 125.300918,  491.148991
 125.302585,  490.213308
 125.304252,  489.277625
 125.305918,  488.341943
 125.307585,  487.406260
 125.309252,  486.470578
 125.310918,  485.534895
 125.312585,  484.599212
 125.314252,  483.663530
 125.315918,  482.727847
 125.317585,  481.792164
 125.319252,  480.856782
 125.320918,  479.921458
 125.322585,  478.986134
 125.324252,  478.050810
 125.325918,  477.115486
 125.327585,  476.180162
 125.329252,  475.244838
 125.330918,  474.309514
 125.332585,  473.374190
 125.334252,  472.438866
 125.335918,  471.503056
 125.337585,  470.567153
 125.339252,  469.631251
 125.340918,  468.695348
 125.342585,  467.759445
 125.344252,  466.823542
 125.345918,  465.887639
 125.347585,  464.951736
 125.349252,  464.015833
 125.350918,  463.079930
 125.352585,  462.143917
 125.354252,  461.207883
 125.355918,  460.271849
 125.357585,  459.335816
 125.359252,  458.399782
 125.360918,  457.463748
 125.362585,  456.527714
 125.364252,  455.591680
 125.365918,  454.655646
 125.367585,  453.719612
 125.369252,  452.784595
 125.370918,  451.849774
 125.372585,  450.914953
 125.374252,  449.980131
 125.375918,  449.045310
 125.377585,  448.110489
 125.379252,  447.175668
 125.380918,  446.240846
 125.382585,  445.306025
 125.384252,  444.371204
 125.385918,  443.437003
 125.387585,  442.502921
 125.389252,  441.568840
 125.390918,  440.634758
 125.392585,  439.700677
 125.394252,  438.766595
 125.395918,  437.832514
 125.397585,  436.898432
 125.399252,  435.964351
 125.400918,  435.030269
 125.402585,  434.096629
 125.404252,  433.163075
 125.405918,  432.229520
 125.407585,  431.295965
 125.409252,  430.362411
 125.410918,  429.428856
 125.412585,  428.495302
 125.414252,  427.561747
 125.415918,  426.628192
 125.417585,  425.694638
 125.419252,  424.760656
 125.420918,  423.826591
 125.422585,  422.892527
 125.424252,  421.958462
 125.425918,  421.024398
 125.427585,  420.090333
 125.429252,  419.156269
 125.430918,  418.222205
 125.432585,  417.288140
 125.434252,  416.354076
 125.435918,  415.419883
 125.437585,  414.485665
 125.439252,  413.551447
 125.440918,  412.617230
 125.442585,  411.683012
 125.444252,  410.748794
 125.445918,  409.814577
 125.447585,  408.880359
 125.449252,  407.946142
 125.450918,  407.011924
 125.452585,  406.077679
 125.454252,  405.143429
 125.455918,  404.209178
 125.457585,  403.274928
 125.459252,  402.340678
 125.460918,  401.406428
 125.462585,  400.472178
 125.464252,  399.537927
 125.465918,  398.603677
 125.467585,  397.669427
 125.469252,  396.734670
 125.470918,  395.799815
 125.472585,  394.864960
 125.474252,  393.930106
 125.475918,  392.995251
 125.477585,  392.060396
 125.479252,  391.125542
 125.480918,  390.190687
 125.482585,  389.255832
 125.484252,  388.320977
 125.485918,  387.386609
 125.487585,  386.452334
 125.489252,  385.518059
 125.490918,  384.583784
 125.492585,  383.649510
 125.494252,  382.715235
 125.495918,  381.780960
 125.497585,  380.846685
 125.499252,  379.912411
 125.500918,  378.978136
 125.502585,  378.043531
 125.504252,  377.108863
 125.505918,  376.174194
 125.507585,  375.239526
 125.509252,  374.304857
 125.510918,  373.370189
 125.512585,  372.435520
 125.514252,  371.500852
 125.515918,  370.566184
 125.517585,  369.631515
 125.519252,  368.696862
 125.520918,  367.762212
 125.522585,  366.827562
 125.524252,  365.892912
 125.525918,  364.958262
 125.527585,  364.023612
 125.529252,  363.088962
 125.530918,  362.154312
 125.532585,  361.219662
 125.534252,  360.285012
 125.535918,  359.350670
 125.537585,  358.416387
 125.539252,  357.482104
 125.540918,  356.547822
 125.542585,  355.613539
 125.544252,  354.679256
 125.545918,  353.744974
 125.547585,  352.810691
 125.549252,  351.876409
 125.550918,  350.942126
 125.552585,  350.007356
 125.554252,  349.072492
 125.555918,  348.137629
 125.557585,  347.202765
 125.559252,  346.267901
 125.560918,  345.333038
 125.562585,  344.398174
 125.564252,  343.463310
 125.565918,  342.528446
 125.567585,  341.593583
 125.569252,  340.658603
 125.570918,  339.723601
 125.572585,  338.788599
 125.574252,  337.853597
 125.575918,  336.918595
 125.577585,  335.983594
 125.579252,  335.048592
 125.580918,  334.113590
 125.582585,  333.178588
 125.584252,  332.243586
 125.585918,  331.309594
 125.587585,  330.375797
 125.589252,  329.442000
 125.590918,  328.508202
 125.592585,  327.574405
 125.594252,  326.640608
 125.595918,  325.706811
 125.597585,  324.773014
 125.599252,  323.839217
 125.600918,  322.905420
 125.602585,  321.972230
 125.604252,  321.039157
 125.605918,  320.106085
 125.607585,  319.173012
 125.609252,  318.239940
 125.610918,  317.306868
 125.612585,  316.373795
 125.614252,  315.440723
 125.615918,  314.507650
 125.617585,  313.574578
 125.619252,  312.641930
 125.620918,  311.709365
 125.622585,  310.776800
 125.624252,  309.844235
 125.625918,  308.911669
 125.627585,  307.979104
 125.629252,  307.046539
 125.630918,  306.113974
 125.632585,  305.181408
 125.634252,  304.248843
 125.635918,  303.315829
 125.637585,  302.382727
 125.639252,  301.449626
 125.640918,  300.516524
 125.642585,  299.583423
 125.644252,  298.650321
 125.645918,  297.717220
 125.647585,  296.784118
 125.649252,  295.851017
 125.650918,  294.917915
 125.652585,  293.984664
 125.654252,  293.051384
 125.655918,  292.118103
 125.657585,  291.184823
 125.659252,  290.251543
 125.660918,  289.318263
 125.662585,  288.384982
 125.664252,  287.451702
 125.665918,  286.518422
 125.667585,  285.585141
 125.669252,  284.651813
 125.670918,  283.718476
 125.672585,  282.785139
 125.674252,  281.851802
 125.675918,  280.918464
 125.677585,  279.985127
 125.679252,  279.051790
 125.680918,  278.118453
 125.682585,  277.185115
 125.684252,  276.251778
 125.685918,  275.317913
 125.687585,  274.383947
 125.689252,  273.449981
 125.690918,  272.516014
 125.692585,  271.582048
 125.694252,  270.648082
 125.695918,  269.714115
 125.697585,  268.780149
 125.699252,  267.846183
 125.700918,  266.912216
 125.702585,  265.978722
 125.704252,  265.045320
 125.705918,  264.111917
 125.707585,  263.178515
 125.709252,  262.245112
 125.710918,  261.311709
 125.712585,  260.378307
 125.714252,  259.444904
 125.715918,  258.511501
 125.717585,  257.578099
 125.719252,  256.644353
 125.720918,  255.710541
 125.722585,  254.776728
 125.724252,  253.842916
 125.725918,  252.909104
 125.727585,  251.975292
 125.729252,  251.041480
 125.730918,  250.107667
 125.732585,  249.173855
 125.734252,  248.240043
 125.735918,  247.306238
 125.737585,  246.372435
 125.739252,  245.438632
 125.740918,  244.504829
 125.742585,  243.571026
 125.744252,  242.637223
 125.745918,  241.703420
 125.747585,  240.769617
 125.749252,  239.835814
 125.750918,  238.902011
 125.752585,  237.968515
 125.754252,  237.035077
 125.755918,  236.101639
 125.757585,  235.168201
 125.759252,  234.234763
 125.760918,  233.301325
 125.762585,  232.367887
 125.764252,  231.434449
 125.765918,  230.501011
 125.767585,  229.567574
 125.769252,  228.633648
 125.770918,  227.699628
 125.772585,  226.765608
 125.774252,  225.831588
 125.775918,  224.897568
 125.777585,  223.963548
 125.779252,  223.029528
 125.780918,  222.095508
 125.782585,  221.161488
 125.784252,  220.227468
 125.785918,  219.293337
 125.787585,  218.359185
 125.789252,  217.425033
 125.790918,  216.490880
 125.792585,  215.556728
 125.794252,  214.622576
 125.795918,  213.688424
 125.797585,  212.754271
 125.799252,  211.820119
 125.800918,  210.885967
 125.802585,  209.952838
 125.804252,  209.019906
 125.805918,  208.086974
 125.807585,  207.154043
 125.809252,  206.221111
 125.810918,  205.288179
 125.812585,  204.355247
 125.814252,  203.422316
 125.815918,  202.489384
 125.817585,  201.556452
 125.819252,  200.624143
 125.820918,  199.691953
 125.822585,  198.759763
 125.824252,  197.827574
 125.825918,  196.895384
 125.827585,  195.963194
 125.829252,  195.031004
 125.830918,  194.098815
 125.832585,  193.166625
 125.834252,  192.234435
 125.835918,  191.302687
 125.837585,  190.371023
 125.839252,  189.439359
 125.840918,  188.507696
 125.842585,  187.576032
 125.844252,  186.644368
 125.845918,  185.712705
 125.847585,  184.781041
 125.849252,  183.849378
 125.850918,  182.917714
 125.852585,  181.985614
 125.854252,  181.053430
 125.855918,  180.121246
 125.857585,  179.189062
 125.859252,  178.256878
 125.860918,  177.324693
 125.862585,  176.392509
 125.864252,  175.460325
 125.865918,  174.528141
 125.867585,  173.595957
 125.869252,  172.663638
 125.870918,  171.731292
 125.872585,  170.798946
 125.874252,  169.866601
 125.875918,  168.934255
 125.877585,  168.001909
 125.879252,  167.069564
 125.880918,  166.137218
 125.882585,  165.204872
 125.884252,  164.272527
 125.885918,  163.340147
 125.887585,  162.407762
 125.889252,  161.475376
 125.890918,  160.542990
 125.892585,  159.610604
 125.894252,  158.678218
 125.895918,  157.745832
 125.897585,  156.813447
 125.899252,  155.881061
 125.900918,  154.948675
 125.902585,  154.015772
 125.904252,  153.082769
 125.905918,  152.149766
 125.907585,  151.216764
 125.909252,  150.283761
 125.910918,  149.350758
 125.912585,  148.417755
 125.914252,  147.484753
 125.915918,  146.551750
 125.917585,  145.618747
 125.919252,  144.686229
 125.920918,  143.753804
 125.922585,  142.821379
 125.924252,  141.888955
 125.925918,  140.956530
 125.927585,  140.024105
 125.929252,  139.091680
 125.930918,  138.159255
 125.932585,  137.226831
 125.934252,  136.294406
 125.935918,  135.361643
 125.937585,  134.428815
 125.939252,  133.495988
 125.940918,  132.563160
 125.942585,  131.630332
 125.944252,  130.697504
 125.945918,  129.764676
 125.947585,  128.831849
 125.949252,  127.899021
 125.950918,  126.966193
 125.952585,  126.033376
 125.954252,  125.100562
 125.955918,  124.167748
 125.957585,  123.234934
 125.959252,  122.302119
 125.960918,  121.369305
 125.962585,  120.436491
 125.964252,  119.503676
 125.965918,  118.570862
 125.967585,  117.638048
 125.969252,  116.705541
 125.970918,  115.773093
 125.972585,  114.840646
 125.974252,  113.908198
 125.975918,  112.975751
 125.977585,  112.043303
 125.979252,  111.110856
 125.980918,  110.178408
 125.982585,  109.245961
 125.984252,  108.313513
 125.985918,  107.380572
 125.987585,  106.447537
 125.989252,  105.514501
 125.990918,  104.581465
 125.992585,  103.648429
 125.994252,  102.715393
 125.995918,  101.782357
 125.997585,  100.849321
 125.999252,   99.916286
 126.000918,   98.983250
 126.002585,   98.050096
 126.004252,   97.116920
 126.005918,   96.183744
 126.007585,   95.250568
 126.009252,   94.317391
 126.010918,   93.384215
 126.012585,   92.451039
 126.014252,   91.517863
 126.015918,   90.584687
 126.017585,   89.651511
 126.019252,   88.719353
 126.020918,   87.787392
 126.022585,   86.855431
 126.024252,   85.923470
 126.025918,   84.991509
 126.027585,   84.059548
 126.029252,   83.127588
 126.030918,   82.195627
 126.032585,   81.263666
 126.034252,   80.331705
 126.035918,   79.400358
 126.037585,   78.469129
 126.039252,   77.537901
 126.040918,   76.606672
 126.042585,   75.675444
 126.044252,   74.744215
 126.045918,   73.812987
 126.047585,   72.881759
 126.049252,   71.950530
 126.050918,   71.019302
 126.052585,   70.088504
 126.054252,   69.157790
 126.055918,   68.227076
 126.057585,   67.296362
 126.059252,   66.365647
 126.060918,   65.434933
 126.062585,   64.504219
 126.064252,   63.573505
 126.065918,   62.642791
 126.067585,   61.712076
 126.069252,   60.780912
 126.070918,   59.849661
 126.072585,   58.918409
 126.074252,   57.987158
 126.075918,   57.055907
 126.077585,   56.124655
 126.079252,   55.193404
 126.080918,   54.262153
 126.082585,   53.330901
 126.084252,   52.399650
 126.085918,   51.468170
 126.087585,   50.536645
 126.088545,   50.000000
 126.090212,   49.068603
 126.091879,   48.137206
 126.093545,   47.205810
 126.095212,   46.274413
 126.096879,   45.343016
 126.098545,   44.411619
 126.100212,   43.480223
 126.101879,   42.551839
 126.103545,   41.627715
 126.105212,   40.703591
 126.106879,   39.779466
 126.108545,   38.855342
 126.110212,   37.931218
 126.111879,   37.007094
 126.113545,   36.082970
 126.115212,   35.158845
 126.116879,   34.234721
 126.118545,   33.317055
 126.120212,   32.408518
 126.121879,   31.499980
 126.123545,   30.591443
 126.125212,   29.682906
 126.126879,   28.774368
 126.128545,   27.865831
 126.130212,   26.957293
 126.131879,   26.048756
 126.133545,   25.140219
 126.135212,   24.237239
 126.136879,   23.342116
 126.138545,   22.446993
 126.140212,   21.551870
 126.141879,   20.656747
 126.143110,   19.995225
