Speed, Power
 122.702048, 1919.997923
 124.490940, 1932.923789
 126.279832, 1945.384151
 128.068724, 1957.379007
 129.857617, 1968.908357
 131.646509, 1979.972202
 133.435401, 1990.570542
 135.224293, 2000.703377
 137.013185, 2010.918531
 138.802077, 2022.286396
 140.590969, 2033.245673
 142.379861, 2043.796362
 144.168753, 2053.938464
 145.957646, 2063.671978
 147.746538, 2072.996904
 149.535430, 2081.913243
 151.324322, 2090.420993
 153.113214, 2098.520156
 154.902106, 2106.210731
 156.690998, 2113.492719
 158.479890, 2120.366118
 160.268782, 2128.565222
 162.057674, 2136.769065
 163.846567, 2144.612216
 165.635459, 2152.094676
 167.424351, 2159.216443
 169.213243, 2165.977519
 171.002135, 2172.377902
 172.791027, 2178.417594
 174.579919, 2184.096594
 176.368811, 2189.414902
 178.157703, 2194.372518
 179.946596, 2198.969443
 181.735488, 2203.960349
 183.524380, 2209.790634
 185.313272, 2215.298840
 187.102164, 2220.484969
 188.891056, 2225.349019
 190.679948, 2229.890991
 192.468840, 2234.110885
 194.257732, 2238.008702
 196.046624, 2241.584440
 197.835517, 2244.838100
 199.624409, 2247.769683
 201.413301, 2250.379187
 203.202193, 2252.666613
 204.991085, 2256.351208
 206.779977, 2259.819101
 208.568869, 2262.996700
 210.357761, 2265.884005
 212.146653, 2268.481017
 213.935546, 2270.787735
 215.724438, 2272.804159
 217.513330, 2274.530289
 219.302222, 2275.966126
 221.091114, 2277.111669
 222.880006, 2277.966918
 224.668898, 2278.531873
 226.457790, 2280.067918
 228.246682, 2282.480867
 230.035574, 2284.641956
 231.824467, 2286.551184
 233.613359, 2288.208551
 235.402251, 2289.614057
 237.191143, 2290.767702
 238.980035, 2291.669487
 240.768927, 2292.319411
 242.557819, 2292.717474
 244.346711, 2292.863677
 246.135603, 2292.758019
 247.924496, 2292.511869
 249.713388, 2293.111061
 251.502280, 2293.475915
 253.291172, 2293.606430
 255.080064, 2293.502607
 256.868956, 2293.164445
 258.657848, 2292.591945
 260.446740, 2291.785106
 262.235632, 2290.743928
 264.024524, 2289.468412
 265.813417, 2287.958558
 267.602309, 2286.214365
 269.391201, 2284.235834
 271.180093, 2282.350281
 272.968985, 2280.404485
 274.757877, 2278.230969
 276.546769, 2275.829733
 278.335661, 2273.200777
 280.124553, 2270.344102
 281.913446, 2267.259706
 283.702338, 2263.947591
 285.491230, 2260.407756
 287.280122, 2256.640201
 289.069014, 2252.644926
 290.857906, 2248.421932
 292.646798, 2243.943551
 294.435690, 2239.142408
 296.224582, 2234.112040
 298.013474, 2228.852447
 299.802367, 2223.363629
