Speed, Power
 130.942051, 2277.086995
 132.601814, 2167.162269
 134.261577, 2073.116213
 135.921339, 2007.371775
 137.581102, 1968.831740
 139.240865, 1934.343889
 140.900628, 1914.379632
 142.560391, 1892.824899
 144.220153, 1877.218691
 145.879916, 1863.844467
 147.539679, 1849.220716
 149.199442, 1838.660320
 150.859205, 1829.598144
 152.518968, 1819.516099
 154.178730, 1810.704158
 155.838493, 1805.976793
 157.498256, 1800.438432
 159.158019, 1794.080238
 160.817782, 1790.404419
 162.477544, 1789.166515
 164.137307, 1787.294792
 165.797070, 1784.782633
 167.456833, 1783.101305
 169.116596, 1786.212559
 170.776359, 1788.872311
 172.436121, 1791.076038
 174.095884, 1792.819212
 175.755647, 1795.955657
 177.415410, 1804.475348
 179.075173, 1812.742248
 180.734935, 1820.753945
 182.394698, 1828.508026
 184.054461, 1836.002079
 185.714224, 1846.145738
 187.373987, 1860.052322
 189.033750, 1873.879713
 190.693512, 1887.627198
 192.353275, 1901.294061
 194.013038, 1914.879586
 195.672801, 1928.383061
 197.332564, 1944.923889
 198.992326, 1964.697530
 200.652089, 1984.550941
 202.311852, 2004.484798
 203.971615, 2024.499780
 205.631378, 2044.596563
 207.291140, 2064.775824
 208.950903, 2085.038242
 210.610666, 2105.607889
 212.270429, 2132.562557
 213.930192, 2159.758601
 215.589955, 2187.197939
 217.249717, 2214.882491
 218.909480, 2242.814175
 220.569243, 2270.994911
 222.229006, 2299.426617
 223.888769, 2328.111213
 225.548531, 2357.050619
 227.208294, 2386.246752
 228.868057, 2418.634252
 230.527820, 2455.891745
 232.187583, 2493.577282
 233.847346, 2531.693994
 235.507108, 2570.245011
 237.166871, 2609.233461
 238.826634, 2648.662474
 240.486397, 2688.535180
 242.146160, 2728.854709
 243.805922, 2769.624190
 245.465685, 2810.846752
 247.125448, 2852.525525
 248.785211, 2894.663639
 250.444974, 2937.264223
 252.104737, 2983.192383
 253.764499, 3033.232985
 255.424262, 3083.874939
 257.084025, 3135.122236
 258.743788, 3186.978862
 260.403551, 3239.448807
 262.063313, 3292.536058
 263.723076, 3346.244605
 265.382839, 3400.578435
 267.042602, 3455.541538
 268.702365, 3511.137901
 270.362127, 3567.371512
 272.021890, 3624.246361
 273.681653, 3681.766436
 275.341416, 3739.935725
 277.001179, 3798.758216
 278.660942, 3858.237898
 280.320704, 3918.378760
 281.980467, 3979.184790
 283.640230, 4040.773595
 285.299993, 4108.894852
 286.959756, 4177.799087
 288.619518, 4247.490911
 290.279281, 4317.974935
 291.939044, 4389.255773
 293.598807, 4461.338035
 295.258570, 4534.226333
