Time, Altitude
   0.000000, 1500.000000
   0.100000, 1499.025349
   0.200000, 1498.050707
   0.300000, 1497.076065
   0.400000, 1496.101876
   0.500000, 1495.127726
   0.600000, 1494.153576
   0.700000, 1493.179426
   0.800000, 1492.205276
   0.900000, 1491.231127
   1.000000, 1490.256977
   1.100000, 1489.282827
   1.200000, 1488.308677
   1.300000, 1487.334527
   1.400000, 1486.361050
   1.500000, 1485.387631
   1.600000, 1484.414212
   1.700000, 1483.440792
   1.800000, 1482.467373
   1.900000, 1481.493954
   2.000000, 1480.520535
   2.100000, 1479.547115
   2.200000, 1478.573696
   2.300000, 1477.600277
   2.400000, 1476.627159
   2.500000, 1475.654068
   2.600000, 1474.680976
   2.700000, 1473.707884
   2.800000, 1472.734793
   2.900000, 1471.761701
   3.000000, 1470.788610
   3.100000, 1469.815518
   3.200000, 1468.842426
   3.300000, 1467.869335
   3.400000, 1466.896448
   3.500000, 1465.923579
   3.600000, 1464.950710
   3.700000, 1463.977840
   3.800000, 1463.004971
   3.900000, 1462.032102
   4.000000, 1461.059233
   4.100000, 1460.086364
   4.200000, 1459.113494
   4.300000, 1458.140625
   4.400000, 1457.167317
   4.500000, 1456.193971
   4.600000, 1455.220625
   4.700000, 1454.247279
   4.800000, 1453.273932
   4.900000, 1452.300586
   5.000000, 1451.327240
   5.100000, 1450.353894
   5.200000, 1449.380548
   5.300000, 1448.407202
   5.400000, 1447.433994
   5.500000, 1446.460798
   5.600000, 1445.487602
   5.700000, 1444.514406
   5.800000, 1443.541209
   5.900000, 1442.568013
   6.000000, 1441.594817
   6.100000, 1440.621621
   6.200000, 1439.648425
   6.300000, 1438.675229
   6.400000, 1437.702406
   6.500000, 1436.729616
   6.600000, 1435.756826
   6.700000, 1434.784036
   6.800000, 1433.811245
   6.900000, 1432.838455
   7.000000, 1431.865665
   7.100000, 1430.892874
   7.200000, 1429.920084
   7.300000, 1428.947294
   7.400000, 1427.974780
   7.500000, 1427.002290
   7.600000, 1426.029800
   7.700000, 1425.057310
   7.800000, 1424.084820
   7.900000, 1423.112330
   8.000000, 1422.139840
   8.100000, 1421.167350
   8.200000, 1420.194860
   8.300000, 1419.222370
   8.400000, 1418.249507
   8.500000, 1417.276613
   8.600000, 1416.303718
   8.700000, 1415.330823
   8.800000, 1414.357928
   8.900000, 1413.385033
   9.000000, 1412.412139
   9.100000, 1411.439244
   9.200000, 1410.466349
   9.300000, 1409.493454
   9.400000, 1408.520757
   9.500000, 1407.548076
   9.600000, 1406.575396
   9.700000, 1405.602715
   9.800000, 1404.630034
   9.900000, 1403.657354
  10.000000, 1402.684673
  10.100000, 1401.711992
  10.200000, 1400.739312
  10.300000, 1399.766631
  10.400000, 1398.794373
  10.500000, 1397.822150
  10.600000, 1396.849928
  10.700000, 1395.877706
  10.800000, 1394.905483
  10.900000, 1393.933261
  11.000000, 1392.961039
  11.100000, 1391.988817
  11.200000, 1391.016594
  11.300000, 1390.044372
  11.400000, 1389.072462
  11.500000, 1388.100580
  11.600000, 1387.128697
  11.700000, 1386.156814
  11.800000, 1385.184932
  11.900000, 1384.213049
  12.000000, 1383.241166
  12.100000, 1382.269284
  12.200000, 1381.297401
  12.300000, 1380.325518
  12.400000, 1379.353279
  12.500000, 1378.381010
  12.600000, 1377.408741
  12.700000, 1376.436471
  12.800000, 1375.464202
  12.900000, 1374.491933
  13.000000, 1373.519663
  13.100000, 1372.547394
  13.200000, 1371.575125
  13.300000, 1370.602856
  13.400000, 1369.630788
  13.500000, 1368.658737
  13.600000, 1367.686686
  13.700000, 1366.714635
  13.800000, 1365.742584
  13.900000, 1364.770533
  14.000000, 1363.798482
  14.100000, 1362.826431
  14.200000, 1361.854380
  14.300000, 1360.882329
  14.400000, 1359.910690
  14.500000, 1358.939085
  14.600000, 1357.967481
  14.700000, 1356.995877
  14.800000, 1356.024272
  14.900000, 1355.052668
  15.000000, 1354.081064
  15.100000, 1353.109459
  15.200000, 1352.137855
  15.300000, 1351.166251
  15.400000, 1350.194933
  15.500000, 1349.223640
  15.600000, 1348.252346
  15.700000, 1347.281053
  15.800000, 1346.309760
  15.900000, 1345.338467
  16.000000, 1344.367173
  16.100000, 1343.395880
  16.200000, 1342.424587
  16.300000, 1341.453294
  16.400000, 1340.481609
  16.500000, 1339.509890
  16.600000, 1338.538172
  16.700000, 1337.566454
  16.800000, 1336.594735
  16.900000, 1335.623017
  17.000000, 1334.651299
  17.100000, 1333.679580
  17.200000, 1332.707862
  17.300000, 1331.736144
  17.400000, 1330.764581
  17.500000, 1329.793032
  17.600000, 1328.821483
  17.700000, 1327.849933
  17.800000, 1326.878384
  17.900000, 1325.906835
  18.000000, 1324.935285
  18.100000, 1323.963736
  18.200000, 1322.992187
  18.300000, 1322.020638
  18.400000, 1321.049449
  18.500000, 1320.078291
  18.600000, 1319.107133
  18.700000, 1318.135975
  18.800000, 1317.164817
  18.900000, 1316.193659
  19.000000, 1315.222501
  19.100000, 1314.251343
  19.200000, 1313.280185
  19.300000, 1312.309027
  19.400000, 1311.338101
  19.500000, 1310.367196
  19.600000, 1309.396290
  19.700000, 1308.425385
  19.800000, 1307.454480
  19.900000, 1306.483574
  20.000000, 1305.512669
  20.100000, 1304.541763
  20.200000, 1303.570858
  20.300000, 1302.599952
  20.400000, 1301.628601
  20.500000, 1300.657212
  20.600000, 1299.685822
  20.700000, 1298.714433
  20.800000, 1297.743043
  20.900000, 1296.771654
  21.000000, 1295.800265
  21.100000, 1294.828875
  21.200000, 1293.857486
  21.300000, 1292.886096
  21.400000, 1291.914813
  21.500000, 1290.943539
  21.600000, 1289.972265
  21.700000, 1289.000991
  21.800000, 1288.029716
  21.900000, 1287.058442
  22.000000, 1286.087168
  22.100000, 1285.115894
  22.200000, 1284.144619
  22.300000, 1283.173345
  22.400000, 1282.202389
  22.500000, 1281.231459
  22.600000, 1280.260530
  22.700000, 1279.289600
  22.800000, 1278.318671
  22.900000, 1277.347741
  23.000000, 1276.376812
  23.100000, 1275.405882
  23.200000, 1274.434953
  23.300000, 1273.464023
  23.400000, 1272.493292
  23.500000, 1271.522578
  23.600000, 1270.551864
  23.700000, 1269.581150
  23.800000, 1268.610436
  23.900000, 1267.639722
  24.000000, 1266.669008
  24.100000, 1265.698294
  24.200000, 1264.727580
  24.300000, 1263.756866
  24.400000, 1262.785681
  24.500000, 1261.814456
  24.600000, 1260.843231
  24.700000, 1259.872006
  24.800000, 1258.900781
  24.900000, 1257.929556
  25.000000, 1256.958331
  25.100000, 1255.987106
  25.200000, 1255.015881
  25.300000, 1254.044656
  25.400000, 1253.073525
  25.500000, 1252.102401
  25.600000, 1251.131278
  25.700000, 1250.160155
  25.800000, 1249.189031
  25.900000, 1248.217908
  26.000000, 1247.246784
  26.100000, 1246.275661
  26.200000, 1245.304537
  26.300000, 1244.333414
  26.400000, 1243.362607
  26.500000, 1242.391828
  26.600000, 1241.421048
  26.700000, 1240.450269
  26.800000, 1239.479490
  26.900000, 1238.508710
  27.000000, 1237.537931
  27.100000, 1236.567151
  27.200000, 1235.596372
  27.300000, 1234.625592
  27.400000, 1233.655022
  27.500000, 1232.684469
  27.600000, 1231.713917
  27.700000, 1230.743364
  27.800000, 1229.772811
  27.900000, 1228.802258
  28.000000, 1227.831706
  28.100000, 1226.861153
  28.200000, 1225.890600
  28.300000, 1224.920048
  28.400000, 1223.949044
  28.500000, 1222.978001
  28.600000, 1222.006959
  28.700000, 1221.035916
  28.800000, 1220.064874
  28.900000, 1219.093832
  29.000000, 1218.122789
  29.100000, 1217.151747
  29.200000, 1216.180704
  29.300000, 1215.209662
  29.400000, 1214.238742
  29.500000, 1213.267832
  29.600000, 1212.296923
  29.700000, 1211.326013
  29.800000, 1210.355103
  29.900000, 1209.384194
  30.000000, 1208.413284
  30.100000, 1207.442374
  30.200000, 1206.471465
  30.300000, 1205.500555
  30.400000, 1204.529998
  30.500000, 1203.559471
  30.600000, 1202.588944
  30.700000, 1201.618417
  30.800000, 1200.647891
  30.900000, 1199.677364
  31.000000, 1198.706837
  31.100000, 1197.736310
  31.200000, 1196.765783
  31.300000, 1195.795256
  31.400000, 1194.824978
  31.500000, 1193.854720
  31.600000, 1192.884463
  31.700000, 1191.914206
  31.800000, 1190.943949
  31.900000, 1189.973691
  32.000000, 1189.003434
  32.100000, 1188.033177
  32.200000, 1187.062920
  32.300000, 1186.092662
  32.400000, 1185.121994
  32.500000, 1184.151291
  32.600000, 1183.180587
  32.700000, 1182.209884
  32.800000, 1181.239181
  32.900000, 1180.268477
  33.000000, 1179.297774
  33.100000, 1178.327070
  33.200000, 1177.356367
  33.300000, 1176.385664
  33.400000, 1175.415123
  33.500000, 1174.444596
  33.600000, 1173.474069
  33.700000, 1172.503542
  33.800000, 1171.533015
  33.900000, 1170.562488
  34.000000, 1169.591961
  34.100000, 1168.621434
  34.200000, 1167.650907
  34.300000, 1166.680380
  34.400000, 1165.710243
  34.500000, 1164.740139
  34.600000, 1163.770035
  34.700000, 1162.799932
  34.800000, 1161.829828
  34.900000, 1160.859724
  35.000000, 1159.889620
  35.100000, 1158.919517
  35.200000, 1157.949413
  35.300000, 1156.979309
  35.400000, 1156.009486
  35.500000, 1155.039686
  35.600000, 1154.069887
  35.700000, 1153.100088
  35.800000, 1152.130288
  35.900000, 1151.160489
  36.000000, 1150.190689
  36.100000, 1149.220890
  36.200000, 1148.251091
  36.300000, 1147.281291
  36.400000, 1146.311105
  36.500000, 1145.340885
  36.600000, 1144.370666
  36.700000, 1143.400447
  36.800000, 1142.430227
  36.900000, 1141.460008
  37.000000, 1140.489789
  37.100000, 1139.519569
  37.200000, 1138.549350
  37.300000, 1137.579130
  37.400000, 1136.609091
  37.500000, 1135.639066
  37.600000, 1134.669041
  37.700000, 1133.699017
  37.800000, 1132.728992
  37.900000, 1131.758968
  38.000000, 1130.788943
  38.100000, 1129.818919
  38.200000, 1128.848894
  38.300000, 1127.878869
  38.400000, 1126.909243
  38.500000, 1125.939652
  38.600000, 1124.970060
  38.700000, 1124.000468
  38.800000, 1123.030876
  38.900000, 1122.061284
  39.000000, 1121.091692
  39.100000, 1120.122100
  39.200000, 1119.152508
  39.300000, 1118.182916
  39.400000, 1117.213604
  39.500000, 1116.244316
  39.600000, 1115.275028
  39.700000, 1114.305741
  39.800000, 1113.336453
  39.900000, 1112.367165
  40.000000, 1111.397877
  40.100000, 1110.428589
  40.200000, 1109.459301
  40.300000, 1108.490013
  40.400000, 1107.520329
  40.500000, 1106.550610
  40.600000, 1105.580892
  40.700000, 1104.611174
  40.800000, 1103.641456
  40.900000, 1102.671737
  41.000000, 1101.702019
  41.100000, 1100.732301
  41.200000, 1099.762582
  41.300000, 1098.792864
  41.400000, 1097.823309
  41.500000, 1096.853768
  41.600000, 1095.884227
  41.700000, 1094.914685
  41.800000, 1093.945144
  41.900000, 1092.975603
  42.000000, 1092.006062
  42.100000, 1091.036521
  42.200000, 1090.066980
  42.300000, 1089.097438
  42.400000, 1088.128274
  42.500000, 1087.159141
  42.600000, 1086.190009
  42.700000, 1085.220876
  42.800000, 1084.251744
  42.900000, 1083.282611
  43.000000, 1082.313479
  43.100000, 1081.344346
  43.200000, 1080.375214
  43.300000, 1079.406081
  43.400000, 1078.437202
  43.500000, 1077.468344
  43.600000, 1076.499487
  43.700000, 1075.530629
  43.800000, 1074.561772
  43.900000, 1073.592914
  44.000000, 1072.624056
  44.100000, 1071.655199
  44.200000, 1070.686341
  44.300000, 1069.717484
  44.400000, 1068.748199
  44.500000, 1067.778877
  44.600000, 1066.809556
  44.700000, 1065.840234
  44.800000, 1064.870913
  44.900000, 1063.901592
  45.000000, 1062.932270
  45.100000, 1061.962949
  45.200000, 1060.993628
  45.300000, 1060.024306
  45.400000, 1059.055117
  45.500000, 1058.085940
  45.600000, 1057.116762
  45.700000, 1056.147585
  45.800000, 1055.178407
  45.900000, 1054.209229
  46.000000, 1053.240052
  46.100000, 1052.270874
  46.200000, 1051.301696
  46.300000, 1050.332519
  46.400000, 1049.363688
  46.500000, 1048.394887
  46.600000, 1047.426086
  46.700000, 1046.457285
  46.800000, 1045.488484
  46.900000, 1044.519683
  47.000000, 1043.550882
  47.100000, 1042.582081
  47.200000, 1041.613280
  47.300000, 1040.644479
  47.400000, 1039.675904
  47.500000, 1038.707349
  47.600000, 1037.738793
  47.700000, 1036.770238
  47.800000, 1035.801682
  47.900000, 1034.833127
  48.000000, 1033.864571
  48.100000, 1032.896016
  48.200000, 1031.927460
  48.300000, 1030.958905
  48.400000, 1029.989898
  48.500000, 1029.020853
  48.600000, 1028.051808
  48.700000, 1027.082763
  48.800000, 1026.113717
  48.900000, 1025.144672
  49.000000, 1024.175627
  49.100000, 1023.206582
  49.200000, 1022.237536
  49.300000, 1021.268491
  49.400000, 1020.299561
  49.500000, 1019.330640
  49.600000, 1018.361719
  49.700000, 1017.392798
  49.800000, 1016.423877
  49.900000, 1015.454957
  50.000000, 1014.486036
  50.100000, 1013.517115
  50.200000, 1012.548194
  50.300000, 1011.579273
  50.400000, 1010.610688
  50.500000, 1009.642132
  50.600000, 1008.673575
  50.700000, 1007.705019
  50.800000, 1006.736462
  50.900000, 1005.767906
  51.000000, 1004.799350
  51.100000, 1003.830793
  51.200000, 1002.862237
  51.300000, 1001.893680
  51.400000, 1000.925345
  51.500000,  999.957029
  51.600000,  998.988712
  51.700000,  998.020396
  51.800000,  997.052080
  51.900000,  996.083764
  52.000000,  995.115447
  52.100000,  994.147131
  52.200000,  993.178815
  52.300000,  992.210498
  52.400000,  991.241731
  52.500000,  990.272926
  52.600000,  989.304121
  52.700000,  988.335315
  52.800000,  987.366510
  52.900000,  986.397705
  53.000000,  985.428899
  53.100000,  984.460094
  53.200000,  983.491288
  53.300000,  982.522483
  53.400000,  981.553800
  53.500000,  980.585127
  53.600000,  979.616455
  53.700000,  978.647782
  53.800000,  977.679110
  53.900000,  976.710437
  54.000000,  975.741765
  54.100000,  974.773092
  54.200000,  973.804419
  54.300000,  972.835747
  54.400000,  971.867424
  54.500000,  970.899130
  54.600000,  969.930837
  54.700000,  968.962543
  54.800000,  967.994249
  54.900000,  967.025956
  55.000000,  966.057662
  55.100000,  965.089369
  55.200000,  964.121075
  55.300000,  963.152782
  55.400000,  962.184727
  55.500000,  961.216693
  55.600000,  960.248659
  55.700000,  959.280625
  55.800000,  958.312591
  55.900000,  957.344558
  56.000000,  956.376524
  56.100000,  955.408490
  56.200000,  954.440456
  56.300000,  953.472422
  56.400000,  952.503957
  56.500000,  951.535456
  56.600000,  950.566955
  56.700000,  949.598454
  56.800000,  948.629952
  56.900000,  947.661451
  57.000000,  946.692950
  57.100000,  945.724449
  57.200000,  944.755948
  57.300000,  943.787446
  57.400000,  942.819090
  57.500000,  941.850747
  57.600000,  940.882403
  57.700000,  939.914060
  57.800000,  938.945716
  57.900000,  937.977373
  58.000000,  937.009029
  58.100000,  936.040686
  58.200000,  935.072342
  58.300000,  934.103999
  58.400000,  933.136028
  58.500000,  932.168089
  58.600000,  931.200150
  58.700000,  930.232211
  58.800000,  929.264272
  58.900000,  928.296333
  59.000000,  927.328395
  59.100000,  926.360456
  59.200000,  925.392517
  59.300000,  924.424578
  59.400000,  923.456900
  59.500000,  922.489244
  59.600000,  921.521588
  59.700000,  920.553932
  59.800000,  919.586277
  59.900000,  918.618621
  60.000000,  917.650965
  60.100000,  916.683309
  60.200000,  915.715653
  60.300000,  914.747997
  60.400000,  913.779927
  60.500000,  912.811821
  60.600000,  911.843715
  60.700000,  910.875609
  60.800000,  909.907503
  60.900000,  908.939397
  61.000000,  907.971291
  61.100000,  907.003185
  61.200000,  906.035079
  61.300000,  905.066974
  61.400000,  904.099022
  61.500000,  903.131084
  61.600000,  902.163146
  61.700000,  901.195208
  61.800000,  900.227269
  61.900000,  899.259331
  62.000000,  898.291393
  62.100000,  897.323455
  62.200000,  896.355517
  62.300000,  895.387578
  62.400000,  894.420014
  62.500000,  893.452483
  62.600000,  892.484951
  62.700000,  891.517419
  62.800000,  890.549887
  62.900000,  889.582355
  63.000000,  888.614823
  63.100000,  887.647291
  63.200000,  886.679759
  63.300000,  885.712227
  63.400000,  884.744949
  63.500000,  883.777692
  63.600000,  882.810436
  63.700000,  881.843179
  63.800000,  880.875922
  63.900000,  879.908666
  64.000000,  878.941409
  64.100000,  877.974152
  64.200000,  877.006896
  64.300000,  876.039639
  64.400000,  875.071952
  64.500000,  874.104228
  64.600000,  873.136503
  64.700000,  872.168779
  64.800000,  871.201055
  64.900000,  870.233331
  65.000000,  869.265607
  65.100000,  868.297883
  65.200000,  867.330158
  65.300000,  866.362434
  65.400000,  865.394843
  65.500000,  864.427263
  65.600000,  863.459683
  65.700000,  862.492103
  65.800000,  861.524522
  65.900000,  860.556942
  66.000000,  859.589362
  66.100000,  858.621782
  66.200000,  857.654202
  66.300000,  856.686622
  66.400000,  855.719390
  66.500000,  854.752187
  66.600000,  853.784985
  66.700000,  852.817782
  66.800000,  851.850579
  66.900000,  850.883377
  67.000000,  849.916174
  67.100000,  848.948972
  67.200000,  847.981769
  67.300000,  847.014566
  67.400000,  846.047588
  67.500000,  845.080628
  67.600000,  844.113668
  67.700000,  843.146708
  67.800000,  842.179748
  67.900000,  841.212789
  68.000000,  840.245829
  68.100000,  839.278869
  68.200000,  838.311909
  68.300000,  837.344949
  68.400000,  836.377526
  68.500000,  835.410064
  68.600000,  834.442601
  68.700000,  833.475139
  68.800000,  832.507677
  68.900000,  831.540214
  69.000000,  830.572752
  69.100000,  829.605289
  69.200000,  828.637827
  69.300000,  827.670364
  69.400000,  826.703004
  69.500000,  825.735652
  69.600000,  824.768300
  69.700000,  823.800948
  69.800000,  822.833596
  69.900000,  821.866244
  70.000000,  820.898892
  70.100000,  819.931540
  70.200000,  818.964188
  70.300000,  817.996836
  70.400000,  817.029804
  70.500000,  816.062798
  70.600000,  815.095793
  70.700000,  814.128788
  70.800000,  813.161783
  70.900000,  812.194778
  71.000000,  811.227773
  71.100000,  810.260768
  71.200000,  809.293762
  71.300000,  808.326757
  71.400000,  807.360818
  71.500000,  806.394969
  71.600000,  805.429120
  71.700000,  804.463271
  71.800000,  803.497422
  71.900000,  802.531574
  72.000000,  801.565725
  72.100000,  800.599876
  72.200000,  799.634027
  72.300000,  798.668178
  72.400000,  797.702340
  72.500000,  796.736503
  72.600000,  795.770665
  72.700000,  794.804828
  72.800000,  793.838990
  72.900000,  792.873153
  73.000000,  791.907316
  73.100000,  790.941478
  73.200000,  789.975641
  73.300000,  789.009803
  73.400000,  788.043871
  73.500000,  787.077931
  73.600000,  786.111990
  73.700000,  785.146050
  73.800000,  784.180109
  73.900000,  783.214169
  74.000000,  782.248229
  74.100000,  781.282288
  74.200000,  780.316348
  74.300000,  779.350407
  74.400000,  778.384817
  74.500000,  777.419257
  74.600000,  776.453697
  74.700000,  775.488137
  74.800000,  774.522577
  74.900000,  773.557017
  75.000000,  772.591456
  75.100000,  771.625896
  75.200000,  770.660336
  75.300000,  769.694776
  75.400000,  768.728818
  75.500000,  767.762827
  75.600000,  766.796835
  75.700000,  765.830843
  75.800000,  764.864852
  75.900000,  763.898860
  76.000000,  762.932868
  76.100000,  761.966877
  76.200000,  761.000885
  76.300000,  760.034893
  76.400000,  759.069015
  76.500000,  758.103146
  76.600000,  757.137277
  76.700000,  756.171408
  76.800000,  755.205539
  76.900000,  754.239670
  77.000000,  753.273801
  77.100000,  752.307932
  77.200000,  751.342064
  77.300000,  750.376195
  77.400000,  749.410074
  77.500000,  748.443932
  77.600000,  747.477790
  77.700000,  746.511648
  77.800000,  745.545506
  77.900000,  744.579364
  78.000000,  743.613222
  78.100000,  742.647080
  78.200000,  741.680938
  78.300000,  740.714795
  78.400000,  739.747350
  78.500000,  738.779793
  78.600000,  737.812237
  78.700000,  736.844680
  78.800000,  735.877124
  78.900000,  734.909567
  79.000000,  733.942011
  79.100000,  732.974454
  79.200000,  732.006898
  79.300000,  731.039341
  79.400000,  730.071491
  79.500000,  729.103615
  79.600000,  728.135740
  79.700000,  727.167864
  79.800000,  726.199989
  79.900000,  725.232113
  80.000000,  724.264238
  80.100000,  723.296363
  80.200000,  722.328487
  80.300000,  721.360612
  80.400000,  720.391450
  80.500000,  719.422178
  80.600000,  718.452906
  80.700000,  717.483634
  80.800000,  716.514362
  80.900000,  715.545090
  81.000000,  714.575818
  81.100000,  713.606546
  81.200000,  712.637274
  81.300000,  711.668003
  81.400000,  710.698765
  81.500000,  709.729531
  81.600000,  708.760297
  81.700000,  707.791063
  81.800000,  706.821829
  81.900000,  705.852595
  82.000000,  704.883361
  82.100000,  703.914126
  82.200000,  702.944892
  82.300000,  701.975658
  82.400000,  701.006822
  82.500000,  700.038019
  82.600000,  699.069216
  82.700000,  698.100414
  82.800000,  697.131611
  82.900000,  696.162809
  83.000000,  695.194006
  83.100000,  694.225203
  83.200000,  693.256401
  83.300000,  692.287598
  83.400000,  691.318396
  83.500000,  690.349159
  83.600000,  689.379923
  83.700000,  688.410686
  83.800000,  687.441450
  83.900000,  686.472214
  84.000000,  685.502977
  84.100000,  684.533741
  84.200000,  683.564504
  84.300000,  682.595268
  84.400000,  681.624767
  84.500000,  680.654159
  84.600000,  679.683551
  84.700000,  678.712942
  84.800000,  677.742334
  84.900000,  676.771725
  85.000000,  675.801117
  85.100000,  674.830509
  85.200000,  673.859900
  85.300000,  672.889292
  85.400000,  671.918781
  85.500000,  670.948279
  85.600000,  669.977776
  85.700000,  669.007274
  85.800000,  668.036772
  85.900000,  667.066269
  86.000000,  666.095767
  86.100000,  665.125265
  86.200000,  664.154762
  86.300000,  663.184260
  86.400000,  662.213417
  86.500000,  661.242544
  86.600000,  660.271672
  86.700000,  659.300799
  86.800000,  658.329927
  86.900000,  657.359054
  87.000000,  656.388182
  87.100000,  655.417309
  87.200000,  654.446437
  87.300000,  653.475565
  87.400000,  652.504342
  87.500000,  651.533090
  87.600000,  650.561837
  87.700000,  649.590585
  87.800000,  648.619333
  87.900000,  647.648080
  88.000000,  646.676828
  88.100000,  645.705575
  88.200000,  644.734323
  88.300000,  643.763071
  88.400000,  642.790676
  88.500000,  641.818184
  88.600000,  640.845692
  88.700000,  639.873200
  88.800000,  638.900708
  88.900000,  637.928216
  89.000000,  636.955724
  89.100000,  635.983232
  89.200000,  635.010740
  89.300000,  634.038248
  89.400000,  633.065313
  89.500000,  632.092340
  89.600000,  631.119368
  89.700000,  630.146395
  89.800000,  629.173423
  89.900000,  628.200450
  90.000000,  627.227477
  90.100000,  626.254505
  90.200000,  625.281532
  90.300000,  624.308559
  90.400000,  623.334451
  90.500000,  622.360245
  90.600000,  621.386040
  90.700000,  620.411834
  90.800000,  619.437628
  90.900000,  618.463423
  91.000000,  617.489217
  91.100000,  616.515012
  91.200000,  615.540806
  91.300000,  614.566600
  91.400000,  613.593099
  91.500000,  612.619657
  91.600000,  611.646216
  91.700000,  610.672774
  91.800000,  609.699333
  91.900000,  608.725891
  92.000000,  607.752449
  92.100000,  606.779008
  92.200000,  605.805566
  92.300000,  604.832125
  92.400000,  603.858644
  92.500000,  602.885160
  92.600000,  601.911677
  92.700000,  600.938193
  92.800000,  599.964709
  92.900000,  598.991225
  93.000000,  598.017742
  93.100000,  597.044258
  93.200000,  596.070774
  93.300000,  595.097290
  93.400000,  594.124518
  93.500000,  593.151806
  93.600000,  592.179094
  93.700000,  591.206383
  93.800000,  590.233671
  93.900000,  589.260959
  94.000000,  588.288247
  94.100000,  587.315536
  94.200000,  586.342824
  94.300000,  585.370112
  94.400000,  584.397332
  94.500000,  583.424546
  94.600000,  582.451760
  94.700000,  581.478973
  94.800000,  580.506187
  94.900000,  579.533401
  95.000000,  578.560615
  95.100000,  577.587829
  95.200000,  576.615042
  95.300000,  575.642256
  95.400000,  574.670119
  95.500000,  573.698038
  95.600000,  572.725957
  95.700000,  571.753875
  95.800000,  570.781794
  95.900000,  569.809712
  96.000000,  568.837631
  96.100000,  567.865549
  96.200000,  566.893468
  96.300000,  565.921387
  96.400000,  564.949304
  96.500000,  563.977222
  96.600000,  563.005140
  96.700000,  562.033057
  96.800000,  561.060975
  96.900000,  560.088893
  97.000000,  559.116810
  97.100000,  558.144728
  97.200000,  557.172646
  97.300000,  556.200563
  97.400000,  555.227955
  97.500000,  554.255303
  97.600000,  553.282650
  97.700000,  552.309997
  97.800000,  551.337344
  97.900000,  550.364691
  98.000000,  549.392038
  98.100000,  548.419386
  98.200000,  547.446733
  98.300000,  546.474080
  98.400000,  545.500204
  98.500000,  544.526225
  98.600000,  543.552245
  98.700000,  542.578265
  98.800000,  541.604285
  98.900000,  540.630305
  99.000000,  539.656326
  99.100000,  538.682346
  99.200000,  537.708366
  99.300000,  536.734386
  99.400000,  535.761035
  99.500000,  534.787738
  99.600000,  533.814440
  99.700000,  532.841143
  99.800000,  531.867845
  99.900000,  530.894548
 100.000000,  529.921251
 100.100000,  528.947953
 100.200000,  527.974656
 100.300000,  527.001358
 100.400000,  526.027952
 100.500000,  525.054536
 100.600000,  524.081121
 100.700000,  523.107705
 100.800000,  522.134289
 100.900000,  521.160874
 101.000000,  520.187458
 101.100000,  519.214042
 101.200000,  518.240626
 101.300000,  517.267211
 101.400000,  516.294452
 101.500000,  515.321748
 101.600000,  514.349045
 101.700000,  513.376342
 101.800000,  512.403638
 101.900000,  511.430935
 102.000000,  510.458232
 102.100000,  509.485528
 102.200000,  508.512825
 102.300000,  507.540122
 102.400000,  506.567307
 102.500000,  505.594482
 102.600000,  504.621657
 102.700000,  503.648832
 102.800000,  502.676007
 102.900000,  501.703183
 103.000000,  500.730358
 103.100000,  499.757533
 103.200000,  498.784708
 103.300000,  497.811883
 103.400000,  496.839684
 103.500000,  495.867539
 103.600000,  494.895393
 103.700000,  493.923247
 103.800000,  492.951102
 103.900000,  491.978956
 104.000000,  491.006810
 104.100000,  490.034665
 104.200000,  489.062519
 104.300000,  488.090373
 104.400000,  487.118218
 104.500000,  486.146062
 104.600000,  485.173906
 104.700000,  484.201750
 104.800000,  483.229594
 104.900000,  482.257438
 105.000000,  481.285281
 105.100000,  480.313125
 105.200000,  479.340969
 105.300000,  478.368813
 105.400000,  477.396138
 105.500000,  476.423418
 105.600000,  475.450699
 105.700000,  474.477979
 105.800000,  473.505259
 105.900000,  472.532540
 106.000000,  471.559820
 106.100000,  470.587101
 106.200000,  469.614381
 106.300000,  468.641661
 106.400000,  467.667738
 106.500000,  466.693713
 106.600000,  465.719687
 106.700000,  464.745662
 106.800000,  463.771636
 106.900000,  462.797611
 107.000000,  461.823585
 107.100000,  460.849560
 107.200000,  459.875534
 107.300000,  458.901509
 107.400000,  457.928153
 107.500000,  456.954854
 107.600000,  455.981556
 107.700000,  455.008257
 107.800000,  454.034958
 107.900000,  453.061660
 108.000000,  452.088361
 108.100000,  451.115063
 108.200000,  450.141764
 108.300000,  449.168465
 108.400000,  448.195107
 108.500000,  447.221743
 108.600000,  446.248379
 108.700000,  445.275015
 108.800000,  444.301651
 108.900000,  443.328287
 109.000000,  442.354924
 109.100000,  441.381560
 109.200000,  440.408196
 109.300000,  439.434832
 109.400000,  438.462185
 109.500000,  437.489598
 109.600000,  436.517011
 109.700000,  435.544425
 109.800000,  434.571838
 109.900000,  433.599252
 110.000000,  432.626665
 110.100000,  431.654079
 110.200000,  430.681492
 110.300000,  429.708906
 110.400000,  428.736268
 110.500000,  427.763625
 110.600000,  426.790983
 110.700000,  425.818341
 110.800000,  424.845699
 110.900000,  423.873056
 111.000000,  422.900414
 111.100000,  421.927772
 111.200000,  420.955130
 111.300000,  419.982487
 111.400000,  419.010535
 111.500000,  418.038642
 111.600000,  417.066748
 111.700000,  416.094854
 111.800000,  415.122961
 111.900000,  414.151067
 112.000000,  413.179174
 112.100000,  412.207280
 112.200000,  411.235387
 112.300000,  410.263493
 112.400000,  409.291488
 112.500000,  408.319474
 112.600000,  407.347460
 112.700000,  406.375446
 112.800000,  405.403431
 112.900000,  404.431417
 113.000000,  403.459403
 113.100000,  402.487389
 113.200000,  401.515374
 113.300000,  400.543360
 113.400000,  399.570892
 113.500000,  398.598385
 113.600000,  397.625878
 113.700000,  396.653370
 113.800000,  395.680863
 113.900000,  394.708356
 114.000000,  393.735849
 114.100000,  392.763342
 114.200000,  391.790835
 114.300000,  390.818328
 114.400000,  389.844678
 114.500000,  388.870931
 114.600000,  387.897184
 114.700000,  386.923436
 114.800000,  385.949689
 114.900000,  384.975942
 115.000000,  384.002195
 115.100000,  383.028448
 115.200000,  382.054700
 115.300000,  381.080953
 115.400000,  380.107939
 115.500000,  379.134987
 115.600000,  378.162035
 115.700000,  377.189083
 115.800000,  376.216132
 115.900000,  375.243180
 116.000000,  374.270228
 116.100000,  373.297276
 116.200000,  372.324324
 116.300000,  371.351372
 116.400000,  370.378412
 116.500000,  369.405451
 116.600000,  368.432489
 116.700000,  367.459528
 116.800000,  366.486567
 116.900000,  365.513606
 117.000000,  364.540645
 117.100000,  363.567683
 117.200000,  362.594722
 117.300000,  361.621761
 117.400000,  360.649559
 117.500000,  359.677422
 117.600000,  358.705286
 117.700000,  357.733149
 117.800000,  356.761012
 117.900000,  355.788875
 118.000000,  354.816738
 118.100000,  353.844601
 118.200000,  352.872465
 118.300000,  351.900328
 118.400000,  350.928167
 118.500000,  349.956004
 118.600000,  348.983841
 118.700000,  348.011678
 118.800000,  347.039514
 118.900000,  346.067351
 119.000000,  345.095188
 119.100000,  344.123025
 119.200000,  343.150862
 119.300000,  342.178699
 119.400000,  341.207242
 119.500000,  340.235845
 119.600000,  339.264448
 119.700000,  338.293051
 119.800000,  337.321655
 119.900000,  336.350258
 120.000000,  335.378861
 120.100000,  334.407464
 120.200000,  333.436067
 120.300000,  332.464670
 120.400000,  331.493161
 120.500000,  330.521642
 120.600000,  329.550122
 120.700000,  328.578603
 120.800000,  327.607084
 120.900000,  326.635565
 121.000000,  325.664046
 121.100000,  324.692527
 121.200000,  323.721008
 121.300000,  322.749489
 121.400000,  321.777499
 121.500000,  320.805469
 121.600000,  319.833439
 121.700000,  318.861409
 121.800000,  317.889379
 121.900000,  316.917349
 122.000000,  315.945320
 122.100000,  314.973290
 122.200000,  314.001260
 122.300000,  313.029230
 122.400000,  312.056026
 122.500000,  311.082721
 122.600000,  310.109417
 122.700000,  309.136113
 122.800000,  308.162808
 122.900000,  307.189504
 123.000000,  306.216200
 123.100000,  305.242895
 123.200000,  304.269591
 123.300000,  303.296287
 123.400000,  302.323681
 123.500000,  301.351135
 123.600000,  300.378590
 123.700000,  299.406044
 123.800000,  298.433498
 123.900000,  297.460952
 124.000000,  296.488406
 124.100000,  295.515860
 124.200000,  294.543314
 124.300000,  293.570768
 124.400000,  292.598169
 124.500000,  291.625565
 124.600000,  290.652961
 124.700000,  289.680357
 124.800000,  288.707753
 124.900000,  287.735149
 125.000000,  286.762545
 125.100000,  285.789941
 125.200000,  284.817338
 125.300000,  283.844734
 125.400000,  282.872843
 125.500000,  281.901013
 125.600000,  280.929184
 125.700000,  279.957354
 125.800000,  278.985524
 125.900000,  278.013695
 126.000000,  277.041865
 126.100000,  276.070035
 126.200000,  275.098206
 126.300000,  274.126376
 126.400000,  273.154471
 126.500000,  272.182560
 126.600000,  271.210648
 126.700000,  270.238737
 126.800000,  269.266825
 126.900000,  268.294914
 127.000000,  267.323002
 127.100000,  266.351091
 127.200000,  265.379179
 127.300000,  264.407268
 127.400000,  263.436016
 127.500000,  262.464820
 127.600000,  261.493624
 127.700000,  260.522429
 127.800000,  259.551233
 127.900000,  258.580037
 128.000000,  257.608841
 128.100000,  256.637645
 128.200000,  255.666450
 128.300000,  254.695254
 128.400000,  253.723899
 128.500000,  252.752531
 128.600000,  251.781163
 128.700000,  250.809795
 128.800000,  249.838428
 128.900000,  248.867060
 129.000000,  247.895692
 129.100000,  246.924324
 129.200000,  245.952956
 129.300000,  244.981588
 129.400000,  244.009707
 129.500000,  243.037783
 129.600000,  242.065859
 129.700000,  241.093935
 129.800000,  240.122011
 129.900000,  239.150087
 130.000000,  238.178163
 130.100000,  237.206239
 130.200000,  236.234315
 130.300000,  235.262390
 130.400000,  234.289251
 130.500000,  233.316009
 130.600000,  232.342766
 130.700000,  231.369524
 130.800000,  230.396281
 130.900000,  229.423039
 131.000000,  228.449796
 131.100000,  227.476554
 131.200000,  226.503311
 131.300000,  225.530068
 131.400000,  224.557497
 131.500000,  223.584983
 131.600000,  222.612469
 131.700000,  221.639955
 131.800000,  220.667441
 131.900000,  219.694926
 132.000000,  218.722412
 132.100000,  217.749898
 132.200000,  216.777384
 132.300000,  215.804870
 132.400000,  214.832278
 132.500000,  213.859680
 132.600000,  212.887081
 132.700000,  211.914483
 132.800000,  210.941884
 132.900000,  209.969285
 133.000000,  208.996687
 133.100000,  208.024088
 133.200000,  207.051490
 133.300000,  206.078891
 133.400000,  205.106989
 133.500000,  204.135146
 133.600000,  203.163303
 133.700000,  202.191460
 133.800000,  201.219617
 133.900000,  200.247774
 134.000000,  199.275931
 134.100000,  198.304088
 134.200000,  197.332245
 134.300000,  196.360402
 134.400000,  195.388468
 134.500000,  194.416526
 134.600000,  193.444584
 134.700000,  192.472642
 134.800000,  191.500700
 134.900000,  190.528757
 135.000000,  189.556815
 135.100000,  188.584873
 135.200000,  187.612931
 135.300000,  186.640989
 135.400000,  185.669695
 135.500000,  184.698457
 135.600000,  183.727218
 135.700000,  182.755979
 135.800000,  181.784740
 135.900000,  180.813502
 136.000000,  179.842263
 136.100000,  178.871024
 136.200000,  177.899785
 136.300000,  176.928547
 136.400000,  175.957137
 136.500000,  174.985712
 136.600000,  174.014288
 136.700000,  173.042864
 136.800000,  172.071439
 136.900000,  171.100015
 137.000000,  170.128590
 137.100000,  169.157166
 137.200000,  168.185741
 137.300000,  167.214317
 137.400000,  166.242366
 137.500000,  165.270371
 137.600000,  164.298375
 137.700000,  163.326379
 137.800000,  162.354384
 137.900000,  161.382388
 138.000000,  160.410392
 138.100000,  159.438397
 138.200000,  158.466401
 138.300000,  157.494406
 138.400000,  156.521179
 138.500000,  155.547847
 138.600000,  154.574516
 138.700000,  153.601184
 138.800000,  152.627853
 138.900000,  151.654521
 139.000000,  150.681189
 139.100000,  149.707858
 139.200000,  148.734526
 139.300000,  147.761195
 139.400000,  146.788527
 139.500000,  145.815916
 139.600000,  144.843306
 139.700000,  143.870695
 139.800000,  142.898084
 139.900000,  141.925473
 140.000000,  140.952862
 140.100000,  139.980252
 140.200000,  139.007641
 140.300000,  138.035030
 140.400000,  137.062333
 140.500000,  136.089629
 140.600000,  135.116925
 140.700000,  134.144220
 140.800000,  133.171516
 140.900000,  132.198812
 141.000000,  131.226107
 141.100000,  130.253403
 141.200000,  129.280699
 141.300000,  128.307995
 141.400000,  127.335983
 141.500000,  126.364031
 141.600000,  125.392079
 141.700000,  124.420127
 141.800000,  123.448175
 141.900000,  122.476223
 142.000000,  121.504271
 142.100000,  120.532319
 142.200000,  119.560367
 142.300000,  118.588415
 142.400000,  117.616368
 142.500000,  116.644312
 142.600000,  115.672257
 142.700000,  114.700201
 142.800000,  113.728146
 142.900000,  112.756091
 143.000000,  111.784035
 143.100000,  110.811980
 143.200000,  109.839925
 143.300000,  108.867869
 143.400000,  107.896464
 143.500000,  106.925113
 143.600000,  105.953763
 143.700000,  104.982413
 143.800000,  104.011063
 143.900000,  103.039713
 144.000000,  102.068363
 144.100000,  101.097013
 144.200000,  100.125662
 144.300000,   99.154312
 144.400000,   98.182792
 144.500000,   97.211257
 144.600000,   96.239722
 144.700000,   95.268187
 144.800000,   94.296651
 144.900000,   93.325116
 145.000000,   92.353581
 145.100000,   91.382046
 145.200000,   90.410511
 145.300000,   89.438976
 145.400000,   88.466916
 145.500000,   87.494812
 145.600000,   86.522707
 145.700000,   85.550603
 145.800000,   84.578498
 145.900000,   83.606393
 146.000000,   82.634289
 146.100000,   81.662184
 146.200000,   80.690080
 146.300000,   79.717975
 146.400000,   78.744640
 146.500000,   77.771200
 146.600000,   76.797759
 146.700000,   75.824319
 146.800000,   74.850879
 146.900000,   73.877439
 147.000000,   72.903998
 147.100000,   71.930558
 147.200000,   70.957118
 147.300000,   69.983678
 147.400000,   69.010912
 147.500000,   68.038203
 147.600000,   67.065494
 147.700000,   66.092785
 147.800000,   65.120076
 147.900000,   64.147368
 148.000000,   63.174659
 148.100000,   62.201950
 148.200000,   61.229241
 148.300000,   60.256532
 148.400000,   59.283745
 148.500000,   58.310951
 148.600000,   57.338157
 148.700000,   56.365363
 148.800000,   55.392568
 148.900000,   54.419774
 149.000000,   53.446980
 149.100000,   52.474186
 149.200000,   51.501392
 149.300000,   50.528598
 149.354332,   50.000000
 149.454332,   49.028014
 149.554332,   48.056028
 149.654332,   47.084042
 149.754332,   46.112057
 149.854332,   45.140071
 149.954332,   44.168085
 150.054332,   43.196099
 150.154332,   42.224113
 150.254332,   41.252127
 150.354332,   40.283541
 150.454332,   39.318870
 150.554332,   38.354199
 150.654332,   37.389528
 150.754332,   36.424857
 150.854332,   35.460186
 150.954332,   34.495515
 151.054332,   33.530844
 151.154332,   32.566173
 151.254332,   31.601502
 151.354332,   30.643656
 151.454332,   29.693672
 151.554332,   28.743687
 151.654332,   27.793702
 151.754332,   26.843717
 151.854332,   25.893733
 151.954332,   24.943748
 152.054332,   23.993763
 152.154332,   23.043778
 152.254332,   22.093794
 152.354332,   21.147880
 152.454332,   20.206654
 152.476287,   20.000000
 152.576287,   19.065318
 152.676287,   18.130637
 152.776287,   17.195955
 152.876287,   16.261273
 152.976287,   15.326592
 153.076287,   14.391910
 153.176287,   13.457228
 153.276287,   12.522546
 153.376287,   11.727336
 153.476287,   10.996463
 153.576287,   10.265589
 153.676287,    9.534715
 153.776287,    8.803841
 153.876287,    8.072967
 153.976287,    7.342093
 154.076287,    6.611219
 154.176287,    5.880345
 154.276287,    5.149471
 154.376287,    4.686046
 154.476287,    4.345991
 154.576287,    4.005935
 154.676287,    3.665879
 154.776287,    3.325824
 154.876287,    2.985768
 154.976287,    2.645713
 155.076287,    2.305657
 155.117546,    2.165354
 155.217546,    2.044313
 155.317546,    1.935003
 155.417546,    1.935003
 155.517546,    1.935003
 155.617546,    1.935003
 155.717546,    1.935003
 155.817546,    1.935003
 155.917546,    1.935003
 156.017546,    1.935003
 156.117546,    1.935003
 156.217546,    1.935003
 156.317546,    1.935003
 156.417546,    1.935003
 156.517546,    1.935003
 156.617546,    1.935003
 156.717546,    1.935003
 156.817546,    1.935003
 156.917546,    1.935003
 157.017546,    1.935003
 157.117546,    1.935003
 157.217546,    1.935003
 157.317546,    1.935003
 157.417546,    1.935003
 157.517546,    1.935003
 157.617546,    1.935003
 157.717546,    1.935003
 157.817546,    1.935003
 157.917546,    1.935003
 158.017546,    1.935003
 158.117546,    1.935003
 158.217546,    1.935003
 158.317546,    1.935003
 158.417546,    1.935003
 158.517546,    1.935003
 158.617546,    1.935003
 158.717546,    1.935003
 158.817546,    1.935003
 158.917546,    1.935003
 159.017546,    1.935003
 159.117546,    1.935003
 159.217546,    1.935003
 159.317546,    1.935003
 159.417546,    1.935003
 159.517546,    1.935003
 159.617546,    1.935003
 159.717546,    1.935003
 159.817546,    1.935003
 159.917546,    1.935003
 160.017546,    1.935003
 160.117546,    1.935003
 160.217546,    1.935003
 160.317546,    1.935003
 160.417546,    1.935003
 160.517546,    1.935003
 160.617546,    1.935003
 160.717546,    1.935003
 160.817546,    1.935003
 160.917546,    1.935003
 161.017546,    1.935003
 161.117546,    1.935003
 161.217546,    1.935003
 161.317546,    1.935003
 161.417546,    1.935003
 161.517546,    1.935003
 161.617546,    1.935003
 161.717546,    1.935003
 161.817546,    1.935003
 161.917546,    1.935003
 162.017546,    1.935003
 162.117546,    1.935003
 162.217546,    1.935003
 162.317546,    1.935003
 162.417546,    1.935003
 162.517546,    1.935003
 162.617546,    1.935003
 162.717546,    1.935003
 162.817546,    1.935003
 162.917546,    1.935003
 163.017546,    1.935003
 163.117546,    1.935003
 163.217546,    1.935003
 163.317546,    1.935003
 163.417546,    1.935003
 163.517546,    1.935003
 163.617546,    1.935003
 163.717546,    1.935003
 163.817546,    1.935003
 163.917546,    1.935003
 164.017546,    1.935003
 164.117546,    1.935003
 164.217546,    1.935003
 164.317546,    1.935003
 164.417546,    1.935003
 164.517546,    1.935003
 164.617546,    1.935003
 164.717546,    1.935003
 164.817546,    1.935003
 164.917546,    1.935003
 165.017546,    1.935003
 165.117546,    1.935003
 165.217546,    1.935003
 165.317546,    1.935003
 165.417546,    1.935003
 165.517546,    1.935003
 165.617546,    1.935003
 165.717546,    1.935003
 165.817546,    1.935003
 165.917546,    1.935003
 166.017546,    1.935003
 166.117546,    1.935003
 166.217546,    1.935003
 166.317546,    1.935003
 166.417546,    1.935003
 166.517546,    1.935003
 166.617546,    1.935003
 166.717546,    1.935003
 166.817546,    1.935003
 166.917546,    1.935003
 167.017546,    1.935003
 167.117546,    1.935003
 167.217546,    1.935003
 167.317546,    1.935003
 167.417546,    1.935003
 167.517546,    1.935003
 167.617546,    1.935003
 167.717546,    1.935003
 167.817546,    1.935003
 167.917546,    1.935003
 168.017546,    1.935003
 168.117546,    1.935003
 168.217546,    1.935003
 168.317546,    1.935003
 168.417546,    1.935003
 168.489518,    1.935003
