Ground distance, Rate of Climb
   0.000000,    0.000000
   0.000001,    0.000000
   0.000018,    0.000000
   0.000136,    0.000000
   0.000618,    0.000000
   0.002568,    0.000000
   0.007721,    0.000000
   0.015888,    0.000000
   0.027021,    0.000000
   0.041066,    0.000000
   0.058160,    0.000000
   0.078255,    0.000000
   0.101611,    0.000000
   0.127771,    0.000000
   0.157376,    0.000000
   0.190150,    0.000000
   0.226263,    0.000000
   0.265177,    0.000000
   0.308123,    0.000000
   0.354163,    0.000000
   0.404176,    0.000000
   0.458104,    0.000000
   0.515675,    0.000000
   0.577152,    0.000000
   0.642515,    0.000000
   0.711800,    0.000000
   0.785722,    0.000000
   0.862450,    0.000000
   0.943661,    0.000000
   1.030821,    0.000000
   1.121826,    0.000000
   1.217579,    0.000000
   1.317126,    0.000000
   1.422134,    0.000000
   1.533614,    0.000000
   1.648686,    0.000000
   1.770435,    0.000000
   1.896163,    0.000000
   2.027768,    0.000000
   2.162982,    0.000000
   2.305834,    0.000000
   2.452754,    0.000000
   2.607713,    0.000000
   2.767807,    0.000000
   2.935767,    0.000000
   3.106602,    0.000000
   3.285109,    0.000000
   3.470857,    0.000000
   3.661890,    0.000000
   3.863104,    0.000000
   4.067494,    0.000000
   4.278679,    0.000000
   4.502618,    0.000000
   4.732791,    0.000000
   4.967116,    0.000000
   5.212280,    0.000000
   5.461834,    0.000000
   5.720096,    0.000000
   5.988537,    0.000000
   6.264632,    0.000000
   6.550012,    0.000000
   6.840712,    0.000000
   7.143489,    0.000000
   7.455101,    0.000000
   7.776174,    0.000000
   8.102634,    0.000000
   8.438177,    0.000000
   8.786895,    0.000000
   9.142041,    0.000000
   9.510843,    0.000000
   9.886078,    0.000000
  10.268918,    0.000000
  10.664186,    0.000000
  11.068753,    0.000000
  11.484252,    0.000000
  11.907758,    0.000000
  12.347225,    0.000000
  12.801502,    0.000000
  13.266050,    0.000000
  13.738092,    0.000000
  14.218146,    0.000000
  14.715215,    0.000000
  15.214268,    0.000000
  15.724700,    0.000000
  16.242315,    0.000000
  16.780077,    0.000000
  17.331918,    0.000000
  17.894564,    0.000000
  18.463560,    0.000000
  19.052341,    0.000000
  19.648954,    0.000000
  20.261915,    0.000000
  20.883759,    0.000000
  21.520242,    0.000000
  22.169484,    0.000000
  22.833394,    0.000000
  23.507773,    0.000000
  24.194980,    0.000000
  24.896677,    0.000000
  25.038398,    0.000000
  25.116602,    0.000000
  25.176535,    0.000000
  25.225954,    0.000000
  25.254982,    0.000000
  25.277690,    0.000000
  25.294309,    0.000000
  25.307453,    0.000000
  25.317996,    0.000000
  25.328235,    0.000000
  25.336910,    0.000000
  25.338574,    0.000000
  25.340824,    0.000000
  25.344136,    0.000000
  25.344380,    0.000000
  25.344577,    0.000000
  25.344631,    0.000000
  25.344681,    0.000000
  25.345175,    0.000000
  25.349165,    0.000000
  25.373629,    0.000000
  25.463034,    0.000000
  25.734448,    0.000000
  26.286238,    0.000000
  26.957747,    0.000000
  27.625905,    0.000000
  28.309608,    0.000000
  28.999807,    0.000000
  29.709925,    0.000000
  30.423467,    0.000000
  31.146982,    0.000000
  31.888807,    0.000000
  32.639505,    0.000000
  33.400967,    0.000000
  34.174240,    0.000000
  34.962053,    0.000000
  35.757859,    0.000000
  36.564224,    0.000000
  37.384631,    0.000000
  38.217060,    0.000000
  39.068159,    0.000000
  39.923868,    0.000000
  40.796788,    0.000000
  41.681355,    0.000000
  42.581023,    0.000000
  43.496073,    0.000000
  44.419157,    0.000000
  45.356769,    0.000000
  46.312553,    0.000000
  47.276519,    0.000000
  48.259145,    0.000000
  49.254920,    0.000000
  50.266210,    0.000000
  51.291080,    0.000000
  52.327970,    0.000000
  53.378452,    0.000000
  54.444522,    0.000000
  55.520758,    0.000000
  56.609811,    0.000000
  57.715730,    0.000000
  58.835268,    0.000000
  59.974373,    0.000000
  61.128130,    0.000000
  62.296577,    0.000000
  63.485480,    0.000000
  64.686843,    0.000000
  65.894137,    0.000000
  67.117368,    0.000000
  68.355809,    0.000000
  69.608635,    0.000000
  70.888690,    0.000000
  72.172504,    0.000000
  73.471903,    0.000000
  74.796005,    0.000000
  76.130006,    0.000000
  77.486024,    0.000000
  78.857589,    0.000000
  80.246005,    0.000000
  81.642229,    0.000000
  83.058892,    0.000000
  84.487415,    0.000000
  85.937352,    0.000000
  87.408230,    0.000000
  88.890748,    0.000000
  90.392140,    0.000000
  91.901058,    0.000000
  93.438697,    0.000000
  94.988808,    0.000000
  96.560028,    0.000000
  98.141413,    0.000000
  99.738990,    0.000000
 101.351866,    0.000000
 102.992063,    0.000000
 104.649356,    0.000000
 104.981159,    0.000000
 105.021559,    0.000000
 105.029559,    0.000000
 105.031642,    0.000000
 105.032918,    0.000000
 105.033815,    0.000000
 105.034447,    0.000000
 105.034892,    0.000000
 105.035125,    0.000000
 105.036569,    0.000000
 105.037876,    0.000000
 105.050383,    0.000000
 105.116049,    0.000000
 105.434229,    0.000000
 106.378701,    0.000000
 107.848098,    0.000000
 109.355476,    0.000000
 110.876828,    0.000000
 112.415812,    0.000000
 113.967914,    0.000000
 115.538430,    0.000000
 117.119485,    0.000000
 118.722107,    0.000000
 120.332146,    0.000000
 121.954563,    0.000000
 123.597902,    0.000000
 125.252592,    0.000000
 126.925126,    0.000000
 128.609165,    0.000000
 130.304834,    0.000000
 132.017894,    0.000000
 133.743159,    0.000000
 135.483291,    0.000000
 137.246217,    0.000000
 139.015186,    0.000000
 140.805056,    0.000000
 142.618998,    0.000000
 144.439662,    0.000000
 146.268777,    0.000000
 148.118980,    0.000000
 149.991942,    0.000000
 151.880440,    0.000000
 153.779094,    0.000000
 155.684569,    0.000000
 157.614538,    0.000000
 159.558868,    0.000000
 161.534101,    0.000000
 163.519849,    0.000000
 165.510252,    0.000000
 167.519389,    0.000000
 169.550493,    0.000000
 171.588533,    0.000000
 173.649358,    0.000000
 175.728858,    0.000000
 177.816290,    0.000000
 179.928878,    0.000000
 182.053088,    0.000000
 184.192856,    0.000000
 186.353983,    0.000000
 188.533177,    0.000000
 190.740221,    0.000000
 192.954895,    0.000000
 195.193201,    0.000000
 197.435686,    0.000000
 199.695886,    0.000000
 201.980093,    0.000000
 204.273863,    0.000000
 206.579197,    0.000000
 208.915637,    0.000000
 211.265320,    0.000000
 213.638567,    0.000000
 216.027085,    0.000000
 218.441154,    0.000000
 220.862016,    0.000000
 223.303461,    0.000000
 225.757476,    0.000000
 228.227753,    0.000000
 230.713215,    0.000000
 233.220277,    0.000000
 235.742263,    0.000000
 238.295072,    0.000000
 240.852242,    0.000000
 243.433702,    0.000000
 246.026994,    0.000000
 246.548684,    0.000000
 246.895270,    0.000000
 247.132636,    0.000000
 247.333767,    0.000000
 247.536319,    0.000000
 247.582140,    0.000000
 247.633450,    0.000000
 247.643983,    0.000000
 247.658272,    0.000000
 247.677757,    0.000000
 247.678778,    0.000000
 247.679614,    0.000000
 247.680109,    0.000000
 247.680329,    0.000000
 247.680535,    0.000000
 247.682594,    0.000000
 247.703178,    0.000000
 247.850340,    0.000000
 248.639839,    0.000000
 250.904058,    0.000000
 253.210925,    0.000000
 255.531492,    0.000000
 257.868693,    0.000000
 260.225755,    0.000000
 262.589043,    0.000000
 264.963105,    0.000000
 267.353922,    0.000000
 269.761138,    0.000000
 272.187957,    0.000000
 274.622252,    0.000000
 277.073266,    0.000000
 279.539637,    0.000000
 282.018769,    0.000000
 284.511485,    0.000000
 287.022538,    0.000000
 289.551400,    0.000000
 292.090093,    0.000000
 294.649548,    0.000000
 297.217027,    0.000000
 299.796933,    0.000000
 302.392655,    0.000000
 305.001889,    0.000000
 307.624744,    0.000000
 310.262744,    0.000000
 312.920359,    0.000000
 315.586251,    0.000000
 318.267903,    0.000000
 320.969673,    0.000000
 323.682736,    0.000000
 326.419570,    0.000000
 329.164070,    0.000000
 331.921989,    0.000000
 334.704647,    0.000000
 337.504159,    0.000000
 340.312408,    0.000000
 343.132607,    0.000000
 345.967821,    0.000000
 348.825017,    0.000000
 351.701052,    0.000000
 354.587828,    0.000000
 357.498677,    0.000000
 360.419494,    0.000000
 363.350390,    0.000000
 366.302885,    0.000000
 369.269740,    0.000000
 372.247677,    0.000000
 375.246446,    0.000000
 378.255582,    0.000000
 381.275937,    0.000000
 384.320238,    0.000000
 387.384031,    0.000000
 390.457804,    0.000000
 393.552773,    0.000000
 396.663257,    0.000000
 399.790420,    0.000000
 402.936942,    0.000000
 406.083413,    0.000000
 409.261626,    0.000000
 412.446075,    0.000000
 415.650887,    0.000000
 418.864056,    0.000000
 422.100551,    0.000000
 425.362077,    0.000000
 428.629305,    0.000000
 431.915267,    0.000000
 435.226326,    0.000000
 438.549962,    0.000000
 441.883190,    0.000000
 445.239377,    0.000000
 448.609096,    0.000000
 451.996618,    0.000000
 455.403818,    0.000000
 458.817956,    0.000000
 462.264375,    0.000000
 465.713845,    0.000000
 469.186096,    0.000000
 469.213916,    0.000000
 469.250418,    0.000000
 469.269184,    0.000000
 469.282839,    0.000000
 469.290786,    0.000000
 469.295775,    0.000000
 469.299056,    0.000000
 469.300616,    0.000000
 469.302305,    0.000000
 469.319197,    0.000000
 469.443656,    0.000000
 470.181625,    0.000000
 472.802833,    0.000000
 476.297342,    0.000000
 479.799626,    0.000000
 483.309708,    0.000000
 486.845320,    0.000000
 490.390906,    0.000000
 493.952637,    0.000000
 497.537245,    0.000000
 501.144235,    0.000000
 504.768925,    0.000000
 508.400777,    0.000000
 512.046595,    0.000000
 515.721223,    0.000000
 519.410023,    0.000000
 523.104460,    0.000000
 526.822824,    0.000000
 530.563814,    0.000000
 534.315541,    0.000000
 538.079384,    0.000000
 541.874219,    0.000000
 545.675864,    0.000000
 549.492722,    0.000000
 553.332926,    0.000000
 557.186060,    0.000000
 561.061217,    0.000000
 564.955488,    0.000000
 568.872507,    0.000000
 572.807881,    0.000000
 576.753360,    0.000000
 580.716780,    0.000000
 584.703529,    0.000000
 588.694927,    0.000000
 592.707103,    0.000000
 596.751233,    0.000000
 600.796606,    0.000000
 604.861623,    0.000000
 608.951395,    0.000000
 613.055290,    0.000000
 617.175575,    0.000000
 621.322949,    0.000000
 625.482594,    0.000000
 629.661373,    0.000000
 633.852326,    0.000000
 638.060166,    0.000000
 642.285971,    0.000000
 646.529304,    0.000000
 649.547032,    0.000000
 650.792752,    0.000000
 655.076442,    0.000000
 659.381680,    0.000000
 663.710713,    0.000000
 668.056338,    0.000000
 672.412365,    0.000000
 676.809778,    0.000000
 681.213543,    0.000000
 685.637866,    0.000000
 690.085419,    0.000000
 694.558901,    0.000000
 699.042878,    0.000000
 703.541350,    0.000000
 708.066026,    0.000000
 712.613184,    0.000000
 717.169034,    0.000000
 721.744062,    0.000000
 726.320665,    0.000000
 730.920230,    0.000000
 735.543208,    0.000000
 740.169245,    0.000000
 744.816122,    0.000000
 749.477505,    0.000000
 754.156212,    0.000000
 758.846517,    0.000000
 763.544173,    0.000000
 768.250449,    0.000000
 772.979390,    0.000000
 777.716507,    0.000000
 778.038794,    0.003441
 778.360916,    0.006943
 778.683879,    0.010515
 779.006732,    0.014148
 779.330250,    0.017850
 779.653286,    0.021609
 779.976977,    0.025437
 780.301291,    0.029335
 780.624772,    0.033285
 780.948895,    0.037305
 781.273552,    0.041393
 781.597562,    0.045535
 781.921737,    0.049742
 782.246221,    0.054015
 782.571960,    0.058366
 782.898482,    0.062791
 783.223987,    0.067264
 783.550424,    0.071813
 783.877123,    0.076428
 784.204853,    0.081120
 784.531964,    0.085867
 784.859281,    0.090680
 785.186943,    0.095560
 785.515376,    0.100515
 785.842154,    0.105508
 786.171767,    0.110608
 786.500869,    0.115763
 786.830581,    0.120991
 787.158762,    0.126258
 787.488040,    0.131606
 787.817188,    0.137015
 788.147476,    0.142506
 788.478934,    0.148080
 788.810216,    0.153716
 789.141830,    0.159421
 789.474134,    0.165202
 789.807049,    0.171058
 790.140619,    0.176990
 790.473936,    0.182982
 790.805057,    0.188998
 791.139700,    0.195143
 791.474693,    0.201360
 791.808687,    0.207622
 792.144385,    0.213982
 792.478924,    0.220384
 792.813748,    0.226857
 793.150495,    0.233432
 793.486312,    0.240054
 793.821762,    0.246734
 794.159367,    0.253522
 794.495712,    0.260350
 794.833643,    0.267276
 795.172024,    0.274277
 795.510341,    0.281342
 795.849903,    0.288499
 796.189871,    0.295731
 796.257953,    0.297191
 796.293077,    0.297946
 796.320831,    0.298543
 796.324999,    0.298632
 796.325999,    0.298654
 796.326479,    0.298664
 796.326915,    0.298673
 796.329778,    0.298735
 796.355045,    0.299279
 796.457723,    0.301491
 796.677904,    0.306249
 797.019049,    0.313668
 797.357835,    0.321102
 797.698272,    0.328638
 798.039496,    0.336258
 798.380011,    0.343929
 798.719589,    0.351644
 799.061813,    0.359486
 799.406071,    0.367442
 799.749722,    0.375451
 800.093905,    0.383540
 800.438310,    0.391654
 800.783591,    0.399810
 801.128817,    0.407986
 801.474558,    0.416194
 801.819534,    0.424405
 802.167043,    0.432696
 802.514730,    0.441013
 802.860168,    0.449297
 803.206029,    0.457611
 803.554298,    0.466004
 803.902405,    0.474414
 804.250552,    0.482846
 804.598707,    0.491298
 804.947600,    0.499789
 805.296549,    0.508303
 805.645563,    0.516839
 805.995113,    0.525408
 806.345823,    0.534027
 806.697687,    0.542696
 807.050472,    0.551408
 807.403172,    0.560139
 807.752664,    0.568811
 808.106576,    0.577614
 808.460681,    0.586444
 808.814090,    0.595276
 809.168861,    0.604164
 809.524465,    0.613095
 809.880848,    0.622066
 810.237338,    0.631061
 810.593489,    0.640068
 810.948425,    0.649066
 811.306015,    0.658153
 811.662383,    0.667230
 812.020580,    0.676374
 812.379307,    0.685554
 812.738359,    0.694763
 813.098659,    0.704026
 813.456732,    0.713253
 813.817317,    0.722566
 814.178437,    0.731914
 814.540011,    0.741296
 814.903590,    0.750751
 815.265635,    0.760188
 815.627917,    0.769653
 815.992218,    0.779192
 816.354826,    0.788709
 816.718224,    0.798268
 817.083193,    0.807890
 817.447107,    0.817505
 817.813629,    0.827212
 818.180853,    0.836958
 818.550175,    0.846783
 818.916889,    0.856560
 819.285494,    0.866410
 819.653917,    0.876276
 820.024360,    0.886219
 820.392547,    0.896123
 820.761887,    0.906080
 821.132415,    0.916091
 821.501339,    0.926081
 821.874058,    0.936195
 822.247099,    0.946341
 822.619960,    0.956504
 822.994531,    0.966736
 823.371169,    0.977046
 823.743495,    0.987261
 824.117628,    0.997548
 824.493477,    1.007904
 824.870730,    1.018321
 825.249100,    1.028792
 825.628255,    1.039307
 826.007496,    1.049848
 826.388585,    1.060462
 826.769295,    1.071089
 827.150153,    1.081742
 827.531690,    1.092437
 827.913987,    1.103176
 828.295528,    1.113917
 828.680132,    1.124767
 829.062193,    1.135568
 829.447378,    1.146481
 829.679430,    1.153066
 829.830591,    1.157360
 830.216049,    1.168326
 830.600632,    1.179290
 830.987150,    1.190332
 831.374705,    1.201426
 831.762041,    1.212538
 832.148369,    1.223644
 832.537903,    1.234865
 832.928251,    1.246132
 833.318862,    1.257431
 833.711058,    1.268799
 834.105132,    1.280244
 834.498413,    1.291691
 834.892186,    1.303175
 835.286596,    1.314701
 835.681404,    1.326262
 836.077297,    1.337879
 836.475061,    1.349575
 836.870475,    1.361225
 837.268451,    1.372974
 837.667614,    1.384782
 838.068065,    1.396652
 838.468294,    1.408539
 838.868574,    1.420452
 839.271525,    1.432469
 839.673558,    1.444482
 840.075401,    1.456513
 840.478638,    1.468610
 840.881633,    1.480724
 841.282718,    1.492804
 841.689825,    1.505090
 842.097686,    1.517423
 842.505095,    1.529766
 842.914962,    1.542209
 843.323314,    1.554630
 843.732688,    1.567106
 844.145200,    1.579703
 844.555810,    1.592266
 844.968349,    1.604913
 845.380386,    1.617569
 845.792860,    1.630263
 846.205102,    1.642974
 846.617423,    1.655712
 847.031657,    1.668534
 847.448097,    1.681449
 847.865947,    1.694433
 848.282980,    1.707416
 848.700006,    1.720424
 849.121210,    1.733587
 849.542115,    1.746765
 849.964021,    1.760001
 850.385558,    1.773250
 850.808077,    1.786555
 851.232014,    1.799929
 851.657496,    1.813378
 852.082490,    1.826837
 852.506919,    1.840303
 852.933734,    1.853870
 853.360967,    1.867476
 853.792293,    1.881238
 854.222173,    1.894979
 854.652182,    1.908751
 855.083209,    1.922580
 855.513753,    1.936419
 855.948462,    1.950418
 856.382794,    1.964431
 856.819431,    1.978545
 857.255646,    1.992670
 857.692670,    2.006848
 858.130436,    2.021076
 858.569914,    2.035386
 859.008525,    2.049693
 859.448714,    2.064079
 859.890706,    2.078549
 860.334719,    2.093112
 860.777535,    2.107662
 861.222998,    2.122325
 861.668644,    2.137021
 862.118028,    2.151868
 862.562035,    2.166562
 863.010145,    2.181419
 863.461216,    2.196402
 863.909601,    2.211321
 864.359547,    2.226319
 864.810501,    2.241377
 865.258866,    2.256376
 865.711817,    2.271554
 866.165617,    2.286788
 866.621511,    2.302119
 867.075152,    2.317401
 867.529442,    2.332731
 867.985357,    2.348143
 868.447040,    2.363778
 868.909066,    2.379451
 869.367049,    2.395014
 869.825879,    2.410633
 870.286866,    2.426353
 870.751403,    2.442221
 871.216085,    2.458121
 871.680875,    2.474052
 872.148612,    2.490112
 872.615054,    2.506154
 873.085287,    2.522355
 873.555452,    2.538581
 874.024505,    2.554797
 874.497351,    2.571171
 874.970029,    2.587567
 875.440823,    2.603925
 875.915167,    2.620434
 876.391240,    2.637031
 876.868608,    2.653702
 877.346087,    2.670404
 877.824805,    2.687178
 878.306647,    2.704089
 878.784109,    2.720874
 879.262160,    2.737708
 879.743589,    2.754689
 880.225049,    2.771698
 880.705914,    2.788715
 881.191623,    2.805931
 881.679784,    2.823262
 882.164467,    2.840498
 882.648406,    2.857735
 883.136943,    2.875164
 883.623723,    2.892559
 884.110571,    2.909984
 884.601359,    2.927578
 885.091737,    2.945185
 885.586613,    2.962983
 886.080645,    2.980778
 886.575282,    2.998624
 887.070316,    3.016513
 887.567954,    3.034524
 888.067916,    3.052647
 888.563785,    3.070651
 889.062855,    3.088799
 889.563196,    3.107022
 890.066200,    3.125371
 890.569346,    3.143753
 891.073850,    3.162214
 891.579085,    3.180730
 892.083814,    3.199257
 892.593274,    3.217985
 893.099483,    3.236623
 893.609623,    3.255434
 894.120843,    3.274314
 894.633585,    3.293280
 895.143986,    3.312187
 895.656971,    3.331219
 896.170158,    3.350287
 896.686741,    3.369510
 897.204102,    3.388791
 897.721668,    3.408109
 898.239246,    3.427456
 898.756580,    3.446822
 899.277205,    3.466341
 899.797603,    3.485880
 900.316271,    3.505382
 900.839864,    3.525099
 901.366708,    3.544967
 901.892497,    3.564825
 902.421388,    3.584829
 902.949471,    3.604831
 903.479718,    3.624945
 904.009095,    3.645055
 904.539106,    3.665217
 905.067523,    3.685348
 905.597989,    3.705586
 906.134169,    3.726070
 906.665407,    3.746395
 907.205591,    3.767091
 907.741017,    3.787634
 908.283713,    3.808486
 908.823354,    3.829249
 909.364050,    3.850081
 909.907365,    3.871044
 910.451396,    3.892064
 910.989895,    3.912899
 911.530749,    3.933853
 912.074850,    3.954963
 912.616063,    3.975988
 913.161808,    3.997219
 913.708983,    4.018534
 914.258290,    4.039960
 914.806810,    4.061385
 915.357133,    4.082910
 915.910971,    4.104600
 916.463350,    4.126263
 917.020284,    4.148133
 917.579401,    4.170118
 918.131753,    4.191866
 918.686791,    4.213748
 919.251103,    4.236025
 919.801608,    4.257785
 920.357399,    4.279782
 920.916398,    4.301934
 921.477569,    4.324201
 922.028623,    4.346095
 922.587866,    4.368341
 923.152453,    4.390829
 923.717794,    4.413375
 924.281819,    4.435897
 924.846999,    4.458493
 925.414106,    4.481195
 925.983545,    4.504018
 926.550680,    4.526777
 927.118903,    4.549607
 927.690134,    4.572587
 928.259726,    4.595528
 928.827996,    4.618444
 929.404066,    4.641702
 929.972454,    4.664678
 930.545721,    4.687878
 931.117340,    4.711039
 931.690047,    4.734272
 932.271227,    4.757876
 932.846085,    4.781251
 933.426470,    4.804877
 934.008355,    4.828593
 934.582899,    4.852036
 935.168554,    4.875960
 935.753856,    4.899898
 936.340847,    4.923931
 936.924402,    4.947852
 937.513663,    4.972033
 938.102112,    4.996208
 938.687275,    5.020276
 939.276396,    5.044532
 939.867107,    5.068882
 940.458627,    5.093291
 941.054087,    5.117890
 941.644701,    5.142316
 942.233323,    5.166685
 942.828609,    5.191357
 943.418784,    5.215843
 944.015486,    5.240626
 944.606986,    5.265219
 945.205903,    5.290146
 945.802488,    5.315002
 946.400402,    5.339940
 946.995788,    5.364798
 947.600510,    5.390071
 948.196287,    5.414996
 948.799583,    5.440262
 949.403089,    5.465561
 950.006924,    5.490900
 950.615413,    5.516460
 951.218950,    5.541837
 951.827113,    5.567433
 952.429387,    5.592807
 953.033420,    5.618279
 953.644046,    5.644054
 954.247593,    5.669555
 954.858039,    5.695372
 955.465672,    5.721094
 956.070207,    5.746709
 956.684559,    5.772764
 957.292895,    5.798588
 957.905032,    5.824597
 958.520232,    5.850761
 959.127232,    5.876599
 959.738379,    5.902636
 960.353492,    5.928867
 960.973653,    5.955336
 961.592025,    5.981752
 962.215060,    6.008391
 962.834742,    6.034909
 963.454067,    6.061436
 964.076274,    6.088108
 964.698237,    6.114793
 965.313482,    6.141212
 965.937095,    6.168013
 966.558394,    6.194737
 967.182010,    6.221582
 967.801107,    6.248255
 968.425668,    6.275185
 969.053416,    6.302274
 969.677787,    6.329239
 970.311206,    6.356616
 970.941621,    6.383885
 971.572208,    6.411183
 972.200086,    6.438385
 972.825635,    6.465507
 973.454875,    6.492809
 974.075842,    6.519773
 974.703279,    6.547038
 975.335916,    6.574549
 975.963590,    6.601864
 976.594917,    6.629358
 977.229187,    6.657000
 977.862736,    6.684630
 978.492960,    6.712135
 979.126666,    6.739811
 979.767432,    6.767815
 980.404670,    6.795683
 981.041032,    6.823533
 981.678032,    6.851429
 982.318854,    6.879511
 982.957046,    6.907497
 983.599778,    6.935700
 984.236670,    6.963665
 984.876853,    6.991792
 985.519055,    7.020026
 986.156629,    7.048074
 986.800244,    7.076405
 987.442586,    7.104697
 988.093322,    7.133377
 988.697775,    7.160033
