Time, Horizontal Forces
   0.000000,    0.000000
   0.000001,    0.000002
   0.000017,    0.000040
   0.000255,    0.000608
   0.002467,    0.005886
   0.007750,    0.018489
   0.015959,    0.038067
   0.027137,    0.064716
   0.041254,    0.098362
   0.058408,    0.139235
   0.078561,    0.187237
   0.101951,    0.242930
   0.128563,    0.306278
   0.158279,    0.376993
   0.191119,    0.455115
   0.226989,    0.540420
   0.266463,    0.634265
   0.309271,    0.736003
   0.356037,    0.847113
   0.406380,    0.966681
   0.460071,    1.094161
   0.517529,    1.230539
   0.578467,    1.375127
   0.643393,    1.529128
   0.713008,    1.694196
   0.786968,    1.869504
   0.865394,    2.055333
   0.947628,    2.250119
   1.034972,    2.456935
   1.126468,    2.673505
   1.223765,    2.903723
   1.323474,    3.139562
   1.427744,    3.386100
   1.539258,    3.649672
   1.656041,    3.925592
   1.777219,    4.211788
   1.901956,    4.506280
   2.035541,    4.821540
   2.171958,    5.143360
   2.315495,    5.481845
   2.462520,    5.828420
   2.618731,    6.196503
   2.782166,    6.581455
   2.951571,    6.980303
   3.128011,    7.395544
   3.306491,    7.815414
   3.492216,    8.252147
   3.685102,    8.705530
   3.885058,    9.175336
   4.091914,    9.661145
   4.307990,   10.168390
   4.529082,   10.687187
   4.758750,   11.225871
   4.998555,   11.788082
   5.246563,   12.369263
   5.498612,   12.959648
   5.759659,   13.570832
   6.024581,   14.190808
   6.302768,   14.841529
   6.587963,   15.508331
   6.880423,   16.191801
   7.182638,   16.897737
   7.494247,   17.625270
   7.813722,   18.370809
   8.146740,   19.147576
   8.484523,   19.935072
   8.835726,   20.753451
   9.195778,   21.592032
   9.565990,   22.453844
   9.941763,   23.328159
  10.328643,   24.227862
  10.725944,   25.151328
  11.136037,   26.104034
  11.556321,   27.079908
  11.983383,   28.071000
  12.422011,   29.088400
  12.878082,   30.145693
  13.345818,   31.229443
  13.819351,   32.326030
  14.305407,   33.451004
  14.801299,   34.598114
  15.301561,   35.754699
  15.820471,   36.953740
  16.345555,   38.166371
  16.883176,   39.407267
  17.430886,   40.670738
  17.993900,   41.968783
  18.569241,   43.294492
  19.158773,   44.652120
  19.759306,   46.034281
  20.367591,   47.433474
  20.990672,   48.865868
  21.629373,   50.333307
  22.282321,   51.832590
  22.949992,   53.364763
  23.630059,   54.924441
  24.318486,   56.502343
  25.029145,   58.130207
  25.173378,   58.460474
  25.188905,   58.496025
  25.202393,   58.526907
  25.215028,   58.555837
  25.217716,   58.561991
  25.218371,   58.563490
  25.219681,   58.566488
  25.219769,   58.566691
  25.219947,   58.567099
  25.220111,   58.567473
  25.221746,   58.571216
  25.232282,   58.595339
  25.282756,   58.710898
  25.478586,   59.159186
  25.958376,   60.257096
  26.611884,   61.751607
  27.277827,   63.273478
  27.953232,   64.815872
  28.644698,   66.393809
  29.339141,   67.977400
  30.047994,   69.592685
  30.765539,   71.226593
  31.500691,   72.899374
  32.249390,   74.601725
  33.006053,   76.320912
  33.780350,   78.078856
  34.569074,   79.868208
  35.362586,   81.667071
  36.174676,   83.506655
  36.995868,   85.365446
  37.832162,   87.256973
  38.673925,   89.159414
  39.530810,   91.094548
  40.402492,   93.061577
  41.285628,   95.052907
  42.178556,   97.064749
  43.087960,   99.112115
  44.010630,  101.187709
  44.947107,  103.292701
  45.899917,  105.432700
  46.860352,  107.588104
  47.840451,  109.785875
  48.838804,  112.022767
  49.845897,  114.277406
  50.854911,  116.534519
  51.883263,  118.833025
  52.927618,  121.165393
  53.984773,  123.524409
  55.065146,  125.933241
  56.151595,  128.353607
  57.257791,  130.815910
  58.376309,  133.303554
  59.512760,  135.828950
  60.661241,  138.378922
  61.824384,  140.959256
  63.005557,  143.577354
  64.200518,  146.223740
  65.410485,  148.901055
  66.636564,  151.611677
  67.873699,  154.344371
  69.120170,  157.095302
  70.394835,  159.906003
  71.678802,  162.734728
  72.978929,  165.596536
  74.296693,  168.494603
  75.633479,  171.431889
  76.979364,  174.386534
  78.350272,  177.393415
  79.727807,  180.412115
  81.125676,  183.472619
  82.541232,  186.569037
  83.972526,  189.697032
  85.415697,  192.848111
  86.885005,  196.053317
  88.363049,  199.274612
  89.869540,  202.554872
  91.378737,  205.837971
  92.909923,  209.165816
  94.458758,  212.528875
  96.026552,  215.929906
  97.604164,  219.349022
  99.206718,  222.818920
 100.818558,  226.305620
 102.457913,  229.848468
 104.113139,  233.422196
 104.445670,  234.139737
 104.485463,  234.225594
 104.493304,  234.242513
 104.496288,  234.248950
 104.501933,  234.261128
 104.503796,  234.265148
 104.504318,  234.266276
 104.504550,  234.266774
 104.504918,  234.267570
 104.505253,  234.268293
 104.508600,  234.275514
 104.534841,  234.332128
 104.691129,  234.669299
 105.287713,  235.955998
 106.781555,  239.175434
 108.283360,  242.408531
 109.794029,  245.657194
 111.326500,  248.949165
 112.874280,  252.270390
 114.436413,  255.618744
 116.013378,  258.995172
 117.603289,  262.395569
 119.209536,  265.827104
 120.826994,  269.278763
 122.459989,  272.759705
 124.112435,  276.278179
 125.774368,  279.812892
 127.454219,  283.381704
 129.145975,  286.971765
 130.857381,  290.599423
 132.583634,  294.254405
 134.315875,  297.917902
 136.068820,  301.620975
 137.840843,  305.360069
 139.627519,  309.125758
 141.422901,  312.905450
 143.240681,  316.727887
 145.070923,  320.572077
 146.921858,  324.455221
 148.782838,  328.354894
 150.656333,  332.276220
 152.546934,  336.228733
 154.455011,  340.213107
 156.384002,  344.236413
 158.327845,  348.285906
 160.283892,  352.356001
 162.263596,  356.470426
 164.257907,  360.610266
 166.261760,  364.764946
 168.282175,  368.948958
 170.325250,  373.174812
 172.378165,  377.415909
 174.452665,  381.696426
 176.542314,  386.002977
 178.649208,  390.339794
 180.772169,  394.704360
 182.918861,  399.112317
 185.080120,  403.544733
 187.249169,  407.987664
 189.433720,  412.456850
 191.646193,  416.977571
 193.868494,  421.512747
 196.108664,  426.078716
 198.371146,  430.684420
 200.643063,  435.303555
 202.937959,  439.963572
 205.253088,  444.658766
 207.584292,  449.380600
 209.926108,  454.117942
 212.290700,  458.895310
 214.672591,  463.701518
 217.073425,  468.539782
 219.498429,  473.420506
 221.936667,  478.321572
 224.385422,  483.237463
 226.854951,  488.188688
 229.344430,  493.173475
 231.845408,  498.174817
 234.373241,  503.223312
 236.918280,  508.299557
 239.472076,  513.386634
 242.061401,  518.537743
 244.655126,  523.690836
 245.178202,  524.729243
 245.525963,  525.419463
 245.807041,  525.977245
 246.015277,  526.390426
 246.179781,  526.716805
 246.220123,  526.796839
 246.278080,  526.911817
 246.344385,  527.043354
 246.359208,  527.072760
 246.363379,  527.081034
 246.371722,  527.097583
 246.372421,  527.098969
 246.372948,  527.100016
 246.373149,  527.100415
 246.373379,  527.100870
 246.375677,  527.105429
 246.396109,  527.145961
 246.511073,  527.374008
 247.015681,  528.374763
 249.063039,  532.431810
 251.363044,  536.983121
 253.682942,  541.566991
 256.010641,  546.159446
 258.354513,  550.776932
 260.710223,  555.410824
 263.082284,  560.069913
 265.463729,  564.740436
 267.872028,  569.456535
 270.297303,  574.198710
 272.724031,  578.936565
 275.173148,  583.710907
 277.634148,  588.501142
 280.109651,  593.312293
 282.592366,  598.130128
 285.085595,  602.961017
 287.601677,  607.828760
 290.125010,  612.703078
 292.674027,  617.619467
 295.237084,  622.555338
 297.805362,  627.493656
 300.395551,  632.466431
 303.000628,  637.460062
 305.620327,  642.473943
 308.261604,  647.521265
 310.910642,  652.575538
 313.572746,  657.646828
 316.252244,  662.743286
 318.943579,  667.854251
 321.655360,  672.995972
 324.377621,  678.149451
 327.119918,  683.332687
 329.879168,  688.539727
 332.655198,  693.770135
 335.449935,  699.027424
 338.250530,  704.287357
 341.066686,  709.568102
 343.907420,  714.886430
 346.760218,  720.218790
 349.631279,  725.576676
 352.509553,  730.939395
 355.413508,  736.341252
 358.328246,  741.754411
 361.258124,  747.186893
 364.207589,  752.646830
 367.171726,  758.125011
 370.144577,  763.610363
 373.142474,  769.132915
 376.149799,  774.663785
 379.174534,  780.217575
 382.217267,  785.795250
 385.275058,  791.391314
 388.353354,  797.015623
 391.441803,  802.649166
 394.542724,  808.296119
 397.661268,  813.965771
 400.797138,  819.657468
 403.950422,  825.371260
 407.123842,  831.111953
 410.313786,  836.872895
 413.520413,  842.654268
 416.740260,  848.449738
 419.973927,  854.260312
 423.227911,  860.097552
 426.501601,  865.960232
 429.793011,  871.844670
 433.088002,  877.725539
 436.409353,  883.643405
 439.747571,  889.581208
 443.095956,  895.526953
 446.461655,  901.493254
 449.845688,  907.481808
 453.248885,  913.493957
 456.664749,  919.518131
 460.099236,  925.564738
 463.547532,  931.625206
 464.238893,  932.839035
 466.577639,  936.942090
 466.605310,  936.990606
 466.625298,  937.025651
 466.635065,  937.042777
 466.642104,  937.055117
 466.648906,  937.067043
 466.656131,  937.079711
 466.662731,  937.091283
 466.728409,  937.206434
 467.103564,  937.864104
 469.224836,  941.580493
 472.700549,  947.661267
 476.197204,  953.768013
 479.705616,  959.884586
 483.221541,  966.003551
 486.759524,  972.150138
 490.319986,  978.324919
 493.894007,  984.512315
 497.490614,  990.727835
 501.108666,  996.969357
 504.739704, 1003.222184
 508.381814, 1009.482956
 512.044970, 1015.768724
 515.724748, 1022.071777
 519.421489, 1028.392594
 523.131816, 1034.725315
 526.856522, 1041.071213
 530.604726, 1047.445708
 534.368610, 1053.835372
 538.154571, 1060.250944
 541.948915, 1066.669135
 545.770910, 1073.122421
 549.608236, 1079.589857
 553.462340, 1086.073788
 557.326949, 1092.563587
 561.208644, 1099.070234
 565.118384, 1105.611943
 569.040337, 1112.162095
 572.973337, 1118.718689
 576.935591, 1125.311946
 580.912943, 1131.918164
 584.903275, 1138.533745
 588.919244, 1145.179553
 592.954910, 1151.845607
 596.999087, 1158.513353
 601.058177, 1165.193294
 605.137398, 1171.893912
 609.233231, 1178.609313
 613.345544, 1185.339184
 617.479870, 1192.092459
 621.640568, 1198.876094
 625.816177, 1205.671267
 627.892271, 1209.045051
 630.012567, 1212.487424
 634.224936, 1225.811776
 638.455333, 1245.582669
 642.700056, 1265.407975
 646.967203, 1286.038754
 651.252981, 1307.991844
 655.560997, 1330.017116
 659.898597, 1352.138878
 664.247651, 1375.219373
 668.621948, 1399.692810
 673.014815, 1424.258927
 677.427671, 1448.893241
 681.865246, 1474.319636
 686.323841, 1501.539287
 690.794244, 1528.823654
 695.274110, 1556.127387
 699.769376, 1583.600181
 704.296786, 1613.187030
 708.829236, 1642.876786
 713.383207, 1672.572995
 717.946703, 1702.327688
 722.526989, 1733.483597
 727.114036, 1765.299924
 731.732906, 1797.145467
 736.354242, 1829.082995
 740.992586, 1861.277901
 745.641065, 1895.344162
 750.298075, 1929.401730
 750.612109, 1954.157984
 750.926043, 1956.427108
 751.240488, 1958.696093
 751.555148, 1960.967438
 751.870158, 1963.239904
 752.184878, 1965.512830
 752.500376, 1967.785191
 752.815916, 1970.060878
 753.132005, 1972.337203
 753.448043, 1974.615475
 753.764383, 1976.893377
 754.079609, 1979.169711
 754.396295, 1981.442690
 754.713693, 1983.723843
 755.030782, 1986.007194
 755.348687, 1988.289909
 755.666822, 1990.576479
 755.983714, 1992.860804
 756.301667, 1995.140254
 756.620315, 1997.425756
 756.939644, 1999.715411
 757.258424, 2002.006547
 757.575412, 2004.290294
 757.895644, 2006.570981
 758.215520, 2008.866520
 758.536137, 2011.336375
 758.857182, 2013.811771
 759.178453, 2016.289145
 759.499239, 2018.765856
 759.820524, 2021.239989
 760.140469, 2023.713169
 760.462904, 2026.183184
 760.784332, 2028.664074
 761.107287, 2031.141615
 761.429367, 2033.624899
 761.752599, 2036.104772
 762.075763, 2038.589977
 762.399389, 2041.074812
 762.722844, 2043.560886
 763.047066, 2046.046643
 763.371725, 2048.536611
 763.696608, 2051.028485
 764.021711, 2053.521064
 764.347439, 2056.015171
 764.674200, 2058.513915
 765.001384, 2061.018261
 765.328401, 2063.523565
 765.655942, 2066.027999
 765.983039, 2068.533351
 766.311462, 2071.037977
 766.638159, 2073.545250
 766.966213, 2076.044741
 767.295484, 2078.553232
 767.625536, 2081.069006
 767.955914, 2083.588691
 768.285288, 2086.106952
 768.615954, 2088.621265
 768.947722, 2091.143903
 769.277652, 2093.667627
 769.608996, 2096.183039
 769.942305, 2098.709232
 770.274033, 2101.241771
 770.607086, 2103.767215
 770.938498, 2106.295336
 771.273404, 2108.820565
 771.607635, 2111.362411
 771.940820, 2113.897148
 772.276191, 2116.429508
 772.612700, 2118.975036
 772.947699, 2121.522408
 773.284930, 2124.064931
 773.620330, 2126.614608
 773.958161, 2129.158070
 774.294306, 2131.710064
 774.633147, 2134.257180
 774.970656, 2134.961635
 775.310450, 2135.670122
 775.650498, 2136.378395
 775.989929, 2137.084641
 776.330242, 2137.791977
 776.670776, 2138.499024
 777.012483, 2139.207755
 777.354883, 2139.917165
 777.696825, 2140.624865
 778.038452, 2141.331157
 778.382072, 2142.040803
 778.725436, 2142.749153
 779.068718, 2143.456564
 779.408450, 2144.155902
 779.753800, 2144.866030
 780.099044, 2145.575159
 780.444956, 2146.284875
 780.790587, 2146.993230
 781.133644, 2147.695531
 781.479820, 2148.403432
 781.826461, 2149.111492
 782.173980, 2149.820547
 782.523017, 2150.531892
 782.870331, 2151.238927
 783.219320, 2151.948563
 783.567999, 2152.656759
 783.916464, 2153.363712
 784.266432, 2154.072898
 784.615414, 2154.779273
 784.967131, 2155.490357
 785.317406, 2156.197705
 785.669876, 2156.908652
 786.021939, 2157.617945
 786.374941, 2158.328293
 786.726518, 2159.034938
 787.078563, 2159.741687
 787.431962, 2160.450314
 787.786649, 2161.160673
 788.142230, 2161.871965
 788.496758, 2162.580297
 788.851579, 2163.288358
 789.209105, 2164.000951
 789.566161, 2164.711738
 789.922699, 2165.420625
 790.281245, 2166.132629
 790.639432, 2166.843039
 790.997555, 2167.552443
 791.357737, 2168.265040
 791.716368, 2168.973680
 792.076200, 2169.683803
 792.434554, 2170.390123
 792.796159, 2171.101951
 793.156656, 2171.810699
 793.229135, 2171.953086
 793.279469, 2172.051949
 793.315390, 2172.122490
 793.344960, 2172.180553
 793.428315, 2172.344194
 793.438330, 2172.363853
 793.439712, 2172.366565
 793.440133, 2172.367391
 793.440562, 2172.368234
 793.443597, 2172.374191
 793.459422, 2172.405252
 793.516551, 2172.517365
 793.656040, 2172.791017
 793.968120, 2173.402775
 794.328921, 2174.109203
 794.692620, 2174.820396
 795.056752, 2175.531519
 795.422984, 2176.245818
 795.788527, 2176.957847
 796.154951, 2177.670661
 796.522528, 2178.384783
 796.889074, 2179.095965
 797.256267, 2179.807463
 797.625482, 2180.521931
 797.994031, 2181.234162
 798.363718, 2181.947636
 798.733638, 2182.660603
 799.104428, 2183.374282
 799.475930, 2184.088362
 799.849319, 2184.805094
 800.220889, 2185.517357
 800.593947, 2186.231495
 800.967769, 2186.946108
 801.341404, 2187.659377
 801.716554, 2188.374545
 802.092188, 2189.089633
 802.467806, 2189.803690
 802.843927, 2190.517699
 803.222956, 2191.236209
 803.600776, 2191.951408
 803.910735, 2192.537387
 803.979244, 2192.666811
 804.358314, 2193.382327
 804.737110, 2194.096298
 805.118906, 2194.814884
 805.500278, 2195.531627
 805.883132, 2196.250104
 806.265543, 2196.966697
 806.647335, 2197.681080
 807.031355, 2198.398570
 807.416929, 2199.117891
 807.803661, 2199.838294
 808.190425, 2200.557673
 808.577259, 2201.276099
 808.965453, 2201.995956
 809.353219, 2202.713927
 809.742998, 2203.434522
 810.133323, 2204.155015
 810.523261, 2204.873687
 810.913114, 2205.591088
 811.304478, 2206.310153
 811.697860, 2207.031794
 812.091025, 2207.751905
 812.484576, 2208.471584
 812.879698, 2209.192990
 813.274438, 2209.912552
 813.669740, 2210.631988
 814.065915, 2211.351853
 814.463202, 2212.072575
 814.862314, 2212.795431
 815.260649, 2213.515704
 815.660994, 2214.238425
 816.060578, 2214.958586
 816.460997, 2215.679059
 816.862109, 2216.399583
 817.266514, 2217.124809
 817.671040, 2217.849028
 818.074529, 2218.570174
 818.478589, 2219.291120
 818.882768, 2220.011055
 819.288649, 2220.732788
 819.696903, 2221.457490
 820.101783, 2222.174968
 820.511723, 2222.900155
 820.920397, 2223.621840
 821.331255, 2224.346112
 821.740692, 2225.066611
 822.152015, 2225.789152
 822.563458, 2226.510621
 822.978052, 2227.236316
 823.390576, 2227.957095
 823.805956, 2228.681554
 824.220430, 2229.403127
 824.637245, 2230.127453
 825.056186, 2230.854140
 825.473890, 2231.577346
 825.895433, 2232.305846
 826.315493, 2233.030429
 826.737645, 2233.757259
 827.156871, 2234.477699
 827.580342, 2235.204063
 828.003964, 2235.929306
 828.428904, 2236.655415
 828.853380, 2237.379343
 829.278541, 2238.103045
 829.703827, 2238.825562
 830.130148, 2239.548434
 830.559665, 2240.275302
 830.987628, 2240.998116
 831.418616, 2241.724603
 831.850620, 2242.451354
 832.279824, 2243.171955
 832.714774, 2243.900742
 833.145520, 2244.621029
 833.581693, 2245.348917
 834.014926, 2246.070425
 834.450429, 2246.794233
 834.886699, 2247.517828
 835.322941, 2248.239882
 835.763082, 2248.966876
 836.203536, 2249.692863
 836.646482, 2250.421418
 837.086407, 2251.143475
 837.526688, 2251.864588
 837.966394, 2252.583231
 838.409052, 2253.305157
 838.853339, 2254.028179
 839.299556, 2254.752768
 839.746195, 2255.476462
 840.192249, 2256.197628
 840.642623, 2256.924174
 841.095364, 2257.652912
 841.544714, 2258.374578
 841.995376, 2259.096734
 842.446045, 2259.817281
 842.899833, 2260.541175
 843.356055, 2261.267290
 843.809790, 2261.987795
 844.265177, 2262.709264
 844.722391, 2263.431953
 845.182224, 2264.157088
 845.641470, 2264.879600
 846.101852, 2265.602197
 846.564824, 2266.327135
 847.026808, 2267.048803
 847.491961, 2267.773680
 847.956311, 2268.495562
 848.419609, 2269.214069
 848.887748, 2269.938318
 849.353540, 2270.657172
 849.823705, 2271.380988
 850.294031, 2272.103257
 850.762000, 2272.820119
 851.233866, 2273.541146
 851.704754, 2274.258867
 852.178773, 2274.979536
 852.652850, 2275.698456
 853.131265, 2276.422093
 853.610585, 2277.145219
 854.088694, 2277.864644
 854.565959, 2278.580929
 855.042662, 2279.294504
 855.522816, 2280.011358
 856.001731, 2280.724472
 856.487444, 2281.445780
 856.969937, 2282.160381
 857.450888, 2282.870788
 857.932106, 2283.579677
 858.415832, 2284.290331
 858.900823, 2285.000900
 859.384215, 2285.707188
 859.874333, 2286.421326
 860.359880, 2287.126837
 860.849177, 2287.835818
 861.343012, 2288.549355
 861.835296, 2289.258631
 862.328919, 2289.967809
 862.824747, 2290.678110
 863.317980, 2291.382658
 863.814884, 2292.090394
 864.310314, 2292.793975
 864.804901, 2293.494311
 865.304793, 2294.200077
 865.806957, 2294.906939
 866.305097, 2295.606046
 866.802265, 2296.301710
 867.302978, 2297.000235
 867.803297, 2297.696103
 868.301717, 2298.387232
 868.810490, 2299.090556
 869.314096, 2299.784587
 869.822111, 2300.482524
 870.330170, 2301.178338
 870.836668, 2301.869840
 871.351770, 2302.570862
 871.865411, 2303.267654
 872.375309, 2303.957154
 872.886073, 2304.645612
 873.402076, 2305.338880
 873.918891, 2306.030969
 874.434062, 2306.718591
 874.947833, 2307.402093
 875.463748, 2308.086182
 875.983028, 2308.772437
 876.502951, 2309.457234
 877.024392, 2310.141709
 877.545781, 2310.823788
 878.066112, 2311.502161
 878.588742, 2312.181194
 879.117774, 2312.866159
 879.639065, 2313.538750
 880.167680, 2314.218404
 880.698983, 2314.899093
 881.230891, 2315.578123
 881.760735, 2316.252092
 882.290286, 2316.923270
 882.820692, 2317.593106
 883.352038, 2318.261692
 883.881898, 2318.925976
 884.415946, 2319.593054
 884.950901, 2320.258789
 885.484989, 2320.920969
 886.026517, 2321.589848
 886.559943, 2322.246232
 887.095052, 2322.902201
 887.638940, 2323.566383
 888.181396, 2324.226251
 888.724139, 2324.883904
 889.265944, 2325.537859
 889.807252, 2326.188659
 890.359034, 2326.849418
 890.906086, 2327.501889
 891.450348, 2328.148434
 892.003869, 2328.803320
 892.550503, 2329.447427
 893.101495, 2330.094019
 893.650070, 2330.735130
 894.210249, 2331.387077
 894.762347, 2332.026921
 895.314448, 2332.664092
 895.872588, 2333.305507
 896.427085, 2333.940021
 896.982856, 2334.573275
 897.545480, 2335.211564
 898.106295, 2335.845022
 898.661118, 2336.468981
 899.221903, 2337.096881
 899.783457, 2337.722857
 900.342527, 2338.343293
 900.900924, 2338.960221
 901.464052, 2339.579577
 902.028116, 2340.197147
 902.594647, 2340.814576
 903.160401, 2341.428315
 903.727311, 2342.040456
 904.292135, 2342.647505
 904.855878, 2343.250561
 905.425601, 2343.857142
 905.995177, 2344.460676
 906.569032, 2345.065820
 907.139583, 2345.664570
 907.715339, 2346.265836
 908.292192, 2346.865280
 908.865973, 2347.458581
 909.441313, 2348.050539
 910.021702, 2348.644691
 910.600565, 2349.234278
 911.181081, 2349.822533
 911.763913, 2350.410097
 912.340765, 2350.988631
 912.924546, 2351.571075
 913.511419, 2352.153518
 914.093883, 2352.728526
 914.668405, 2353.292705
 915.246196, 2353.857100
 915.836834, 2354.430936
 916.423127, 2354.997444
 917.005072, 2355.556688
 917.589012, 2356.114779
 918.174412, 2356.671177
 918.756361, 2357.221228
 919.347030, 2357.776393
 919.939133, 2358.329742
 920.526837, 2358.875842
 921.116623, 2359.420737
 921.712234, 2359.967817
 922.304148, 2360.508317
 922.897491, 2361.046936
 923.488545, 2361.580302
 924.080794, 2362.111568
 924.673249, 2362.639832
 925.263823, 2363.163247
 925.861724, 2363.689926
 926.459042, 2364.212846
 927.052956, 2364.729569
 927.655935, 2365.250893
 928.258691, 2365.768717
 928.856432, 2366.278962
 929.456766, 2366.788144
 930.062516, 2367.298588
 930.668415, 2367.805808
 931.267238, 2368.303812
 931.871859, 2368.803316
 932.473723, 2369.297224
 933.081668, 2369.792760
 933.691765, 2370.286652
 934.296742, 2370.773037
 934.903355, 2371.257373
 935.508017, 2371.736797
 936.118393, 2372.217355
 936.731540, 2372.696655
 937.344881, 2373.172659
 937.952278, 2373.640648
 938.566704, 2374.110607
 939.174445, 2374.572043
 939.788160, 2375.034572
 940.401627, 2375.493454
 941.013744, 2375.947878
 941.626806, 2376.399550
 942.245854, 2376.852123
 942.867458, 2377.303015
 943.477847, 2377.742309
 944.102012, 2378.187970
 944.718323, 2378.624499
 945.333065, 2379.056429
 945.949696, 2379.486184
 946.572379, 2379.916598
 947.189466, 2380.339614
 947.808121, 2380.760174
 948.428479, 2381.178343
 949.048934, 2381.593021
 949.671379, 2382.005454
 950.290745, 2382.412291
 950.922111, 2382.823359
 951.546234, 2383.226086
 952.177467, 2383.629734
 952.806680, 2384.028420
 953.431007, 2384.420385
 954.056801, 2384.809647
 954.681363, 2385.194526
 955.307273, 2385.576608
 955.933379, 2385.955174
 956.564495, 2386.333091
 957.191797, 2386.705061
 957.820511, 2387.074205
 958.447223, 2387.438521
 958.845357, 2387.668068
