Time, Horizontal Forces
   0.000000, 1459.364518
   0.000001, 1459.364517
   0.000017, 1459.364490
   0.000255, 1459.364083
   0.002467, 1459.360304
   0.007750, 1459.351281
   0.015959, 1459.337264
   0.027137, 1459.318185
   0.041254, 1459.294096
   0.058408, 1459.264833
   0.078561, 1459.230466
   0.101951, 1459.190592
   0.128563, 1459.145238
   0.158279, 1459.094609
   0.191119, 1459.038678
   0.226989, 1458.977603
   0.266463, 1458.910414
   0.309271, 1458.837575
   0.356037, 1458.758025
   0.406380, 1458.672420
   0.460071, 1458.581150
   0.517529, 1458.483510
   0.578467, 1458.379991
   0.643393, 1458.269734
   0.713008, 1458.151553
   0.786968, 1458.026041
   0.865394, 1457.892996
   0.947628, 1457.753538
   1.034972, 1457.605468
   1.126468, 1457.450414
   1.223765, 1457.285588
   1.323474, 1457.116739
   1.427744, 1456.940229
   1.539258, 1456.751523
   1.656041, 1456.553977
   1.777219, 1456.349075
   1.901956, 1456.138232
   2.035541, 1455.912521
   2.171958, 1455.682113
   2.315495, 1455.439774
   2.462520, 1455.191642
   2.618731, 1454.928111
   2.782166, 1454.652504
   2.951571, 1454.366947
   3.128011, 1454.069654
   3.306491, 1453.769047
   3.492216, 1453.456366
   3.685102, 1453.131765
   3.885058, 1452.795406
   4.091914, 1452.447589
   4.307990, 1452.084426
   4.529082, 1451.712991
   4.758750, 1451.327319
   4.998555, 1450.924802
   5.246563, 1450.508704
   5.498612, 1450.086015
   5.759659, 1449.648436
   6.024581, 1449.204562
   6.302768, 1448.738676
   6.587963, 1448.261277
   6.880423, 1447.771944
   7.182638, 1447.266527
   7.494247, 1446.745648
   7.813722, 1446.211877
   8.146740, 1445.655747
   8.484523, 1445.091937
   8.835726, 1444.506016
   9.195778, 1443.905631
   9.565990, 1443.288614
   9.941763, 1442.662645
  10.328643, 1442.018500
  10.725944, 1441.357341
  11.136037, 1440.675248
  11.556321, 1439.976568
  11.983383, 1439.266993
  12.422011, 1438.538582
  12.878082, 1437.781609
  13.345818, 1437.005695
  13.819351, 1436.220590
  14.305407, 1435.415161
  14.801299, 1434.593884
  15.301561, 1433.765822
  15.820471, 1432.907365
  16.345555, 1432.039178
  16.883176, 1431.150754
  17.430886, 1430.246168
  17.993900, 1429.316829
  18.569241, 1428.367683
  19.158773, 1427.395684
  19.759306, 1426.406121
  20.367591, 1425.404365
  20.990672, 1424.378837
  21.629373, 1423.328219
  22.282321, 1422.254803
  22.949992, 1421.157839
  23.630059, 1420.041182
  24.318486, 1418.911478
  25.029145, 1417.746003
  25.173378, 1417.509547
  25.188905, 1417.484094
  25.202393, 1417.461984
  25.215028, 1417.441272
  25.217716, 1417.436866
  25.218371, 1417.435793
  25.219681, 1417.433646
  25.219769, 1417.433501
  25.219947, 1417.433209
  25.220111, 1417.432941
  25.221746, 1417.430261
  25.232282, 1417.412990
  25.282756, 1417.330256
  25.478586, 1417.009302
  25.958376, 1416.223250
  26.611884, 1415.153250
  27.277827, 1414.063661
  27.953232, 1412.959379
  28.644698, 1411.829650
  29.339141, 1410.695873
  30.047994, 1409.539404
  30.765539, 1408.369602
  31.500691, 1407.171969
  32.249390, 1405.953165
  33.006053, 1404.722308
  33.780350, 1403.463701
  34.569074, 1402.182609
  35.362586, 1400.894707
  36.174676, 1399.577651
  36.995868, 1398.246843
  37.832162, 1396.892598
  38.673925, 1395.530539
  39.530810, 1394.145073
  40.402492, 1392.736772
  41.285628, 1391.311073
  42.178556, 1389.870688
  43.087960, 1388.404870
  44.010630, 1386.918842
  44.947107, 1385.411765
  45.899917, 1383.879626
  46.860352, 1382.336457
  47.840451, 1380.762956
  48.838804, 1379.161445
  49.845897, 1377.547229
  50.854911, 1375.931241
  51.883263, 1374.285618
  52.927618, 1372.615752
  53.984773, 1370.926807
  55.065146, 1369.202195
  56.151595, 1367.469326
  57.257791, 1365.706432
  58.376309, 1363.925395
  59.512760, 1362.117330
  60.661241, 1360.291669
  61.824384, 1358.444270
  63.005557, 1356.569834
  64.200518, 1354.675145
  65.410485, 1352.758312
  66.636564, 1350.817633
  67.873699, 1348.861152
  69.120170, 1346.891614
  70.394835, 1344.879283
  71.678802, 1342.854048
  72.978929, 1340.805127
  74.296693, 1338.730246
  75.633479, 1336.627286
  76.979364, 1334.511899
  78.350272, 1332.359112
  79.727807, 1330.197864
  81.125676, 1328.006686
  82.541232, 1325.789796
  83.972526, 1323.550297
  85.415697, 1321.294271
  86.885005, 1318.999493
  88.363049, 1316.693196
  89.869540, 1314.344684
  91.378737, 1311.994138
  92.909923, 1309.611556
  94.458758, 1307.203763
  96.026552, 1304.768783
  97.604164, 1302.320856
  99.206718, 1299.836570
 100.818558, 1297.340256
 102.457913, 1294.803742
 104.113139, 1292.245120
 104.445670, 1291.731394
 104.485463, 1291.669925
 104.493304, 1291.657812
 104.496288, 1291.653202
 104.501933, 1291.644484
 104.503796, 1291.641606
 104.504318, 1291.640798
 104.504550, 1291.640441
 104.504918, 1291.639871
 104.505253, 1291.639354
 104.508600, 1291.634184
 104.534841, 1291.593651
 104.691129, 1291.352253
 105.287713, 1290.431036
 106.781555, 1288.126070
 108.283360, 1285.811324
 109.794029, 1283.485433
 111.326500, 1281.128535
 112.874280, 1278.750693
 114.436413, 1276.353428
 116.013378, 1273.936063
 117.603289, 1271.501537
 119.209536, 1269.044718
 120.826994, 1266.573492
 122.459989, 1264.081299
 124.112435, 1261.562236
 125.774368, 1259.031547
 127.454219, 1256.476444
 129.145975, 1253.906128
 130.857381, 1251.308894
 132.583634, 1248.692097
 134.315875, 1246.069204
 136.068820, 1243.417977
 137.840843, 1240.740960
 139.627519, 1238.044903
 141.422901, 1235.338820
 143.240681, 1232.602133
 145.070923, 1229.849872
 146.921858, 1227.069723
 148.782838, 1224.277739
 150.656333, 1221.470252
 152.546934, 1218.640438
 154.455011, 1215.787811
 156.384002, 1212.907313
 158.327845, 1210.008064
 160.283892, 1207.094066
 162.263596, 1204.148330
 164.257907, 1201.184398
 166.261760, 1198.209841
 168.282175, 1195.214284
 170.325250, 1192.188769
 172.378165, 1189.152341
 174.452665, 1186.087691
 176.542314, 1183.004402
 178.649208, 1179.899443
 180.772169, 1176.774618
 182.918861, 1173.618726
 185.080120, 1170.445323
 187.249169, 1167.264392
 189.433720, 1164.064663
 191.646193, 1160.828038
 193.868494, 1157.581064
 196.108664, 1154.312043
 198.371146, 1151.014574
 200.643063, 1147.707489
 202.937959, 1144.371134
 205.253088, 1141.009594
 207.584292, 1137.628982
 209.926108, 1134.237266
 212.290700, 1130.816893
 214.672591, 1127.375872
 217.073425, 1123.911902
 219.498429, 1120.417531
 221.936667, 1116.908596
 224.385422, 1113.389048
 226.854951, 1109.844202
 229.344430, 1106.275327
 231.845408, 1102.694600
 234.373241, 1099.080113
 236.918280, 1095.445758
 239.472076, 1091.803648
 242.061401, 1088.115694
 244.655126, 1084.426321
 245.178202, 1083.682870
 245.525963, 1083.188704
 245.807041, 1082.789358
 246.015277, 1082.493540
 246.179781, 1082.259868
 246.220123, 1082.202568
 246.278080, 1082.120248
 246.344385, 1082.026074
 246.359208, 1082.005021
 246.363379, 1081.999097
 246.371722, 1081.987249
 246.372421, 1081.986256
 246.372948, 1081.985507
 246.373149, 1081.985222
 246.373379, 1081.984895
 246.375677, 1081.981631
 246.396109, 1081.952612
 246.511073, 1081.789342
 247.015681, 1081.072848
 249.063039, 1078.168192
 251.363044, 1074.909665
 253.682942, 1071.627828
 256.010641, 1068.339845
 258.354513, 1065.033940
 260.710223, 1061.716290
 263.082284, 1058.380599
 265.463729, 1055.036723
 267.872028, 1051.660216
 270.297303, 1048.265040
 272.724031, 1044.872957
 275.173148, 1041.454751
 277.634148, 1038.025167
 280.109651, 1034.580607
 282.592366, 1031.131262
 285.085595, 1027.672571
 287.601677, 1024.187494
 290.125010, 1020.697710
 292.674027, 1017.177805
 295.237084, 1013.643951
 297.805362, 1010.108346
 300.395551, 1006.548071
 303.000628, 1002.972864
 305.620327,  999.383160
 308.261604,  995.769513
 310.910642,  992.150889
 313.572746,  988.520082
 316.252244,  984.871256
 318.943579,  981.212044
 321.655360,  977.530811
 324.377621,  973.841161
 327.119918,  970.130206
 329.879168,  966.402208
 332.655198,  962.657480
 335.449935,  958.893507
 338.250530,  955.127640
 341.066686,  951.346873
 343.907420,  947.539198
 346.760218,  943.721477
 349.631279,  939.885481
 352.509553,  936.046025
 355.413508,  932.178547
 358.328246,  928.302978
 361.258124,  924.413574
 364.207589,  920.504515
 367.171726,  916.582393
 370.144577,  912.655136
 373.142474,  908.701247
 376.149799,  904.741402
 379.174534,  900.765148
 382.217267,  896.771793
 385.275058,  892.765272
 388.353354,  888.738529
 391.441803,  884.705175
 394.542724,  880.662220
 397.661268,  876.603014
 400.797138,  872.528025
 403.950422,  868.437217
 407.123842,  864.327148
 410.313786,  860.202583
 413.520413,  856.063389
 416.740260,  851.914104
 419.973927,  847.754004
 423.227911,  843.574812
 426.501601,  839.377407
 429.793011,  835.164424
 433.088002,  830.953997
 436.409353,  826.717080
 439.747571,  822.465891
 443.095956,  818.209015
 446.461655,  813.937421
 449.845688,  809.649897
 453.248885,  805.345479
 456.664749,  801.032451
 460.099236,  796.703362
 463.547532,  792.364350
 464.238893,  791.495306
 466.577639,  788.557710
 466.605310,  788.522974
 466.625298,  788.497883
 466.635065,  788.485622
 466.642104,  788.476787
 466.648906,  788.468249
 466.656131,  788.459179
 466.662731,  788.450894
 466.728409,  788.368451
 467.103564,  787.897590
 469.224836,  785.236829
 472.700549,  780.883279
 476.197204,  776.511134
 479.705616,  772.131953
 483.221541,  767.751059
 486.759524,  763.350390
 490.319986,  758.929535
 493.894007,  754.499648
 497.490614,  750.049626
 501.108666,  745.580988
 504.739704,  741.104256
 508.381814,  736.621835
 512.044970,  732.121518
 515.724748,  727.608826
 519.421489,  723.083416
 523.131816,  718.549484
 526.856522,  714.006117
 530.604726,  709.442276
 534.368610,  704.867575
 538.154571,  700.274324
 541.948915,  695.679199
 545.770910,  691.058948
 549.608236,  686.428565
 553.462340,  681.786374
 557.326949,  677.139980
 561.208644,  672.481525
 565.118384,  667.797966
 569.040337,  663.108363
 572.973337,  658.414148
 576.935591,  653.693684
 580.912943,  648.963940
 584.903275,  644.227493
 588.919244,  639.469404
 592.954910,  634.696821
 596.999087,  629.923026
 601.058177,  625.140500
 605.137398,  620.343170
 609.233231,  615.535257
 613.345544,  610.716983
 617.479870,  605.881953
 621.640568,  601.025187
 625.816177,  596.160161
 627.892271,  593.744689
 630.012567,  591.280110
 634.224936,  577.457784
 638.455333,  554.781270
 642.700056,  532.038980
 646.967203,  509.237784
 651.252981,  486.350130
 655.560997,  463.388193
 659.898597,  440.328509
 664.247651,  417.166454
 668.621948,  393.959364
 673.014815,  370.661470
 677.427671,  347.298732
 681.865246,  323.860384
 686.323841,  300.335174
 690.794244,  276.752035
 695.274110,  253.151386
 699.769376,  229.534567
 704.296786,  205.856231
 708.829236,  182.094194
 713.383207,  158.327601
 717.946703,  134.513560
 722.526989,  110.687854
 727.114036,   86.840570
 731.732906,   62.970156
 736.354242,   39.032604
 740.992586,   15.112713
 745.641065,   -8.828572
 750.298075,    0.000000
 750.612109,    0.000000
 750.926043,    0.000000
 751.240488,    0.000000
 751.555148,    0.000000
 751.870158,    0.000000
 752.184878,    0.000000
 752.500376,    0.000000
 752.815916,    0.000000
 753.132005,    0.000000
 753.448043,    0.000000
 753.764383,    0.000000
 754.079609,    0.000000
 754.396295,    0.000000
 754.713693,    0.000000
 755.030782,    0.000000
 755.348687,    0.000000
 755.666822,    0.000000
 755.983714,    0.000000
 756.301667,    0.000000
 756.620315,    0.000000
 756.939644,    0.000000
 757.258424,    0.000000
 757.575412,    0.000000
 757.895644,    0.000000
 758.215520,    0.000000
 758.536137,    0.000000
 758.857182,    0.000000
 759.178453,    0.000000
 759.499239,    0.000000
 759.820524,    0.000000
 760.140469,    0.000000
 760.462904,    0.000000
 760.784332,    0.000000
 761.107287,    0.000000
 761.429367,    0.000000
 761.752599,    0.000000
 762.075763,    0.000000
 762.399389,    0.000000
 762.722844,    0.000000
 763.047066,    0.000000
 763.371725,    0.000000
 763.696608,    0.000000
 764.021711,    0.000000
 764.347439,    0.000000
 764.674200,    0.000000
 765.001384,    0.000000
 765.328401,    0.000000
 765.655942,    0.000000
 765.983039,    0.000000
 766.311462,    0.000000
 766.638159,    0.000000
 766.966213,    0.000000
 767.295484,    0.000000
 767.625536,    0.000000
 767.955914,    0.000000
 768.285288,    0.000000
 768.615954,    0.000000
 768.947722,    0.000000
 769.277652,    0.000000
 769.608996,    0.000000
 769.942305,    0.000000
 770.274033,    0.000000
 770.607086,    0.000000
 770.938498,    0.000000
 771.273404,    0.000000
 771.607635,    0.000000
 771.940820,    0.000000
 772.276191,    0.000000
 772.612700,    0.000000
 772.947699,    0.000000
 773.284930,    0.000000
 773.620330,    0.000000
 773.958161,    0.000000
 774.294306,    0.000000
 774.633147,    0.000000
 774.970656,    0.000000
 775.310450,    0.000000
 775.650498,    0.000000
 775.989929,    0.000000
 776.330242,    0.000000
 776.670776,    0.000000
 777.012483,    0.000000
 777.354883,    0.000000
 777.696825,    0.000000
 778.038452,    0.000000
 778.382072,    0.000000
 778.725436,    0.000000
 779.068718,    0.000000
 779.408450,    0.000000
 779.753800,    0.000000
 780.099044,    0.000000
 780.444956,    0.000000
 780.790587,    0.000000
 781.133644,    0.000000
 781.479820,    0.000000
 781.826461,    0.000000
 782.173980,    0.000000
 782.523017,    0.000000
 782.870331,    0.000000
 783.219320,    0.000000
 783.567999,    0.000000
 783.916464,    0.000000
 784.266432,    0.000000
 784.615414,    0.000000
 784.967131,    0.000000
 785.317406,    0.000000
 785.669876,    0.000000
 786.021939,    0.000000
 786.374941,    0.000000
 786.726518,    0.000000
 787.078563,    0.000000
 787.431962,    0.000000
 787.786649,    0.000000
 788.142230,    0.000000
 788.496758,    0.000000
 788.851579,    0.000000
 789.209105,    0.000000
 789.566161,    0.000000
 789.922699,    0.000000
 790.281245,    0.000000
 790.639432,    0.000000
 790.997555,    0.000000
 791.357737,    0.000000
 791.716368,    0.000000
 792.076200,    0.000000
 792.434554,    0.000000
 792.796159,    0.000000
 793.156656,    0.000000
 793.229135,    0.000000
 793.279469,    0.000000
 793.315390,    0.000000
 793.344960,    0.000000
 793.428315,    0.000000
 793.438330,    0.000000
 793.439712,    0.000000
 793.440133,    0.000000
 793.440562,    0.000000
 793.443597,    0.000000
 793.459422,    0.000000
 793.516551,    0.000000
 793.656040,    0.000000
 793.968120,    0.000000
 794.328921,    0.000000
 794.692620,    0.000000
 795.056752,    0.000000
 795.422984,    0.000000
 795.788527,    0.000000
 796.154951,    0.000000
 796.522528,    0.000000
 796.889074,    0.000000
 797.256267,    0.000000
 797.625482,    0.000000
 797.994031,    0.000000
 798.363718,    0.000000
 798.733638,    0.000000
 799.104428,    0.000000
 799.475930,    0.000000
 799.849319,    0.000000
 800.220889,    0.000000
 800.593947,    0.000000
 800.967769,    0.000000
 801.341404,    0.000000
 801.716554,    0.000000
 802.092188,    0.000000
 802.467806,    0.000000
 802.843927,    0.000000
 803.222956,    0.000000
 803.600776,    0.000000
 803.910735,    0.000000
 803.979244,    0.000000
 804.358314,    0.000000
 804.737110,    0.000000
 805.118906,    0.000000
 805.500278,    0.000000
 805.883132,    0.000000
 806.265543,    0.000000
 806.647335,    0.000000
 807.031355,    0.000000
 807.416929,    0.000000
 807.803661,    0.000000
 808.190425,    0.000000
 808.577259,    0.000000
 808.965453,    0.000000
 809.353219,    0.000000
 809.742998,    0.000000
 810.133323,    0.000000
 810.523261,    0.000000
 810.913114,    0.000000
 811.304478,    0.000000
 811.697860,    0.000000
 812.091025,    0.000000
 812.484576,    0.000000
 812.879698,    0.000000
 813.274438,    0.000000
 813.669740,    0.000000
 814.065915,    0.000000
 814.463202,    0.000000
 814.862314,    0.000000
 815.260649,    0.000000
 815.660994,    0.000000
 816.060578,    0.000000
 816.460997,    0.000000
 816.862109,    0.000000
 817.266514,    0.000000
 817.671040,    0.000000
 818.074529,    0.000000
 818.478589,    0.000000
 818.882768,    0.000000
 819.288649,    0.000000
 819.696903,    0.000000
 820.101783,    0.000000
 820.511723,    0.000000
 820.920397,    0.000000
 821.331255,    0.000000
 821.740692,    0.000000
 822.152015,    0.000000
 822.563458,    0.000000
 822.978052,    0.000000
 823.390576,    0.000000
 823.805956,    0.000000
 824.220430,    0.000000
 824.637245,    0.000000
 825.056186,    0.000000
 825.473890,    0.000000
 825.895433,    0.000000
 826.315493,    0.000000
 826.737645,    0.000000
 827.156871,    0.000000
 827.580342,    0.000000
 828.003964,    0.000000
 828.428904,    0.000000
 828.853380,    0.000000
 829.278541,    0.000000
 829.703827,    0.000000
 830.130148,    0.000000
 830.559665,    0.000000
 830.987628,    0.000000
 831.418616,    0.000000
 831.850620,    0.000000
 832.279824,    0.000000
 832.714774,    0.000000
 833.145520,    0.000000
 833.581693,    0.000000
 834.014926,    0.000000
 834.450429,    0.000000
 834.886699,    0.000000
 835.322941,    0.000000
 835.763082,    0.000000
 836.203536,    0.000000
 836.646482,    0.000000
 837.086407,    0.000000
 837.526688,    0.000000
 837.966394,    0.000000
 838.409052,    0.000000
 838.853339,    0.000000
 839.299556,    0.000000
 839.746195,    0.000000
 840.192249,    0.000000
 840.642623,    0.000000
 841.095364,    0.000000
 841.544714,    0.000000
 841.995376,    0.000000
 842.446045,    0.000000
 842.899833,    0.000000
 843.356055,    0.000000
 843.809790,    0.000000
 844.265177,    0.000000
 844.722391,    0.000000
 845.182224,    0.000000
 845.641470,    0.000000
 846.101852,    0.000000
 846.564824,    0.000000
 847.026808,    0.000000
 847.491961,    0.000000
 847.956311,    0.000000
 848.419609,    0.000000
 848.887748,    0.000000
 849.353540,    0.000000
 849.823705,    0.000000
 850.294031,    0.000000
 850.762000,    0.000000
 851.233866,    0.000000
 851.704754,    0.000000
 852.178773,    0.000000
 852.652850,    0.000000
 853.131265,    0.000000
 853.610585,    0.000000
 854.088694,    0.000000
 854.565959,    0.000000
 855.042662,    0.000000
 855.522816,    0.000000
 856.001731,    0.000000
 856.487444,    0.000000
 856.969937,    0.000000
 857.450888,    0.000000
 857.932106,    0.000000
 858.415832,    0.000000
 858.900823,    0.000000
 859.384215,    0.000000
 859.874333,    0.000000
 860.359880,    0.000000
 860.849177,    0.000000
 861.343012,    0.000000
 861.835296,    0.000000
 862.328919,    0.000000
 862.824747,    0.000000
 863.317980,    0.000000
 863.814884,    0.000000
 864.310314,    0.000000
 864.804901,    0.000000
 865.304793,    0.000000
 865.806957,    0.000000
 866.305097,    0.000000
 866.802265,    0.000000
 867.302978,    0.000000
 867.803297,    0.000000
 868.301717,    0.000000
 868.810490,    0.000000
 869.314096,    0.000000
 869.822111,    0.000000
 870.330170,    0.000000
 870.836668,    0.000000
 871.351770,    0.000000
 871.865411,    0.000000
 872.375309,    0.000000
 872.886073,    0.000000
 873.402076,    0.000000
 873.918891,    0.000000
 874.434062,    0.000000
 874.947833,    0.000000
 875.463748,    0.000000
 875.983028,    0.000000
 876.502951,    0.000000
 877.024392,    0.000000
 877.545781,    0.000000
 878.066112,    0.000000
 878.588742,    0.000000
 879.117774,    0.000000
 879.639065,    0.000000
 880.167680,    0.000000
 880.698983,    0.000000
 881.230891,    0.000000
 881.760735,    0.000000
 882.290286,    0.000000
 882.820692,    0.000000
 883.352038,    0.000000
 883.881898,    0.000000
 884.415946,    0.000000
 884.950901,    0.000000
 885.484989,    0.000000
 886.026517,    0.000000
 886.559943,    0.000000
 887.095052,    0.000000
 887.638940,    0.000000
 888.181396,    0.000000
 888.724139,    0.000000
 889.265944,    0.000000
 889.807252,    0.000000
 890.359034,    0.000000
 890.906086,    0.000000
 891.450348,    0.000000
 892.003869,    0.000000
 892.550503,    0.000000
 893.101495,    0.000000
 893.650070,    0.000000
 894.210249,    0.000000
 894.762347,    0.000000
 895.314448,    0.000000
 895.872588,    0.000000
 896.427085,    0.000000
 896.982856,    0.000000
 897.545480,    0.000000
 898.106295,    0.000000
 898.661118,    0.000000
 899.221903,    0.000000
 899.783457,    0.000000
 900.342527,    0.000000
 900.900924,    0.000000
 901.464052,    0.000000
 902.028116,    0.000000
 902.594647,    0.000000
 903.160401,    0.000000
 903.727311,    0.000000
 904.292135,    0.000000
 904.855878,    0.000000
 905.425601,    0.000000
 905.995177,    0.000000
 906.569032,    0.000000
 907.139583,    0.000000
 907.715339,    0.000000
 908.292192,    0.000000
 908.865973,    0.000000
 909.441313,    0.000000
 910.021702,    0.000000
 910.600565,    0.000000
 911.181081,    0.000000
 911.763913,    0.000000
 912.340765,    0.000000
 912.924546,    0.000000
 913.511419,    0.000000
 914.093883,    0.000000
 914.668405,    0.000000
 915.246196,    0.000000
 915.836834,    0.000000
 916.423127,    0.000000
 917.005072,    0.000000
 917.589012,    0.000000
 918.174412,    0.000000
 918.756361,    0.000000
 919.347030,    0.000000
 919.939133,    0.000000
 920.526837,    0.000000
 921.116623,    0.000000
 921.712234,    0.000000
 922.304148,    0.000000
 922.897491,    0.000000
 923.488545,    0.000000
 924.080794,    0.000000
 924.673249,    0.000000
 925.263823,    0.000000
 925.861724,    0.000000
 926.459042,    0.000000
 927.052956,    0.000000
 927.655935,    0.000000
 928.258691,    0.000000
 928.856432,    0.000000
 929.456766,    0.000000
 930.062516,    0.000000
 930.668415,    0.000000
 931.267238,    0.000000
 931.871859,    0.000000
 932.473723,    0.000000
 933.081668,    0.000000
 933.691765,    0.000000
 934.296742,    0.000000
 934.903355,    0.000000
 935.508017,    0.000000
 936.118393,    0.000000
 936.731540,    0.000000
 937.344881,    0.000000
 937.952278,    0.000000
 938.566704,    0.000000
 939.174445,    0.000000
 939.788160,    0.000000
 940.401627,    0.000000
 941.013744,    0.000000
 941.626806,    0.000000
 942.245854,    0.000000
 942.867458,    0.000000
 943.477847,    0.000000
 944.102012,    0.000000
 944.718323,    0.000000
 945.333065,    0.000000
 945.949696,    0.000000
 946.572379,    0.000000
 947.189466,    0.000000
 947.808121,    0.000000
 948.428479,    0.000000
 949.048934,    0.000000
 949.671379,    0.000000
 950.290745,    0.000000
 950.922111,    0.000000
 951.546234,    0.000000
 952.177467,    0.000000
 952.806680,    0.000000
 953.431007,    0.000000
 954.056801,    0.000000
 954.681363,    0.000000
 955.307273,    0.000000
 955.933379,    0.000000
 956.564495,    0.000000
 957.191797,    0.000000
 957.820511,    0.000000
 958.447223,    0.000000
 958.845357,    0.000000
