Time, Horizontal Forces
   0.000000, 13918.228023
   0.000001, 13918.131372
   0.000017, 13917.786172
   0.000255, 13916.465588
   0.002467, 13912.717499
   0.007750, 13908.449233
   0.015959, 13904.187594
   0.027137, 13899.913027
   0.041254, 13895.640236
   0.058408, 13891.345102
   0.078561, 13887.044179
   0.101951, 13882.697586
   0.128563, 13878.321973
   0.158279, 13873.942171
   0.191119, 13869.556581
   0.226989, 13865.177123
   0.266463, 13860.740253
   0.309271, 13856.285073
   0.356037, 13851.756448
   0.406380, 13847.201642
   0.460071, 13842.643888
   0.517529, 13838.050965
   0.578467, 13833.449499
   0.643393, 13828.805099
   0.713008, 13824.077470
   0.786968, 13819.300024
   0.865394, 13814.472101
   0.947628, 13809.637960
   1.034972, 13804.726597
   1.126468, 13799.797881
   1.223765, 13794.770156
   1.323474, 13789.819768
   1.427744, 13784.837139
   1.539258, 13779.704244
   1.656041, 13774.522953
   1.777219, 13769.334852
   1.901956, 13764.174433
   2.035541, 13758.830744
   2.171958, 13753.550198
   2.315495, 13748.168540
   2.462520, 13742.824759
   2.618731, 13737.317420
   2.782166, 13731.726743
   2.951571, 13726.100827
   3.128011, 13720.408571
   3.306491, 13714.809837
   3.492216, 13709.140249
   3.685102, 13703.407674
   3.885058, 13697.619346
   4.091914, 13691.784125
   4.307990, 13685.842304
   4.529082, 13679.912897
   4.758750, 13673.902864
   4.998555, 13667.778341
   5.246563, 13661.594878
   5.498612, 13655.456575
   5.759659, 13649.243622
   6.024581, 13643.078707
   6.302768, 13636.747159
   6.587963, 13630.397394
   6.880423, 13624.024858
   7.182638, 13617.578275
   7.494247, 13611.069545
   7.813722, 13604.533254
   8.146740, 13597.858245
   8.484523, 13591.223349
   8.835726, 13584.461062
   9.195778, 13577.664064
   9.565990, 13570.810166
   9.941763, 13563.985212
  10.328643, 13557.089509
  10.725944, 13550.138691
  11.136037, 13543.095256
  11.556321, 13536.007497
  11.983383, 13528.933681
  12.422011, 13521.795697
  12.878082, 13514.503585
  13.345818, 13507.155123
  13.819351, 13499.842893
  14.305407, 13492.463706
  14.801299, 13485.060518
  15.301561, 13477.713994
  15.820471, 13470.216627
  16.345555, 13462.751420
  16.883176, 13455.228377
  17.430886, 13447.683547
  17.993900, 13440.047582
  18.569241, 13432.363969
  19.158773, 13424.610403
  19.759306, 13416.830913
  20.367591, 13409.067669
  20.990672, 13401.231901
  21.629373, 13393.316490
  22.282321, 13385.341374
  22.949992, 13377.303278
  23.630059, 13369.232178
  24.318486, 13361.176201
  25.029145, 13352.975667
  25.173378, 13351.325192
  25.188905, 13351.147791
  25.202393, 13350.993729
  25.215028, 13350.849446
  25.217716, 13350.818754
  25.218371, 13350.811280
  25.219681, 13350.796330
  25.219769, 13350.795316
  25.219947, 13350.792710
  25.220111, 13350.790303
  25.221746, 13350.766236
  25.232282, 13350.611125
  25.282756, 13349.868525
  25.478586, 13346.994332
  25.958376, 13339.998725
  26.611884, 13330.573186
  27.277827, 13321.086342
  27.953232, 13311.581995
  28.644698, 13301.969579
  29.339141, 13292.431568
  30.047994, 13282.811072
  30.765539, 13273.187204
  31.500691, 13263.442571
  32.249390, 13253.634237
  33.006053, 13243.836261
  33.780350, 13233.925198
  34.569074, 13223.945253
  35.362586, 13214.018619
  36.174676, 13203.973914
  36.995868, 13193.930279
  37.832162, 13183.815527
  38.673925, 13173.746562
  39.530810, 13163.608295
  40.402492, 13153.406745
  41.285628, 13143.182417
  42.178556, 13132.954978
  43.087960, 13122.649145
  44.010630, 13112.303209
  44.947107, 13101.912406
  45.899917, 13091.450560
  46.860352, 13081.013983
  47.840451, 13070.473073
  48.838804, 13059.845939
  49.845897, 13049.234939
  50.854911, 13038.710337
  51.883263, 13028.090608
  52.927618, 13017.412476
  53.984773, 13006.709926
  55.065146, 12995.879736
  56.151595, 12985.094960
  57.257791, 12974.220546
  58.376309, 12963.331000
  59.512760, 12952.372925
  60.661241, 12941.404358
  61.824384, 12930.400825
  63.005557, 12919.331884
  64.200518, 12908.238580
  65.410485, 12897.110421
  66.636564, 12885.938348
  67.873699, 12874.769012
  69.120170, 12863.617654
  70.394835, 12852.317367
  71.678802, 12841.037389
  72.978929, 12829.717744
  74.296693, 12818.346794
  75.633479, 12806.914120
  76.979364, 12795.505097
  78.350272, 12783.985899
  79.727807, 12772.511965
  81.125676, 12760.969427
  82.541232, 12749.381654
  83.972526, 12737.765555
  85.415697, 12726.152795
  86.885005, 12714.430012
  88.363049, 12702.737076
  89.869540, 12690.919258
  91.378737, 12679.179117
  92.909923, 12667.366574
  94.458758, 12655.516509
  96.026552, 12643.619964
  97.604164, 12631.746587
  99.206718, 12619.783389
 100.818558, 12607.848030
 102.457913, 12595.806493
 104.113139, 12583.745832
 104.445670, 12581.334479
 104.485463, 12581.046178
 104.493304, 12580.989372
 104.496288, 12580.967758
 104.501933, 12580.926871
 104.503796, 12580.913375
 104.504318, 12580.909588
 104.504550, 12580.907914
 104.504918, 12580.904557
 104.505253, 12580.901484
 104.508600, 12580.870757
 104.534841, 12580.629877
 104.691129, 12579.195859
 105.287713, 12573.732219
 106.781555, 12560.122278
 108.283360, 12546.540286
 109.794029, 12532.977680
 111.326500, 12519.319241
 112.874280, 12505.624391
 114.436413, 12491.902370
 116.013378, 12478.149713
 117.603289, 12464.383437
 119.209536, 12450.574909
 120.826994, 12436.768700
 122.459989, 12422.928341
 124.112435, 12409.021826
 125.774368, 12395.133623
 127.454219, 12381.193738
 129.145975, 12367.252716
 130.857381, 12353.247537
 132.583634, 12339.218515
 134.315875, 12325.237523
 136.068820, 12311.186104
 137.840843, 12297.078718
 139.627519, 12282.951468
 141.422901, 12268.851421
 143.240681, 12254.671683
 145.070923, 12240.490695
 146.921858, 12226.245449
 148.782838, 12212.018476
 150.656333, 12197.790829
 152.546934, 12183.528102
 154.455011, 12169.228341
 156.384002, 12154.866870
 158.327845, 12140.489693
 160.283892, 12126.116631
 162.263596, 12111.664384
 164.257907, 12097.200011
 166.261760, 12082.760256
 168.282175, 12068.294657
 170.325250, 12053.760589
 172.378165, 12039.249789
 174.452665, 12024.679709
 176.542314, 12010.096366
 178.649208, 11995.485636
 180.772169, 11980.856248
 182.918861, 11966.156347
 185.080120, 11951.449555
 187.249169, 11936.781788
 189.433720, 11922.100783
 191.646193, 11907.324208
 193.868494, 11892.573679
 196.108664, 11877.795961
 198.371146, 11862.962622
 200.643063, 11848.158467
 202.937959, 11833.295632
 205.253088, 11818.392924
 207.584292, 11803.477719
 209.926108, 11788.585004
 212.290700, 11773.637832
 214.672591, 11758.671624
 217.073425, 11743.676606
 219.498429, 11728.621059
 221.936667, 11713.573486
 224.385422, 11698.550492
 226.854951, 11683.489399
 229.344430, 11668.395985
 231.845408, 11653.321738
 234.373241, 11638.174701
 236.918280, 11623.013587
 239.472076, 11607.888674
 242.061401, 11592.642270
 244.655126, 11577.458328
 245.178202, 11574.406773
 245.525963, 11572.379940
 245.807041, 11570.742890
 246.015277, 11569.530739
 246.179781, 11568.573545
 246.220123, 11568.338864
 246.278080, 11568.001745
 246.344385, 11567.616118
 246.359208, 11567.529915
 246.363379, 11567.505659
 246.371722, 11567.457147
 246.372421, 11567.453083
 246.372948, 11567.450014
 246.373149, 11567.448796
 246.373379, 11567.447075
 246.375677, 11567.429859
 246.396109, 11567.276790
 246.511073, 11566.415679
 247.015681, 11562.638831
 249.063039, 11547.361312
 251.363044, 11530.286453
 253.682942, 11513.156900
 256.010641, 11496.062301
 258.354513, 11478.941314
 260.710223, 11461.825979
 263.082284, 11444.683887
 265.463729, 11427.565629
 267.872028, 11410.346445
 270.297303, 11393.098219
 272.724031, 11375.931144
 275.173148, 11358.697214
 277.634148, 11341.471046
 280.109651, 11324.234521
 282.592366, 11307.038397
 285.085595, 11289.859556
 287.601677, 11272.613577
 290.125010, 11255.407828
 292.674027, 11238.117194
 295.237084, 11220.821554
 297.805362, 11203.580268
 300.395551, 11186.281532
 303.000628, 11168.972968
 305.620327, 11151.656715
 308.261604, 11134.287473
 310.910642, 11116.956425
 313.572746, 11099.628776
 316.252244, 11082.276725
 318.943579, 11064.936578
 321.655360, 11047.553309
 324.377621, 11030.191209
 327.119918, 11012.789673
 329.879168, 10995.368932
 332.655198, 10977.930583
 335.449935, 10960.463098
 338.250530, 10943.046830
 341.066686, 10925.621351
 343.907420, 10908.131635
 346.760218, 10890.655336
 349.631279, 10873.154783
 352.509553, 10855.697410
 355.413508, 10838.171613
 358.328246, 10820.667883
 361.258124, 10803.160136
 364.207589, 10785.622279
 367.171726, 10768.083990
 370.144577, 10750.580496
 373.142474, 10733.016052
 376.149799, 10715.482603
 379.174534, 10697.933735
 382.217267, 10680.366503
 385.275058, 10662.798255
 388.353354, 10645.198158
 391.441803, 10627.625668
 394.542724, 10610.067503
 397.661268, 10592.494727
 400.797138, 10574.909444
 403.950422, 10557.311567
 407.123842, 10539.686423
 410.313786, 10522.054548
 413.520413, 10504.415394
 416.740260, 10486.788216
 419.973927, 10469.169798
 423.227911, 10451.525111
 426.501601, 10433.858035
 429.793011, 10416.179772
 433.088002, 10398.566107
 436.409353, 10380.895458
 439.747571, 10363.219003
 443.095956, 10345.572285
 446.461655, 10327.917720
 449.845688, 10310.250331
 453.248885, 10292.566237
 456.664749, 10274.899417
 460.099236, 10257.219281
 463.547532, 10239.550851
 464.238893, 10236.018349
 466.577639, 10224.092898
 466.605310, 10223.952027
 466.625298, 10223.850273
 466.635065, 10223.800549
 466.642104, 10223.764720
 466.648906, 10223.730093
 466.656131, 10223.692930
 466.662731, 10223.658975
 466.728409, 10223.321117
 467.103564, 10221.391842
 469.224836, 10210.501275
 472.700549, 10192.723839
 476.197204, 10174.922215
 479.705616, 10157.143425
 483.221541, 10139.408736
 486.759524, 10121.644921
 490.319986, 10103.850527
 493.894007, 10086.070476
 497.490614, 10068.260222
 501.108666, 10050.426025
 504.739704, 10032.609863
 508.381814, 10014.821064
 512.044970, 9997.011114
 515.724748, 9979.201896
 519.421489, 9961.392013
 523.131816, 9943.597869
 526.856522, 9925.815723
 530.604726, 9908.002403
 534.368610, 9890.195485
 538.154571, 9872.365067
 541.948915, 9854.575762
 545.770910, 9836.737540
 549.608236, 9818.908414
 553.462340, 9801.081831
 557.326949, 9783.286821
 561.208644, 9765.493104
 565.118384, 9747.651014
 569.040337, 9729.833207
 572.973337, 9712.044866
 576.935591, 9694.204048
 580.912943, 9676.375011
 584.903275, 9658.567283
 588.919244, 9640.724719
 592.954910, 9622.874239
 596.999087, 9605.065353
 601.058177, 9587.269755
 605.137398, 9569.464789
 609.233231, 9551.666089
 613.345544, 9533.874390
 617.479870, 9516.066069
 621.640568, 9498.222938
 625.816177, 9480.394541
 627.892271, 9471.559435
 630.012567, 9462.556031
 634.224936, 9447.137439
 638.455333, 9433.958796
 642.700056, 9420.619326
 646.967203, 9406.338092
 651.252981, 9390.646399
 655.560997, 9374.774561
 659.898597, 9358.699149
 664.247651, 9341.633180
 668.621948, 9323.046915
 673.014815, 9304.311392
 677.427671, 9285.426915
 681.865246, 9265.668873
 686.323841, 9244.066131
 690.794244, 9222.356994
 695.274110, 9200.563433
 699.769376, 9178.519610
 704.296786, 9154.272400
 708.829236, 9129.944581
 713.383207, 9105.515690
 717.946703, 9081.012478
 722.526989, 9055.045197
 727.114036, 9028.399174
 731.732906, 9001.632694
 736.354242, 8974.812909
 740.992586, 8947.665037
 745.641065, 8918.633593
 750.298075, 8889.583995
 750.612109, 8874.418921
 750.926043, 8869.864695
 751.240488, 8865.254485
 751.555148, 8860.590289
 751.870158, 8855.871085
 752.184878, 8851.104572
 752.500376, 8846.278775
 752.815916, 8841.400351
 753.132005, 8836.464460
 753.448043, 8831.477666
 753.764383, 8826.436754
 754.079609, 8821.360154
 754.396295, 8816.216287
 754.713693, 8811.008704
 755.030782, 8805.753421
 755.348687, 8800.437019
 755.666822, 8795.064894
 755.983714, 8789.660001
 756.301667, 8784.192516
 756.620315, 8778.661841
 756.939644, 8773.068801
 757.258424, 8767.431944
 757.575412, 8761.773775
 757.895644, 8756.019777
 758.215520, 8750.212842
 758.536137, 8744.169152
 758.857182, 8738.064430
 759.178453, 8731.904121
 759.499239, 8725.700415
 759.820524, 8719.439502
 760.140469, 8713.148901
 760.462904, 8706.770361
 760.784332, 8700.350716
 761.107287, 8693.857520
 761.429367, 8687.324103
 761.752599, 8680.722726
 762.075763, 8674.068337
 762.399389, 8667.355275
 762.722844, 8660.593155
 763.047066, 8653.767032
 763.371725, 8646.879841
 763.696608, 8639.936344
 764.021711, 8632.937228
 764.347439, 8625.874854
 764.674200, 8618.740099
 765.001384, 8611.542933
 765.328401, 8604.296366
 765.655942, 8596.988955
 765.983039, 8589.637299
 766.311462, 8582.209804
 766.638159, 8574.761103
 766.966213, 8567.239593
 767.295484, 8559.638347
 767.625536, 8551.966073
 767.955914, 8544.233119
 768.285288, 8536.468129
 768.615954, 8528.627988
 768.947722, 8520.709265
 769.277652, 8512.774018
 769.608996, 8504.762913
 769.942305, 8496.653910
 770.274033, 8488.520839
 770.607086, 8480.312075
 770.938498, 8472.083228
 771.273404, 8463.730945
 771.607635, 8455.330739
 771.940820, 8446.903719
 772.276191, 8438.378910
 772.612700, 8429.769474
 772.947699, 8421.138359
 773.284930, 8412.408417
 773.620330, 8403.661395
 773.958161, 8394.811168
 774.294306, 8385.940382
 774.633147, 8376.958877
 774.970656, 8368.996566
 775.310450, 8360.966370
 775.650498, 8352.916166
 775.989929, 8344.866612
 776.330242, 8336.782177
 776.670776, 8328.678522
 777.012483, 8320.532909
 777.354883, 8312.356730
 777.696825, 8304.177483
 778.038452, 8295.991781
 778.382072, 8287.744289
 778.725436, 8279.488873
 779.068718, 8271.221429
 779.408450, 8263.025706
 779.753800, 8254.680447
 780.099044, 8246.323664
 780.444956, 8237.936601
 780.790587, 8229.542280
 781.133644, 8221.196595
 781.479820, 8212.761036
 781.826461, 8204.300071
 782.173980, 8195.803608
 782.523017, 8187.255870
 782.870331, 8178.736221
 783.219320, 8170.161403
 783.567999, 8161.580103
 783.916464, 8152.990015
 784.266432, 8144.348782
 784.615414, 8135.717816
 784.967131, 8127.005083
 785.317406, 8118.313922
 785.669876, 8109.554145
 786.021939, 8100.790319
 786.374941, 8091.988901
 786.726518, 8083.208936
 787.078563, 8074.403229
 787.431962, 8065.549504
 787.786649, 8056.649309
 788.142230, 8047.712446
 788.496758, 8038.787860
 788.851579, 8029.841761
 789.209105, 8020.813173
 789.566161, 8011.782161
 789.922699, 8002.750056
 790.281245, 7993.652773
 790.639432, 7984.550344
 790.997555, 7975.435308
 791.357737, 7966.253514
 791.716368, 7957.097031
 792.076200, 7947.895633
 792.434554, 7938.717850
 792.796159, 7929.442523
 793.156656, 7920.181341
 793.229135, 7918.317637
 793.279469, 7917.023012
 793.315390, 7916.098940
 793.344960, 7915.338148
 793.428315, 7913.193027
 793.438330, 7912.935226
 793.439712, 7912.899666
 793.440133, 7912.888861
 793.440562, 7912.877897
 793.443597, 7912.800435
 793.459422, 7912.396535
 793.516551, 7910.938215
 793.656040, 7907.375940
 793.968120, 7899.398293
 794.328921, 7890.161855
 794.692620, 7880.836792
 795.056752, 7871.486139
 795.422984, 7862.066967
 795.788527, 7852.650937
 796.154951, 7843.197636
 796.522528, 7833.699943
 796.889074, 7824.214337
 797.256267, 7814.697453
 797.625482, 7805.113506
 797.994031, 7795.532201
 798.363718, 7785.906706
 798.733638, 7776.260476
 799.104428, 7766.576904
 799.475930, 7756.860062
 799.849319, 7747.079030
 800.220889, 7737.330999
 800.593947, 7727.529205
 800.967769, 7717.692599
 801.341404, 7707.846193
 801.716554, 7697.945064
 802.092188, 7688.016402
 802.467806, 7678.073376
 802.843927, 7668.102256
 803.222956, 7658.039143
 803.600776, 7647.993255
 803.910735, 7639.740679
 803.979244, 7637.915301
 804.358314, 7627.806449
 804.737110, 7617.690083
 805.118906, 7607.478618
 805.500278, 7597.263547
 805.883132, 7586.993777
 806.265543, 7576.720904
 806.647335, 7566.449781
 807.031355, 7556.103742
 807.416929, 7545.700777
 807.803661, 7535.251411
 808.190425, 7524.786056
 808.577259, 7514.303684
 808.965453, 7503.769353
 809.353219, 7493.231512
 809.742998, 7482.623796
 810.133323, 7471.986032
 810.523261, 7461.343599
 810.913114, 7450.688408
 811.304478, 7439.976736
 811.697860, 7429.194573
 812.091025, 7418.403065
 812.484576, 7407.585727
 812.879698, 7396.709911
 813.274438, 7385.829321
 813.669740, 7374.917953
 814.065915, 7363.967234
 814.463202, 7352.970426
 814.862314, 7341.907703
 815.260649, 7330.851124
 815.660994, 7319.723321
 816.060578, 7308.601261
 816.460997, 7297.440597
 816.862109, 7286.245205
 817.266514, 7274.942317
 817.671040, 7263.620492
 818.074529, 7252.312159
 818.478589, 7240.972351
 818.882768, 7229.613735
 819.288649, 7218.191795
 819.696903, 7206.687455
 820.101783, 7195.262703
 820.511723, 7183.679546
 820.920397, 7172.116555
 821.331255, 7160.476080
 821.740692, 7148.860258
 822.152015, 7137.175281
 822.563458, 7125.471268
 822.978052, 7113.661864
 823.390576, 7101.895696
 823.805956, 7090.032348
 824.220430, 7078.179122
 824.637245, 7066.243184
 825.056186, 7054.230413
 825.473890, 7042.237289
 825.895433, 7030.117939
 826.315493, 7018.025311
 826.737645, 7005.856449
 827.156871, 6993.756104
 827.580342, 6981.517281
 828.003964, 6969.258088
 828.428904, 6956.944738
 828.853380, 6944.628848
 829.278541, 6932.277097
 829.703827, 6919.905762
 830.130148, 6907.488347
 830.559665, 6894.961728
 830.987628, 6882.464404
 831.418616, 6869.862612
 831.850620, 6857.214887
 832.279824, 6844.633134
 832.714774, 6831.866673
 833.145520, 6819.207558
 833.581693, 6806.372681
 834.014926, 6793.608202
 834.450429, 6780.760677
 834.886699, 6767.874311
 835.322941, 6754.972638
 835.763082, 6741.939305
 836.203536, 6728.880334
 836.646482, 6715.731017
 837.086407, 6702.655065
 837.526688, 6689.552340
 837.966394, 6676.450586
 838.409052, 6663.244616
 838.853339, 6649.973727
 839.299556, 6636.628795
 839.746195, 6623.254792
 840.192249, 6609.881940
 840.642623, 6596.363052
 841.095364, 6582.756435
 841.544714, 6569.235224
 841.995376, 6555.658097
 842.446045, 6542.064317
 842.899833, 6528.359920
 843.356055, 6514.565359
 843.809790, 6500.829441
 844.265177, 6487.026996
 844.722391, 6473.152578
 845.182224, 6459.181956
 845.641470, 6445.212501
 846.101852, 6431.191780
 846.564824, 6417.075405
 847.026808, 6402.972432
 847.491961, 6388.755909
 847.956311, 6374.547121
 848.419609, 6360.353863
 848.887748, 6345.995474
 849.353540, 6331.692324
 849.823705, 6317.238024
 850.294031, 6302.761817
 850.762000, 6288.341469
 851.233866, 6273.784170
 851.704754, 6259.240276
 852.178773, 6244.582757
 852.652850, 6229.906574
 853.131265, 6215.078995
 853.610585, 6200.206282
 854.088694, 6185.354091
 854.565959, 6170.511239
 855.042662, 6155.669081
 855.522816, 6140.702539
 856.001731, 6125.757810
 856.487444, 6110.583829
 856.969937, 6095.493427
 857.450888, 6080.434449
 857.932106, 6065.350376
 858.415832, 6050.170903
 858.900823, 6034.934866
 859.384215, 6019.732338
 859.874333, 6004.301275
 860.359880, 5988.997351
 860.849177, 5973.558342
 861.343012, 5957.959055
 861.835296, 5942.391733
 862.328919, 5926.765075
 862.824747, 5911.051524
 863.317980, 5895.403295
 863.814884, 5879.621626
 864.310314, 5863.869834
 864.804901, 5848.128057
 865.304793, 5832.200433
 865.806957, 5816.183342
 866.305097, 5800.277714
 866.802265, 5784.386413
 867.302978, 5768.364998
 867.803297, 5752.339425
 868.301717, 5736.358074
 868.810490, 5720.027770
 869.314096, 5703.846425
 869.822111, 5687.506476
 870.330170, 5671.148202
 870.836668, 5654.823377
 871.351770, 5638.204096
 871.865411, 5621.614837
 872.375309, 5605.129659
 872.886073, 5588.599689
 873.402076, 5571.883225
 873.918891, 5555.123426
 874.434062, 5538.400108
 874.947833, 5521.705506
 875.463748, 5504.924517
 875.983028, 5488.017248
 876.502951, 5471.072185
 877.024392, 5454.060764
 877.545781, 5437.034240
 878.066112, 5420.025575
 878.588742, 5402.925064
 879.117774, 5385.598071
 879.639065, 5368.507991
 880.167680, 5351.161032
 880.698983, 5333.708895
 881.230891, 5316.219915
 881.760735, 5298.782039
 882.290286, 5281.337154
 882.820692, 5263.847441
 883.352038, 5246.310145
 883.881898, 5228.805465
 884.415946, 5211.145804
 884.950901, 5193.439580
 885.484989, 5175.745571
 886.026517, 5157.788338
 886.559943, 5140.083339
 887.095052, 5122.306226
 887.638940, 5104.220814
 888.181396, 5086.166411
 888.724139, 5068.085905
 889.265944, 5050.020277
 889.807252, 5031.954899
 890.359034, 5013.523307
 890.906086, 4995.233146
 891.450348, 4977.020046
 892.003869, 4958.480544
 892.550503, 4940.155393
 893.101495, 4921.667848
 893.650070, 4903.245227
 894.210249, 4884.416343
 894.762347, 4865.842806
 895.314448, 4847.253031
 895.872588, 4828.443655
 896.427085, 4809.740902
 896.982856, 4790.979154
 897.545480, 4771.969804
 898.106295, 4753.005371
 898.661118, 4734.227719
 899.221903, 4715.232384
 899.783457, 4696.195023
 900.342527, 4677.226128
 900.900924, 4658.264465
 901.464052, 4639.126436
 902.028116, 4619.940834
 902.594647, 4600.655574
 903.160401, 4581.381087
 903.727311, 4562.051607
 904.292135, 4542.777768
 904.855878, 4523.525545
 905.425601, 4504.053605
 905.995177, 4484.571288
 906.569032, 4464.927096
 907.139583, 4445.380646
 907.715339, 4425.640477
 908.292192, 4405.847241
 908.865973, 4386.144207
 909.441313, 4366.372420
 910.021702, 4346.411866
 910.600565, 4326.488564
 911.181081, 4306.493209
 911.763913, 4286.402916
 912.340765, 4266.503878
 912.924546, 4246.350825
 913.511419, 4226.075966
 914.093883, 4205.938527
 914.668405, 4186.061252
 915.246196, 4166.056539
 915.836834, 4145.592277
 916.423127, 4125.263861
 917.005072, 4105.071817
 917.589012, 4084.796286
 918.174412, 4064.455776
 918.756361, 4044.221113
 919.347030, 4023.669010
 919.939133, 4003.052657
 920.526837, 3982.575456
 921.116623, 3962.011670
 921.712234, 3941.230669
 922.304148, 3920.564689
 922.897491, 3899.834918
 923.488545, 3879.171417
 924.080794, 3858.452480
 924.673249, 3837.712793
 925.263823, 3817.025540
 925.861724, 3796.068104
 926.459042, 3775.117612
 927.052956, 3754.273227
 927.655935, 3733.097265
 928.258691, 3711.915683
 928.856432, 3690.897190
 929.456766, 3669.774394
 930.062516, 3648.447827
 930.668415, 3627.102889
 931.267238, 3605.994391
 931.871859, 3584.668632
 932.473723, 3563.427432
 933.081668, 3541.958862
 933.691765, 3520.401469
 934.296742, 3499.012433
 934.903355, 3477.553094
 935.508017, 3456.150438
 936.118393, 3434.533182
 936.731540, 3412.805407
 937.344881, 3391.058382
 937.952278, 3369.510084
 938.566704, 3347.700324
 939.174445, 3326.116002
 939.788160, 3304.307613
 940.401627, 3282.496227
 941.013744, 3260.721205
 941.626806, 3238.900936
 942.245854, 3216.855990
 942.867458, 3194.708308
 943.477847, 3172.948982
 944.102012, 3150.687089
 944.718323, 3128.694071
 945.333065, 3106.745992
 945.949696, 3084.719529
 946.572379, 3062.465832
 947.189466, 3040.401280
 947.808121, 3018.269965
 948.428479, 2996.067040
 949.048934, 2973.850050
 949.671379, 2951.551301
 950.290745, 2929.352468
 950.922111, 2906.713036
 951.546234, 2884.322986
 952.177467, 2861.667505
 952.806680, 2839.074275
 953.431007, 2816.646515
 954.056801, 2794.156187
 954.681363, 2771.700332
 955.307273, 2749.186352
 955.933379, 2726.655766
 956.564495, 2703.935288
 957.191797, 2681.342711
 957.820511, 2658.689932
 958.447223, 2636.100121
 958.845357, 2621.744699
