Time, Horizontal Forces
   0.000000,    0.000000
   0.000001,    0.000000
   0.000017,    0.000000
   0.000255,    0.000000
   0.002467,    0.000000
   0.007750,    0.000000
   0.015959,    0.000000
   0.027137,    0.000000
   0.041254,    0.000000
   0.058408,    0.000000
   0.078561,    0.000000
   0.101951,    0.000000
   0.128563,    0.000000
   0.158279,    0.000000
   0.191119,    0.000000
   0.226989,    0.000000
   0.266463,    0.000000
   0.309271,    0.000000
   0.356037,    0.000000
   0.406380,    0.000000
   0.460071,    0.000000
   0.517529,    0.000000
   0.578467,    0.000000
   0.643393,    0.000000
   0.713008,    0.000000
   0.786968,    0.000000
   0.865394,    0.000000
   0.947628,    0.000000
   1.034972,    0.000000
   1.126468,    0.000000
   1.223765,    0.000000
   1.323474,    0.000000
   1.427744,    0.000000
   1.539258,    0.000000
   1.656041,    0.000000
   1.777219,    0.000000
   1.901956,    0.000000
   2.035541,    0.000000
   2.171958,    0.000000
   2.315495,    0.000000
   2.462520,    0.000000
   2.618731,    0.000000
   2.782166,    0.000000
   2.951571,    0.000000
   3.128011,    0.000000
   3.306491,    0.000000
   3.492216,    0.000000
   3.685102,    0.000000
   3.885058,    0.000000
   4.091914,    0.000000
   4.307990,    0.000000
   4.529082,    0.000000
   4.758750,    0.000000
   4.998555,    0.000000
   5.246563,    0.000000
   5.498612,    0.000000
   5.759659,    0.000000
   6.024581,    0.000000
   6.302768,    0.000000
   6.587963,    0.000000
   6.880423,    0.000000
   7.182638,    0.000000
   7.494247,    0.000000
   7.813722,    0.000000
   8.146740,    0.000000
   8.484523,    0.000000
   8.835726,    0.000000
   9.195778,    0.000000
   9.565990,    0.000000
   9.941763,    0.000000
  10.328643,    0.000000
  10.725944,    0.000000
  11.136037,    0.000000
  11.556321,    0.000000
  11.983383,    0.000000
  12.422011,    0.000000
  12.878082,    0.000000
  13.345818,    0.000000
  13.819351,    0.000000
  14.305407,    0.000000
  14.801299,    0.000000
  15.301561,    0.000000
  15.820471,    0.000000
  16.345555,    0.000000
  16.883176,    0.000000
  17.430886,    0.000000
  17.993900,    0.000000
  18.569241,    0.000000
  19.158773,    0.000000
  19.759306,    0.000000
  20.367591,    0.000000
  20.990672,    0.000000
  21.629373,    0.000000
  22.282321,    0.000000
  22.949992,    0.000000
  23.630059,    0.000000
  24.318486,    0.000000
  25.029145,    0.000000
  25.173378,    0.000000
  25.188905,    0.000000
  25.202393,    0.000000
  25.215028,    0.000000
  25.217716,    0.000000
  25.218371,    0.000000
  25.219681,    0.000000
  25.219769,    0.000000
  25.219947,    0.000000
  25.220111,    0.000000
  25.221746,    0.000000
  25.232282,    0.000000
  25.282756,    0.000000
  25.478586,    0.000000
  25.958376,    0.000000
  26.611884,    0.000000
  27.277827,    0.000000
  27.953232,    0.000000
  28.644698,    0.000000
  29.339141,    0.000000
  30.047994,    0.000000
  30.765539,    0.000000
  31.500691,    0.000000
  32.249390,    0.000000
  33.006053,    0.000000
  33.780350,    0.000000
  34.569074,    0.000000
  35.362586,    0.000000
  36.174676,    0.000000
  36.995868,    0.000000
  37.832162,    0.000000
  38.673925,    0.000000
  39.530810,    0.000000
  40.402492,    0.000000
  41.285628,    0.000000
  42.178556,    0.000000
  43.087960,    0.000000
  44.010630,    0.000000
  44.947107,    0.000000
  45.899917,    0.000000
  46.860352,    0.000000
  47.840451,    0.000000
  48.838804,    0.000000
  49.845897,    0.000000
  50.854911,    0.000000
  51.883263,    0.000000
  52.927618,    0.000000
  53.984773,    0.000000
  55.065146,    0.000000
  56.151595,    0.000000
  57.257791,    0.000000
  58.376309,    0.000000
  59.512760,    0.000000
  60.661241,    0.000000
  61.824384,    0.000000
  63.005557,    0.000000
  64.200518,    0.000000
  65.410485,    0.000000
  66.636564,    0.000000
  67.873699,    0.000000
  69.120170,    0.000000
  70.394835,    0.000000
  71.678802,    0.000000
  72.978929,    0.000000
  74.296693,    0.000000
  75.633479,    0.000000
  76.979364,    0.000000
  78.350272,    0.000000
  79.727807,    0.000000
  81.125676,    0.000000
  82.541232,    0.000000
  83.972526,    0.000000
  85.415697,    0.000000
  86.885005,    0.000000
  88.363049,    0.000000
  89.869540,    0.000000
  91.378737,    0.000000
  92.909923,    0.000000
  94.458758,    0.000000
  96.026552,    0.000000
  97.604164,    0.000000
  99.206718,    0.000000
 100.818558,    0.000000
 102.457913,    0.000000
 104.113139,    0.000000
 104.445670,    0.000000
 104.485463,    0.000000
 104.493304,    0.000000
 104.496288,    0.000000
 104.501933,    0.000000
 104.503796,    0.000000
 104.504318,    0.000000
 104.504550,    0.000000
 104.504918,    0.000000
 104.505253,    0.000000
 104.508600,    0.000000
 104.534841,    0.000000
 104.691129,    0.000000
 105.287713,    0.000000
 106.781555,    0.000000
 108.283360,    0.000000
 109.794029,    0.000000
 111.326500,    0.000000
 112.874280,    0.000000
 114.436413,    0.000000
 116.013378,    0.000000
 117.603289,    0.000000
 119.209536,    0.000000
 120.826994,    0.000000
 122.459989,    0.000000
 124.112435,    0.000000
 125.774368,    0.000000
 127.454219,    0.000000
 129.145975,    0.000000
 130.857381,    0.000000
 132.583634,    0.000000
 134.315875,    0.000000
 136.068820,    0.000000
 137.840843,    0.000000
 139.627519,    0.000000
 141.422901,    0.000000
 143.240681,    0.000000
 145.070923,    0.000000
 146.921858,    0.000000
 148.782838,    0.000000
 150.656333,    0.000000
 152.546934,    0.000000
 154.455011,    0.000000
 156.384002,    0.000000
 158.327845,    0.000000
 160.283892,    0.000000
 162.263596,    0.000000
 164.257907,    0.000000
 166.261760,    0.000000
 168.282175,    0.000000
 170.325250,    0.000000
 172.378165,    0.000000
 174.452665,    0.000000
 176.542314,    0.000000
 178.649208,    0.000000
 180.772169,    0.000000
 182.918861,    0.000000
 185.080120,    0.000000
 187.249169,    0.000000
 189.433720,    0.000000
 191.646193,    0.000000
 193.868494,    0.000000
 196.108664,    0.000000
 198.371146,    0.000000
 200.643063,    0.000000
 202.937959,    0.000000
 205.253088,    0.000000
 207.584292,    0.000000
 209.926108,    0.000000
 212.290700,    0.000000
 214.672591,    0.000000
 217.073425,    0.000000
 219.498429,    0.000000
 221.936667,    0.000000
 224.385422,    0.000000
 226.854951,    0.000000
 229.344430,    0.000000
 231.845408,    0.000000
 234.373241,    0.000000
 236.918280,    0.000000
 239.472076,    0.000000
 242.061401,    0.000000
 244.655126,    0.000000
 245.178202,    0.000000
 245.525963,    0.000000
 245.807041,    0.000000
 246.015277,    0.000000
 246.179781,    0.000000
 246.220123,    0.000000
 246.278080,    0.000000
 246.344385,    0.000000
 246.359208,    0.000000
 246.363379,    0.000000
 246.371722,    0.000000
 246.372421,    0.000000
 246.372948,    0.000000
 246.373149,    0.000000
 246.373379,    0.000000
 246.375677,    0.000000
 246.396109,    0.000000
 246.511073,    0.000000
 247.015681,    0.000000
 249.063039,    0.000000
 251.363044,    0.000000
 253.682942,    0.000000
 256.010641,    0.000000
 258.354513,    0.000000
 260.710223,    0.000000
 263.082284,    0.000000
 265.463729,    0.000000
 267.872028,    0.000000
 270.297303,    0.000000
 272.724031,    0.000000
 275.173148,    0.000000
 277.634148,    0.000000
 280.109651,    0.000000
 282.592366,    0.000000
 285.085595,    0.000000
 287.601677,    0.000000
 290.125010,    0.000000
 292.674027,    0.000000
 295.237084,    0.000000
 297.805362,    0.000000
 300.395551,    0.000000
 303.000628,    0.000000
 305.620327,    0.000000
 308.261604,    0.000000
 310.910642,    0.000000
 313.572746,    0.000000
 316.252244,    0.000000
 318.943579,    0.000000
 321.655360,    0.000000
 324.377621,    0.000000
 327.119918,    0.000000
 329.879168,    0.000000
 332.655198,    0.000000
 335.449935,    0.000000
 338.250530,    0.000000
 341.066686,    0.000000
 343.907420,    0.000000
 346.760218,    0.000000
 349.631279,    0.000000
 352.509553,    0.000000
 355.413508,    0.000000
 358.328246,    0.000000
 361.258124,    0.000000
 364.207589,    0.000000
 367.171726,    0.000000
 370.144577,    0.000000
 373.142474,    0.000000
 376.149799,    0.000000
 379.174534,    0.000000
 382.217267,    0.000000
 385.275058,    0.000000
 388.353354,    0.000000
 391.441803,    0.000000
 394.542724,    0.000000
 397.661268,    0.000000
 400.797138,    0.000000
 403.950422,    0.000000
 407.123842,    0.000000
 410.313786,    0.000000
 413.520413,    0.000000
 416.740260,    0.000000
 419.973927,    0.000000
 423.227911,    0.000000
 426.501601,    0.000000
 429.793011,    0.000000
 433.088002,    0.000000
 436.409353,    0.000000
 439.747571,    0.000000
 443.095956,    0.000000
 446.461655,    0.000000
 449.845688,    0.000000
 453.248885,    0.000000
 456.664749,    0.000000
 460.099236,    0.000000
 463.547532,    0.000000
 464.238893,    0.000000
 466.577639,    0.000000
 466.605310,    0.000000
 466.625298,    0.000000
 466.635065,    0.000000
 466.642104,    0.000000
 466.648906,    0.000000
 466.656131,    0.000000
 466.662731,    0.000000
 466.728409,    0.000000
 467.103564,    0.000000
 469.224836,    0.000000
 472.700549,    0.000000
 476.197204,    0.000000
 479.705616,    0.000000
 483.221541,    0.000000
 486.759524,    0.000000
 490.319986,    0.000000
 493.894007,    0.000000
 497.490614,    0.000000
 501.108666,    0.000000
 504.739704,    0.000000
 508.381814,    0.000000
 512.044970,    0.000000
 515.724748,    0.000000
 519.421489,    0.000000
 523.131816,    0.000000
 526.856522,    0.000000
 530.604726,    0.000000
 534.368610,    0.000000
 538.154571,    0.000000
 541.948915,    0.000000
 545.770910,    0.000000
 549.608236,    0.000000
 553.462340,    0.000000
 557.326949,    0.000000
 561.208644,    0.000000
 565.118384,    0.000000
 569.040337,    0.000000
 572.973337,    0.000000
 576.935591,    0.000000
 580.912943,    0.000000
 584.903275,    0.000000
 588.919244,    0.000000
 592.954910,    0.000000
 596.999087,    0.000000
 601.058177,    0.000000
 605.137398,    0.000000
 609.233231,    0.000000
 613.345544,    0.000000
 617.479870,    0.000000
 621.640568,    0.000000
 625.816177,    0.000000
 627.892271,    0.000000
 630.012567,    0.000000
 634.224936,    0.000000
 638.455333,    0.000000
 642.700056,    0.000000
 646.967203,    0.000000
 651.252981,    0.000000
 655.560997,    0.000000
 659.898597,    0.000000
 664.247651,    0.000000
 668.621948,    0.000000
 673.014815,    0.000000
 677.427671,    0.000000
 681.865246,    0.000000
 686.323841,    0.000000
 690.794244,    0.000000
 695.274110,    0.000000
 699.769376,    0.000000
 704.296786,    0.000000
 708.829236,    0.000000
 713.383207,    0.000000
 717.946703,    0.000000
 722.526989,    0.000000
 727.114036,    0.000000
 731.732906,    0.000000
 736.354242,    0.000000
 740.992586,    0.000000
 745.641065,    0.000000
 750.298075,    0.000000
 750.612109,    2.564136
 750.926043,    5.178289
 751.240488,    7.847559
 751.555148,   10.569574
 751.870158,   13.345582
 752.184878,   16.169947
 752.500376,   19.052240
 752.815916,   21.985947
 753.132005,   24.975826
 753.448043,   28.016318
 753.764383,   31.110797
 754.079609,   34.245241
 754.396295,   37.445137
 754.713693,   40.703438
 755.030782,   44.009754
 755.348687,   47.375837
 755.666822,   50.795718
 755.983714,   54.253330
 756.301667,   57.773590
 756.620315,   61.352834
 756.939644,   64.991194
 757.258424,   68.674696
 757.575412,   72.388419
 757.895644,   76.191398
 758.215520,   80.041695
 758.536137,   83.952509
 758.857182,   87.920266
 759.178453,   91.942580
 759.499239,   96.010475
 759.820524,  100.136302
 760.140469,  104.296320
 760.462904,  108.540308
 760.784332,  112.822744
 761.107287,  117.177315
 761.429367,  121.571867
 761.752599,  126.033958
 762.075763,  130.547023
 762.399389,  135.118459
 762.722844,  139.739376
 763.047066,  144.423219
 763.371725,  149.165456
 763.696608,  153.963097
 764.021711,  158.816121
 764.347439,  163.730721
 764.674200,  168.713353
 765.001384,  173.755046
 765.328401,  178.846749
 765.655942,  183.999194
 765.983039,  189.197200
 766.311462,  194.468913
 766.638159,  199.765370
 766.966213,  205.136247
 767.295484,  210.579784
 767.625536,  216.089267
 767.955914,  221.657291
 768.285288,  227.261327
 768.615954,  232.940285
 768.947722,  238.691440
 769.277652,  244.463762
 769.608996,  250.313812
 769.942305,  256.251996
 770.274033,  262.215420
 770.607086,  268.256010
 770.938498,  274.319985
 771.273404,  280.501425
 771.607635,  286.724225
 771.940820,  292.981027
 772.276191,  299.332547
 772.612700,  305.759701
 772.947699,  312.211973
 773.284930,  318.761290
 773.620330,  325.329001
 773.958161,  331.998439
 774.294306,  338.688652
 774.633147,  345.486793
 774.970656,  352.273465
 775.310450,  359.121453
 775.650498,  365.989962
 775.989929,  372.861359
 776.330242,  379.765978
 776.670776,  386.690456
 777.012483,  393.654241
 777.354883,  400.647619
 777.696825,  407.647072
 778.038452,  414.655484
 778.382072,  421.720253
 778.725436,  428.795263
 779.068718,  435.884023
 779.408450,  442.914666
 779.753800,  450.077025
 780.099044,  457.252731
 780.444956,  464.457894
 780.790587,  471.672740
 781.133644,  478.849183
 781.479820,  486.106334
 781.826461,  493.388780
 782.173980,  500.705226
 782.523017,  508.069291
 782.870331,  515.412595
 783.219320,  522.806896
 783.567999,  530.210230
 783.916464,  537.624574
 784.266432,  545.086504
 784.615414,  552.542996
 784.967131,  560.073582
 785.317406,  567.588960
 785.669876,  575.167128
 786.021939,  582.752249
 786.374941,  590.373363
 786.726518,  597.979330
 787.078563,  605.611021
 787.431962,  613.287765
 787.786649,  621.008255
 788.142230,  628.764018
 788.496758,  636.512574
 788.851579,  644.283245
 789.209105,  652.129037
 789.566161,  659.980404
 789.922699,  667.836173
 790.281245,  675.752099
 790.639432,  683.675970
 790.997555,  691.614270
 791.357737,  699.614187
 791.716368,  707.595508
 792.076200,  715.619437
 792.434554,  723.626209
 792.796159,  731.721545
 793.156656,  739.807994
 793.229135,  741.435713
 793.279469,  742.566493
 793.315390,  743.373656
 793.344960,  744.038223
 793.428315,  745.912153
 793.438330,  746.137375
 793.439712,  746.168441
 793.440133,  746.177907
 793.440562,  746.187568
 793.443597,  746.255822
 793.459422,  746.611712
 793.516551,  747.896741
 793.656040,  751.036053
 793.968120,  758.068226
 794.328921,  766.213006
 794.692620,  774.439187
 795.056752,  782.691204
 795.422984,  791.006974
 795.788527,  799.323249
 796.154951,  807.675720
 796.522528,  816.070703
 796.889074,  824.458279
 797.256267,  832.876782
 797.625482,  841.357903
 797.994031,  849.839973
 798.363718,  858.364454
 798.733638,  866.910591
 799.104428,  875.493108
 799.475930,  884.108416
 799.849319,  892.783963
 800.220889,  901.433539
 800.593947,  910.134127
 800.967769,  918.868930
 801.341404,  927.615744
 801.716554,  936.414491
 802.092188,  945.241031
 802.467806,  954.083663
 802.843927,  962.954600
 803.222956,  971.910733
 803.600776,  980.854880
 803.910735,  988.204876
 803.979244,  989.830915
 804.358314,  998.837813
 804.737110, 1007.854741
 805.118906, 1016.959797
 805.500278, 1026.071435
 805.883132, 1035.235241
 806.265543, 1044.405184
 806.647335, 1053.576918
 807.031355, 1062.818922
 807.416929, 1072.115171
 807.803661, 1081.456294
 808.190425, 1090.815119
 808.577259, 1100.192564
 808.965453, 1109.619902
 809.353219, 1119.053787
 809.742998, 1128.553650
 810.133323, 1138.083855
 810.523261, 1147.621663
 810.913114, 1157.174317
 811.304478, 1166.781033
 811.697860, 1176.454416
 812.091025, 1186.139631
 812.484576, 1195.851474
 812.879698, 1205.619279
 813.274438, 1215.394826
 813.669740, 1225.201478
 814.065915, 1235.046956
 814.463202, 1244.937343
 814.862314, 1254.890506
 815.260649, 1264.841623
 815.660994, 1274.860341
 816.060578, 1284.877379
 816.460997, 1294.932676
 816.862109, 1305.022757
 817.266514, 1315.213255
 817.671040, 1325.424370
 818.074529, 1335.626840
 818.478589, 1345.861225
 818.882768, 1356.116100
 819.288649, 1366.431677
 819.696903, 1376.825233
 820.101783, 1387.150407
 820.511723, 1397.622306
 820.920397, 1408.079536
 821.331255, 1418.610420
 821.740692, 1429.122563
 822.152015, 1439.700864
 822.563458, 1450.299975
 822.978052, 1460.998138
 823.390576, 1471.660723
 823.805956, 1482.414984
 824.220430, 1493.163674
 824.637245, 1503.990993
 825.056186, 1514.891661
 825.473890, 1525.778143
 825.895433, 1536.782880
 826.315493, 1547.767020
 826.737645, 1558.824087
 827.156871, 1569.822541
 827.580342, 1580.950543
 828.003964, 1592.100759
 828.428904, 1603.303937
 828.853380, 1614.513121
 829.278541, 1625.758639
 829.703827, 1637.025679
 830.130148, 1648.338386
 830.559665, 1659.754319
 830.987628, 1671.147279
 831.418616, 1682.639226
 831.850620, 1694.176829
 832.279824, 1705.657980
 832.714774, 1717.311467
 833.145520, 1728.870713
 833.581693, 1740.594243
 834.014926, 1752.257241
 834.450429, 1763.999899
 834.886699, 1775.781851
 835.322941, 1787.581585
 835.763082, 1799.505567
 836.203536, 1811.456849
 836.646482, 1823.494685
 837.086407, 1835.469194
 837.526688, 1847.472041
 837.966394, 1859.477804
 838.409052, 1871.582902
 838.853339, 1883.751367
 839.299556, 1895.991612
 839.746195, 1908.262416
 840.192249, 1920.536043
 840.642623, 1932.947629
 841.095364, 1945.443727
 841.544714, 1957.865317
 841.995376, 1970.342199
 842.446045, 1982.838304
 842.899833, 1995.440049
 843.356055, 2008.128695
 843.809790, 2020.767363
 844.265177, 2033.471209
 844.722391, 2046.245290
 845.182224, 2059.111970
 845.641470, 2071.981595
 846.101852, 2084.902477
 846.564824, 2097.915567
 847.026808, 2110.920349
 847.491961, 2124.033918
 847.956311, 2137.144425
 848.419609, 2150.244652
 848.887748, 2163.501393
 849.353540, 2176.711217
 849.823705, 2190.064759
 850.294031, 2203.442676
 850.762000, 2216.773071
 851.233866, 2230.234199
 851.704754, 2243.687059
 852.178773, 2257.249178
 852.652850, 2270.832732
 853.131265, 2284.560626
 853.610585, 2298.334544
 854.088694, 2312.093677
 854.565959, 2325.848351
 855.042662, 2339.606559
 855.522816, 2353.484278
 856.001731, 2367.345975
 856.487444, 2381.424589
 856.969937, 2395.429916
 857.450888, 2409.410298
 857.932106, 2423.418182
 858.415832, 2437.518894
 858.900823, 2451.676403
 859.384215, 2465.807007
 859.874333, 2480.154336
 860.359880, 2494.387721
 860.849177, 2508.751030
 861.343012, 2523.267806
 861.835296, 2537.759185
 862.328919, 2552.310152
 862.824747, 2566.946410
 863.317980, 2581.526172
 863.814884, 2596.234640
 864.310314, 2610.919629
 864.804901, 2625.599623
 865.304793, 2640.457329
 865.806957, 2655.402937
 866.305097, 2670.248936
 866.802265, 2685.085919
 867.302978, 2700.048776
 867.803297, 2715.019912
 868.301717, 2729.954096
 868.810490, 2745.218850
 869.314096, 2760.348818
 869.822111, 2775.631565
 870.330170, 2790.935943
 870.836668, 2806.213493
 871.351770, 2821.771173
 871.865411, 2837.305324
 872.375309, 2852.746526
 872.886073, 2868.234183
 873.402076, 2883.901140
 873.918891, 2899.613302
 874.434062, 2915.295831
 874.947833, 2930.955963
 875.463748, 2946.701677
 875.983028, 2962.570475
 876.502951, 2978.479356
 877.024392, 2994.455163
 877.545781, 3010.449777
 878.066112, 3026.432219
 878.588742, 3042.505585
 879.117774, 3058.796540
 879.639065, 3074.869375
 880.167680, 3091.188482
 880.698983, 3107.611278
 881.230891, 3124.073500
 881.760735, 3140.492344
 882.290286, 3156.922491
 882.820692, 3173.399564
 883.352038, 3189.926180
 883.881898, 3206.426753
 884.415946, 3223.078151
 884.950901, 3239.778211
 885.484989, 3256.471494
 886.026517, 3273.417944
 886.559943, 3290.131106
 887.095052, 3306.917070
 887.638940, 3323.998989
 888.181396, 3341.056478
 888.724139, 3358.143476
 889.265944, 3375.221243
 889.807252, 3392.303585
 890.359034, 3409.737156
 890.906086, 3427.041872
 891.450348, 3444.278531
 892.003869, 3461.829049
 892.550503, 3479.181550
 893.101495, 3496.692743
 893.650070, 3514.147340
 894.210249, 3531.991890
 894.762347, 3549.599414
 895.314448, 3567.227260
 895.872588, 3585.068348
 896.427085, 3602.813275
 896.982856, 3620.619143
 897.545480, 3638.665057
 898.106295, 3656.673388
 898.661118, 3674.509316
 899.221903, 3692.557018
 899.783457, 3710.649688
 900.342527, 3728.682289
 900.900924, 3746.712989
 901.464052, 3764.916423
 902.028116, 3783.170161
 902.594647, 3801.523801
 903.160401, 3819.872265
 903.727311, 3838.278164
 904.292135, 3856.636133
 904.855878, 3874.978536
 905.425601, 3893.535364
 905.995177, 3912.107189
 906.569032, 3930.838484
 907.139583, 3949.481705
 907.715339, 3968.314869
 908.292192, 3987.203869
 908.865973, 4006.011949
 909.441313, 4024.890824
 910.021702, 4043.955173
 910.600565, 4062.989168
 911.181081, 4082.097238
 911.763913, 4101.301300
 912.340765, 4120.327734
 912.924546, 4139.602294
 913.511419, 4158.998668
 914.093883, 4178.268840
 914.668405, 4197.295184
 915.246196, 4216.448643
 915.836834, 4236.047411
 916.423127, 4255.521384
 917.005072, 4274.869939
 917.589012, 4294.303716
 918.174412, 4313.805020
 918.756361, 4333.210042
 919.347030, 4352.924781
 919.939133, 4372.706501
 920.526837, 4392.359988
 921.116623, 4412.101865
 921.712234, 4432.057647
 922.304148, 4451.908315
 922.897491, 4471.825594
 923.488545, 4491.684506
 924.080794, 4511.602001
 924.673249, 4531.544750
 925.263823, 4551.442358
 925.861724, 4571.605196
 926.459042, 4591.766733
 927.052956, 4611.831485
 927.655935, 4632.220836
 928.258691, 4652.621058
 928.856432, 4672.869590
 929.456766, 4693.223992
 930.062516, 4713.780221
 930.668415, 4734.359647
 931.267238, 4754.716500
 931.871859, 4775.288304
 932.473723, 4795.783951
 933.081668, 4816.504462
 933.691765, 4837.316226
 934.296742, 4857.970917
 934.903355, 4878.698950
 935.508017, 4899.377660
 936.118393, 4920.269202
 936.731540, 4941.273102
 937.344881, 4962.301170
 937.952278, 4983.142552
 938.566704, 5004.242354
 939.174445, 5025.129528
 939.788160, 5046.239049
 940.401627, 5067.357003
 941.013744, 5088.445260
 941.626806, 5109.582846
 942.245854, 5130.943671
 942.867458, 5152.409690
 943.477847, 5173.504806
 944.102012, 5195.092779
 944.718323, 5216.425597
 945.333065, 5237.720346
 945.949696, 5259.096679
 946.572379, 5280.699155
 947.189466, 5302.123586
 947.808121, 5323.618398
 948.428479, 5345.188341
 949.048934, 5366.777530
 949.671379, 5388.451774
 950.290745, 5410.034469
 950.922111, 5432.051246
 951.546234, 5453.831163
 952.177467, 5475.874998
 952.806680, 5497.863984
 953.431007, 5519.697567
 954.056801, 5541.597694
 954.681363, 5563.469870
 955.307273, 5585.404288
 955.933379, 5607.360514
 956.564495, 5629.507486
 957.191797, 5651.535447
 957.820511, 5673.627762
 958.447223, 5695.664300
 958.845357, 5709.671047
