Ground distance, Vertical Forces
   0.000000,    0.000001
   0.000001,    0.000023
   0.000021,    0.000361
   0.000177,    0.002997
   0.004022,    0.068186
   0.017086,    0.289606
   0.039959,    0.677172
   0.072291,    1.224832
   0.114286,    1.935964
   0.166161,    2.814147
   0.227640,    3.854583
   0.298937,    5.060798
   0.380833,    6.445886
   0.473369,    8.010457
   0.576269,    9.749716
   0.690116,   11.673379
   0.813222,   13.752851
   0.948597,   16.038828
   1.095866,   18.524846
   1.253311,   21.181778
   1.421076,   24.011955
   1.600972,   27.045808
   1.793988,   30.299838
   2.003192,   33.825602
   2.224424,   37.552812
   2.458819,   41.500440
   2.708964,   45.711875
   2.968183,   50.074560
   3.241937,   54.680285
   3.530157,   59.527690
   3.834867,   64.650638
   4.155969,   70.047218
   4.486518,   75.600594
   4.836958,   81.486016
   5.206865,   87.696087
   5.590097,   94.127489
   5.993125,  100.888559
   6.410864,  107.893781
   6.849564,  115.247692
   7.312895,  123.011494
   7.783951,  130.901642
   8.276353,  139.146137
   8.792011,  147.776594
   9.323971,  156.676335
   9.881893,  166.006650
  10.457901,  175.635496
  11.055133,  185.615038
  11.684166,  196.121553
  12.332118,  206.939479
  12.994446,  217.992745
  13.690481,  229.603539
  14.393613,  241.327690
  15.134658,  253.678649
  15.901196,  266.448856
  16.669410,  279.241377
  17.480801,  292.746916
  18.313856,  306.606824
  19.169155,  320.830409
  20.042750,  335.351688
  20.965292,  350.679531
  21.893385,  366.092479
  22.874750,  382.382488
  23.878800,  399.041102
  24.901545,  416.001811
  25.959484,  433.537758
  27.042993,  451.488847
  28.158483,  469.960784
  29.310659,  489.030817
  30.483763,  508.437627
  31.694446,  528.456109
  32.927623,  548.836305
  34.189951,  569.687769
  35.488314,  591.123583
  36.839716,  613.423571
  38.216887,  636.136944
  39.612977,  659.150337
  41.060277,  682.995358
  42.533394,  707.252857
  44.038719,  732.027538
  45.588730,  757.523970
  47.182097,  783.719342
  48.798121,  810.272708
  50.435036,  837.154696
  52.117372,  864.767506
  53.850730,  893.201984
  55.604543,  921.955991
  57.403066,  951.426526
  59.257274,  981.792326
  61.139801, 1012.604313
  63.087475, 1044.464182
  65.055444, 1076.637358
  67.079480, 1109.707830
  69.115362, 1142.952370
  71.205611, 1177.064684
  73.341503, 1211.901239
  75.539697, 1247.732440
  77.750145, 1283.741741
  80.011582, 1320.559504
  82.312258, 1357.993419
  82.405767, 1359.514415
  82.692956, 1364.185524
  82.727655, 1364.749870
  82.734252, 1364.857159
  82.742117, 1364.985080
  82.744420, 1365.022540
  82.744833, 1365.029258
  82.745084, 1365.033332
  82.745381, 1365.038163
  82.748351, 1365.086474
  82.778058, 1365.569628
  82.921661, 1367.905107
  83.385715, 1375.451478
  84.653376, 1396.059974
  86.850419, 1431.756942
  89.030472, 1467.152329
  91.238970, 1502.983957
  93.503030, 1539.690591
  95.777493, 1576.539276
  98.101711, 1614.166808
 100.453901, 1652.219492
 102.845135, 1690.875571
 105.276563, 1730.152588
 107.761189, 1770.259279
 110.271982, 1810.758192
 112.823294, 1851.880006
 115.409178, 1893.527850
 118.038498, 1935.843416
 120.718937, 1978.948993
 123.426528, 2022.458072
 126.165112, 2066.431698
 128.958676, 2111.253792
 131.804217, 2156.874590
 134.683429, 2202.999370
 137.589184, 2249.513217
 140.545432, 2296.798450
 143.537548, 2344.619915
 146.578382, 2393.181788
 149.666597, 2442.461287
 152.799450, 2492.413321
 155.987632, 2543.206837
 159.224660, 2594.736967
 162.475143, 2646.439567
 165.831073, 2699.775956
 169.181171, 2752.976098
 172.550841, 2806.443555
 176.011264, 2861.306070
 179.512838, 2916.775102
 183.076578, 2973.181978
 186.670239, 3030.014939
 190.307768, 3087.493550
 193.970986, 3145.329658
 197.692992, 3204.044611
 201.483731, 3263.793203
 205.296918, 3323.844579
 209.165869, 3384.722289
 213.095725, 3446.505391
 217.090540, 3509.255521
 221.117121, 3572.449830
 225.171816, 3636.030277
 229.305359, 3700.790747
 233.511819, 3766.635680
 237.748176, 3832.890089
 242.017617, 3899.603012
 246.346709, 3967.188214
 250.719958, 4035.402154
 255.148989, 4104.424606
 259.634017, 4174.257131
 264.186619, 4245.077932
 268.767950, 4316.281260
 273.397706, 4388.172148
 278.097563, 4461.085252
 282.829167, 4534.423939
 287.626381, 4608.711578
 292.515913, 4684.358939
 297.426558, 4760.262581
 302.408678, 4837.199508
 307.421084, 4914.532057
 312.505299, 4992.899263
 317.639501, 5071.962705
 322.829911, 5151.816472
 328.067160, 5232.314818
 333.376704, 5313.847019
 338.754066, 5396.341859
 339.842165, 5413.024948
 340.557517, 5423.991212
 341.037220, 5431.344225
 341.413633, 5437.113535
 341.721107, 5441.825940
 341.994455, 5446.015098
 342.206341, 5449.262195
 342.381483, 5451.946112
 342.577049, 5454.942909
 342.753684, 5457.649519
 342.787170, 5458.162622
 342.827219, 5458.776288
 342.872775, 5459.474328
 342.883482, 5459.638394
 342.903883, 5459.950981
 342.909481, 5460.036767
 342.912244, 5460.079095
 342.914132, 5460.108032
 342.915456, 5460.128315
 342.915875, 5460.134735
 342.916277, 5460.140891
 342.920295, 5460.202452
 342.958612, 5460.789571
 343.187931, 5464.303196
 344.152736, 5479.083954
 347.580418, 5531.570178
 352.601234, 5608.379202
 357.541097, 5683.866826
 362.542438, 5760.210713
 367.594497, 5837.244412
 372.652008, 5914.276895
 377.780523, 5992.305308
 382.957507, 6070.984420
 388.178357, 6150.242556
 393.443938, 6230.091239
 398.747040, 6310.419697
 404.108708, 6391.544899
 409.530340, 6473.485644
 414.990673, 6555.918693
 420.493013, 6638.892560
 426.036580, 6722.393998
 431.639931, 6806.700604
 437.273474, 6891.365511
 442.973729, 6976.935733
 448.719477, 7063.090542
 454.507442, 7149.779222
 460.341250, 7237.054483
 466.248530, 7325.327259
 472.223928, 7414.514599
 478.246694, 7504.304441
 484.293194, 7594.343327
 490.411134, 7685.339856
 496.605896, 7777.370911
 502.808500, 7869.410212
 509.052032, 7961.948150
 515.374183, 8055.540940
 521.724540, 8149.440205
 528.145882, 8244.276603
 534.610725, 8339.641934
 541.137778, 8435.810144
 547.727003, 8532.778116
 554.354999, 8630.199563
 561.058558, 8728.612966
 567.763862, 8826.933332
 574.577159, 8926.716428
 581.422327, 9026.844462
 588.327352, 9127.725109
 595.295830, 9229.408373
 602.300796, 9331.498913
 609.345569, 9434.043816
 616.474129, 9537.680730
 623.665485, 9642.101341
 630.888376, 9746.849972
 638.179700, 9852.459849
 645.522314, 9958.680222
 652.914453, 10065.483639
 660.367278, 10173.029202
 667.860561, 10281.023067
 675.433148, 10390.022691
 683.072821, 10499.849019
 690.754410, 10610.138083
 698.500700, 10721.214948
 706.295851, 10832.850217
 714.143610, 10945.095632
 722.059367, 11058.168844
 730.028510, 11171.858665
 738.066551, 11286.383875
 746.154678, 11401.474046
 754.280119, 11516.945894
 762.443188, 11632.802705
 770.705806, 11749.920382
 779.023224, 11867.661257
 787.393502, 11985.995777
 795.815325, 12104.903340
 804.305640, 12224.620808
 806.022372, 12248.808439
 807.202997, 12265.438963
 808.023120, 12276.989587
 808.149209, 12278.765301
 808.280467, 12280.613781
 808.420467, 12282.585316
 808.587412, 12284.936249
 808.597216, 12285.074309
 808.603045, 12285.156386
 808.607386, 12285.217523
 808.610419, 12285.260232
 808.612466, 12285.289053
 808.613340, 12285.301361
 808.614189, 12285.313315
 808.622677, 12285.432848
 808.704785, 12286.589065
 809.357187, 12295.775340
 811.703216, 12328.799226
 819.810043, 12442.797175
 827.334457, 12548.442328
 834.910967, 12654.661337
 842.557417, 12761.701397
 850.223379, 12868.854630
 857.934850, 12976.483251
 865.719611, 13084.972126
 873.534732, 13193.720591
 881.399970, 13303.001913
 889.328360, 13412.994517
 897.281190, 13523.159484
 905.255521, 13633.455504
 913.283822, 13744.330200
 921.393460, 13856.158136
 929.529006, 13968.172494
 937.731304, 14080.933609
 945.971535, 14194.042901
 954.252499, 14307.537197
 962.578873, 14421.478799
 970.958191, 14535.968609
 979.383236, 14650.905796
 987.881142, 14766.657706
 996.423759, 14882.838110
1005.001141, 14999.310134
1013.626067, 15116.245635
1022.304771, 15233.726848
1031.040571, 15351.796093
1039.840418, 15470.544433
1048.669234, 15589.496481
1057.569154, 15709.217713
1066.476551, 15828.850667
1075.451592, 15949.201981
1084.488291, 16070.188259
1093.552959, 16191.356547
1102.681399, 16313.183466
1111.885216, 16435.820464
1121.125904, 16558.751815
1130.419883, 16682.194084
1139.744525, 16805.845034
1149.120669, 16929.979349
1158.542586, 17054.519071
1168.035117, 17179.789821
1177.576303, 17305.499005
1187.161723, 17431.586391
1196.766333, 17557.721522
1206.473632, 17684.998073
1216.202870, 17812.354336
1225.974163, 17940.052577
1235.811752, 18068.407155
1245.714168, 18197.395728
1255.661531, 18326.756818
1265.660655, 18456.576992
1275.701118, 18586.718978
1285.808033, 18717.505865
1295.958289, 18848.636098
1306.148265, 18980.061276
1316.406899, 19112.152207
1326.720548, 19244.730281
1337.067286, 19377.511884
1347.487962, 19511.018843
1357.976180, 19645.165740
1368.493504, 19779.458935
1379.074021, 19914.331750
1389.690370, 20049.433319
1400.366579, 20185.067408
1411.088063, 20321.046419
1421.864560, 20457.491711
1432.692294, 20594.353142
1443.566748, 20731.571550
1454.529401, 20869.667106
1465.539268, 21008.120226
1476.606223, 21147.052835
1487.700385, 21286.088216
1498.844466, 21425.509608
1510.051575, 21565.478490
1521.329194, 21706.085131
1523.598166, 21734.344783
1531.998095, 21838.879173
1532.089017, 21840.009936
1532.122634, 21840.428004
1532.130683, 21840.528107
1532.190685, 21841.274318
1532.244799, 21841.947291
1532.601341, 21846.381214
1534.651832, 21871.876135
1544.162182, 21990.018525
1555.480442, 22130.394731
1566.884955, 22271.594504
1578.358135, 22413.396217
1589.883108, 22555.588552
1601.492564, 22698.571553
1613.129159, 22841.636478
1624.807581, 22984.962818
1636.585783, 23129.258400
1648.388965, 23273.603919
1660.243261, 23418.317680
1672.173872, 23563.704366
1684.189468, 23709.865539
1696.209478, 23855.819392
1708.314081, 24002.537803
1720.477579, 24149.705780
1732.684347, 24297.132160
1744.926515, 24444.720529
1757.263064, 24593.178907
1769.649379, 24741.966915
1782.079741, 24891.014007
1794.595331, 25040.810954
1807.141097, 25190.696331
1819.717357, 25340.673157
1832.363926, 25491.214198
1845.075631, 25642.254681
1857.837608, 25793.615472
1870.683721, 25945.695055
1883.559287, 26097.843606
1896.505348, 26250.544094
1909.491056, 26403.430327
1922.559995, 26557.012684
1935.659837, 26710.673758
1948.808832, 26864.626268
1962.032904, 27019.170966
1975.306977, 27174.011982
1988.657637, 27329.456580
2002.048622, 27485.080029
2015.514790, 27641.284951
2029.028570, 27797.748806
2042.627444, 27954.902520
2056.282554, 28112.409286
2069.976007, 28270.060944
2083.723419, 28428.035561
2097.532939, 28586.424297
2111.391246, 28745.072075
2120.113003, 28844.763634
2125.313255, 28904.147273
2139.277297, 29283.212772
2153.320389, 30034.596920
2167.444008, 30789.264832
2181.642845, 31547.171602
2195.915352, 32308.011461
2210.251061, 33071.553625
2224.629972, 33837.075696
2239.104378, 34604.386551
2253.636522, 35375.064459
2268.218458, 36147.430672
2282.862103, 36921.293691
2297.590502, 37697.404536
2312.335430, 38475.654176
2327.155452, 39254.134463
2342.028521, 40034.800409
2356.948742, 40816.672202
2371.964198, 41600.137542
2386.992614, 42385.792339
2402.086826, 43171.248783
2417.218572, 43958.054174
2432.366594, 44744.760890
2447.577389, 45531.239350
2462.813725, 46318.606865
2478.084663, 47105.604347
2493.453984, 47893.538588
2508.822042, 48683.043390
2524.238058, 49471.287290
2525.285631, 50027.417900
2526.334183, 50080.413054
2527.383587, 50133.438473
2528.433296, 50186.480838
2529.480426, 50239.475105
2530.530991, 50292.417433
2531.583140, 50345.485984
2532.632310, 50398.543810
2533.683264, 50451.509227
2534.738348, 50504.584010
2535.793405, 50557.782455
2536.846476, 50610.929786
2537.902700, 50664.040368
2538.961062, 50717.274904
2540.018283, 50770.545889
2541.075472, 50823.758014
2542.136746, 50877.015006
2543.195777, 50930.357210
2544.257941, 50983.652840
2545.321560, 51037.059566
2546.386235, 51090.513154
2547.447885, 51143.934717
2548.514251, 51197.307618
2549.582052, 51250.844701
2550.649109, 51304.398560
2551.718141, 51357.937758
2552.785077, 51411.490221
2553.852881, 51464.963544
2554.922636, 51518.476239
2555.995043, 51572.076241
2557.069687, 51625.780600
2558.142735, 51679.513896
2559.218824, 51733.219014
2560.291827, 51786.956370
2561.368795, 51840.629255
2562.448044, 51894.450845
2563.526802, 51948.319449
2564.608334, 52002.192428
2565.688066, 52056.107938
2566.767210, 52109.929618
2567.851519, 52163.789963
2568.933728, 52217.768679
2570.019090, 52271.702339
2571.108138, 52325.777481
2572.197572, 52379.959382
2573.286935, 52434.128760
2574.377794, 52488.294812
2575.469788, 52542.504687
2576.553327, 52596.593994
2577.645570, 52650.510383
2578.736988, 52704.682729
2579.832148, 52758.861022
2580.930689, 52813.193512
2582.026148, 52867.565421
2583.127261, 52921.896708
2584.225346, 52976.344459
2585.327910, 53030.734486
2586.427241, 53085.197655
2587.531813, 53139.607977
2588.636439, 53194.168397
2589.740935, 53248.701360
2590.849259, 53303.262904
2591.957221, 53357.919643
2593.067576, 53412.574067
2594.179965, 53467.312745
2595.295665, 53522.143397
2596.412199, 53577.069538
2597.531905, 53632.044619
2598.649716, 53687.067045
2599.770069, 53742.036722
2599.994496, 53782.998423
2600.121532, 53792.487218
2600.188549, 53797.780919
2600.198926, 53800.181163
2600.211012, 53800.717376
2600.215179, 53801.186287
2600.217566, 53801.362845
2600.222485, 53801.519780
2600.226937, 53801.753915
2600.263957, 53802.483849
2600.402227, 53805.890726
2600.755788, 53816.057164
2601.603498, 53841.163001
2602.717652, 53886.934922
2603.837173, 53941.662326
2604.957201, 53996.547117
2606.082916, 54051.507865
2607.211244, 54106.668797
2608.334185, 54124.224636
2609.464019, 54141.870351
2610.595294, 54159.520560
2611.730748, 54177.217818
2612.863905, 54194.861113
2613.998843, 54212.513943
2615.129035, 54230.074811
2616.269699, 54247.779999
2617.412232, 54265.495658
2618.549591, 54283.112628
2619.688200, 54300.730497
2620.827249, 54318.336623
2621.972445, 54336.019072
2623.117932, 54353.687201
2624.264181, 54371.348236
2625.415566, 54389.069400
2626.562562, 54406.704030
2627.712683, 54424.367661
2628.866072, 54442.062305
2630.021651, 54459.771252
2631.174396, 54477.417511
2632.325939, 54495.026104
2633.483048, 54512.700407
2634.641239, 54530.371725
2635.804385, 54548.098983
2636.962668, 54565.732496
2638.124937, 54583.406982
2639.288618, 54601.083114
2640.453638, 54618.759721
2641.621574, 54636.460542
2642.791155, 54654.166216
2643.961320, 54671.860557
2645.131686, 54689.537743
2646.304656, 54707.233953
2647.482409, 54724.981837
2648.661739, 54742.732917
2649.839587, 54760.441070
2651.018711, 54778.147774
2652.199914, 54795.864940
2653.375693, 54813.480116
2654.557986, 54831.172068
2655.745500, 54848.921115
2656.934831, 54866.676173
2658.126603, 54884.446395
2659.319248, 54902.208287
2660.509036, 54919.906336
2661.705193, 54937.677626
2662.898034, 54955.378177
2664.094169, 54973.106025
2665.294743, 54990.877919
2666.493368, 55008.599190
2667.691648, 55026.293585
2668.892554, 55044.004872
2670.103076, 55061.835793
2671.312747, 55079.631883
2672.523925, 55097.427783
2673.740064, 55115.274040
2674.953534, 55133.058576
2676.174577, 55150.931350
2677.390526, 55168.706840
2678.613121, 55186.556590
2679.839464, 55204.437960
2681.065484, 55222.291467
2682.289145, 55240.087523
2683.517305, 55257.925746
2684.748820, 55275.789276
2685.977053, 55293.581800
2687.203537, 55311.325639
2688.433925, 55329.102499
2689.677989, 55347.053008
2690.913377, 55364.854488
2692.142586, 55382.543310
2693.380670, 55400.335996
2694.626928, 55418.221947
2695.871589, 55436.060711
2697.117745, 55453.896573
2698.366991, 55471.752183
2699.620350, 55489.641922
2700.878620, 55507.576888
2702.135600, 55525.468549
2703.398017, 55543.412504
2704.205473, 55554.876443
2704.655830, 55561.265969
2705.925165, 55579.257584
2707.181559, 55597.040628
2708.451175, 55614.985367
2709.722280, 55632.925510
2710.996858, 55650.888836
2712.259627, 55668.660221
2713.533058, 55686.555893
2714.811387, 55704.494346
2716.095480, 55722.487360
2717.380342, 55740.464721
2718.663757, 55758.395411
2719.951666, 55776.362297
2721.244225, 55794.367240
2722.538243, 55812.365561
2723.829847, 55830.303390
2725.128404, 55848.310624
2726.425770, 55866.274136
2727.726277, 55884.253811
2729.036283, 55902.337083
2730.338330, 55920.282922
2731.649086, 55938.320951
2732.955907, 55956.277027
2734.269342, 55974.295945
2735.585561, 55992.324839
2736.904063, 56010.356636
2738.229730, 56028.457772
2739.551157, 56046.472383
2740.880139, 56064.561120
2742.207017, 56082.592300
2743.531593, 56100.563339
2744.864001, 56118.611515
2746.202574, 56136.713761
2747.543343, 56154.816073
2748.883814, 56172.884684
2750.223749, 56190.916381
2751.569084, 56208.990825
2752.923696, 56227.159608
2754.276678, 56245.276124
2755.622447, 56263.265882
2756.978939, 56281.368485
2758.339376, 56299.492953
2759.695474, 56317.528892
2761.056572, 56335.600448
2762.428886, 56353.789560
2763.798716, 56371.914320
2765.171030, 56390.040402
2766.551404, 56408.241064
2767.932373, 56426.417537
2769.312503, 56444.550925
2770.700262, 56462.752196
2772.086337, 56480.898960
2773.479871, 56499.110688
2774.869407, 56517.237495
2776.252491, 56535.247672
2777.650023, 56553.413077
2779.041316, 56571.464465
2780.445896, 56589.654915
2781.851968, 56607.831078
2783.256224, 56625.950184
2784.672375, 56644.188730
2786.079837, 56662.281462
2787.490967, 56680.387369
2788.908539, 56698.541651
2790.336161, 56716.789854
2791.760131, 56734.956577
2793.187207, 56753.127997
2794.616369, 56771.290919
2796.050425, 56789.480713
2797.487564, 56807.674081
2798.926032, 56825.848615
2800.369576, 56844.051367
2801.807181, 56862.143436
2803.252221, 56880.293037
2804.702516, 56898.472273
2806.150944, 56916.591707
2807.602288, 56934.711075
2809.071481, 56953.015990
2810.526921, 56971.112526
2811.984838, 56989.202858
2813.443173, 57007.261296
2814.904571, 57025.320411
2816.379705, 57043.511406
2817.853309, 57061.645522
2819.333215, 57079.818896
2820.804862, 57097.852764
2822.279728, 57115.887933
2823.760691, 57133.959189
2825.258318, 57152.194528
2826.747147, 57170.283597
2828.248394, 57188.483944
2829.750881, 57206.659495
2831.255196, 57224.817192
2832.759085, 57242.929734
2834.264081, 57261.015499
2835.774269, 57279.123287
2837.291167, 57297.270777
2838.803939, 57315.328179
2840.323995, 57333.431529
2841.839784, 57351.443097
2843.369800, 57369.582171
2844.904894, 57387.739473
2846.445434, 57405.918860
2847.977023, 57423.950543
2849.512676, 57441.987914
2851.059912, 57460.118600
2852.607250, 57478.207519
2854.154291, 57496.249985
2855.699256, 57514.225296
2857.259914, 57532.339577
2858.822930, 57550.437239
2860.387141, 57568.504640
2861.946589, 57586.473057
2863.520041, 57604.558276
2865.095381, 57622.620340
2866.669769, 57640.626578
2868.249571, 57658.649576
2869.833921, 57676.678975
2871.418387, 57694.664092
2873.005830, 57712.637222
2874.600153, 57730.642072
2876.195161, 57748.608318
2877.793018, 57766.560137
2879.391198, 57784.468958
2880.989469, 57802.332112
2882.604122, 57820.330901
2884.212883, 57838.216545
2885.829786, 57856.144892
2887.442246, 57873.976214
2889.061575, 57891.835435
2890.679359, 57909.629481
2892.319618, 57927.621558
2893.945942, 57945.411846
2895.585404, 57963.296492
2897.219644, 57981.074796
2898.861095, 57998.881876
2900.499159, 58016.602550
2902.142185, 58034.327005
2903.789182, 58052.044110
2905.447746, 58069.834788
2907.111004, 58087.624548
2908.768182, 58105.298157
2910.416803, 58122.829818
2912.070910, 58140.368975
2913.741310, 58158.029150
2915.415705, 58175.679336
2917.090824, 58193.284779
2918.774951, 58210.932041
2920.457630, 58228.511145
2922.127879, 58245.907985
2923.820051, 58263.479848
2925.505851, 58280.932153
2927.202207, 58298.439883
2928.885292, 58315.757207
2930.591034, 58333.253303
2932.306797, 58350.796930
2934.020392, 58368.263039
2935.738371, 58385.718243
2937.451746, 58403.071188
2939.178469, 58420.503210
2940.902377, 58437.850579
2942.616028, 58455.038987
2944.346111, 58472.335796
2946.095211, 58489.765034
2947.830983, 58507.004090
2949.574538, 58524.262827
2951.305706, 58541.341788
2953.045589, 58558.449275
2954.804501, 58575.685277
2956.554928, 58592.779605
2958.304471, 58609.806900
2960.055856, 58626.793604
2961.818280, 58643.828213
2963.590956, 58660.901998
2965.362384, 58677.903689
2967.142989, 58694.932875
2968.915430, 58711.823628
2970.698136, 58728.751404
2972.460469, 58745.425746
2974.252409, 58762.319018
2976.031800, 58779.032867
2977.812637, 58795.699281
2979.605835, 58812.419639
2981.419609, 58829.268794
2983.218953, 58845.921167
2985.011792, 58862.451163
2986.816681, 58879.029502
2988.615784, 58895.491995
2990.433606, 58912.062133
2992.235484, 58928.423755
2994.056913, 58944.898931
2995.870210, 58961.236615
2997.692538, 58977.591339
2999.499808, 58993.747194
3001.331298, 59010.054745
3003.160598, 59026.277634
3004.995391, 59042.483764
3006.855532, 59058.846807
3008.694905, 59074.960777
3010.533449, 59091.001491
3012.380985, 59107.054135
3014.232609, 59123.075334
3016.084728, 59139.033717
3017.928163, 59154.850576
3019.783527, 59170.702560
3021.652529, 59186.602822
3023.497389, 59202.230485
3025.371875, 59218.040646
3027.257720, 59233.876945
3029.149186, 59249.690197
3031.024863, 59265.301925
3032.916428, 59280.975738
3034.826143, 59296.728405
3036.696151, 59312.083860
3038.586186, 59327.533645
3040.483931, 59342.975478
3042.382740, 59358.354750
3044.285832, 59373.697171
3046.193757, 59389.006615
3048.092723, 59404.172600
3050.000272, 59419.335198
3051.894669, 59434.321858
3053.812381, 59449.420442
3055.723848, 59464.397206
3057.638660, 59479.327393
3059.562192, 59494.252199
3061.480588, 59509.063849
3063.399268, 59523.804421
3065.328480, 59538.551983
3067.263781, 59553.271567
3069.195198, 59567.887145
3071.138510, 59582.517609
3073.075977, 59597.029004
3075.016664, 59611.489336
3076.970094, 59625.968583
3078.909460, 59640.268074
3080.856548, 59654.548776
3082.803299, 59668.751102
3084.752645, 59682.896260
3086.721391, 59697.104865
3088.665968, 59711.062697
3090.635874, 59725.124946
3092.579897, 59738.926015
3094.562297, 59752.921313
3096.537230, 59766.785319
3098.499737, 59780.484364
3100.488338, 59794.286469
3102.463624, 59807.917301
3104.466661, 59821.659337
3106.460389, 59835.257171
3108.462309, 59848.830184
3110.458290, 59862.282398
3112.451201, 59875.633638
3114.443688, 59888.901802
3116.446033, 59902.154751
3118.442365, 59915.287164
3120.444485, 59928.376638
3122.462651, 59941.488871
3124.474565, 59954.478351
3126.487371, 59967.391486
3128.496795, 59980.200964
3130.505201, 59992.922089
3132.529039, 60005.658133
3134.564670, 60018.384470
3136.575480, 60030.872970
3138.572543, 60043.194731
3140.585755, 60055.534026
3142.633350, 60067.999465
3144.646218, 60080.170294
3146.709043, 60092.557572
3148.747922, 60104.715854
3150.762464, 60116.645779
3152.788695, 60128.561434
3154.815078, 60140.394202
3156.855332, 60152.223294
3158.893408, 60163.954881
3160.933708, 60175.614275
3162.969020, 60187.160396
3165.003838, 60198.619045
3167.054822, 60210.083025
3169.118514, 60221.531150
3171.173253, 60232.842995
3173.213757, 60243.990897
3175.266022, 60255.117017
3177.337129, 60266.257762
3179.415998, 60277.351821
3181.489395, 60288.328377
3183.548043, 60299.139583
3185.622428, 60309.945435
3187.695009, 60320.653644
3189.772779, 60331.300093
3191.844695, 60341.828205
3193.937536, 60352.373055
3196.012404, 60362.738435
3198.105424, 60373.104775
3200.206484, 60383.420266
3202.293102, 60393.574918
3204.387195, 60403.675806
3206.488871, 60413.722453
3208.591566, 60423.682892
3210.685280, 60433.510237
3212.772015, 60443.214894
3214.900783, 60453.022495
3217.030202, 60462.739561
3219.133829, 60472.247048
3221.262960, 60481.776782
3223.381062, 60491.164274
3225.269102, 60499.454010
