Ground Distance, Angular Velocity
   0.000000,    0.000000
   0.000002,    0.000000
   0.000026,    0.000000
   0.000279,    0.000000
   0.001780,    0.000000
   0.009956,    0.000000
   0.028232,    0.000000
   0.055863,    0.000000
   0.093070,    0.000000
   0.139583,    0.000000
   0.195946,    0.000000
   0.262367,    0.000000
   0.338265,    0.000000
   0.424840,    0.000000
   0.521081,    0.000000
   0.626951,    0.000000
   0.743696,    0.000000
   0.872046,    0.000000
   1.010273,    0.000000
   1.159360,    0.000000
   1.320352,    0.000000
   1.494548,    0.000000
   1.681278,    0.000000
   1.880630,    0.000000
   2.092759,    0.000000
   2.317004,    0.000000
   2.553808,    0.000000
   2.805410,    0.000000
   3.068534,    0.000000
   3.346559,    0.000000
   3.639749,    0.000000
   3.948656,    0.000000
   4.275586,    0.000000
   4.616759,    0.000000
   4.969417,    0.000000
   5.337942,    0.000000
   5.727362,    0.000000
   6.136880,    0.000000
   6.564417,    0.000000
   7.000551,    0.000000
   7.459632,    0.000000
   7.941305,    0.000000
   8.437214,    0.000000
   8.962907,    0.000000
   9.499779,    0.000000
  10.058468,    0.000000
  10.630379,    0.000000
  11.225396,    0.000000
  11.843167,    0.000000
  12.487102,    0.000000
  13.152793,    0.000000
  13.840708,    0.000000
  14.554475,    0.000000
  15.291631,    0.000000
  16.053004,    0.000000
  16.828933,    0.000000
  17.633349,    0.000000
  18.464215,    0.000000
  19.326140,    0.000000
  20.212344,    0.000000
  21.124584,    0.000000
  22.063274,    0.000000
  23.038611,    0.000000
  24.030965,    0.000000
  25.054101,    0.000000
  26.107998,    0.000000
  27.188251,    0.000000
  28.286361,    0.000000
  29.428402,    0.000000
  30.597124,    0.000000
  31.815965,    0.000000
  33.046647,    0.000000
  34.309839,    0.000000
  35.598210,    0.000000
  36.925962,    0.000000
  38.285270,    0.000000
  39.682033,    0.000000
  41.111151,    0.000000
  42.572960,    0.000000
  44.090519,    0.000000
  45.627115,    0.000000
  47.211981,    0.000000
  48.819191,    0.000000
  50.461126,    0.000000
  52.135667,    0.000000
  53.850480,    0.000000
  55.582264,    0.000000
  57.391442,    0.000000
  59.218548,    0.000000
  61.097013,    0.000000
  63.007112,    0.000000
  64.973257,    0.000000
  66.974261,    0.000000
  69.001214,    0.000000
  71.066314,    0.000000
  73.172440,    0.000000
  75.323309,    0.000000
  77.520898,    0.000000
  79.760182,    0.000000
  82.058542,    0.000000
  82.519490,    0.000000
  82.821635,    0.000000
  82.998740,    0.000000
  83.107386,    0.000000
  83.123763,    0.000000
  83.142080,    0.000000
  83.145546,    0.000000
  83.151557,    0.000000
  83.153271,    0.000000
  83.156305,    0.000000
  83.157431,    0.000000
  83.158484,    0.000000
  83.167988,    0.000000
  83.245735,    0.000000
  83.573222,    0.000000
  84.501337,    0.000000
  86.402007,    0.000000
  88.531454,    0.000000
  90.708608,    0.000000
  92.916421,    0.000000
  95.190543,    0.000000
  97.492225,    0.000000
  99.833114,    0.000000
 102.198156,    0.000000
 104.597768,    0.000000
 107.045224,    0.000000
 109.521413,    0.000000
 112.055099,    0.000000
 114.626661,    0.000000
 117.228037,    0.000000
 119.878610,    0.000000
 122.559461,    0.000000
 125.256142,    0.000000
 128.014795,    0.000000
 130.816008,    0.000000
 133.660580,    0.000000
 136.555296,    0.000000
 139.465627,    0.000000
 142.439337,    0.000000
 145.451127,    0.000000
 148.505543,    0.000000
 151.614857,    0.000000
 154.742815,    0.000000
 157.933565,    0.000000
 161.148286,    0.000000
 164.420111,    0.000000
 167.731217,    0.000000
 171.091389,    0.000000
 174.485801,    0.000000
 177.949586,    0.000000
 181.441529,    0.000000
 184.981472,    0.000000
 188.573389,    0.000000
 192.173500,    0.000000
 195.848947,    0.000000
 199.597788,    0.000000
 203.374009,    0.000000
 207.204957,    0.000000
 211.086157,    0.000000
 215.000525,    0.000000
 218.969206,    0.000000
 223.000382,    0.000000
 227.086816,    0.000000
 231.226737,    0.000000
 235.417772,    0.000000
 239.640777,    0.000000
 243.902726,    0.000000
 248.252474,    0.000000
 252.635887,    0.000000
 257.029673,    0.000000
 261.515368,    0.000000
 266.074585,    0.000000
 270.666108,    0.000000
 275.292708,    0.000000
 279.997772,    0.000000
 284.737357,    0.000000
 289.536691,    0.000000
 294.406352,    0.000000
 299.288273,    0.000000
 304.256967,    0.000000
 309.245707,    0.000000
 314.340590,    0.000000
 319.446765,    0.000000
 324.626996,    0.000000
 329.889655,    0.000000
 335.161470,    0.000000
 340.510653,    0.000000
 341.593815,    0.000000
 342.426121,    0.000000
 343.039939,    0.000000
 343.457212,    0.000000
 343.769402,    0.000000
 344.009643,    0.000000
 344.247310,    0.000000
 344.443360,    0.000000
 344.594513,    0.000000
 344.621031,    0.000000
 344.650906,    0.000000
 344.697295,    0.000000
 344.700354,    0.000000
 344.702580,    0.000000
 344.703931,    0.000000
 344.704897,    0.000000
 344.705513,    0.000000
 344.706121,    0.000000
 344.712205,    0.000000
 344.765687,    0.000000
 345.037462,    0.000000
 346.053085,    0.000000
 349.509377,    0.000000
 354.341222,    0.000000
 359.298084,    0.000000
 364.256663,    0.000000
 369.258129,    0.000000
 374.297528,    0.000000
 379.403519,    0.000000
 384.530672,    0.000000
 389.731318,    0.000000
 394.972929,    0.000000
 400.262120,    0.000000
 405.585189,    0.000000
 410.959610,    0.000000
 416.404641,    0.000000
 421.913318,    0.000000
 427.456483,    0.000000
 433.029042,    0.000000
 438.652643,    0.000000
 444.323271,    0.000000
 450.060305,    0.000000
 455.825095,    0.000000
 461.660468,    0.000000
 467.526362,    0.000000
 473.447963,    0.000000
 479.417871,    0.000000
 485.442922,    0.000000
 491.529972,    0.000000
 497.645811,    0.000000
 503.841262,    0.000000
 510.047268,    0.000000
 516.302770,    0.000000
 522.625141,    0.000000
 529.004313,    0.000000
 535.448139,    0.000000
 541.899915,    0.000000
 548.436932,    0.000000
 555.029611,    0.000000
 561.673836,    0.000000
 568.379571,    0.000000
 575.152323,    0.000000
 581.968558,    0.000000
 588.829393,    0.000000
 595.732654,    0.000000
 602.692500,    0.000000
 609.735840,    0.000000
 616.813045,    0.000000
 623.945081,    0.000000
 631.139556,    0.000000
 638.371403,    0.000000
 645.685603,    0.000000
 653.012593,    0.000000
 660.430143,    0.000000
 667.892073,    0.000000
 675.395593,    0.000000
 682.998257,    0.000000
 690.658967,    0.000000
 698.364533,    0.000000
 706.129310,    0.000000
 713.946688,    0.000000
 721.816065,    0.000000
 729.729551,    0.000000
 737.689198,    0.000000
 745.736729,    0.000000
 753.815542,    0.000000
 761.935926,    0.000000
 770.125281,    0.000000
 778.374270,    0.000000
 786.680120,    0.000000
 795.040785,    0.000000
 803.441164,    0.000000
 811.917185,    0.000000
 812.259096,    0.000000
 812.542937,    0.000000
 812.808691,    0.000000
 813.068171,    0.000000
 813.127755,    0.000000
 813.141969,    0.000000
 813.170170,    0.000000
 813.177691,    0.000000
 813.179309,    0.000000
 813.180305,    0.000000
 813.181333,    0.000000
 813.191618,    0.000000
 813.290256,    0.000000
 813.819556,    0.000000
 816.053410,    0.000000
 821.912851,    0.000000
 829.483908,    0.000000
 837.020858,    0.000000
 844.616010,    0.000000
 852.254377,    0.000000
 859.959811,    0.000000
 867.694800,    0.000000
 875.463457,    0.000000
 883.260426,    0.000000
 891.142348,    0.000000
 899.047254,    0.000000
 907.004377,    0.000000
 915.025500,    0.000000
 923.105667,    0.000000
 931.216103,    0.000000
 939.364407,    0.000000
 947.559788,    0.000000
 955.816290,    0.000000
 964.111110,    0.000000
 972.447419,    0.000000
 980.836626,    0.000000
 989.267467,    0.000000
 997.778917,    0.000000
1006.321048,    0.000000
1014.925936,    0.000000
1023.557874,    0.000000
1032.232734,    0.000000
1040.978055,    0.000000
1049.751626,    0.000000
1058.584135,    0.000000
1067.460100,    0.000000
1076.386310,    0.000000
1085.361282,    0.000000
1094.370094,    0.000000
1103.442856,    0.000000
1112.552796,    0.000000
1121.727417,    0.000000
1130.962792,    0.000000
1140.227802,    0.000000
1149.555198,    0.000000
1158.930549,    0.000000
1168.378717,    0.000000
1177.841418,    0.000000
1187.362268,    0.000000
1196.945624,    0.000000
1206.564155,    0.000000
1216.234979,    0.000000
1225.973925,    0.000000
1235.747272,    0.000000
1245.570996,    0.000000
1255.453953,    0.000000
1265.390069,    0.000000
1275.380238,    0.000000
1285.441362,    0.000000
1295.525647,    0.000000
1305.674630,    0.000000
1315.865092,    0.000000
1326.098365,    0.000000
1336.392742,    0.000000
1346.735103,    0.000000
1357.170537,    0.000000
1367.623046,    0.000000
1378.139767,    0.000000
1388.718010,    0.000000
1399.358609,    0.000000
1410.039205,    0.000000
1420.781619,    0.000000
1431.543057,    0.000000
1442.375572,    0.000000
1453.275958,    0.000000
1464.222227,    0.000000
1475.202724,    0.000000
1486.252507,    0.000000
1497.360739,    0.000000
1508.501596,    0.000000
1519.681370,    0.000000
1530.942372,    0.000000
1533.202801,    0.000000
1541.821884,    0.000000
1541.845245,    0.000000
1541.861912,    0.000000
1541.871492,    0.000000
1541.883604,    0.000000
1542.004729,    0.000000
1542.835950,    0.000000
1547.248557,    0.000000
1557.450202,    0.000000
1568.872258,    0.000000
1580.311964,    0.000000
1591.781704,    0.000000
1603.328580,    0.000000
1614.879594,    0.000000
1626.514013,    0.000000
1638.199224,    0.000000
1649.937640,    0.000000
1661.709559,    0.000000
1673.573235,    0.000000
1685.465814,    0.000000
1697.418511,    0.000000
1709.419416,    0.000000
1721.473520,    0.000000
1733.606903,    0.000000
1745.792761,    0.000000
1758.011129,    0.000000
1770.312960,    0.000000
1782.697376,    0.000000
1795.119115,    0.000000
1807.570691,    0.000000
1820.069502,    0.000000
1832.625141,    0.000000
1845.273172,    0.000000
1857.971449,    0.000000
1870.707953,    0.000000
1883.484812,    0.000000
1896.348175,    0.000000
1909.254218,    0.000000
1922.225286,    0.000000
1935.234496,    0.000000
1948.320921,    0.000000
1961.459854,    0.000000
1974.670521,    0.000000
1987.901125,    0.000000
2001.212372,    0.000000
2014.596507,    0.000000
2028.000601,    0.000000
2041.461772,    0.000000
2054.992137,    0.000000
2068.600753,    0.000000
2082.244900,    0.000000
2095.920126,    0.000000
2109.651901,    0.000000
2123.464666,    0.000000
2137.327812,    0.000000
2151.273345,    0.000000
2165.277838,    0.000000
2179.337221,    0.000000
2193.455849,    0.000000
2207.595553,    0.000000
2221.797810,    0.000000
2236.093985,    0.000000
2242.322665,    0.000000
2250.401488,    0.000000
2264.815747,    0.000000
2279.277764,    0.000000
2293.813955,    0.000000
2308.399408,    0.000000
2323.088451,    0.000000
2337.796558,    0.000000
2352.589046,    0.000000
2367.439682,    0.000000
2382.344216,    0.000000
2397.334902,    0.000000
2412.343573,    0.000000
2427.438264,    0.000000
2442.539828,    0.000000
2457.759663,    0.000000
2473.024827,    0.000000
2488.327620,    0.000000
2503.665914,    0.000000
2519.063953,    0.000000
2534.488655,    0.000000
2549.987083,    0.000000
2565.513359,    0.000000
2581.076188,    0.000000
2596.678425,    0.000000
2612.307917,    0.000000
2615.435515,    0.000000
2616.089701,    0.000000
2616.754471,    0.000000
2616.767998,    0.000000
2616.779885,    0.000000
2616.782708,    0.000000
2616.785379,    0.000000
2616.812082,    0.000000
2617.062875,    0.000000
2618.718616,    0.000000
2626.393374,    0.000000
2642.704475,    0.000000
2659.084821,    0.000000
2675.490851,    0.452618
2676.582985,    0.570506
2677.674194,    0.581125
2678.768038,    0.591738
2679.859704,    0.602356
2680.947885,    0.612941
2682.043627,    0.623516
2683.135900,    0.634125
2684.234547,    0.644721
2685.333930,    0.655354
2686.429675,    0.665975
2687.530618,    0.676578
2688.631750,    0.687209
2689.734023,    0.697836
2690.832655,    0.708454
2691.933472,    0.719045
2693.039463,    0.729657
2694.144857,    0.740295
2695.247608,    0.750914
2696.351020,    0.761508
2697.457818,    0.772108
2698.567130,    0.782731
2699.677749,    0.793366
2700.785765,    0.803995
2701.896376,    0.814605
2703.008216,    0.825228
2704.118614,    0.835847
2705.230487,    0.846453
2706.346564,    0.857071
2707.462941,    0.867711
2708.582005,    0.878353
2709.703534,    0.889010
2710.823084,    0.899671
2711.941094,    0.910306
2713.064054,    0.920936
2714.190612,    0.931600
2715.308298,    0.942256
2716.430535,    0.952856
2717.555847,    0.963487
2718.686290,    0.974144
2719.816310,    0.984826
2720.947103,    0.995499
2722.081681,    1.006179
2723.216999,    1.016877
2724.350323,    1.027566
2725.483336,    1.038232
2726.619721,    1.048897
2727.757821,    1.059580
2728.901007,    1.070280
2730.041259,    1.080997
2731.178751,    1.091678
2732.321372,    1.102345
2733.469635,    1.113054
2734.619688,    1.123795
2735.761553,    1.134518
2736.909632,    1.145193
2738.060014,    1.155908
2739.212270,    1.166633
2740.368441,    1.177373
2741.526098,    1.188133
2742.683626,    1.198893
2743.840233,    1.209641
2744.994946,    1.220369
2746.152200,    1.231082
2747.313779,    1.241813
2748.476222,    1.252567
2749.639876,    1.255636
2750.801271,    1.258696
2751.966205,    1.261761
2753.134094,    1.264830
2754.300972,    1.267893
2755.468712,    1.270954
2756.644688,    1.274033
2757.811119,    1.277083
2758.986430,    1.280152
2760.163445,    1.283221
2761.343264,    1.286294
2762.521333,    1.289359
2763.706038,    1.292437
2764.889563,    1.295508
2766.067310,    1.298559
2767.248013,    1.301615
2768.432908,    1.304677
2769.618887,    1.307739
2770.806411,    1.310800
2772.000373,    1.313873
2773.192540,    1.316939
2774.384006,    1.319998
2775.577908,    1.323059
2776.771609,    1.326116
2777.970663,    1.329183
2779.169368,    1.332244
2780.367680,    1.335301
2781.568429,    1.338359
2782.764614,    1.341402
2783.968367,    1.344460
2785.171805,    1.347513
2786.380475,    1.350575
2787.590632,    1.353637
2788.798109,    1.356688
2790.009338,    1.359744
2791.222316,    1.362801
2792.435311,    1.365853
2793.650223,    1.368906
2794.864392,    1.371953
2796.080555,    1.375000
2797.303005,    1.378060
2798.525660,    1.381115
2799.751918,    1.384175
2800.975772,    1.387225
2802.197561,    1.390266
2803.428323,    1.393324
2804.657523,    1.396374
2805.881930,    1.399409
2807.119926,    1.402472
2808.357958,    1.405531
2809.597916,    1.408591
2810.841289,    1.411654
2812.083878,    1.414712
2813.323635,    1.417758
2814.563973,    1.420801
2815.812208,    1.423859
2817.058819,    1.426908
2818.305455,    1.429953
2819.550460,    1.432990
2820.803049,    1.436041
2822.062224,    1.439103
2823.318804,    1.442155
2824.577749,    1.445208
2825.841078,    1.448267
2827.104362,    1.451321
2828.370866,    1.454378
2829.633142,    1.457421
2830.899487,    1.460469
2832.165598,    1.463512
2833.426000,    1.466536
2834.696312,    1.469580
2835.974286,    1.472638
2837.249915,    1.475685
2838.530658,    1.478740
2839.817860,    1.481805
2841.103217,    1.484861
2842.388886,    1.487914
2843.676265,    1.490966
2844.970690,    1.494029
2846.262257,    1.497082
2847.231627,    1.499376
2847.553446,    1.500128
2848.842486,    1.503165
2850.142594,    1.506223
2851.453215,    1.509301
2852.754582,    1.512352
2854.064772,    1.515419
2855.375816,    1.518483
2856.686175,    1.521541
2858.005098,    1.524614
2859.315997,    1.527663
2860.626965,    1.530708
2861.943005,    1.533759
2863.263295,    1.536815
2864.588138,    1.539877
2865.910061,    1.542927
2867.238534,    1.545987
2868.569581,    1.549048
2869.900393,    1.552104
2871.234813,    1.555162
2872.570866,    1.558220
2873.913097,    1.561286
2875.257956,    1.564353
2876.604669,    1.567419
2877.957920,    1.570495
2879.315587,    1.573576
2880.664259,    1.576631
2882.026879,    1.579713
2883.383090,    1.582775
2884.750256,    1.585856
2886.108936,    1.588913
2887.476757,    1.591985
2888.848690,    1.595061
2890.215681,    1.598121
2891.580152,    1.601169
2892.958870,    1.604244
2894.339774,    1.607319
2895.721695,    1.610390
2897.102506,    1.613454
2898.492992,    1.616533
2899.874278,    1.619587
2901.259240,    1.622643
2902.653115,    1.625714
2904.056404,    1.628800
2905.450334,    1.631859
2906.856619,    1.634940
2908.259475,    1.638008
2909.666180,    1.641079
2911.075008,    1.644149
2912.483127,    1.647212
2913.895181,    1.650277
2915.311963,    1.653347
2916.736003,    1.656427
2918.161325,    1.659505
2919.581026,    1.662564
2921.019352,    1.665657
2922.444084,    1.668716
2923.881624,    1.671796
2925.318067,    1.674868
2926.755026,    1.677935
2928.197225,    1.681008
2929.649058,    1.684095
2931.094848,    1.687163
2932.546872,    1.690239
2933.997638,    1.693306
2935.451518,    1.696373
2936.908934,    1.699442
2938.367818,    1.702509
2939.834653,    1.705585
2941.302397,    1.708658
2942.776679,    1.711738
2944.237713,    1.714784
2945.716476,    1.717861
2947.200160,    1.720942
2948.687406,    1.724025
2950.182289,    1.727116
2951.685521,    1.730219
2953.175679,    1.733288
2954.675770,    1.736372
2956.175660,    1.739449
2957.668924,    1.742506
2959.171585,    1.745575
2960.682518,    1.748655
2962.191769,    1.751726
2963.704819,    1.754797
2965.224321,    1.757875
2966.737512,    1.760934
2968.256330,    1.763998
2969.781741,    1.767068
2971.319013,    1.770156
2972.834438,    1.773193
2974.379876,    1.776284
2975.919057,    1.779356
2977.462512,    1.782429
2979.000123,    1.785484
2980.549087,    1.788555
2982.094839,    1.791613
2983.639880,    1.794662
2985.198983,    1.797733
2986.755771,    1.800792
2988.325511,    1.803870
2989.902303,    1.806954
2991.474609,    1.810023
2993.051745,    1.813094
2994.635620,    1.816171
2996.215196,    1.819233
2997.800901,    1.822300
2999.386508,    1.825359
3000.971632,    1.828411
3002.562335,    1.831466
3004.167381,    1.834541
3005.769393,    1.837604
3007.372546,    1.840661
3008.970787,    1.843702
3010.580461,    1.846757
3012.182194,    1.849790
3013.803887,    1.852853
3015.415652,    1.855891
3017.049978,    1.858963
3018.692725,    1.862044
3020.322161,    1.865092
3021.955478,    1.868140
3023.586182,    1.871176
3025.221806,    1.874213
3026.866603,    1.877260
3028.514615,    1.880305
3030.156773,    1.883332
3031.809681,    1.886370
3033.471216,    1.889417
3035.132641,    1.892457
3036.805073,    1.895508
3038.478639,    1.898554
3040.150052,    1.901588
3041.818134,    1.904608
3043.492516,    1.907631
3045.170180,    1.910653
3046.857809,    1.913685
3048.556171,    1.916728
3050.249288,    1.919753
3051.944972,    1.922775
3053.635025,    1.925780
3055.345355,    1.928812
3057.042004,    1.931811
3058.741408,    1.934808
3060.449061,    1.937811
3062.159277,    1.940810
3063.876044,    1.943812
3065.606666,    1.946831
3067.329448,    1.949827
3069.066616,    1.952840
3070.790927,    1.955823
3072.533796,    1.958829
3074.273017,    1.961820
3076.015594,    1.964809
3077.760679,    1.967794
3079.514374,    1.970784
3081.271464,    1.973772
3083.023560,    1.976743
3084.788166,    1.979727
3086.550935,    1.982699
3088.324161,    1.985679
3090.096966,    1.988650
3091.860111,    1.991597
3093.631660,    1.994549
3095.415665,    1.997512
3097.193084,    2.000456
3098.979015,    2.003405
3100.752782,    2.006326
3102.543949,    2.009266
3104.355979,    2.012231
3106.142010,    2.015145
3107.951129,    2.018088
3109.756608,    2.021015
3111.569696,    2.023946
3113.377659,    2.026859
3115.182775,    2.029759
3117.019757,    2.032701
3118.833712,    2.035597
3120.662176,    2.038506
3122.501715,    2.041424
3124.327298,    2.044311
3126.175379,    2.047224
3128.021311,    2.050124
3129.882920,    2.053039
3131.724079,    2.055912
3133.553831,    2.058759
3135.407292,    2.061633
3137.268387,    2.064509
3139.127386,    2.067373
3140.998098,    2.070245
3142.860075,    2.073094
3144.717901,    2.075927
3146.587074,    2.078768
3148.441775,    2.081577
3150.320413,    2.084413
3152.192998,    2.087230
3154.080906,    2.090060
3155.970893,    2.092884
3157.870123,    2.095712
3159.761973,    2.098518
3161.659222,    2.101323
3163.555960,    2.104118
3165.460113,    2.106913
3167.366637,    2.109701
3169.286583,    2.112500
3171.198640,    2.115277
3173.097154,    2.118024
3175.008308,    2.120779
3176.919891,    2.123525
3178.869375,    2.126315
3180.796248,    2.129063
3182.729092,    2.131809
3184.658218,    2.134539
3186.595453,    2.137271
3188.526776,    2.139984
3190.482769,    2.142721
3192.437390,    2.145446
3194.386303,    2.148153
3196.337328,    2.150852
3198.292503,    2.153546
3200.239756,    2.156220
3202.222774,    2.158931
3204.183824,    2.161602
3206.161011,    2.164285
3208.148598,    2.166970
3210.135097,    2.169644
3212.118688,    2.172303
3214.099888,    2.174948
3216.094830,    2.177600
3218.085593,    2.180236
3220.078960,    2.182865
3222.062037,    2.185470
3224.054307,    2.188076
3226.044591,    2.190668
3228.053202,    2.193273
3230.043534,    2.195844
3232.050937,    2.198426
3234.063482,    2.201004
3236.063695,    2.203555
3238.083816,    2.206120
3240.111696,    2.208684
3242.125450,    2.211219
3244.148552,    2.213755
3246.165394,    2.216272
3248.208576,    2.218811
3250.242085,    2.221326
3252.273106,    2.223827
3254.338089,    2.226359
3256.418253,    2.228897
3258.488419,    2.231412
3260.522225,    2.233871
3262.556528,    2.236320
3264.613602,    2.238784
3266.641182,    2.241202
3268.717105,    2.243667
3270.794392,    2.246121
3272.841369,    2.248528
3274.920577,    2.250961
3276.997964,    2.253381
3279.071660,    2.255785
3281.155042,    2.258188
3283.218845,    2.260557
3285.304971,    2.262940
3287.375413,    2.265294
3289.453498,    2.267645
3291.549733,    2.270004
3293.663505,    2.272371
3295.732215,    2.274677
3297.824191,    2.276996
3299.912516,    2.279300
3302.021474,    2.281614
3304.113067,    2.283898
3306.215490,    2.286182
3308.307867,    2.288443
3310.397534,    2.290689
3312.522095,    2.292961
3314.627897,    2.295201
3316.740773,    2.297436
3318.870359,    2.299677
3320.970392,    2.301875
3323.086659,    2.304078
3325.231049,    2.306299
3327.359042,    2.308490
3329.491150,    2.310673
3331.615945,    2.312836
3333.744846,    2.314992
3335.884264,    2.317146
3338.033054,    2.319297
3340.173188,    2.321428
3342.322739,    2.323555
3344.458590,    2.325657
3346.594182,    2.327746
3348.745440,    2.329838
3350.889080,    2.331911
3353.061130,    2.333999
3355.216379,    2.336058
3357.365596,    2.338099
3359.534672,    2.340146
3361.702954,    2.342180
3363.859412,    2.344191
3365.994991,    2.346170
3368.170251,    2.348173
3370.355647,    2.350173
3372.526018,    2.352147
3374.684475,    2.354097
3376.840391,    2.356033
3378.995788,    2.357956
3381.178869,    2.359892
3383.369798,    2.361821
3385.568333,    2.363744
3387.747773,    2.365638
3389.939428,    2.367530
3392.112737,    2.369394
3393.207826,    2.370547
