Ground Distance, Acceleration
   0.000000, 33063.679743
   0.050435, 33030.925784
   0.553755, 32997.585099
   1.112916, 32964.176119
   1.672076, 32930.767139
   2.231237, 32897.358158
   2.790397, 32863.949178
   3.349558, 32830.540198
   3.908718, 32797.131218
   4.467879, 32763.722237
   5.027040, 32730.313257
   5.586200, 32696.904277
   6.952679, 32662.535367
   8.419959, 32628.046601
   9.887239, 32593.557834
  11.354518, 32559.069068
  12.821798, 32524.580302
  14.289078, 32490.091536
  15.756358, 32455.602769
  17.223638, 32421.114003
  18.690918, 32386.625237
  20.158198, 32352.136471
  22.424280, 32316.737723
  24.790100, 32281.225355
  27.155921, 32245.712987
  29.521741, 32210.200620
  31.887561, 32174.688252
  34.253382, 32139.175884
  36.619202, 32103.663517
  38.985022, 32068.151149
  41.350842, 32032.638781
  43.716663, 31997.126414
  46.872517, 31960.754613
  50.127015, 31924.275504
  53.381512, 31887.796396
  56.636010, 31851.317287
  59.890507, 31814.838178
  63.145005, 31778.359069
  66.399502, 31741.879961
  69.654000, 31705.400852
  72.908497, 31668.921743
  76.162995, 31632.442635
  80.198519, 31595.155084
  84.331562, 31557.766591
  88.464605, 31520.378099
  92.597648, 31482.989607
  96.730691, 31445.601114
 100.863734, 31408.212622
 104.996777, 31370.824130
 109.129820, 31333.435637
 113.262862, 31296.047145
 117.395905, 31258.658653
 122.300743, 31220.512997
 127.301948, 31182.272803
 132.303152, 31144.032609
 137.304356, 31105.792415
 142.305560, 31067.552221
 147.306764, 31029.312026
 152.307968, 30991.071832
 157.309172, 30952.831638
 162.310376, 30914.591444
 167.311580, 30876.351249
 173.074813, 30828.289079
 178.933193, 30779.000543
 184.791573, 30729.712006
 190.649954, 30680.423470
 196.508334, 30631.134934
 202.366714, 30581.846397
 208.225094, 30532.557861
 214.083474, 30483.269325
 219.941854, 30433.980789
 225.800234, 30384.692252
 232.408500, 30330.722475
 239.110397, 30276.168201
 245.812293, 30221.613927
 252.514190, 30167.059653
 259.216086, 30112.505379
 265.917982, 30057.951104
 272.619879, 30003.396830
 279.321775, 29948.842556
 286.023672, 29894.288282
 292.725568, 29839.734008
 300.164186, 29786.069847
 307.694790, 29732.516825
 315.225394, 29678.963803
 322.755998, 29625.410781
 330.286603, 29571.857760
 337.817207, 29518.304738
 345.347811, 29464.751716
 352.878415, 29411.198694
 360.409020, 29357.645672
 367.939624, 29304.092650
 376.193726, 29250.389594
 384.538164, 29196.667804
 392.882602, 29142.946015
 401.227039, 29089.224225
 409.571477, 29035.502436
 417.915915, 28981.780646
 426.260353, 28928.058857
 434.604791, 28874.337068
 442.949228, 28820.615278
 451.293666, 28766.893489
 460.348337, 28713.079611
 469.491687, 28659.254236
 478.635037, 28605.428861
 487.778387, 28551.603486
 496.921738, 28497.778111
 506.065088, 28443.952735
 515.208438, 28390.127360
 524.351788, 28336.301985
 533.495138, 28282.476610
 542.638488, 28228.651235
 552.478781, 28174.789766
 562.406093, 28120.923791
 572.333406, 28067.057816
 582.260718, 28013.191842
 592.188030, 27959.325867
 602.115343, 27905.459892
 612.042655, 27851.593917
 621.969968, 27797.727942
 631.897280, 27743.861967
 641.824593, 27689.995992
 652.435547, 27636.147893
 663.131860, 27582.302025
 673.828173, 27528.456157
 684.524487, 27474.610290
 695.220800, 27420.764422
 705.917114, 27366.918554
 716.613427, 27313.072687
 727.309740, 27259.226819
 738.006054, 27205.380951
 748.702367, 27151.535084
 760.068552, 27085.932707
 771.518377, 27018.862419
 782.968201, 26951.792132
 794.418026, 26884.721845
 805.867851, 26817.651557
 817.317676, 26750.581270
 828.767500, 26683.510982
 840.217325, 26616.440695
 851.667150, 26549.370408
 863.116975, 26482.300120
 875.220360, 26412.564259
 887.405349, 26342.495576
 899.590338, 26272.426892
 911.775326, 26202.358209
 923.960315, 26132.289525
 936.145304, 26062.220842
 948.330293, 25992.152159
 960.515281, 25922.083475
 972.700270, 25852.014792
 984.885259, 25781.946109
 997.706746, 25713.570797
1010.607705, 25645.406920
1023.508665, 25577.243042
1036.409624, 25509.079164
1049.310584, 25440.915287
1062.211543, 25372.751409
1075.112503, 25304.587531
1088.013462, 25236.423654
1100.914422, 25168.259776
1113.815381, 25100.095898
1127.336007, 25032.803686
1140.934004, 24965.620309
1154.532001, 24898.436931
1168.129998, 24831.253554
1181.727995, 24764.070177
1195.325992, 24696.886800
1208.923989, 24629.703423
1222.521986, 24562.520046
1236.119983, 24495.336669
1249.717980, 24428.153291
1263.919053, 24361.876888
1278.195426, 24295.713728
1292.471800, 24229.550568
1306.748173, 24163.387409
1321.024546, 24097.224249
1335.300919, 24031.061090
1349.577292, 23964.897930
1363.853666, 23898.734770
1378.130039, 23832.571611
1392.406412, 23766.408451
1407.269524, 23701.183889
1422.205896, 23636.076520
1437.142267, 23570.969152
1452.078639, 23505.861783
1467.015011, 23440.754414
1481.951382, 23375.647045
1496.887754, 23310.539676
1511.824126, 23245.432307
1526.760497, 23180.324938
1541.696869, 23115.217569
1557.203902, 23051.076868
1572.782188, 22987.056865
1588.360473, 22923.036862
1603.938758, 22859.016859
1619.517044, 22794.996856
1635.095329, 22730.976853
1650.673615, 22666.956850
1666.251900, 22602.936847
1681.830186, 22538.916843
1697.408471, 22474.896840
1713.541609, 22411.868157
1729.744026, 22348.963248
1745.946442, 22286.058340
1762.148859, 22223.153432
1778.351276, 22160.248524
1794.553692, 22097.343616
1810.756109, 22034.438708
1826.958525, 21971.533800
1843.160942, 21908.628891
1859.363359, 21845.723983
1876.105101, 21784.326821
1892.914184, 21723.117915
1909.723266, 21661.909009
1926.532349, 21600.700103
1943.341432, 21539.491197
1960.150514, 21478.282291
1976.959597, 21417.073385
1993.768680, 21355.864478
2010.577762, 21294.655572
2027.386845, 21233.446666
2044.720113, 21173.352842
2062.118830, 21113.398247
2079.517547, 21053.443651
2096.916264, 20993.489056
2114.314981, 20933.534460
2131.713698, 20873.579865
2149.112415, 20813.625269
2166.511132, 20753.670674
2183.909849, 20693.716078
2201.308566, 20633.761483
2219.216681, 20574.893003
2237.188400, 20516.160135
2255.160118, 20457.427267
2273.131837, 20398.694398
2291.103555, 20339.961530
2309.075273, 20281.228662
2327.046992, 20222.495794
2345.018710, 20163.762926
2362.990429, 20105.030057
2380.962147, 20046.297189
2399.289770, 19988.293110
2417.661831, 19930.380028
2436.033892, 19872.466945
2454.405953, 19814.553863
2462.037455, 19790.497562
2480.684016, 19733.162113
2499.330577, 19675.826665
2517.977138, 19618.491216
2536.623699, 19561.155768
2555.270260, 19503.820320
2574.044318, 19438.570965
2593.109742, 19355.235972
2612.175166, 19271.900978
2631.240590, 19188.565984
2650.306014, 19105.230990
2669.371438, 19021.895996
2688.436862, 18938.561002
2707.502286, 18855.226008
2726.567710, 18771.891014
2745.633134, 18688.556020
2764.853962, 18598.028501
2784.429937, 18491.063912
2804.005911, 18384.099323
2823.581886, 18277.134733
2843.157861, 18170.170144
2862.733835, 18063.205555
2882.309810, 17956.240966
2901.885784, 17849.276377
2921.461759, 17742.311787
2941.037733, 17635.347198
2960.759486, 17524.283892
2980.814385, 17403.853791
3000.869285, 17283.423691
3020.924184, 17162.993591
3040.979084, 17042.563490
3061.033983, 16922.133390
3081.088882, 16801.703289
3101.143782, 16681.273189
3121.198681, 16560.843088
3141.253581, 16440.412988
3155.204043, 16356.640161
3175.638905, 15304.620186
3196.073767, 14252.600212
3216.508629, 13200.580237
3236.943491, 12148.560263
3257.378353, 11096.540288
3277.813215, 10044.520314
3298.248078, 8992.500339
3318.682940, 7940.480364
3339.117802, 6888.460390
3359.552664, 5836.440415
3380.121575, 5146.982065
3400.690486, 4457.523715
3421.259398, 3768.065365
3441.828309, 3078.607014
3462.397220, 2389.148664
3482.999390, 1859.507039
3503.601559, 1329.865415
3524.203729,  800.223790
3544.805898,  270.582166
3565.408068, -259.059459
3585.995996, -769.077594
3606.583923, -1279.095729
3627.171851, -1789.113864
3647.759778, -2299.131999
3668.347706, -2809.150134
3688.935633, -3319.168269
3709.523561, -3829.186404
3730.111489, -4339.204539
