Ground Distance, Altitude
   0.000000,    0.000000
   0.016710,    0.000000
   0.183425,    0.000000
   0.368636,    0.000000
   0.553847,    0.000000
   0.739059,    0.000000
   0.924270,    0.000000
   1.109481,    0.000000
   1.294692,    0.000000
   1.479903,    0.000000
   1.665114,    0.000000
   1.850325,    0.000000
   2.302802,    0.000000
   2.788649,    0.000000
   3.274497,    0.000000
   3.760344,    0.000000
   4.246191,    0.000000
   4.732039,    0.000000
   5.217886,    0.000000
   5.703734,    0.000000
   6.189581,    0.000000
   6.675428,    0.000000
   7.425528,    0.000000
   8.208622,    0.000000
   8.991715,    0.000000
   9.774809,    0.000000
  10.557903,    0.000000
  11.340997,    0.000000
  12.124090,    0.000000
  12.907184,    0.000000
  13.690278,    0.000000
  14.473372,    0.000000
  15.517622,    0.000000
  16.594479,    0.000000
  17.671337,    0.000000
  18.748195,    0.000000
  19.825052,    0.000000
  20.901910,    0.000000
  21.978768,    0.000000
  23.055626,    0.000000
  24.132483,    0.000000
  25.209341,    0.000000
  26.544182,    0.000000
  27.911234,    0.000000
  29.278286,    0.000000
  30.645338,    0.000000
  32.012390,    0.000000
  33.379442,    0.000000
  34.746494,    0.000000
  36.113546,    0.000000
  37.480599,    0.000000
  38.847651,    0.000000
  40.469440,    0.000000
  42.123036,    0.000000
  43.776632,    0.000000
  45.430228,    0.000000
  47.083824,    0.000000
  48.737419,    0.000000
  50.391015,    0.000000
  52.044611,    0.000000
  53.698207,    0.000000
  55.351803,    0.000000
  57.256362,    0.000000
  59.192256,    0.000000
  61.128151,    0.000000
  63.064045,    0.000000
  64.999939,    0.000000
  66.935834,    0.000000
  68.871728,    0.000000
  70.807622,    0.000000
  72.743516,    0.000000
  74.679411,    0.000000
  76.861703,    0.000000
  79.074761,    0.000000
  81.287818,    0.000000
  83.500876,    0.000000
  85.713933,    0.000000
  87.926991,    0.000000
  90.140048,    0.000000
  92.353106,    0.000000
  94.566163,    0.000000
  96.779221,    0.000000
  99.234050,    0.000000
 101.719067,    0.000000
 104.204085,    0.000000
 106.689102,    0.000000
 109.174119,    0.000000
 111.659136,    0.000000
 114.144153,    0.000000
 116.629171,    0.000000
 119.114188,    0.000000
 121.599205,    0.000000
 124.321358,    0.000000
 127.073121,    0.000000
 129.824883,    0.000000
 132.576645,    0.000000
 135.328408,    0.000000
 138.080170,    0.000000
 140.831932,    0.000000
 143.583695,    0.000000
 146.335457,    0.000000
 149.087219,    0.000000
 152.071478,    0.000000
 155.084766,    0.000000
 158.098055,    0.000000
 161.111343,    0.000000
 164.124631,    0.000000
 167.137919,    0.000000
 170.151207,    0.000000
 173.164496,    0.000000
 176.177784,    0.000000
 179.191072,    0.000000
 182.432219,    0.000000
 185.701815,    0.000000
 188.971412,    0.000000
 192.241008,    0.000000
 195.510605,    0.000000
 198.780201,    0.000000
 202.049798,    0.000000
 205.319395,    0.000000
 208.588991,    0.000000
 211.858588,    0.000000
 215.351186,    0.000000
 218.871628,    0.000000
 222.392070,    0.000000
 225.912512,    0.000000
 229.432954,    0.000000
 232.953396,    0.000000
 236.473838,    0.000000
 239.994280,    0.000000
 243.514722,    0.000000
 247.035164,    0.000000
 250.772826,    0.000000
 254.537610,    0.000000
 258.302394,    0.000000
 262.067178,    0.000000
 265.831961,    0.000000
 269.596745,    0.000000
 273.361529,    0.000000
 277.126313,    0.000000
 280.891097,    0.000000
 284.655881,    0.000000
 288.631919,    0.000000
 292.634333,    0.000000
 296.636748,    0.000000
 300.639163,    0.000000
 304.641578,    0.000000
 308.643992,    0.000000
 312.646407,    0.000000
 316.648822,    0.000000
 320.651237,    0.000000
 324.653651,    0.000000
 328.861444,    0.000000
 333.094881,    0.000000
 337.328317,    0.000000
 341.561754,    0.000000
 345.795190,    0.000000
 350.028627,    0.000000
 354.262063,    0.000000
 358.495499,    0.000000
 362.728936,    0.000000
 366.962372,    0.000000
 371.395406,    0.000000
 375.853361,    0.000000
 380.311315,    0.000000
 384.769270,    0.000000
 389.227225,    0.000000
 393.685180,    0.000000
 398.143135,    0.000000
 402.601090,    0.000000
 407.059045,    0.000000
 411.517000,    0.000000
 416.168868,    0.000000
 420.844948,    0.000000
 425.521028,    0.000000
 430.197108,    0.000000
 434.873188,    0.000000
 439.549268,    0.000000
 444.225348,    0.000000
 448.901428,    0.000000
 453.577508,    0.000000
 458.253588,    0.000000
 463.117997,    0.000000
 468.005921,    0.000000
 472.893845,    0.000000
 477.781769,    0.000000
 482.669693,    0.000000
 487.557617,    0.000000
 492.445541,    0.000000
 497.333465,    0.000000
 502.221389,    0.000000
 507.109313,    0.000000
 512.180087,    0.000000
 517.273692,    0.000000
 522.367297,    0.000000
 527.460902,    0.000000
 532.554506,    0.000000
 537.648111,    0.000000
 542.741716,    0.000000
 547.835321,    0.000000
 552.928925,    0.000000
 558.022530,    0.000000
 563.293639,    0.000000
 568.586911,    0.000000
 573.880184,    0.000000
 579.173456,    0.000000
 584.466728,    0.000000
 589.760000,    0.000000
 595.053272,    0.000000
 600.346545,    0.000000
 605.639817,    0.000000
 610.933089,    0.000000
 616.398659,    0.000000
 621.885743,    0.000000
 627.372827,    0.000000
 632.859910,    0.000000
 638.346994,    0.000000
 643.834078,    0.000000
 649.321161,    0.000000
 654.808245,    0.000000
 660.295328,    0.000000
 665.782412,    0.000000
 671.431279,    0.000000
 677.100346,    0.000000
 682.769414,    0.000000
 688.438481,    0.000000
 694.107548,    0.000000
 699.776615,    0.000000
 705.445682,    0.000000
 711.114750,    0.000000
 716.783817,    0.000000
 719.337716,    0.000000
 725.131192,    0.000000
 730.987301,    0.000000
 736.843409,    0.000000
 742.699518,    0.000000
 748.555627,    0.000000
 754.411735,    0.000000
 760.267844,    0.000000
 766.123952,    0.000000
 771.980061,    0.000000
 777.836170,    0.000000
 783.750336,    0.000000
 789.777456,    0.000000
 795.804575,    0.000000
 801.831695,    0.000000
 807.858815,    0.000000
 813.885934,    0.000000
 819.913054,    0.000000
 825.940173,    0.000000
 831.967293,    0.000000
 837.994413,    0.000000
 844.075505,    0.000000
 850.261604,    0.000000
 856.447703,    0.000000
 862.633801,    0.000000
 868.819900,    0.000000
 875.005999,    0.000000
 881.192097,    0.000000
 887.378196,    0.000000
 893.564295,    0.000000
 899.750393,    0.000000
 903.836329,    0.000000
 910.146858,    0.171580
 916.457386,    0.343160
 922.767915,    0.514740
 929.078444,    0.686320
 935.388973,    0.857900
 941.699502,    1.029481
 948.010031,    1.201061
 954.320560,    1.372641
 960.631089,    1.544221
 966.941618,    1.715801
 973.292781,    2.156170
 979.643945,    2.596539
 985.995108,    3.036908
 992.346272,    3.477278
 998.697435,    3.917647
1005.055072,    4.541906
1011.412710,    5.166164
1017.770347,    5.790423
1024.127984,    6.414682
1030.485621,    7.038940
1036.836308,    7.837942
1043.186996,    8.636943
1049.537683,    9.435944
1055.888370,   10.234946
