Time, Emissions
   0.000000,    0.000000
   0.001667,    0.000000
   0.003333,    0.000000
   0.005000,    0.000000
   0.006667,    0.000000
   0.008333,    0.000000
   0.010000,    0.000000
   0.011667,    0.000000
   0.013333,    0.000000
   0.015000,    0.000000
   0.016667,    0.000000
   0.018333,    0.000000
   0.020000,    0.000000
   0.021667,    0.000000
   0.023333,    0.000000
   0.025000,    0.000000
   0.026667,    0.000000
   0.028333,    0.000000
   0.030000,    0.000000
   0.031667,    0.000000
   0.033333,    0.000000
   0.035000,    0.000000
   0.036667,    0.000000
   0.038333,    0.000000
   0.040000,    0.000000
   0.041667,    0.000000
   0.043333,    0.000000
   0.045000,    0.000000
   0.046667,    0.000000
   0.048333,    0.000000
   0.050000,    0.000000
   0.051667,    0.000000
   0.053333,    0.000000
   0.055000,    0.000000
   0.056667,    0.000000
   0.058333,    0.000000
   0.060000,    0.000000
   0.061667,    0.000000
   0.063333,    0.000000
   0.065000,    0.000000
   0.066667,    0.000000
   0.068333,    0.000000
   0.070000,    0.000000
   0.071667,    0.000000
   0.073333,    0.000000
   0.075000,    0.000000
   0.076667,    0.000000
   0.078333,    0.000000
   0.080000,    0.000000
   0.081667,    0.000000
   0.083333,    0.000000
   0.085000,    0.000000
   0.086667,    0.000000
   0.088333,    0.000000
   0.090000,    0.000000
   0.091667,    0.000000
   0.093333,    0.000000
   0.095000,    0.000000
   0.096667,    0.000000
   0.098333,    0.000000
   0.100000,    0.000000
   0.101667,    0.000000
   0.103333,    0.000000
   0.105000,    0.000000
   0.106667,    0.000000
   0.108333,    0.000000
   0.110000,    0.000000
   0.111667,    0.000000
   0.113333,    0.000000
   0.115000,    0.000000
   0.116667,    0.000000
   0.118333,    0.000000
   0.120000,    0.000000
   0.121667,    0.000000
   0.123333,    0.000000
   0.125000,    0.000000
   0.126667,    0.000000
   0.128333,    0.000000
   0.130000,    0.000000
   0.131667,    0.000000
   0.133333,    0.000000
   0.135000,    0.000000
   0.136667,    0.000000
   0.138333,    0.000000
   0.140000,    0.000000
   0.141667,    0.000000
   0.143333,    0.000000
   0.145000,    0.000000
   0.146667,    0.000000
   0.148333,    0.000000
   0.150000,    0.000000
   0.151667,    0.000000
   0.153333,    0.000000
   0.155000,    0.000000
   0.156667,    0.000000
   0.158333,    0.000000
   0.160000,    0.000000
   0.161667,    0.000000
   0.163333,    0.000000
   0.165000,    0.000000
   0.166667,    0.000000
   0.168333,    0.000000
   0.170000,    0.000000
   0.171667,    0.000000
   0.173333,    0.000000
   0.175000,    0.000000
   0.176667,    0.000000
   0.178333,    0.000000
   0.180000,    0.000000
   0.181667,    0.000000
   0.183333,    0.000000
   0.185000,    0.000000
   0.186667,    0.000000
   0.188333,    0.000000
   0.190000,    0.000000
   0.191667,    0.000000
   0.193333,    0.000000
   0.195000,    0.000000
   0.196667,    0.000000
   0.198333,    0.000000
   0.200000,    0.000000
   0.201667,    0.000000
   0.203333,    0.000000
   0.205000,    0.000000
   0.206667,    0.000000
   0.208333,    0.000000
   0.210000,    0.000000
   0.211667,    0.000000
   0.213333,    0.000000
   0.215000,    0.000000
   0.216667,    0.000000
   0.218333,    0.000000
   0.220000,    0.000000
   0.221667,    0.000000
   0.223333,    0.000000
   0.225000,    0.000000
   0.226667,    0.000000
   0.228333,    0.000000
   0.230000,    0.000000
   0.231667,    0.000000
   0.233333,    0.000000
   0.235000,    0.000000
   0.236667,    0.000000
   0.238333,    0.000000
   0.240000,    0.000000
   0.241667,    0.000000
   0.243333,    0.000000
   0.245000,    0.000000
   0.246667,    0.000000
   0.248333,    0.000000
   0.250000,    0.000000
   0.251667,    0.000000
   0.253333,    0.000000
   0.255000,    0.000000
   0.256667,    0.000000
   0.258333,    0.000000
   0.260000,    0.000000
   0.261667,    0.000000
   0.263333,    0.000000
   0.265000,    0.000000
   0.266667,    0.000000
   0.268333,    0.000000
   0.270000,    0.000000
   0.271667,    0.000000
   0.273333,    0.000000
   0.275000,    0.000000
   0.276667,    0.000000
   0.278333,    0.000000
   0.280000,    0.000000
   0.281667,    0.000000
   0.283333,    0.000000
   0.285000,    0.000000
   0.286667,    0.000000
   0.288333,    0.000000
   0.290000,    0.000000
   0.291667,    0.000000
   0.293333,    0.000000
   0.295000,    0.000000
   0.296667,    0.000000
   0.298333,    0.000000
   0.300000,    0.000000
   0.301667,    0.000000
   0.303333,    0.000000
   0.305000,    0.000000
   0.306667,    0.000000
   0.308333,    0.000000
   0.310000,    0.000000
   0.311667,    0.000000
   0.312369,    0.000000
   0.314036,    0.000000
   0.315703,    0.000000
   0.317369,    0.000000
   0.319036,    0.000000
   0.320703,    0.000000
   0.322369,    0.000000
   0.324036,    0.000000
   0.325703,    0.000000
   0.327369,    0.000000
   0.329036,    0.000000
   0.330703,    0.000000
   0.332369,    0.000000
   0.334036,    0.000000
   0.335703,    0.000000
   0.337369,    0.000000
   0.339036,    0.000000
   0.340703,    0.000000
   0.342369,    0.000000
   0.344036,    0.000000
   0.345703,    0.000000
   0.347369,    0.000000
   0.349036,    0.000000
   0.350703,    0.000000
   0.352369,    0.000000
   0.354036,    0.000000
   0.355703,    0.000000
   0.357369,    0.000000
   0.359036,    0.000000
   0.360703,    0.000000
   0.362369,    0.000000
   0.364036,    0.000000
   0.365703,    0.000000
   0.367369,    0.000000
   0.368518,    0.000000
   0.370185,    0.000000
   0.371852,    0.000000
   0.373518,    0.000000
   0.375185,    0.000000
   0.376852,    0.000000
   0.378518,    0.000000
   0.380185,    0.000000
   0.381852,    0.000000
   0.383518,    0.000000
   0.385185,    0.000000
   0.386852,    0.000000
   0.388518,    0.000000
   0.390185,    0.000000
   0.391852,    0.000000
   0.393518,    0.000000
   0.395185,    0.000000
   0.396852,    0.000000
   0.398518,    0.000000
   0.400185,    0.000000
   0.401852,    0.000000
   0.403518,    0.000000
   0.405185,    0.000000
   0.406852,    0.000000
   0.408518,    0.000000
   0.410185,    0.000000
   0.410185,    0.000000
   1.604481,    0.000000
   2.823272,    0.000000
   4.081386,    0.000000
   5.429985,    0.000000
   6.915721,    0.000000
   8.560390,    0.000000
  10.397371,    0.000000
  12.485334,    0.000000
  14.968358,    0.000000
  14.968358,    0.000000
  15.830802,    0.000000
  16.693245,    0.000000
  17.555688,    0.000000
  18.418132,    0.000000
  19.280575,    0.000000
  20.143018,    0.000000
  21.005461,    0.000000
  21.867905,    0.000000
  22.730348,    0.000000
  23.592791,    0.000000
  24.455235,    0.000000
  25.317678,    0.000000
  26.180121,    0.000000
  27.042565,    0.000000
  27.905008,    0.000000
  28.767451,    0.000000
  29.629895,    0.000000
  30.492338,    0.000000
  31.354781,    0.000000
  32.217225,    0.000000
  33.079668,    0.000000
  33.942111,    0.000000
  34.804555,    0.000000
  35.666998,    0.000000
  36.529441,    0.000000
  37.391885,    0.000000
  38.254328,    0.000000
  39.116771,    0.000000
  39.979215,    0.000000
  39.979215,    0.000000
  41.139143,    0.000000
  42.301874,    0.000000
  43.463193,    0.000000
  44.619342,    0.000000
  45.768081,    0.000000
  46.905098,    0.000000
  48.026307,    0.000000
  49.143709,    0.000000
  50.253604,    0.000000
  50.253604,    0.000000
  50.833005,    0.000000
  51.418049,    0.000000
  52.008556,    0.000000
  52.607292,    0.000000
  53.225054,    0.000000
  53.871173,    0.000000
  54.548638,    0.000000
  55.259779,    0.000000
  56.006440,    0.000000
  56.006440,    0.000000
  57.858634,    0.000000
  59.711637,    0.000000
  61.565449,    0.000000
  63.420072,    0.000000
  65.275506,    0.000000
  67.131752,    0.000000
  68.988810,    0.000000
  70.846682,    0.000000
  72.705368,    0.000000
  72.705368,    0.000000
  73.351774,    0.000000
  73.988012,    0.000000
  74.626788,    0.000000
  75.268241,    0.000000
  75.912514,    0.000000
  76.559398,    0.000000
  77.208755,    0.000000
  77.860123,    0.000000
  78.512585,    0.000000
  78.512585,    0.000000
  83.512585,    0.000000
  88.512585,    0.000000
  93.512585,    0.000000
  98.512585,    0.000000
 103.512585,    0.000000
 108.512585,    0.000000
 113.512585,    0.000000
 118.512585,    0.000000
 123.512585,    0.000000
 123.512585,    0.000000
 123.514252,    0.000000
 123.515918,    0.000000
 123.517585,    0.000000
 123.519252,    0.000000
 123.520918,    0.000000
 123.522585,    0.000000
 123.524252,    0.000000
 123.525918,    0.000000
 123.527585,    0.000000
 123.529252,    0.000000
 123.530918,    0.000000
 123.532585,    0.000000
 123.534252,    0.000000
 123.535918,    0.000000
 123.537585,    0.000000
 123.539252,    0.000000
 123.540918,    0.000000
 123.542585,    0.000000
 123.544252,    0.000000
 123.545918,    0.000000
 123.547585,    0.000000
 123.549252,    0.000000
 123.550918,    0.000000
 123.552585,    0.000000
 123.554252,    0.000000
 123.555918,    0.000000
 123.557585,    0.000000
 123.559252,    0.000000
 123.560918,    0.000000
 123.562585,    0.000000
 123.564252,    0.000000
 123.565918,    0.000000
 123.567585,    0.000000
 123.569252,    0.000000
 123.570918,    0.000000
 123.572585,    0.000000
 123.574252,    0.000000
 123.575918,    0.000000
 123.577585,    0.000000
 123.579252,    0.000000
 123.580918,    0.000000
 123.582585,    0.000000
 123.584252,    0.000000
 123.585918,    0.000000
 123.587585,    0.000000
 123.589252,    0.000000
 123.590918,    0.000000
 123.592585,    0.000000
 123.594252,    0.000000
 123.595918,    0.000000
 123.597585,    0.000000
 123.599252,    0.000000
 123.600918,    0.000000
 123.602585,    0.000000
 123.604252,    0.000000
 123.605918,    0.000000
 123.607585,    0.000000
 123.609252,    0.000000
 123.610918,    0.000000
 123.612585,    0.000000
 123.614252,    0.000000
 123.615918,    0.000000
 123.617585,    0.000000
 123.619252,    0.000000
 123.620918,    0.000000
 123.622585,    0.000000
 123.624252,    0.000000
 123.625918,    0.000000
 123.627585,    0.000000
 123.629252,    0.000000
 123.630918,    0.000000
 123.632585,    0.000000
 123.634252,    0.000000
 123.635918,    0.000000
 123.637585,    0.000000
 123.639252,    0.000000
 123.640918,    0.000000
 123.642585,    0.000000
 123.644252,    0.000000
 123.645918,    0.000000
 123.647585,    0.000000
 123.649252,    0.000000
 123.650918,    0.000000
 123.652585,    0.000000
 123.654252,    0.000000
 123.655918,    0.000000
 123.657585,    0.000000
 123.659252,    0.000000
 123.660918,    0.000000
 123.662585,    0.000000
 123.664252,    0.000000
 123.665918,    0.000000
 123.667585,    0.000000
 123.669252,    0.000000
 123.670918,    0.000000
 123.672585,    0.000000
 123.674252,    0.000000
 123.675918,    0.000000
 123.677585,    0.000000
 123.679252,    0.000000
 123.680918,    0.000000
 123.682585,    0.000000
 123.684252,    0.000000
 123.685918,    0.000000
 123.687585,    0.000000
 123.689252,    0.000000
 123.690918,    0.000000
 123.692585,    0.000000
 123.694252,    0.000000
 123.695918,    0.000000
 123.697585,    0.000000
 123.699252,    0.000000
 123.700918,    0.000000
 123.702585,    0.000000
 123.704252,    0.000000
 123.705918,    0.000000
 123.707585,    0.000000
 123.709252,    0.000000
 123.710918,    0.000000
 123.712585,    0.000000
 123.714252,    0.000000
 123.715918,    0.000000
 123.717585,    0.000000
 123.719252,    0.000000
 123.720918,    0.000000
 123.722585,    0.000000
 123.724252,    0.000000
 123.725918,    0.000000
 123.727585,    0.000000
 123.729252,    0.000000
 123.730918,    0.000000
 123.732585,    0.000000
 123.734252,    0.000000
 123.735918,    0.000000
 123.737585,    0.000000
 123.739252,    0.000000
 123.740918,    0.000000
 123.742585,    0.000000
 123.744252,    0.000000
 123.745918,    0.000000
 123.747585,    0.000000
 123.749252,    0.000000
 123.750918,    0.000000
 123.752585,    0.000000
 123.754252,    0.000000
 123.755918,    0.000000
 123.757585,    0.000000
 123.759252,    0.000000
 123.760918,    0.000000
 123.762585,    0.000000
 123.764252,    0.000000
 123.765918,    0.000000
 123.767585,    0.000000
 123.769252,    0.000000
 123.770918,    0.000000
 123.772585,    0.000000
 123.774252,    0.000000
 123.775918,    0.000000
 123.777585,    0.000000
 123.779252,    0.000000
 123.780918,    0.000000
 123.782585,    0.000000
 123.784252,    0.000000
 123.785918,    0.000000
 123.787585,    0.000000
 123.789252,    0.000000
 123.790918,    0.000000
 123.792585,    0.000000
 123.794252,    0.000000
 123.795918,    0.000000
 123.797585,    0.000000
 123.799252,    0.000000
 123.800918,    0.000000
 123.802585,    0.000000
 123.804252,    0.000000
 123.805918,    0.000000
 123.807585,    0.000000
 123.809252,    0.000000
 123.810918,    0.000000
 123.812585,    0.000000
 123.814252,    0.000000
 123.815918,    0.000000
 123.817585,    0.000000
 123.819252,    0.000000
 123.820918,    0.000000
 123.822585,    0.000000
 123.824252,    0.000000
 123.825918,    0.000000
 123.827585,    0.000000
 123.829252,    0.000000
 123.830918,    0.000000
 123.832585,    0.000000
 123.834252,    0.000000
 123.835918,    0.000000
 123.837585,    0.000000
 123.839252,    0.000000
 123.840918,    0.000000
 123.842585,    0.000000
 123.844252,    0.000000
 123.845918,    0.000000
 123.847585,    0.000000
 123.849252,    0.000000
 123.850918,    0.000000
 123.852585,    0.000000
 123.854252,    0.000000
 123.855918,    0.000000
 123.857585,    0.000000
 123.859252,    0.000000
 123.860918,    0.000000
 123.862585,    0.000000
 123.864252,    0.000000
 123.865918,    0.000000
 123.867585,    0.000000
 123.869252,    0.000000
 123.870918,    0.000000
 123.872585,    0.000000
 123.874252,    0.000000
 123.875918,    0.000000
 123.877585,    0.000000
 123.879252,    0.000000
 123.880918,    0.000000
 123.882585,    0.000000
 123.884252,    0.000000
 123.885918,    0.000000
 123.887585,    0.000000
 123.889252,    0.000000
 123.890918,    0.000000
 123.892585,    0.000000
 123.894252,    0.000000
 123.895918,    0.000000
 123.897585,    0.000000
 123.899252,    0.000000
 123.900918,    0.000000
 123.902585,    0.000000
 123.904252,    0.000000
 123.905918,    0.000000
 123.907585,    0.000000
 123.909252,    0.000000
 123.910918,    0.000000
 123.912585,    0.000000
 123.914252,    0.000000
 123.915918,    0.000000
 123.917585,    0.000000
 123.919252,    0.000000
 123.920918,    0.000000
 123.922585,    0.000000
 123.924252,    0.000000
 123.925918,    0.000000
 123.927585,    0.000000
 123.929252,    0.000000
 123.930918,    0.000000
 123.932585,    0.000000
 123.934252,    0.000000
 123.935918,    0.000000
 123.937585,    0.000000
 123.939252,    0.000000
 123.940918,    0.000000
 123.942585,    0.000000
 123.944252,    0.000000
 123.945918,    0.000000
 123.947585,    0.000000
 123.949252,    0.000000
 123.950918,    0.000000
 123.952585,    0.000000
 123.954252,    0.000000
 123.955918,    0.000000
 123.957585,    0.000000
 123.959252,    0.000000
 123.960918,    0.000000
 123.962585,    0.000000
 123.964252,    0.000000
 123.965918,    0.000000
 123.967585,    0.000000
 123.969252,    0.000000
 123.970918,    0.000000
 123.972585,    0.000000
 123.974252,    0.000000
 123.975918,    0.000000
 123.977585,    0.000000
 123.979252,    0.000000
 123.980918,    0.000000
 123.982585,    0.000000
 123.984252,    0.000000
 123.985918,    0.000000
 123.987585,    0.000000
 123.989252,    0.000000
 123.990918,    0.000000
 123.992585,    0.000000
 123.994252,    0.000000
 123.995918,    0.000000
 123.997585,    0.000000
 123.999252,    0.000000
 124.000918,    0.000000
 124.002585,    0.000000
 124.004252,    0.000000
 124.005918,    0.000000
 124.007585,    0.000000
 124.009252,    0.000000
 124.010918,    0.000000
 124.012585,    0.000000
 124.014252,    0.000000
 124.015918,    0.000000
 124.017585,    0.000000
 124.019252,    0.000000
 124.020918,    0.000000
 124.022585,    0.000000
 124.024252,    0.000000
 124.025918,    0.000000
 124.027585,    0.000000
 124.029252,    0.000000
 124.030918,    0.000000
 124.032585,    0.000000
 124.034252,    0.000000
 124.035918,    0.000000
 124.037585,    0.000000
 124.039252,    0.000000
 124.040918,    0.000000
 124.042585,    0.000000
 124.044252,    0.000000
 124.045918,    0.000000
 124.047585,    0.000000
 124.049252,    0.000000
 124.050918,    0.000000
 124.052585,    0.000000
 124.054252,    0.000000
 124.055918,    0.000000
 124.057585,    0.000000
 124.059252,    0.000000
 124.060918,    0.000000
 124.062585,    0.000000
 124.064252,    0.000000
 124.065918,    0.000000
 124.067585,    0.000000
 124.069252,    0.000000
 124.070918,    0.000000
 124.072585,    0.000000
 124.074252,    0.000000
 124.075918,    0.000000
 124.077585,    0.000000
 124.079252,    0.000000
 124.080918,    0.000000
 124.082585,    0.000000
 124.084252,    0.000000
 124.085918,    0.000000
 124.087585,    0.000000
 124.089252,    0.000000
 124.090918,    0.000000
 124.092585,    0.000000
 124.094252,    0.000000
 124.095918,    0.000000
 124.097585,    0.000000
 124.099252,    0.000000
 124.100918,    0.000000
 124.102585,    0.000000
 124.104252,    0.000000
 124.105918,    0.000000
 124.107585,    0.000000
 124.109252,    0.000000
 124.110918,    0.000000
 124.112585,    0.000000
 124.114252,    0.000000
 124.115918,    0.000000
 124.117585,    0.000000
 124.119252,    0.000000
 124.120918,    0.000000
 124.122585,    0.000000
 124.124252,    0.000000
 124.125918,    0.000000
 124.127585,    0.000000
 124.129252,    0.000000
 124.130918,    0.000000
 124.132585,    0.000000
 124.134252,    0.000000
 124.135918,    0.000000
 124.137585,    0.000000
 124.139252,    0.000000
 124.140918,    0.000000
 124.142585,    0.000000
 124.144252,    0.000000
 124.145918,    0.000000
 124.147585,    0.000000
 124.149252,    0.000000
 124.150918,    0.000000
 124.152585,    0.000000
 124.154252,    0.000000
 124.155918,    0.000000
 124.157585,    0.000000
 124.159252,    0.000000
 124.160918,    0.000000
 124.162585,    0.000000
 124.164252,    0.000000
 124.165918,    0.000000
 124.167585,    0.000000
 124.169252,    0.000000
 124.170918,    0.000000
 124.172585,    0.000000
 124.174252,    0.000000
 124.175918,    0.000000
 124.177585,    0.000000
 124.179252,    0.000000
 124.180918,    0.000000
 124.182585,    0.000000
 124.184252,    0.000000
 124.185918,    0.000000
 124.187585,    0.000000
 124.189252,    0.000000
 124.190918,    0.000000
 124.192585,    0.000000
 124.194252,    0.000000
 124.195918,    0.000000
 124.197585,    0.000000
 124.199252,    0.000000
 124.200918,    0.000000
 124.202585,    0.000000
 124.204252,    0.000000
 124.205918,    0.000000
 124.207585,    0.000000
 124.209252,    0.000000
 124.210918,    0.000000
 124.212585,    0.000000
 124.214252,    0.000000
 124.215918,    0.000000
 124.217585,    0.000000
 124.219252,    0.000000
 124.220918,    0.000000
 124.222585,    0.000000
 124.224252,    0.000000
 124.225918,    0.000000
 124.227585,    0.000000
 124.229252,    0.000000
 124.230918,    0.000000
 124.232585,    0.000000
 124.234252,    0.000000
 124.235918,    0.000000
 124.237585,    0.000000
 124.239252,    0.000000
 124.240918,    0.000000
 124.242585,    0.000000
 124.244252,    0.000000
 124.245918,    0.000000
 124.247585,    0.000000
 124.249252,    0.000000
 124.250918,    0.000000
 124.252585,    0.000000
 124.254252,    0.000000
 124.255918,    0.000000
 124.257585,    0.000000
 124.259252,    0.000000
 124.260918,    0.000000
 124.262585,    0.000000
 124.264252,    0.000000
 124.265918,    0.000000
 124.267585,    0.000000
 124.269252,    0.000000
 124.270918,    0.000000
 124.272585,    0.000000
 124.274252,    0.000000
 124.275918,    0.000000
 124.277585,    0.000000
 124.279252,    0.000000
 124.280918,    0.000000
 124.282585,    0.000000
 124.284252,    0.000000
 124.285918,    0.000000
 124.287585,    0.000000
 124.289252,    0.000000
 124.290918,    0.000000
 124.292585,    0.000000
 124.294252,    0.000000
 124.295918,    0.000000
 124.297585,    0.000000
 124.299252,    0.000000
 124.300918,    0.000000
 124.302585,    0.000000
 124.304252,    0.000000
 124.305918,    0.000000
 124.307585,    0.000000
 124.309252,    0.000000
 124.310918,    0.000000
 124.312585,    0.000000
 124.314252,    0.000000
 124.315918,    0.000000
 124.317585,    0.000000
 124.319252,    0.000000
 124.320918,    0.000000
 124.322585,    0.000000
 124.324252,    0.000000
 124.325918,    0.000000
 124.327585,    0.000000
 124.329252,    0.000000
 124.330918,    0.000000
 124.332585,    0.000000
 124.334252,    0.000000
 124.335918,    0.000000
 124.337585,    0.000000
 124.339252,    0.000000
 124.340918,    0.000000
 124.342585,    0.000000
 124.344252,    0.000000
 124.345918,    0.000000
 124.347585,    0.000000
 124.349252,    0.000000
 124.350918,    0.000000
 124.352585,    0.000000
 124.354252,    0.000000
 124.355918,    0.000000
 124.357585,    0.000000
 124.359252,    0.000000
 124.360918,    0.000000
 124.362585,    0.000000
 124.364252,    0.000000
 124.365918,    0.000000
 124.367585,    0.000000
 124.369252,    0.000000
 124.370918,    0.000000
 124.372585,    0.000000
 124.374252,    0.000000
 124.375918,    0.000000
 124.377585,    0.000000
 124.379252,    0.000000
 124.380918,    0.000000
 124.382585,    0.000000
 124.384252,    0.000000
 124.385918,    0.000000
 124.387585,    0.000000
 124.389252,    0.000000
 124.390918,    0.000000
 124.392585,    0.000000
 124.394252,    0.000000
 124.395918,    0.000000
 124.397585,    0.000000
 124.399252,    0.000000
 124.400918,    0.000000
 124.402585,    0.000000
 124.404252,    0.000000
 124.405918,    0.000000
 124.407585,    0.000000
 124.409252,    0.000000
 124.410918,    0.000000
 124.412585,    0.000000
 124.414252,    0.000000
 124.415918,    0.000000
 124.417585,    0.000000
 124.419252,    0.000000
 124.420918,    0.000000
 124.422585,    0.000000
 124.424252,    0.000000
 124.425918,    0.000000
 124.427585,    0.000000
 124.429252,    0.000000
 124.430918,    0.000000
 124.432585,    0.000000
 124.434252,    0.000000
 124.435918,    0.000000
 124.437585,    0.000000
 124.439252,    0.000000
 124.440918,    0.000000
 124.442585,    0.000000
 124.444252,    0.000000
 124.445918,    0.000000
 124.447585,    0.000000
 124.449252,    0.000000
 124.450918,    0.000000
 124.452585,    0.000000
 124.454252,    0.000000
 124.455918,    0.000000
 124.457585,    0.000000
 124.459252,    0.000000
 124.460918,    0.000000
 124.462585,    0.000000
 124.464252,    0.000000
 124.465918,    0.000000
 124.467585,    0.000000
 124.469252,    0.000000
 124.470918,    0.000000
 124.472585,    0.000000
 124.474252,    0.000000
 124.475918,    0.000000
 124.477585,    0.000000
 124.479252,    0.000000
 124.480918,    0.000000
 124.482585,    0.000000
 124.484252,    0.000000
 124.485918,    0.000000
 124.487585,    0.000000
 124.489252,    0.000000
 124.490918,    0.000000
 124.492585,    0.000000
 124.494252,    0.000000
 124.495918,    0.000000
 124.497585,    0.000000
 124.499252,    0.000000
 124.500918,    0.000000
 124.502585,    0.000000
 124.504252,    0.000000
 124.505918,    0.000000
 124.507585,    0.000000
 124.509252,    0.000000
 124.510918,    0.000000
 124.512585,    0.000000
 124.514252,    0.000000
 124.515918,    0.000000
 124.517585,    0.000000
 124.519252,    0.000000
 124.520918,    0.000000
 124.522585,    0.000000
 124.524252,    0.000000
 124.525918,    0.000000
 124.527585,    0.000000
 124.529252,    0.000000
 124.530918,    0.000000
 124.532585,    0.000000
 124.534252,    0.000000
 124.535918,    0.000000
 124.537585,    0.000000
 124.539252,    0.000000
 124.540918,    0.000000
 124.542585,    0.000000
 124.544252,    0.000000
 124.545918,    0.000000
 124.547585,    0.000000
 124.549252,    0.000000
 124.550918,    0.000000
 124.552585,    0.000000
 124.554252,    0.000000
 124.555918,    0.000000
 124.557585,    0.000000
 124.559252,    0.000000
 124.560918,    0.000000
 124.562585,    0.000000
 124.564252,    0.000000
 124.565918,    0.000000
 124.567585,    0.000000
 124.569252,    0.000000
 124.570918,    0.000000
 124.572585,    0.000000
 124.574252,    0.000000
 124.575918,    0.000000
 124.577585,    0.000000
 124.579252,    0.000000
 124.580918,    0.000000
 124.582585,    0.000000
 124.584252,    0.000000
 124.585918,    0.000000
 124.587585,    0.000000
 124.589252,    0.000000
 124.590918,    0.000000
 124.592585,    0.000000
 124.594252,    0.000000
 124.595918,    0.000000
 124.597585,    0.000000
 124.599252,    0.000000
 124.600918,    0.000000
 124.602585,    0.000000
 124.604252,    0.000000
 124.605918,    0.000000
 124.607585,    0.000000
 124.609252,    0.000000
 124.610918,    0.000000
 124.612585,    0.000000
 124.614252,    0.000000
 124.615918,    0.000000
 124.617585,    0.000000
 124.619252,    0.000000
 124.620918,    0.000000
 124.622585,    0.000000
 124.624252,    0.000000
 124.625918,    0.000000
 124.627585,    0.000000
 124.629252,    0.000000
 124.630918,    0.000000
 124.632585,    0.000000
 124.634252,    0.000000
 124.635918,    0.000000
 124.637585,    0.000000
 124.639252,    0.000000
 124.640918,    0.000000
 124.642585,    0.000000
 124.644252,    0.000000
 124.645918,    0.000000
 124.647585,    0.000000
 124.649252,    0.000000
 124.650918,    0.000000
 124.652585,    0.000000
 124.654252,    0.000000
 124.655918,    0.000000
 124.657585,    0.000000
 124.659252,    0.000000
 124.660918,    0.000000
 124.662585,    0.000000
 124.664252,    0.000000
 124.665918,    0.000000
 124.667585,    0.000000
 124.669252,    0.000000
 124.670918,    0.000000
 124.672585,    0.000000
 124.674252,    0.000000
 124.675918,    0.000000
 124.677585,    0.000000
 124.679252,    0.000000
 124.680918,    0.000000
 124.682585,    0.000000
 124.684252,    0.000000
 124.685918,    0.000000
 124.687585,    0.000000
 124.689252,    0.000000
 124.690918,    0.000000
 124.692585,    0.000000
 124.694252,    0.000000
 124.695918,    0.000000
 124.697585,    0.000000
 124.699252,    0.000000
 124.700918,    0.000000
 124.702585,    0.000000
 124.704252,    0.000000
 124.705918,    0.000000
 124.707585,    0.000000
 124.709252,    0.000000
 124.710918,    0.000000
 124.712585,    0.000000
 124.714252,    0.000000
 124.715918,    0.000000
 124.717585,    0.000000
 124.719252,    0.000000
 124.720918,    0.000000
 124.722585,    0.000000
 124.724252,    0.000000
 124.725918,    0.000000
 124.727585,    0.000000
 124.729252,    0.000000
 124.730918,    0.000000
 124.732585,    0.000000
 124.734252,    0.000000
 124.735918,    0.000000
 124.737585,    0.000000
 124.739252,    0.000000
 124.740918,    0.000000
 124.742585,    0.000000
 124.744252,    0.000000
 124.745918,    0.000000
 124.747585,    0.000000
 124.749252,    0.000000
 124.750918,    0.000000
 124.752585,    0.000000
 124.754252,    0.000000
 124.755918,    0.000000
 124.757585,    0.000000
 124.759252,    0.000000
 124.760918,    0.000000
 124.762585,    0.000000
 124.764252,    0.000000
 124.765918,    0.000000
 124.767585,    0.000000
 124.769252,    0.000000
 124.770918,    0.000000
 124.772585,    0.000000
 124.774252,    0.000000
 124.775918,    0.000000
 124.777585,    0.000000
 124.779252,    0.000000
 124.780918,    0.000000
 124.782585,    0.000000
 124.784252,    0.000000
 124.785918,    0.000000
 124.787585,    0.000000
 124.789252,    0.000000
 124.790918,    0.000000
 124.792585,    0.000000
 124.794252,    0.000000
 124.795918,    0.000000
 124.797585,    0.000000
 124.799252,    0.000000
 124.800918,    0.000000
 124.802585,    0.000000
 124.804252,    0.000000
 124.805918,    0.000000
 124.807585,    0.000000
 124.809252,    0.000000
 124.810918,    0.000000
 124.812585,    0.000000
 124.814252,    0.000000
 124.815918,    0.000000
 124.817585,    0.000000
 124.819252,    0.000000
 124.820918,    0.000000
 124.822585,    0.000000
 124.824252,    0.000000
 124.825918,    0.000000
 124.827585,    0.000000
 124.829252,    0.000000
 124.830918,    0.000000
 124.832585,    0.000000
 124.834252,    0.000000
 124.835918,    0.000000
 124.837585,    0.000000
 124.839252,    0.000000
 124.840918,    0.000000
 124.842585,    0.000000
 124.844252,    0.000000
 124.845918,    0.000000
 124.847585,    0.000000
 124.849252,    0.000000
 124.850918,    0.000000
 124.852585,    0.000000
 124.854252,    0.000000
 124.855918,    0.000000
 124.857585,    0.000000
 124.859252,    0.000000
 124.860918,    0.000000
 124.862585,    0.000000
 124.864252,    0.000000
 124.865918,    0.000000
 124.867585,    0.000000
 124.869252,    0.000000
 124.870918,    0.000000
 124.872585,    0.000000
 124.874252,    0.000000
 124.875918,    0.000000
 124.877585,    0.000000
 124.879252,    0.000000
 124.880918,    0.000000
 124.882585,    0.000000
 124.884252,    0.000000
 124.885918,    0.000000
 124.887585,    0.000000
 124.889252,    0.000000
 124.890918,    0.000000
 124.892585,    0.000000
 124.894252,    0.000000
 124.895918,    0.000000
 124.897585,    0.000000
 124.899252,    0.000000
 124.900918,    0.000000
 124.902585,    0.000000
 124.904252,    0.000000
 124.905918,    0.000000
 124.907585,    0.000000
 124.909252,    0.000000
 124.910918,    0.000000
 124.912585,    0.000000
 124.914252,    0.000000
 124.915918,    0.000000
 124.917585,    0.000000
 124.919252,    0.000000
 124.920918,    0.000000
 124.922585,    0.000000
 124.924252,    0.000000
 124.925918,    0.000000
 124.927585,    0.000000
 124.929252,    0.000000
 124.930918,    0.000000
 124.932585,    0.000000
 124.934252,    0.000000
 124.935918,    0.000000
 124.937585,    0.000000
 124.939252,    0.000000
 124.940918,    0.000000
 124.942585,    0.000000
 124.944252,    0.000000
 124.945918,    0.000000
 124.947585,    0.000000
 124.949252,    0.000000
 124.950918,    0.000000
 124.952585,    0.000000
 124.954252,    0.000000
 124.955918,    0.000000
 124.957585,    0.000000
 124.959252,    0.000000
 124.960918,    0.000000
 124.962585,    0.000000
 124.964252,    0.000000
 124.965918,    0.000000
 124.967585,    0.000000
 124.969252,    0.000000
 124.970918,    0.000000
 124.972585,    0.000000
 124.974252,    0.000000
 124.975918,    0.000000
 124.977585,    0.000000
 124.979252,    0.000000
 124.980918,    0.000000
 124.982585,    0.000000
 124.984252,    0.000000
 124.985918,    0.000000
 124.987585,    0.000000
 124.989252,    0.000000
 124.990918,    0.000000
 124.992585,    0.000000
 124.994252,    0.000000
 124.995918,    0.000000
 124.997585,    0.000000
 124.999252,    0.000000
 125.000918,    0.000000
 125.002585,    0.000000
 125.004252,    0.000000
 125.005918,    0.000000
 125.007585,    0.000000
 125.009252,    0.000000
 125.010918,    0.000000
 125.012585,    0.000000
 125.014252,    0.000000
 125.015918,    0.000000
 125.017585,    0.000000
 125.019252,    0.000000
 125.020918,    0.000000
 125.022585,    0.000000
 125.024252,    0.000000
 125.025918,    0.000000
 125.027585,    0.000000
 125.029252,    0.000000
 125.030918,    0.000000
 125.032585,    0.000000
 125.034252,    0.000000
 125.035918,    0.000000
 125.037585,    0.000000
 125.039252,    0.000000
 125.040918,    0.000000
 125.042585,    0.000000
 125.044252,    0.000000
 125.045918,    0.000000
 125.047585,    0.000000
 125.049252,    0.000000
 125.050918,    0.000000
 125.052585,    0.000000
 125.054252,    0.000000
 125.055918,    0.000000
 125.057585,    0.000000
 125.059252,    0.000000
 125.060918,    0.000000
 125.062585,    0.000000
 125.064252,    0.000000
 125.065918,    0.000000
 125.067585,    0.000000
 125.069252,    0.000000
 125.070918,    0.000000
 125.072585,    0.000000
 125.074252,    0.000000
 125.075918,    0.000000
 125.077585,    0.000000
 125.079252,    0.000000
 125.080918,    0.000000
 125.082585,    0.000000
 125.084252,    0.000000
 125.085918,    0.000000
 125.087585,    0.000000
 125.089252,    0.000000
 125.090918,    0.000000
 125.092585,    0.000000
 125.094252,    0.000000
 125.095918,    0.000000
 125.097585,    0.000000
 125.099252,    0.000000
 125.100918,    0.000000
 125.102585,    0.000000
 125.104252,    0.000000
 125.105918,    0.000000
 125.107585,    0.000000
 125.109252,    0.000000
 125.110918,    0.000000
 125.112585,    0.000000
 125.114252,    0.000000
 125.115918,    0.000000
 125.117585,    0.000000
 125.119252,    0.000000
 125.120918,    0.000000
 125.122585,    0.000000
 125.124252,    0.000000
 125.125918,    0.000000
 125.127585,    0.000000
 125.129252,    0.000000
 125.130918,    0.000000
 125.132585,    0.000000
 125.134252,    0.000000
 125.135918,    0.000000
 125.137585,    0.000000
 125.139252,    0.000000
 125.140918,    0.000000
 125.142585,    0.000000
 125.144252,    0.000000
 125.145918,    0.000000
 125.147585,    0.000000
 125.149252,    0.000000
 125.150918,    0.000000
 125.152585,    0.000000
 125.154252,    0.000000
 125.155918,    0.000000
 125.157585,    0.000000
 125.159252,    0.000000
 125.160918,    0.000000
 125.162585,    0.000000
 125.164252,    0.000000
 125.165918,    0.000000
 125.167585,    0.000000
 125.169252,    0.000000
 125.170918,    0.000000
 125.172585,    0.000000
 125.174252,    0.000000
 125.175918,    0.000000
 125.177585,    0.000000
 125.179252,    0.000000
 125.180918,    0.000000
 125.182585,    0.000000
 125.184252,    0.000000
 125.185918,    0.000000
 125.187585,    0.000000
 125.189252,    0.000000
 125.190918,    0.000000
 125.192585,    0.000000
 125.194252,    0.000000
 125.195918,    0.000000
 125.197585,    0.000000
 125.199252,    0.000000
 125.200918,    0.000000
 125.202585,    0.000000
 125.204252,    0.000000
 125.205918,    0.000000
 125.207585,    0.000000
 125.209252,    0.000000
 125.210918,    0.000000
 125.212585,    0.000000
 125.214252,    0.000000
 125.215918,    0.000000
 125.217585,    0.000000
 125.219252,    0.000000
 125.220918,    0.000000
 125.222585,    0.000000
 125.224252,    0.000000
 125.225918,    0.000000
 125.227585,    0.000000
 125.229252,    0.000000
 125.230918,    0.000000
 125.232585,    0.000000
 125.234252,    0.000000
 125.235918,    0.000000
 125.237585,    0.000000
 125.239252,    0.000000
 125.240918,    0.000000
 125.242585,    0.000000
 125.244252,    0.000000
 125.245918,    0.000000
 125.247585,    0.000000
 125.249252,    0.000000
 125.250918,    0.000000
 125.252585,    0.000000
 125.254252,    0.000000
 125.255918,    0.000000
 125.257585,    0.000000
 125.259252,    0.000000
 125.260918,    0.000000
 125.262585,    0.000000
 125.264252,    0.000000
 125.265918,    0.000000
 125.267585,    0.000000
 125.269252,    0.000000
 125.270918,    0.000000
 125.272585,    0.000000
 125.274252,    0.000000
 125.275918,    0.000000
 125.277585,    0.000000
 125.279252,    0.000000
 125.280918,    0.000000
 125.282585,    0.000000
 125.284252,    0.000000
 125.285918,    0.000000
 125.287585,    0.000000
 125.289252,    0.000000
 125.290918,    0.000000
 125.292585,    0.000000
 125.294252,    0.000000
 125.295918,    0.000000
 125.297585,    0.000000
 125.299252,    0.000000
 125.300918,    0.000000
 125.302585,    0.000000
 125.304252,    0.000000
 125.305918,    0.000000
 125.307585,    0.000000
 125.309252,    0.000000
 125.310918,    0.000000
 125.312585,    0.000000
 125.314252,    0.000000
 125.315918,    0.000000
 125.317585,    0.000000
 125.319252,    0.000000
 125.320918,    0.000000
 125.322585,    0.000000
 125.324252,    0.000000
 125.325918,    0.000000
 125.327585,    0.000000
 125.329252,    0.000000
 125.330918,    0.000000
 125.332585,    0.000000
 125.334252,    0.000000
 125.335918,    0.000000
 125.337585,    0.000000
 125.339252,    0.000000
 125.340918,    0.000000
 125.342585,    0.000000
 125.344252,    0.000000
 125.345918,    0.000000
 125.347585,    0.000000
 125.349252,    0.000000
 125.350918,    0.000000
 125.352585,    0.000000
 125.354252,    0.000000
 125.355918,    0.000000
 125.357585,    0.000000
 125.359252,    0.000000
 125.360918,    0.000000
 125.362585,    0.000000
 125.364252,    0.000000
 125.365918,    0.000000
 125.367585,    0.000000
 125.369252,    0.000000
 125.370918,    0.000000
 125.372585,    0.000000
 125.374252,    0.000000
 125.375918,    0.000000
 125.377585,    0.000000
 125.379252,    0.000000
 125.380918,    0.000000
 125.382585,    0.000000
 125.384252,    0.000000
 125.385918,    0.000000
 125.387585,    0.000000
 125.389252,    0.000000
 125.390918,    0.000000
 125.392585,    0.000000
 125.394252,    0.000000
 125.395918,    0.000000
 125.397585,    0.000000
 125.399252,    0.000000
 125.400918,    0.000000
 125.402585,    0.000000
 125.404252,    0.000000
 125.405918,    0.000000
 125.407585,    0.000000
 125.409252,    0.000000
 125.410918,    0.000000
 125.412585,    0.000000
 125.414252,    0.000000
 125.415918,    0.000000
 125.417585,    0.000000
 125.419252,    0.000000
 125.420918,    0.000000
 125.422585,    0.000000
 125.424252,    0.000000
 125.425918,    0.000000
 125.427585,    0.000000
 125.429252,    0.000000
 125.430918,    0.000000
 125.432585,    0.000000
 125.434252,    0.000000
 125.435918,    0.000000
 125.437585,    0.000000
 125.439252,    0.000000
 125.440918,    0.000000
 125.442585,    0.000000
 125.444252,    0.000000
 125.445918,    0.000000
 125.447585,    0.000000
 125.449252,    0.000000
 125.450918,    0.000000
 125.452585,    0.000000
 125.454252,    0.000000
 125.455918,    0.000000
 125.457585,    0.000000
 125.459252,    0.000000
 125.460918,    0.000000
 125.462585,    0.000000
 125.464252,    0.000000
 125.465918,    0.000000
 125.467585,    0.000000
 125.469252,    0.000000
 125.470918,    0.000000
 125.472585,    0.000000
 125.474252,    0.000000
 125.475918,    0.000000
 125.477585,    0.000000
 125.479252,    0.000000
 125.480918,    0.000000
 125.482585,    0.000000
 125.484252,    0.000000
 125.485918,    0.000000
 125.487585,    0.000000
 125.489252,    0.000000
 125.490918,    0.000000
 125.492585,    0.000000
 125.494252,    0.000000
 125.495918,    0.000000
 125.497585,    0.000000
 125.499252,    0.000000
 125.500918,    0.000000
 125.502585,    0.000000
 125.504252,    0.000000
 125.505918,    0.000000
 125.507585,    0.000000
 125.509252,    0.000000
 125.510918,    0.000000
 125.512585,    0.000000
 125.514252,    0.000000
 125.515918,    0.000000
 125.517585,    0.000000
 125.519252,    0.000000
 125.520918,    0.000000
 125.522585,    0.000000
 125.524252,    0.000000
 125.525918,    0.000000
 125.527585,    0.000000
 125.529252,    0.000000
 125.530918,    0.000000
 125.532585,    0.000000
 125.534252,    0.000000
 125.535918,    0.000000
 125.537585,    0.000000
 125.539252,    0.000000
 125.540918,    0.000000
 125.542585,    0.000000
 125.544252,    0.000000
 125.545918,    0.000000
 125.547585,    0.000000
 125.549252,    0.000000
 125.550918,    0.000000
 125.552585,    0.000000
 125.554252,    0.000000
 125.555918,    0.000000
 125.557585,    0.000000
 125.559252,    0.000000
 125.560918,    0.000000
 125.562585,    0.000000
 125.564252,    0.000000
 125.565918,    0.000000
 125.567585,    0.000000
 125.569252,    0.000000
 125.570918,    0.000000
 125.572585,    0.000000
 125.574252,    0.000000
 125.575918,    0.000000
 125.577585,    0.000000
 125.579252,    0.000000
 125.580918,    0.000000
 125.582585,    0.000000
 125.584252,    0.000000
 125.585918,    0.000000
 125.587585,    0.000000
 125.589252,    0.000000
 125.590918,    0.000000
 125.592585,    0.000000
 125.594252,    0.000000
 125.595918,    0.000000
 125.597585,    0.000000
 125.599252,    0.000000
 125.600918,    0.000000
 125.602585,    0.000000
 125.604252,    0.000000
 125.605918,    0.000000
 125.607585,    0.000000
 125.609252,    0.000000
 125.610918,    0.000000
 125.612585,    0.000000
 125.614252,    0.000000
 125.615918,    0.000000
 125.617585,    0.000000
 125.619252,    0.000000
 125.620918,    0.000000
 125.622585,    0.000000
 125.624252,    0.000000
 125.625918,    0.000000
 125.627585,    0.000000
 125.629252,    0.000000
 125.630918,    0.000000
 125.632585,    0.000000
 125.634252,    0.000000
 125.635918,    0.000000
 125.637585,    0.000000
 125.639252,    0.000000
 125.640918,    0.000000
 125.642585,    0.000000
 125.644252,    0.000000
 125.645918,    0.000000
 125.647585,    0.000000
 125.649252,    0.000000
 125.650918,    0.000000
 125.652585,    0.000000
 125.654252,    0.000000
 125.655918,    0.000000
 125.657585,    0.000000
 125.659252,    0.000000
 125.660918,    0.000000
 125.662585,    0.000000
 125.664252,    0.000000
 125.665918,    0.000000
 125.667585,    0.000000
 125.669252,    0.000000
 125.670918,    0.000000
 125.672585,    0.000000
 125.674252,    0.000000
 125.675918,    0.000000
 125.677585,    0.000000
 125.679252,    0.000000
 125.680918,    0.000000
 125.682585,    0.000000
 125.684252,    0.000000
 125.685918,    0.000000
 125.687585,    0.000000
 125.689252,    0.000000
 125.690918,    0.000000
 125.692585,    0.000000
 125.694252,    0.000000
 125.695918,    0.000000
 125.697585,    0.000000
 125.699252,    0.000000
 125.700918,    0.000000
 125.702585,    0.000000
 125.704252,    0.000000
 125.705918,    0.000000
 125.707585,    0.000000
 125.709252,    0.000000
 125.710918,    0.000000
 125.712585,    0.000000
 125.714252,    0.000000
 125.715918,    0.000000
 125.717585,    0.000000
 125.719252,    0.000000
 125.720918,    0.000000
 125.722585,    0.000000
 125.724252,    0.000000
 125.725918,    0.000000
 125.727585,    0.000000
 125.729252,    0.000000
 125.730918,    0.000000
 125.732585,    0.000000
 125.734252,    0.000000
 125.735918,    0.000000
 125.737585,    0.000000
 125.739252,    0.000000
 125.740918,    0.000000
 125.742585,    0.000000
 125.744252,    0.000000
 125.745918,    0.000000
 125.747585,    0.000000
 125.749252,    0.000000
 125.750918,    0.000000
 125.752585,    0.000000
 125.754252,    0.000000
 125.755918,    0.000000
 125.757585,    0.000000
 125.759252,    0.000000
 125.760918,    0.000000
 125.762585,    0.000000
 125.764252,    0.000000
 125.765918,    0.000000
 125.767585,    0.000000
 125.769252,    0.000000
 125.770918,    0.000000
 125.772585,    0.000000
 125.774252,    0.000000
 125.775918,    0.000000
 125.777585,    0.000000
 125.779252,    0.000000
 125.780918,    0.000000
 125.782585,    0.000000
 125.784252,    0.000000
 125.785918,    0.000000
 125.787585,    0.000000
 125.789252,    0.000000
 125.790918,    0.000000
 125.792585,    0.000000
 125.794252,    0.000000
 125.795918,    0.000000
 125.797585,    0.000000
 125.799252,    0.000000
 125.800918,    0.000000
 125.802585,    0.000000
 125.804252,    0.000000
 125.805918,    0.000000
 125.807585,    0.000000
 125.809252,    0.000000
 125.810918,    0.000000
 125.812585,    0.000000
 125.814252,    0.000000
 125.815918,    0.000000
 125.817585,    0.000000
 125.819252,    0.000000
 125.820918,    0.000000
 125.822585,    0.000000
 125.824252,    0.000000
 125.825918,    0.000000
 125.827585,    0.000000
 125.829252,    0.000000
 125.830918,    0.000000
 125.832585,    0.000000
 125.834252,    0.000000
 125.835918,    0.000000
 125.837585,    0.000000
 125.839252,    0.000000
 125.840918,    0.000000
 125.842585,    0.000000
 125.844252,    0.000000
 125.845918,    0.000000
 125.847585,    0.000000
 125.849252,    0.000000
 125.850918,    0.000000
 125.852585,    0.000000
 125.854252,    0.000000
 125.855918,    0.000000
 125.857585,    0.000000
 125.859252,    0.000000
 125.860918,    0.000000
 125.862585,    0.000000
 125.864252,    0.000000
 125.865918,    0.000000
 125.867585,    0.000000
 125.869252,    0.000000
 125.870918,    0.000000
 125.872585,    0.000000
 125.874252,    0.000000
 125.875918,    0.000000
 125.877585,    0.000000
 125.879252,    0.000000
 125.880918,    0.000000
 125.882585,    0.000000
 125.884252,    0.000000
 125.885918,    0.000000
 125.887585,    0.000000
 125.889252,    0.000000
 125.890918,    0.000000
 125.892585,    0.000000
 125.894252,    0.000000
 125.895918,    0.000000
 125.897585,    0.000000
 125.899252,    0.000000
 125.900918,    0.000000
 125.902585,    0.000000
 125.904252,    0.000000
 125.905918,    0.000000
 125.907585,    0.000000
 125.909252,    0.000000
 125.910918,    0.000000
 125.912585,    0.000000
 125.914252,    0.000000
 125.915918,    0.000000
 125.917585,    0.000000
 125.919252,    0.000000
 125.920918,    0.000000
 125.922585,    0.000000
 125.924252,    0.000000
 125.925918,    0.000000
 125.927585,    0.000000
 125.929252,    0.000000
 125.930918,    0.000000
 125.932585,    0.000000
 125.934252,    0.000000
 125.935918,    0.000000
 125.937585,    0.000000
 125.939252,    0.000000
 125.940918,    0.000000
 125.942585,    0.000000
 125.944252,    0.000000
 125.945918,    0.000000
 125.947585,    0.000000
 125.949252,    0.000000
 125.950918,    0.000000
 125.952585,    0.000000
 125.954252,    0.000000
 125.955918,    0.000000
 125.957585,    0.000000
 125.959252,    0.000000
 125.960918,    0.000000
 125.962585,    0.000000
 125.964252,    0.000000
 125.965918,    0.000000
 125.967585,    0.000000
 125.969252,    0.000000
 125.970918,    0.000000
 125.972585,    0.000000
 125.974252,    0.000000
 125.975918,    0.000000
 125.977585,    0.000000
 125.979252,    0.000000
 125.980918,    0.000000
 125.982585,    0.000000
 125.984252,    0.000000
 125.985918,    0.000000
 125.987585,    0.000000
 125.989252,    0.000000
 125.990918,    0.000000
 125.992585,    0.000000
 125.994252,    0.000000
 125.995918,    0.000000
 125.997585,    0.000000
 125.999252,    0.000000
 126.000918,    0.000000
 126.002585,    0.000000
 126.004252,    0.000000
 126.005918,    0.000000
 126.007585,    0.000000
 126.009252,    0.000000
 126.010918,    0.000000
 126.012585,    0.000000
 126.014252,    0.000000
 126.015918,    0.000000
 126.017585,    0.000000
 126.019252,    0.000000
 126.020918,    0.000000
 126.022585,    0.000000
 126.024252,    0.000000
 126.025918,    0.000000
 126.027585,    0.000000
 126.029252,    0.000000
 126.030918,    0.000000
 126.032585,    0.000000
 126.034252,    0.000000
 126.035918,    0.000000
 126.037585,    0.000000
 126.039252,    0.000000
 126.040918,    0.000000
 126.042585,    0.000000
 126.044252,    0.000000
 126.045918,    0.000000
 126.047585,    0.000000
 126.049252,    0.000000
 126.050918,    0.000000
 126.052585,    0.000000
 126.054252,    0.000000
 126.055918,    0.000000
 126.057585,    0.000000
 126.059252,    0.000000
 126.060918,    0.000000
 126.062585,    0.000000
 126.064252,    0.000000
 126.065918,    0.000000
 126.067585,    0.000000
 126.069252,    0.000000
 126.070918,    0.000000
 126.072585,    0.000000
 126.074252,    0.000000
 126.075918,    0.000000
 126.077585,    0.000000
 126.079252,    0.000000
 126.080918,    0.000000
 126.082585,    0.000000
 126.084252,    0.000000
 126.085918,    0.000000
 126.087585,    0.000000
 126.088545,    0.000000
 126.090212,    0.000000
 126.091879,    0.000000
 126.093545,    0.000000
 126.095212,    0.000000
 126.096879,    0.000000
 126.098545,    0.000000
 126.100212,    0.000000
 126.101879,    0.000000
 126.103545,    0.000000
 126.105212,    0.000000
 126.106879,    0.000000
 126.108545,    0.000000
 126.110212,    0.000000
 126.111879,    0.000000
 126.113545,    0.000000
 126.115212,    0.000000
 126.116879,    0.000000
 126.118545,    0.000000
 126.120212,    0.000000
 126.121879,    0.000000
 126.123545,    0.000000
 126.125212,    0.000000
 126.126879,    0.000000
 126.128545,    0.000000
 126.130212,    0.000000
 126.131879,    0.000000
 126.133545,    0.000000
 126.135212,    0.000000
 126.136879,    0.000000
 126.138545,    0.000000
 126.140212,    0.000000
 126.141879,    0.000000
 126.143110,    0.000000
