Ground Distance, Horizontal Forces
   0.000000,    0.000000
   0.015373,    0.048888
   0.168785,    0.533504
   0.339217,    1.071839
   0.509649,    1.610175
   0.680081,    2.148511
   0.850513,    2.686847
   1.020945,    3.225182
   1.191377,    3.763518
   1.361810,    4.301854
   1.532242,    4.840189
   1.702674,    5.378525
   2.119176,    6.682180
   2.566403,    8.081393
   3.013630,    9.480606
   3.460857,   10.879818
   3.908084,   12.279031
   4.355311,   13.678244
   4.802538,   15.077456
   5.249765,   16.476669
   5.696992,   17.875881
   6.144219,   19.275094
   6.834921,   21.414855
   7.556023,   23.647080
   8.277125,   25.879305
   8.998227,   28.111530
   9.719329,   30.343755
  10.440431,   32.575980
  11.161533,   34.808205
  11.882635,   37.040431
  12.603737,   39.272656
  13.324839,   41.504881
  14.286743,   44.452218
  15.278714,   47.488843
  16.270685,   50.525468
  17.262656,   53.562093
  18.254627,   56.598718
  19.246597,   59.635343
  20.238568,   62.671969
  21.230539,   65.708594
  22.222510,   68.745219
  23.214481,   71.781844
  24.444509,   75.507572
  25.704260,   79.319340
  26.964012,   83.131109
  28.223763,   86.942877
  29.483515,   90.754646
  30.743266,   94.566414
  32.003017,   98.378183
  33.262769,  102.189951
  34.522520,  106.001719
  35.782272,  109.813488
  37.277267,  114.287868
  38.801634,  118.844981
  40.326001,  123.402094
  41.850368,  127.959207
  43.374735,  132.516320
  44.899102,  137.073434
  46.423469,  141.630547
  47.947835,  146.187660
  49.472202,  150.744773
  50.996569,  155.301886
  52.753203,  160.486951
  54.538837,  165.750422
  56.324472,  171.013893
  58.110106,  176.277364
  59.895740,  181.540835
  61.681374,  186.804306
  63.467009,  192.067777
  65.252643,  197.331248
  67.038277,  202.594719
  68.823911,  207.858190
  70.838111,  213.702946
  72.880849,  219.620280
  74.923587,  225.537614
  76.966325,  231.454949
  79.009063,  237.372283
  81.051801,  243.289617
  83.094539,  249.206952
  85.137277,  255.124286
  87.180015,  261.041620
  89.222753,  266.958954
  91.490044,  273.421934
  93.785372,  279.953043
  96.080700,  286.484152
  98.376028,  293.015261
 100.671357,  299.546370
 102.966685,  306.077479
 105.262013,  312.608588
 107.557341,  319.139697
 109.852669,  325.670806
 112.147997,  332.201915
 114.663848,  339.243867
 117.207232,  346.349602
 119.750617,  353.455338
 122.294002,  360.561073
 124.837386,  367.666808
 127.380771,  374.772544
 129.924156,  381.878279
 132.467540,  388.984014
 135.010925,  396.089749
 137.554309,  403.195485
 140.314173,  410.777878
 143.101066,  418.419787
 145.887959,  426.061696
 148.674852,  433.703604
 151.461746,  441.345513
 154.248639,  448.987422
 157.035532,  456.629331
 159.822425,  464.271239
 162.609318,  471.913148
 165.396211,  479.555057
 168.395532,  487.640127
 171.421377,  495.780530
 174.447222,  503.920933
 177.473067,  512.061336
 180.498912,  520.201739
 183.524756,  528.342143
 186.550601,  536.482546
 189.576446,  544.622949
 192.602291,  552.763352
 195.628136,  560.903755
 198.862355,  569.454573
 202.122591,  578.056635
 205.382827,  586.658697
 208.643064,  595.260759
 211.903300,  603.862821
 215.163536,  612.464883
 218.423773,  621.066944
 221.684009,  629.669006
 224.944245,  638.271068
 228.204481,  646.873130
 231.668895,  655.833977
 235.158801,  664.839622
 238.648708,  673.845267
 242.138614,  682.850912
 245.628521,  691.856556
 249.118428,  700.862201
 252.608334,  709.867846
 256.098241,  718.873491
 259.588147,  727.879135
 263.078054,  736.884780
 266.767166,  746.184056
 270.481150,  755.519995
 274.195135,  764.855933
 277.909119,  774.191872
 281.623104,  783.527811
 285.337089,  792.863749
 289.051073,  802.199688
 292.765058,  811.535627
 296.479042,  820.871565
 300.193027,  830.207504
 304.101016,  839.800278
 308.033229,  849.425120
 311.965441,  859.049963
 315.897653,  868.674805
 319.829866,  878.299647
 323.762078,  887.924490
 327.694291,  897.549332
 331.626503,  907.174174
 335.558716,  916.799017
 339.490928,  926.423859
 343.612015,  936.271083
 347.756684,  946.146074
 351.901354,  956.021064
 356.046023,  965.896055
 360.190693,  975.771045
 364.335362,  985.646036
 368.480032,  995.521026
 372.624701, 1005.396017
 376.769371, 1015.271007
 380.914040, 1025.145998
 385.242527, 1035.210769
 389.593966, 1045.299235
 393.945405, 1055.387702
 398.296843, 1065.476169
 402.648282, 1075.564635
 406.999720, 1085.653102
 411.351159, 1095.741569
 415.702597, 1105.830035
 420.054036, 1115.918502
 424.405474, 1126.006969
 428.935751, 1136.254439
 433.488357, 1146.521762
 438.040963, 1156.789085
 442.593569, 1167.056408
 447.146175, 1177.323731
 451.698781, 1187.591054
 456.251387, 1197.858377
 460.803994, 1208.125700
 465.356600, 1218.393023
 469.909206, 1228.660346
 474.635749, 1239.057686
 479.384011, 1249.471260
 484.132272, 1259.884834
 488.880534, 1270.298407
 493.628795, 1280.711981
 498.377056, 1291.125555
 503.125318, 1301.539129
 507.873579, 1311.952703
 512.621841, 1322.366276
 517.370102, 1332.779850
 522.287483, 1343.296206
 527.225979, 1353.825395
 532.164476, 1364.354584
 537.102972, 1374.883774
 542.041469, 1385.412963
 546.979965, 1395.942152
 551.918462, 1406.471341
 556.856959, 1417.000531
 561.795455, 1427.529720
 566.733952, 1438.058909
 571.836835, 1448.666015
 576.960243, 1459.282849
 582.083652, 1469.899683
 587.207060, 1480.516517
 592.330468, 1491.133351
 597.453877, 1501.750185
 602.577285, 1512.367019
 607.700694, 1522.983853
 612.824102, 1533.600687
 617.947510, 1544.217521
 623.230690, 1554.890993
 628.533819, 1565.571536
 633.836948, 1576.252080
 639.140077, 1586.932623
 644.443206, 1597.613166
 649.746335, 1608.293709
 655.049464, 1618.974253
 660.352593, 1629.654796
 665.655722, 1640.335339
 670.958851, 1651.015882
 676.417244, 1661.731226
 681.895024, 1672.450914
 687.372804, 1683.170603
 692.850584, 1693.890291
 698.328364, 1704.609980
 703.806143, 1715.329668
 709.283923, 1726.049356
 714.761703, 1736.769045
 720.239483, 1747.488733
 725.717263, 1758.208422
 731.303522, 1768.940936
 736.903326, 1779.675052
 742.503130, 1790.409167
 748.102934, 1801.143283
 750.429016, 1805.602088
 756.112488, 1841.296142
 761.795960, 1876.990195
 767.479432, 1912.684249
 773.162904, 1948.378303
 778.846375, 1984.072357
 784.568708, 2019.117646
 790.379849, 2052.680313
 796.190990, 2086.242981
 802.002132, 2119.805648
 807.813273, 2153.368315
 813.624414, 2186.930983
 819.435555, 2220.493650
 825.246697, 2254.056317
 831.057838, 2287.618985
 836.868979, 2321.181652
 842.727488, 2362.236763
 848.694245, 2420.414347
 854.661002, 2478.591931
 860.627759, 2536.769515
 866.594516, 2594.947099
 872.561273, 2653.124683
 878.528030, 2711.302268
 884.494787, 2769.479852
 890.461544, 2827.657436
 896.428301, 2885.835020
 902.439491, 2945.502438
 908.552225, 3008.574571
 914.664958, 3071.646705
 920.777691, 3134.718838
 926.890425, 3197.790972
 933.003158, 3260.863106
 939.115891, 3323.935239
 945.228625, 3387.007373
 951.341358, 3450.079506
 957.454091, 3513.151640
 961.706192, 3557.025480
 967.934738, 3785.442010
 974.163284, 4013.858540
 980.391830, 4242.275071
 986.620376, 4470.691601
 992.848922, 4699.108132
 999.077468, 4927.524662
1005.306014, 5155.941193
1011.534560, 5384.357723
1017.763106, 5612.774253
1023.991652, 5841.190784
1030.261056, 5846.902565
1036.530460, 5852.614347
1042.799864, 5858.326128
1049.069269, 5864.037910
1055.338673, 5869.749691
1061.618214, 5871.161768
1067.897755, 5872.573845
1074.177297, 5873.985922
1080.456838, 5875.397999
1086.736379, 5876.810076
1093.011579, 5872.739859
1099.286780, 5868.669642
1105.561980, 5864.599425
1111.837180, 5860.529208
1118.112381, 5856.458990
1124.387581, 5852.388773
1130.662781, 5848.318556
1136.937982, 5844.248339
