Time, Climb Angle
   0.000000,    0.000000
   0.001667,    0.000000
   0.003333,    0.000000
   0.005000,    0.000000
   0.006667,    0.000000
   0.008333,    0.000000
   0.010000,    0.000000
   0.011667,    0.000000
   0.013333,    0.000000
   0.015000,    0.000000
   0.016667,    0.000000
   0.018333,    0.000000
   0.020000,    0.000000
   0.021667,    0.000000
   0.023333,    0.000000
   0.025000,    0.000000
   0.026667,    0.000000
   0.028333,    0.000000
   0.030000,    0.000000
   0.031667,    0.000000
   0.033333,    0.000000
   0.035000,    0.000000
   0.036667,    0.000000
   0.038333,    0.000000
   0.040000,    0.000000
   0.041667,    0.000000
   0.043333,    0.000000
   0.045000,    0.000000
   0.046667,    0.000000
   0.048333,    0.000000
   0.050000,    0.000000
   0.051667,    0.000000
   0.053333,    0.000000
   0.055000,    0.000000
   0.056667,    0.000000
   0.058333,    0.000000
   0.060000,    0.000000
   0.061667,    0.000000
   0.063333,    0.000000
   0.065000,    0.000000
   0.066667,    0.000000
   0.068333,    0.000000
   0.070000,    0.000000
   0.071667,    0.000000
   0.073333,    0.000000
   0.075000,    0.000000
   0.076667,    0.000000
   0.078333,    0.000000
   0.080000,    0.000000
   0.081667,    0.000000
   0.083333,    0.000000
   0.085000,    0.000000
   0.086667,    0.000000
   0.088333,    0.000000
   0.090000,    0.000000
   0.091667,    0.000000
   0.093333,    0.000000
   0.095000,    0.000000
   0.096667,    0.000000
   0.098333,    0.000000
   0.100000,    0.000000
   0.101667,    0.000000
   0.103333,    0.000000
   0.105000,    0.000000
   0.106667,    0.000000
   0.108333,    0.000000
   0.110000,    0.000000
   0.111667,    0.000000
   0.113333,    0.000000
   0.115000,    0.000000
   0.116667,    0.000000
   0.118333,    0.000000
   0.120000,    0.000000
   0.121667,    0.000000
   0.123333,    0.000000
   0.125000,    0.000000
   0.126667,    0.000000
   0.128333,    0.000000
   0.130000,    0.000000
   0.131667,    0.000000
   0.133333,    0.000000
   0.135000,    0.000000
   0.136667,    0.000000
   0.138333,    0.000000
   0.140000,    0.000000
   0.141667,    0.000000
   0.143333,    0.000000
   0.145000,    0.000000
   0.146667,    0.000000
   0.148333,    0.000000
   0.150000,    0.000000
   0.151667,    0.000000
   0.153333,    0.000000
   0.155000,    0.000000
   0.156667,    0.000000
   0.158333,    0.000000
   0.160000,    0.000000
   0.161667,    0.000000
   0.163333,    0.000000
   0.165000,    0.000000
   0.166667,    0.000000
   0.168333,    0.000000
   0.170000,    0.000000
   0.171667,    0.000000
   0.173333,    0.000000
   0.175000,    0.000000
   0.176667,    0.000000
   0.178333,    0.000000
   0.180000,    0.000000
   0.181667,    0.000000
   0.183333,    0.000000
   0.185000,    0.000000
   0.186667,    0.000000
   0.188333,    0.000000
   0.190000,    0.000000
   0.191667,    0.000000
   0.193333,    0.000000
   0.195000,    0.000000
   0.196667,    0.000000
   0.198333,    0.000000
   0.200000,    0.000000
   0.201667,    0.000000
   0.203333,    0.000000
   0.205000,    0.000000
   0.206667,    0.000000
   0.208333,    0.000000
   0.210000,    0.000000
   0.211667,    0.000000
   0.213333,    0.000000
   0.215000,    0.000000
   0.216667,    0.000000
   0.218333,    0.000000
   0.220000,    0.000000
   0.221667,    0.000000
   0.223333,    0.000000
   0.225000,    0.000000
   0.226667,    0.000000
   0.228333,    0.000000
   0.230000,    0.000000
   0.231667,    0.000000
   0.233333,    0.000000
   0.235000,    0.000000
   0.236667,    0.000000
   0.238333,    0.000000
   0.240000,    0.000000
   0.241667,    0.000000
   0.243333,    0.000000
   0.245000,    0.000000
   0.246667,    0.000000
   0.248333,    0.000000
   0.250000,    0.000000
   0.251667,    0.000000
   0.253333,    0.000000
   0.255000,    0.000000
   0.256667,    0.000000
   0.258333,    0.000000
   0.260000,    0.000000
   0.261667,    0.000000
   0.263333,    0.000000
   0.265000,    0.000000
   0.266667,    0.000000
   0.268333,    0.000000
   0.270000,    0.000000
   0.271667,    0.000000
   0.273333,    0.000000
   0.275000,    0.000000
   0.276667,    0.000000
   0.278333,    0.000000
   0.280000,    0.000000
   0.281667,    0.000000
   0.283333,    0.000000
   0.285000,    0.000000
   0.286667,    0.000000
   0.288333,    0.000000
   0.290000,    0.000000
   0.291667,    0.000000
   0.293333,    0.000000
   0.295000,    0.000000
   0.296667,    0.000000
   0.298333,    0.000000
   0.300000,    0.000000
   0.301667,    0.000000
   0.303333,    0.000000
   0.305000,    0.000000
   0.306667,    0.000000
   0.308333,    0.000000
   0.310000,    0.000000
   0.311667,    0.000000
   0.312642,    0.000000
   0.314309,    0.000000
   0.315975,    0.000000
   0.317642,    0.000000
   0.319309,    0.000000
   0.320975,    0.000000
   0.322642,    0.000000
   0.324309,    0.000000
   0.325975,    0.000000
   0.327642,    0.000000
   0.329309,    0.000000
   0.330975,    0.000000
   0.332642,    0.000000
   0.334309,    0.000000
   0.335975,    0.000000
   0.337642,    0.000000
   0.339309,    0.000000
   0.340975,    0.000000
   0.342642,    0.000000
   0.344309,    0.000000
   0.345975,    0.000000
   0.347642,    0.000000
   0.349309,    0.000000
   0.350975,    0.000000
   0.352642,    0.000000
   0.354309,    0.000000
   0.355975,    0.000000
   0.357642,    0.000000
   0.359309,    0.000000
   0.360975,    0.000000
   0.362642,    0.000000
   0.364309,    0.000000
   0.365975,    0.000000
   0.367642,    0.000000
   0.368518,    0.000000
   0.370185,    0.298006
   0.371852,    0.596012
   0.373518,    0.894017
   0.375185,    1.192023
   0.376852,    1.490029
   0.378518,    1.788035
   0.380185,    2.086041
   0.381852,    2.384047
   0.383518,    2.682052
   0.385185,    2.980058
   0.386852,    3.301356
   0.388518,    3.622654
   0.390185,    3.943952
   0.391852,    4.265250
   0.393518,    4.586548
   0.395185,    4.917056
   0.396852,    5.247564
   0.398518,    5.578072
   0.400185,    5.908580
   0.401852,    6.239088
   0.403518,    6.574728
   0.405185,    6.910367
   0.406852,    7.246007
   0.408518,    7.581647
   0.410185,    7.917286
   0.410185,    5.309256
   1.605400,    5.056183
   2.825139,    4.819441
   4.084250,    4.484111
   5.433948,    3.965616
   6.920962,    3.485069
   8.567151,    3.050201
  10.405942,    2.632476
  12.496124,    2.224263
  14.982109,    1.759447
  14.982109,    0.000000
  15.801212,    0.000000
  16.620315,    0.000000
  17.439418,    0.000000
  18.258522,    0.000000
  19.077625,    0.000000
  19.896728,    0.000000
  20.715832,    0.000000
  21.534935,    0.000000
  22.354038,    0.000000
  23.173141,    0.000000
  23.992245,    0.000000
  24.811348,    0.000000
  25.630451,    0.000000
  26.449554,    0.000000
  27.268658,    0.000000
  28.087761,    0.000000
  28.906864,    0.000000
  29.725967,    0.000000
  30.545071,    0.000000
  31.364174,    0.000000
  32.183277,    0.000000
  33.002380,    0.000000
  33.821484,    0.000000
  34.640587,    0.000000
  35.459690,    0.000000
  36.278793,    0.000000
  37.097897,    0.000000
  37.917000,    0.000000
  38.736103,    0.000000
  38.736103,   -2.904207
  39.896032,   -3.017056
  41.058764,   -3.095104
  42.220084,   -3.185592
  43.376236,   -3.288254
  44.524976,   -3.399777
  45.661995,   -3.527411
  46.783206,   -3.672411
  47.900611,   -3.781821
  49.010509,   -3.906348
  49.010509,    5.340351
  49.589924,    5.214107
  50.174964,    5.092213
  50.765469,    4.974727
  51.364214,    4.813742
  51.981985,    4.541793
  52.628108,    4.274517
  53.305596,    4.012073
  54.016769,    3.766566
  54.763442,    3.533377
  54.763442,    0.000000
  56.615618,    0.000000
  58.468603,    0.000000
  60.322397,    0.000000
  62.177002,    0.000000
  64.032418,    0.000000
  65.888646,    0.000000
  67.745686,    0.000000
  69.603540,    0.000000
  71.462208,    0.000000
  71.462208,   -3.310064
  72.108615,   -3.278941
  72.744854,   -3.380694
  73.383630,   -3.416740
  74.025084,   -3.452128
  74.669359,   -3.486839
  75.316244,   -3.522769
  75.965602,   -3.559553
  76.616971,   -3.598992
  77.269434,   -3.643689
  77.269434,    0.000000
  82.269434,    0.000000
  87.269434,    0.000000
  92.269434,    0.000000
  97.269434,    0.000000
 102.269434,    0.000000
 107.269434,    0.000000
 112.269434,    0.000000
 117.269434,    0.000000
 122.269434,    0.000000
 122.269434,   -3.000000
 122.271101,   -2.999911
 122.272767,   -2.999804
 122.274434,   -2.999696
 122.276101,   -2.999421
 122.277767,   -2.999113
 122.279434,   -2.998806
 122.281101,   -2.998498
 122.282767,   -2.998190
 122.284434,   -2.997883
 122.286101,   -2.997575
 122.287767,   -2.997267
 122.289434,   -2.996960
 122.291101,   -2.996652
 122.292767,   -2.996454
 122.294434,   -2.996278
 122.296101,   -2.996103
 122.297767,   -2.995927
 122.299434,   -2.995751
 122.301101,   -2.995575
 122.302767,   -2.995399
 122.304434,   -2.995223
 122.306101,   -2.995047
 122.307767,   -2.994871
 122.309434,   -2.994762
 122.311101,   -2.994666
 122.312767,   -2.994570
 122.314434,   -2.994474
 122.316101,   -2.994377
 122.317767,   -2.994281
 122.319434,   -2.994185
 122.321101,   -2.994089
 122.322767,   -2.993993
 122.324434,   -2.993897
 122.326101,   -2.993528
 122.327767,   -2.993107
 122.329434,   -2.992685
 122.331101,   -2.992264
 122.332767,   -2.991842
 122.334434,   -2.991420
 122.336101,   -2.990999
 122.337767,   -2.990577
 122.339434,   -2.990156
 122.341101,   -2.989734
 122.342767,   -2.989844
 122.344434,   -2.990056
 122.346101,   -2.990269
 122.347767,   -2.990482
 122.349434,   -2.990695
 122.351101,   -2.990908
 122.352767,   -2.991121
 122.354434,   -2.991334
 122.356101,   -2.991546
 122.357767,   -2.991759
 122.359434,   -2.991660
 122.361101,   -2.991499
 122.362767,   -2.991338
 122.364434,   -2.991177
 122.366101,   -2.991016
 122.367767,   -2.990856
 122.369434,   -2.990695
 122.371101,   -2.990534
 122.372767,   -2.990373
 122.374434,   -2.990213
 122.376101,   -2.990190
 122.377767,   -2.990194
 122.379434,   -2.990199
 122.381101,   -2.990203
 122.382767,   -2.990208
 122.384434,   -2.990212
 122.386101,   -2.990217
 122.387767,   -2.990221
 122.389434,   -2.990226
 122.391101,   -2.990230
 122.392767,   -2.990341
 122.394434,   -2.990473
 122.396101,   -2.990605
 122.397767,   -2.990737
 122.399434,   -2.990869
 122.401101,   -2.991001
 122.402767,   -2.991133
 122.404434,   -2.991265
 122.406101,   -2.991397
 122.407767,   -2.991529
 122.409434,   -2.991392
 122.411101,   -2.991202
 122.412767,   -2.991012
 122.414434,   -2.990822
 122.416101,   -2.990632
 122.417767,   -2.990443
 122.419434,   -2.990253
 122.421101,   -2.990063
 122.422767,   -2.989873
 122.424434,   -2.989683
 122.426101,   -2.989573
 122.427767,   -2.989479
 122.429434,   -2.989385
 122.431101,   -2.989291
 122.432767,   -2.989197
 122.434434,   -2.989103
 122.436101,   -2.989009
 122.437767,   -2.988915
 122.439434,   -2.988821
 122.441101,   -2.988726
 122.442767,   -2.988372
 122.444434,   -2.987967
 122.446101,   -2.987561
 122.447767,   -2.987156
 122.449434,   -2.986751
 122.451101,   -2.986345
 122.452767,   -2.985940
 122.454434,   -2.985535
 122.456101,   -2.985129
 122.457767,   -2.984724
 122.459434,   -2.984445
 122.461101,   -2.984190
 122.462767,   -2.983935
 122.464434,   -2.983680
 122.466101,   -2.983425
 122.467767,   -2.983171
 122.469434,   -2.982916
 122.471101,   -2.982661
 122.472767,   -2.982406
 122.474434,   -2.982152
 122.476101,   -2.982069
 122.477767,   -2.982020
 122.479434,   -2.981972
 122.481101,   -2.981923
 122.482767,   -2.981874
 122.484434,   -2.981825
 122.486101,   -2.981777
 122.487767,   -2.981728
 122.489434,   -2.981679
 122.491101,   -2.981631
 122.492767,   -2.981724
 122.494434,   -2.981845
 122.496101,   -2.981966
 122.497767,   -2.982087
 122.499434,   -2.982208
 122.501101,   -2.982330
 122.502767,   -2.982451
 122.504434,   -2.982572
 122.506101,   -2.982693
 122.507767,   -2.982814
 122.509434,   -2.982654
 122.511101,   -2.982440
 122.512767,   -2.982225
 122.514434,   -2.982011
 122.516101,   -2.981797
 122.517767,   -2.981582
 122.519434,   -2.981368
 122.521101,   -2.981153
 122.522767,   -2.980939
 122.524434,   -2.980724
 122.526101,   -2.980683
 122.527767,   -2.980675
 122.529434,   -2.980666
 122.531101,   -2.980658
 122.532767,   -2.980650
 122.534434,   -2.980642
 122.536101,   -2.980634
 122.537767,   -2.980626
 122.539434,   -2.980618
 122.541101,   -2.980610
 122.542767,   -2.980742
 122.544434,   -2.980902
 122.546101,   -2.981061
 122.547767,   -2.981221
 122.549434,   -2.981380
 122.551101,   -2.981540
 122.552767,   -2.981699
 122.554434,   -2.981859
 122.556101,   -2.982018
 122.557767,   -2.982178
 122.559434,   -2.982052
 122.561101,   -2.981871
 122.562767,   -2.981690
 122.564434,   -2.981509
 122.566101,   -2.981328
 122.567767,   -2.981147
 122.569434,   -2.980966
 122.571101,   -2.980785
 122.572767,   -2.980604
 122.574434,   -2.980423
 122.576101,   -2.980409
 122.577767,   -2.980428
 122.579434,   -2.980447
 122.581101,   -2.980466
 122.582767,   -2.980485
 122.584434,   -2.980504
 122.586101,   -2.980523
 122.587767,   -2.980542
 122.589434,   -2.980560
 122.591101,   -2.980579
 122.592767,   -2.980732
 122.594434,   -2.980911
 122.596101,   -2.981089
 122.597767,   -2.981268
 122.599434,   -2.981447
 122.601101,   -2.981626
 122.602767,   -2.981804
 122.604434,   -2.981983
 122.606101,   -2.982162
 122.607767,   -2.982341
 122.609434,   -2.982227
 122.611101,   -2.982056
 122.612767,   -2.981885
 122.614434,   -2.981714
 122.616101,   -2.981543
 122.617767,   -2.981372
 122.619434,   -2.981201
 122.621101,   -2.981031
 122.622767,   -2.980860
 122.624434,   -2.980689
 122.626101,   -2.980678
 122.627767,   -2.980698
 122.629434,   -2.980718
 122.631101,   -2.980738
 122.632767,   -2.980759
 122.634434,   -2.980779
 122.636101,   -2.980799
 122.637767,   -2.980819
 122.639434,   -2.980839
 122.641101,   -2.980859
 122.642767,   -2.981006
 122.644434,   -2.981178
 122.646101,   -2.981349
 122.647767,   -2.981521
 122.649434,   -2.981692
 122.651101,   -2.981864
 122.652767,   -2.982035
 122.654434,   -2.982207
 122.656101,   -2.982378
 122.657767,   -2.982550
 122.659434,   -2.982422
 122.661101,   -2.982235
 122.662767,   -2.982049
 122.664434,   -2.981863
 122.666101,   -2.981676
 122.667767,   -2.981490
 122.669434,   -2.981304
 122.671101,   -2.981117
 122.672767,   -2.980931
 122.674434,   -2.980744
 122.676101,   -2.980713
 122.677767,   -2.980711
 122.679434,   -2.980710
 122.681101,   -2.980708
 122.682767,   -2.980706
 122.684434,   -2.980705
 122.686101,   -2.980703
 122.687767,   -2.980702
 122.689434,   -2.980700
 122.691101,   -2.980698
 122.692767,   -2.980819
 122.694434,   -2.980964
 122.696101,   -2.981109
 122.697767,   -2.981254
 122.699434,   -2.981399
 122.701101,   -2.981544
 122.702767,   -2.981689
 122.704434,   -2.981834
 122.706101,   -2.981978
 122.707767,   -2.982123
 122.709434,   -2.981966
 122.711101,   -2.981750
 122.712767,   -2.981533
 122.714434,   -2.981317
 122.716101,   -2.981100
 122.717767,   -2.980884
 122.719434,   -2.980668
 122.721101,   -2.980451
 122.722767,   -2.980235
 122.724434,   -2.980019
 122.726101,   -2.979956
 122.727767,   -2.979924
 122.729434,   -2.979891
 122.731101,   -2.979859
 122.732767,   -2.979826
 122.734434,   -2.979794
 122.736101,   -2.979761
 122.737767,   -2.979729
 122.739434,   -2.979696
 122.741101,   -2.979664
 122.742767,   -2.979755
 122.744434,   -2.979870
 122.746101,   -2.979985
 122.747767,   -2.980100
 122.749434,   -2.980215
 122.751101,   -2.980330
 122.752767,   -2.980445
 122.754434,   -2.980560
 122.756101,   -2.980675
 122.757767,   -2.980790
 122.759434,   -2.980604
 122.761101,   -2.980361
 122.762767,   -2.980117
 122.764434,   -2.979873
 122.766101,   -2.979629
 122.767767,   -2.979385
 122.769434,   -2.979141
 122.771101,   -2.978898
 122.772767,   -2.978654
 122.774434,   -2.978410
 122.776101,   -2.978879
 122.777767,   -2.979486
 122.779434,   -2.980094
 122.781101,   -2.980702
 122.782767,   -2.981309
 122.784434,   -2.981917
 122.786101,   -2.982525
 122.787767,   -2.983132
 122.789434,   -2.983740
 122.791101,   -2.984348
 122.792767,   -2.984469
 122.794434,   -2.984496
 122.796101,   -2.984522
 122.797767,   -2.984549
 122.799434,   -2.984576
 122.801101,   -2.984603
 122.802767,   -2.984629
 122.804434,   -2.984656
 122.806101,   -2.984683
 122.807767,   -2.984709
 122.809434,   -2.984458
 122.811101,   -2.984153
 122.812767,   -2.983847
 122.814434,   -2.983542
 122.816101,   -2.983236
 122.817767,   -2.982931
 122.819434,   -2.982625
 122.821101,   -2.982320
 122.822767,   -2.982014
 122.824434,   -2.981709
 122.826101,   -2.981484
 122.827767,   -2.981274
 122.829434,   -2.981065
 122.831101,   -2.980855
 122.832767,   -2.980646
 122.834434,   -2.980437
 122.836101,   -2.980227
 122.837767,   -2.980018
 122.839434,   -2.979808
 122.841101,   -2.979599
 122.842767,   -2.979531
 122.844434,   -2.979491
 122.846101,   -2.979451
 122.847767,   -2.979410
 122.849434,   -2.979370
 122.851101,   -2.979330
 122.852767,   -2.979290
 122.854434,   -2.979249
 122.856101,   -2.979209
 122.857767,   -2.979169
 122.859434,   -2.979241
 122.861101,   -2.979335
 122.862767,   -2.979428
 122.864434,   -2.979522
 122.866101,   -2.979616
 122.867767,   -2.979709
 122.869434,   -2.979803
 122.871101,   -2.979897
 122.872767,   -2.979991
 122.874434,   -2.980084
 122.876101,   -2.979913
 122.877767,   -2.979689
 122.879434,   -2.979465
 122.881101,   -2.979242
 122.882767,   -2.979018
 122.884434,   -2.978795
 122.886101,   -2.978571
 122.887767,   -2.978347
 122.889434,   -2.978124
 122.891101,   -2.977900
 122.892767,   -2.977765
 122.894434,   -2.977647
 122.896101,   -2.977529
 122.897767,   -2.977411
 122.899434,   -2.977293
 122.901101,   -2.977175
 122.902767,   -2.977057
 122.904434,   -2.976940
 122.906101,   -2.976822
 122.907767,   -2.976704
 122.909434,   -2.976331
 122.911101,   -2.975909
 122.912767,   -2.975488
 122.914434,   -2.975066
 122.916101,   -2.974644
 122.917767,   -2.974222
 122.919434,   -2.973800
 122.921101,   -2.973378
 122.922767,   -2.972956
 122.924434,   -2.972535
 122.926101,   -2.972248
 122.927767,   -2.971989
 122.929434,   -2.971729
 122.931101,   -2.971469
 122.932767,   -2.971210
 122.934434,   -2.970950
 122.936101,   -2.970690
 122.937767,   -2.970431
 122.939434,   -2.970171
 122.941101,   -2.969911
 122.942767,   -2.969834
 122.944434,   -2.969792
 122.946101,   -2.969750
 122.947767,   -2.969708
 122.949434,   -2.969667
 122.951101,   -2.969625
 122.952767,   -2.969583
 122.954434,   -2.969541
 122.956101,   -2.969499
 122.957767,   -2.969458
 122.959434,   -2.969567
 122.961101,   -2.969706
 122.962767,   -2.969844
 122.964434,   -2.969983
 122.966101,   -2.970122
 122.967767,   -2.970260
 122.969434,   -2.970399
 122.971101,   -2.970538
 122.972767,   -2.970676
 122.974434,   -2.970815
 122.976101,   -2.970677
 122.977767,   -2.970485
 122.979434,   -2.970292
 122.981101,   -2.970100
 122.982767,   -2.969908
 122.984434,   -2.969716
 122.986101,   -2.969524
 122.987767,   -2.969332
 122.989434,   -2.969140
 122.991101,   -2.968947
 122.992767,   -2.968934
 122.994434,   -2.968956
 122.996101,   -2.968978
 122.997767,   -2.969000
 122.999434,   -2.969021
 123.001101,   -2.969043
 123.002767,   -2.969065
 123.004434,   -2.969087
 123.006101,   -2.969108
 123.007767,   -2.969130
 123.009434,   -2.969297
 123.011101,   -2.969491
 123.012767,   -2.969686
 123.014434,   -2.969880
 123.016101,   -2.970075
 123.017767,   -2.970269
 123.019434,   -2.970464
 123.021101,   -2.970659
 123.022767,   -2.970853
 123.024434,   -2.971048
 123.026101,   -2.970956
 123.027767,   -2.970809
 123.029434,   -2.970661
 123.031101,   -2.970514
 123.032767,   -2.970366
 123.034434,   -2.970219
 123.036101,   -2.970071
 123.037767,   -2.969924
 123.039434,   -2.969776
 123.041101,   -2.969629
 123.042767,   -2.969249
 123.044434,   -2.968825
 123.046101,   -2.968400
 123.047767,   -2.967976
 123.049434,   -2.967551
 123.051101,   -2.967127
 123.052767,   -2.966702
 123.054434,   -2.966278
 123.056101,   -2.965853
 123.057767,   -2.965429
 123.059434,   -2.965162
 123.061101,   -2.964927
 123.062767,   -2.964692
 123.064434,   -2.964456
 123.066101,   -2.964221
 123.067767,   -2.963985
 123.069434,   -2.963750
 123.071101,   -2.963514
 123.072767,   -2.963279
 123.074434,   -2.963043
 123.076101,   -2.963011
 123.077767,   -2.963018
 123.079434,   -2.963024
 123.081101,   -2.963031
 123.082767,   -2.963038
 123.084434,   -2.963045
 123.086101,   -2.963051
 123.087767,   -2.963058
 123.089434,   -2.963065
 123.091101,   -2.963072
 123.092767,   -2.963246
 123.094434,   -2.963454
 123.096101,   -2.963661
 123.097767,   -2.963869
 123.099434,   -2.964076
 123.101101,   -2.964283
 123.102767,   -2.964491
 123.104434,   -2.964698
 123.106101,   -2.964906
 123.107767,   -2.965113
 123.109434,   -2.965055
 123.111101,   -2.964946
 123.112767,   -2.964836
 123.114434,   -2.964727
 123.116101,   -2.964617
 123.117767,   -2.964508
 123.119434,   -2.964398
 123.121101,   -2.964289
 123.122767,   -2.964179
 123.124434,   -2.964069
 123.126101,   -2.964362
 123.127767,   -2.964732
 123.129434,   -2.965103
 123.131101,   -2.965474
 123.132767,   -2.965844
 123.134434,   -2.966215
 123.136101,   -2.966586
 123.137767,   -2.966956
 123.139434,   -2.967327
 123.141101,   -2.967698
 123.142767,   -2.967557
 123.144434,   -2.967318
 123.146101,   -2.967078
 123.147767,   -2.966839
 123.149434,   -2.966599
 123.151101,   -2.966359
 123.152767,   -2.966120
 123.154434,   -2.965880
 123.156101,   -2.965640
 123.157767,   -2.965401
 123.159434,   -2.965343
 123.161101,   -2.965321
 123.162767,   -2.965299
 123.164434,   -2.965277
 123.166101,   -2.965255
 123.167767,   -2.965233
 123.169434,   -2.965210
 123.171101,   -2.965188
 123.172767,   -2.965166
 123.174434,   -2.965144
 123.176101,   -2.965272
 123.177767,   -2.965428
 123.179434,   -2.965585
 123.181101,   -2.965742
 123.182767,   -2.965898
 123.184434,   -2.966055
 123.186101,   -2.966212
 123.187767,   -2.966368
 123.189434,   -2.966525
 123.191101,   -2.966682
 123.192767,   -2.966557
 123.194434,   -2.966379
 123.196101,   -2.966200
 123.197767,   -2.966021
 123.199434,   -2.965842
 123.201101,   -2.965663
 123.202767,   -2.965485
 123.204434,   -2.965306
 123.206101,   -2.965127
 123.207767,   -2.964948
 123.209434,   -2.964946
 123.211101,   -2.964978
 123.212767,   -2.965009
 123.214434,   -2.965041
 123.216101,   -2.965073
 123.217767,   -2.965105
 123.219434,   -2.965137
 123.221101,   -2.965169
 123.222767,   -2.965200
 123.224434,   -2.965232
 123.226101,   -2.965405
 123.227767,   -2.965606
 123.229434,   -2.965807
 123.231101,   -2.966008
 123.232767,   -2.966209
 123.234434,   -2.966409
 123.236101,   -2.966610
 123.237767,   -2.966811
 123.239434,   -2.967012
 123.241101,   -2.967213
 123.242767,   -2.967122
 123.244434,   -2.966975
 123.246101,   -2.966828
 123.247767,   -2.966680
 123.249434,   -2.966533
 123.251101,   -2.966386
 123.252767,   -2.966238
 123.254434,   -2.966091
 123.256101,   -2.965944
 123.257767,   -2.965797
 123.259434,   -2.965413
 123.261101,   -2.964983
 123.262767,   -2.964553
 123.264434,   -2.964123
 123.266101,   -2.963693
 123.267767,   -2.963263
 123.269434,   -2.962833
 123.271101,   -2.962403
 123.272767,   -2.961973
 123.274434,   -2.961543
 123.276101,   -2.961269
 123.277767,   -2.961025
 123.279434,   -2.960780
 123.281101,   -2.960536
 123.282767,   -2.960292
 123.284434,   -2.960048
 123.286101,   -2.959803
 123.287767,   -2.959559
 123.289434,   -2.959315
 123.291101,   -2.959071
 123.292767,   -2.959027
 123.294434,   -2.959022
 123.296101,   -2.959018
 123.297767,   -2.959013
 123.299434,   -2.959009
 123.301101,   -2.959004
 123.302767,   -2.959000
 123.304434,   -2.958995
 123.306101,   -2.958990
 123.307767,   -2.958986
 123.309434,   -2.959148
 123.311101,   -2.959342
 123.312767,   -2.959536
 123.314434,   -2.959731
 123.316101,   -2.959925
 123.317767,   -2.960119
 123.319434,   -2.960313
 123.321101,   -2.960508
 123.322767,   -2.960702
 123.324434,   -2.960896
 123.326101,   -2.960823
 123.327767,   -2.960697
 123.329434,   -2.960572
 123.331101,   -2.960446
 123.332767,   -2.960321
 123.334434,   -2.960195
 123.336101,   -2.960069
 123.337767,   -2.959944
 123.339434,   -2.959818
 123.341101,   -2.959693
 123.342767,   -2.959970
 123.344434,   -2.960326
 123.346101,   -2.960682
 123.347767,   -2.961038
 123.349434,   -2.961394
 123.351101,   -2.961750
 123.352767,   -2.962105
 123.354434,   -2.962461
 123.356101,   -2.962817
 123.357767,   -2.963173
 123.359434,   -2.963017
 123.361101,   -2.962760
 123.362767,   -2.962504
 123.364434,   -2.962248
 123.366101,   -2.961992
 123.367767,   -2.961735
 123.369434,   -2.961479
 123.371101,   -2.961223
 123.372767,   -2.960966
 123.374434,   -2.960710
 123.376101,   -2.960638
 123.377767,   -2.960602
 123.379434,   -2.960565
 123.381101,   -2.960529
 123.382767,   -2.960492
 123.384434,   -2.960456
 123.386101,   -2.960419
 123.387767,   -2.960383
 123.389434,   -2.960347
 123.391101,   -2.960310
 123.392767,   -2.960426
 123.394434,   -2.960572
 123.396101,   -2.960718
 123.397767,   -2.960864
 123.399434,   -2.961011
 123.401101,   -2.961157
 123.402767,   -2.961303
 123.404434,   -2.961449
 123.406101,   -2.961595
 123.407767,   -2.961741
 123.409434,   -2.961608
 123.411101,   -2.961421
 123.412767,   -2.961234
 123.414434,   -2.961047
 123.416101,   -2.960860
 123.417767,   -2.960673
 123.419434,   -2.960486
 123.421101,   -2.960300
 123.422767,   -2.960113
 123.424434,   -2.959926
 123.426101,   -2.959919
 123.427767,   -2.959948
 123.429434,   -2.959977
 123.431101,   -2.960006
 123.432767,   -2.960035
 123.434434,   -2.960064
 123.436101,   -2.960093
 123.437767,   -2.960121
 123.439434,   -2.960150
 123.441101,   -2.960179
 123.442767,   -2.960354
 123.444434,   -2.960558
 123.446101,   -2.960762
 123.447767,   -2.960965
 123.449434,   -2.961169
 123.451101,   -2.961373
 123.452767,   -2.961577
 123.454434,   -2.961780
 123.456101,   -2.961984
 123.457767,   -2.962188
 123.459434,   -2.962103
 123.461101,   -2.961962
 123.462767,   -2.961822
 123.464434,   -2.961681
 123.466101,   -2.961541
 123.467767,   -2.961400
 123.469434,   -2.961259
 123.471101,   -2.961119
 123.472767,   -2.960978
 123.474434,   -2.960837
 123.476101,   -2.960463
 123.477767,   -2.960043
 123.479434,   -2.959623
 123.481101,   -2.959203
 123.482767,   -2.958783
 123.484434,   -2.958362
 123.486101,   -2.957942
 123.487767,   -2.957522
 123.489434,   -2.957102
 123.491101,   -2.956682
 123.492767,   -2.956421
 123.494434,   -2.956192
 123.496101,   -2.955962
 123.497767,   -2.955732
 123.499434,   -2.955503
 123.501101,   -2.955273
 123.502767,   -2.955043
 123.504434,   -2.954814
 123.506101,   -2.954584
 123.507767,   -2.954355
 123.509434,   -2.954329
 123.511101,   -2.954343
 123.512767,   -2.954358
 123.514434,   -2.954372
 123.516101,   -2.954386
 123.517767,   -2.954400
 123.519434,   -2.954415
 123.521101,   -2.954429
 123.522767,   -2.954443
 123.524434,   -2.954457
 123.526101,   -2.954641
 123.527767,   -2.954858
 123.529434,   -2.955075
 123.531101,   -2.955291
 123.532767,   -2.955508
 123.534434,   -2.955725
 123.536101,   -2.955942
 123.537767,   -2.956158
 123.539434,   -2.956375
 123.541101,   -2.956592
 123.542767,   -2.956541
 123.544434,   -2.956439
 123.546101,   -2.956336
 123.547767,   -2.956233
 123.549434,   -2.956131
 123.551101,   -2.956028
 123.552767,   -2.955925
 123.554434,   -2.955823
 123.556101,   -2.955720
 123.557767,   -2.955617
 123.559434,   -2.955919
 123.561101,   -2.956301
 123.562767,   -2.956682
 123.564434,   -2.957063
 123.566101,   -2.957444
 123.567767,   -2.957825
 123.569434,   -2.958206
 123.571101,   -2.958587
 123.572767,   -2.958968
 123.574434,   -2.959350
 123.576101,   -2.959216
 123.577767,   -2.958982
 123.579434,   -2.958749
 123.581101,   -2.958515
 123.582767,   -2.958281
 123.584434,   -2.958047
 123.586101,   -2.957814
 123.587767,   -2.957580
 123.589434,   -2.957346
 123.591101,   -2.957112
 123.592767,   -2.957062
 123.594434,   -2.957047
 123.596101,   -2.957032
 123.597767,   -2.957017
 123.599434,   -2.957002
 123.601101,   -2.956987
 123.602767,   -2.956971
 123.604434,   -2.956956
 123.606101,   -2.956941
 123.607767,   -2.956926
 123.609434,   -2.957062
 123.611101,   -2.957227
 123.612767,   -2.957392
 123.614434,   -2.957557
 123.616101,   -2.957722
 123.617767,   -2.957888
 123.619434,   -2.958053
 123.621101,   -2.958218
 123.622767,   -2.958383
 123.624434,   -2.958548
 123.626101,   -2.958430
 123.627767,   -2.958257
 123.629434,   -2.958084
 123.631101,   -2.957910
 123.632767,   -2.957737
 123.634434,   -2.957564
 123.636101,   -2.957391
 123.637767,   -2.957217
 123.639434,   -2.957044
 123.641101,   -2.956871
 123.642767,   -2.956875
 123.644434,   -2.956914
 123.646101,   -2.956953
 123.647767,   -2.956991
 123.649434,   -2.957030
 123.651101,   -2.957069
 123.652767,   -2.957107
 123.654434,   -2.957146
 123.656101,   -2.957185
 123.657767,   -2.957223
 123.659434,   -2.957404
 123.661101,   -2.957613
 123.662767,   -2.957822
 123.664434,   -2.958031
 123.666101,   -2.958240
 123.667767,   -2.958449
 123.669434,   -2.958658
 123.671101,   -2.958867
 123.672767,   -2.959076
 123.674434,   -2.959285
 123.676101,   -2.959201
 123.677767,   -2.959059
 123.679434,   -2.958917
 123.681101,   -2.958775
 123.682767,   -2.958633
 123.684434,   -2.958491
 123.686101,   -2.958349
 123.687767,   -2.958208
 123.689434,   -2.958066
 123.691101,   -2.957924
 123.692767,   -2.957543
 123.694434,   -2.957116
 123.696101,   -2.956688
 123.697767,   -2.956261
 123.699434,   -2.955834
 123.701101,   -2.955406
 123.702767,   -2.954979
 123.704434,   -2.954551
 123.706101,   -2.954124
 123.707767,   -2.953697
 123.709434,   -2.953426
 123.711101,   -2.953185
 123.712767,   -2.952944
 123.714434,   -2.952704
 123.716101,   -2.952463
 123.717767,   -2.952223
 123.719434,   -2.951982
 123.721101,   -2.951741
 123.722767,   -2.951501
 123.724434,   -2.951260
 123.726101,   -2.951221
 123.727767,   -2.951222
 123.729434,   -2.951223
 123.731101,   -2.951223
 123.732767,   -2.951224
 123.734434,   -2.951225
 123.736101,   -2.951225
 123.737767,   -2.951226
 123.739434,   -2.951227
 123.741101,   -2.951227
 123.742767,   -2.951396
 123.744434,   -2.951597
 123.746101,   -2.951799
 123.747767,   -2.952000
 123.749434,   -2.952201
 123.751101,   -2.952403
 123.752767,   -2.952604
 123.754434,   -2.952805
 123.756101,   -2.953006
 123.757767,   -2.953208
 123.759434,   -2.953140
 123.761101,   -2.953019
 123.762767,   -2.952898
 123.764434,   -2.952777
 123.766101,   -2.952656
 123.767767,   -2.952536
 123.769434,   -2.952415
 123.771101,   -2.952294
 123.772767,   -2.952173
 123.774434,   -2.952052
 123.776101,   -2.952338
 123.777767,   -2.952702
 123.779434,   -2.953067
 123.781101,   -2.953432
 123.782767,   -2.953796
 123.784434,   -2.954161
 123.786101,   -2.954525
 123.787767,   -2.954890
 123.789434,   -2.955254
 123.791101,   -2.955619
 123.792767,   -2.955468
 123.794434,   -2.955216
 123.796101,   -2.954964
 123.797767,   -2.954712
 123.799434,   -2.954460
 123.801101,   -2.954208
 123.802767,   -2.953956
 123.804434,   -2.953704
 123.806101,   -2.953452
 123.807767,   -2.953200
 123.809434,   -2.953134
 123.811101,   -2.953103
 123.812767,   -2.953073
 123.814434,   -2.953042
 123.816101,   -2.953012
 123.817767,   -2.952981
 123.819434,   -2.952951
 123.821101,   -2.952920
 123.822767,   -2.952890
 123.824434,   -2.952859
 123.826101,   -2.952982
 123.827767,   -2.953136
 123.829434,   -2.953289
 123.831101,   -2.953442
 123.832767,   -2.953595
 123.834434,   -2.953748
 123.836101,   -2.953901
 123.837767,   -2.954054
 123.839434,   -2.954207
 123.841101,   -2.954360
 123.842767,   -2.954231
 123.844434,   -2.954048
 123.846101,   -2.953865
 123.847767,   -2.953682
 123.849434,   -2.953499
 123.851101,   -2.953315
 123.852767,   -2.953132
 123.854434,   -2.952949
 123.856101,   -2.952766
 123.857767,   -2.952583
 123.859434,   -2.952580
 123.861101,   -2.952614
 123.862767,   -2.952647
 123.864434,   -2.952680
 123.866101,   -2.952714
 123.867767,   -2.952747
 123.869434,   -2.952780
 123.871101,   -2.952813
 123.872767,   -2.952847
 123.874434,   -2.952880
 123.876101,   -2.953060
 123.877767,   -2.953268
 123.879434,   -2.953476
 123.881101,   -2.953684
 123.882767,   -2.953892
 123.884434,   -2.954101
 123.886101,   -2.954309
 123.887767,   -2.954517
 123.889434,   -2.954725
 123.891101,   -2.954934
 123.892767,   -2.954850
 123.894434,   -2.954710
 123.896101,   -2.954570
 123.897767,   -2.954430
 123.899434,   -2.954290
 123.901101,   -2.954150
 123.902767,   -2.954009
 123.904434,   -2.953869
 123.906101,   -2.953729
 123.907767,   -2.953589
 123.909434,   -2.953212
 123.911101,   -2.952789
 123.912767,   -2.952366
 123.914434,   -2.951943
 123.916101,   -2.951519
 123.917767,   -2.951096
 123.919434,   -2.950673
 123.921101,   -2.950250
 123.922767,   -2.949827
 123.924434,   -2.949404
 123.926101,   -2.949140
 123.927767,   -2.948907
 123.929434,   -2.948675
 123.931101,   -2.948442
 123.932767,   -2.948209
 123.934434,   -2.947977
 123.936101,   -2.947744
 123.937767,   -2.947511
 123.939434,   -2.947278
 123.941101,   -2.947046
 123.942767,   -2.947018
 123.944434,   -2.947030
 123.946101,   -2.947042
 123.947767,   -2.947053
 123.949434,   -2.947065
 123.951101,   -2.947077
 123.952767,   -2.947089
 123.954434,   -2.947101
 123.956101,   -2.947113
 123.957767,   -2.947125
 123.959434,   -2.947306
 123.961101,   -2.947521
 123.962767,   -2.947736
 123.964434,   -2.947951
 123.966101,   -2.948166
 123.967767,   -2.948381
 123.969434,   -2.948596
 123.971101,   -2.948810
 123.972767,   -2.949025
 123.974434,   -2.949240
 123.976101,   -2.949185
 123.977767,   -2.949077
 123.979434,   -2.948969
 123.981101,   -2.948862
 123.982767,   -2.948754
 123.984434,   -2.948646
 123.986101,   -2.948538
 123.987767,   -2.948430
 123.989434,   -2.948322
 123.991101,   -2.948215
 123.992767,   -2.948514
 123.994434,   -2.948894
 123.996101,   -2.949273
 123.997767,   -2.949652
 123.999434,   -2.950031
 124.001101,   -2.950411
 124.002767,   -2.950790
 124.004434,   -2.951169
 124.006101,   -2.951548
 124.007767,   -2.951928
 124.009434,   -2.951788
 124.011101,   -2.951547
 124.012767,   -2.951307
 124.014434,   -2.951066
 124.016101,   -2.950826
 124.017767,   -2.950585
 124.019434,   -2.950344
 124.021101,   -2.950104
 124.022767,   -2.949863
 124.024434,   -2.949623
 124.026101,   -2.949567
 124.027767,   -2.949547
 124.029434,   -2.949527
 124.031101,   -2.949506
 124.032767,   -2.949486
 124.034434,   -2.949466
 124.036101,   -2.949446
 124.037767,   -2.949426
 124.039434,   -2.949406
 124.041101,   -2.949386
 124.042767,   -2.949518
 124.044434,   -2.949680
 124.046101,   -2.949842
 124.047767,   -2.950004
 124.049434,   -2.950166
 124.051101,   -2.950328
 124.052767,   -2.950490
 124.054434,   -2.950652
 124.056101,   -2.950814
 124.057767,   -2.950975
 124.059434,   -2.950853
 124.061101,   -2.950674
 124.062767,   -2.950496
 124.064434,   -2.950317
 124.066101,   -2.950139
 124.067767,   -2.949961
 124.069434,   -2.949782
 124.071101,   -2.949604
 124.072767,   -2.949426
 124.074434,   -2.949247
 124.076101,   -2.949248
 124.077767,   -2.949284
 124.079434,   -2.949320
 124.081101,   -2.949356
 124.082767,   -2.949392
 124.084434,   -2.949428
 124.086101,   -2.949464
 124.087767,   -2.949500
 124.089434,   -2.949536
 124.091101,   -2.949572
 124.092767,   -2.949753
 124.094434,   -2.949962
 124.096101,   -2.950170
 124.097767,   -2.950379
 124.099434,   -2.950588
 124.101101,   -2.950796
 124.102767,   -2.951005
 124.104434,   -2.951214
 124.106101,   -2.951422
 124.107767,   -2.951631
 124.109434,   -2.951545
 124.111101,   -2.951401
 124.112767,   -2.951257
 124.114434,   -2.951113
 124.116101,   -2.950969
 124.117767,   -2.950825
 124.119434,   -2.950682
 124.121101,   -2.950538
 124.122767,   -2.950394
 124.124434,   -2.950250
 124.126101,   -2.949866
 124.127767,   -2.949436
 124.129434,   -2.949005
 124.131101,   -2.948575
 124.132767,   -2.948144
 124.134434,   -2.947714
 124.136101,   -2.947283
 124.137767,   -2.946853
 124.139434,   -2.946422
 124.141101,   -2.945992
 124.142767,   -2.945719
 124.144434,   -2.945478
 124.146101,   -2.945237
 124.147767,   -2.944995
 124.149434,   -2.944754
 124.151101,   -2.944513
 124.152767,   -2.944271
 124.154434,   -2.944030
 124.156101,   -2.943789
 124.157767,   -2.943547
 124.159434,   -2.943510
 124.161101,   -2.943513
 124.162767,   -2.943515
 124.164434,   -2.943518
 124.166101,   -2.943521
 124.167767,   -2.943523
 124.169434,   -2.943526
 124.171101,   -2.943529
 124.172767,   -2.943531
 124.174434,   -2.943534
 124.176101,   -2.943706
 124.177767,   -2.943912
 124.179434,   -2.944117
 124.181101,   -2.944323
 124.182767,   -2.944529
 124.184434,   -2.944734
 124.186101,   -2.944940
 124.187767,   -2.945145
 124.189434,   -2.945351
 124.191101,   -2.945556
 124.192767,   -2.945491
 124.194434,   -2.945372
 124.196101,   -2.945253
 124.197767,   -2.945135
 124.199434,   -2.945016
 124.201101,   -2.944898
 124.202767,   -2.944779
 124.204434,   -2.944660
 124.206101,   -2.944542
 124.207767,   -2.944423
 124.209434,   -2.944714
 124.211101,   -2.945085
 124.212767,   -2.945456
 124.214434,   -2.945827
 124.216101,   -2.946197
 124.217767,   -2.946568
 124.219434,   -2.946939
 124.221101,   -2.947310
 124.222767,   -2.947681
 124.224434,   -2.948051
 124.226101,   -2.947902
 124.227767,   -2.947652
 124.229434,   -2.947401
 124.231101,   -2.947151
 124.232767,   -2.946901
 124.234434,   -2.946650
 124.236101,   -2.946400
 124.237767,   -2.946149
 124.239434,   -2.945899
 124.241101,   -2.945649
 124.242767,   -2.945585
 124.244434,   -2.945557
 124.246101,   -2.945530
 124.247767,   -2.945502
 124.249434,   -2.945475
 124.251101,   -2.945447
 124.252767,   -2.945420
 124.254434,   -2.945392
 124.256101,   -2.945365
 124.257767,   -2.945337
 124.259434,   -2.945464
 124.261101,   -2.945621
 124.262767,   -2.945779
 124.264434,   -2.945936
 124.266101,   -2.946093
 124.267767,   -2.946250
 124.269434,   -2.946407
 124.271101,   -2.946564
 124.272767,   -2.946721
 124.274434,   -2.946878
 124.276101,   -2.946751
 124.277767,   -2.946569
 124.279434,   -2.946386
 124.281101,   -2.946204
 124.282767,   -2.946022
 124.284434,   -2.945840
 124.286101,   -2.945657
 124.287767,   -2.945475
 124.289434,   -2.945293
 124.291101,   -2.945110
 124.292767,   -2.945110
 124.294434,   -2.945145
 124.296101,   -2.945180
 124.297767,   -2.945215
 124.299434,   -2.945250
 124.301101,   -2.945286
 124.302767,   -2.945321
 124.304434,   -2.945356
 124.306101,   -2.945391
 124.307767,   -2.945426
 124.309434,   -2.945608
 124.311101,   -2.945819
 124.312767,   -2.946030
 124.314434,   -2.946240
 124.316101,   -2.946451
 124.317767,   -2.946662
 124.319434,   -2.946872
 124.321101,   -2.947083
 124.322767,   -2.947294
 124.324434,   -2.947504
 124.326101,   -2.947421
 124.327767,   -2.947279
 124.329434,   -2.947138
 124.331101,   -2.946997
 124.332767,   -2.946856
 124.334434,   -2.946715
 124.336101,   -2.946574
 124.337767,   -2.946433
 124.339434,   -2.946291
 124.341101,   -2.946150
 124.342767,   -2.945770
 124.344434,   -2.945343
 124.346101,   -2.944915
 124.347767,   -2.944488
 124.349434,   -2.944061
 124.351101,   -2.943634
 124.352767,   -2.943207
 124.354434,   -2.942780
 124.356101,   -2.942352
 124.357767,   -2.941925
 124.359434,   -2.941658
 124.361101,   -2.941422
 124.362767,   -2.941186
 124.364434,   -2.940950
 124.366101,   -2.940714
 124.367767,   -2.940478
 124.369434,   -2.940242
 124.371101,   -2.940006
 124.372767,   -2.939770
 124.374434,   -2.939534
 124.376101,   -2.939504
 124.377767,   -2.939514
 124.379434,   -2.939524
 124.381101,   -2.939534
 124.382767,   -2.939544
 124.384434,   -2.939554
 124.386101,   -2.939563
 124.387767,   -2.939573
 124.389434,   -2.939583
 124.391101,   -2.939593
 124.392767,   -2.939774
 124.394434,   -2.939988
 124.396101,   -2.940202
 124.397767,   -2.940416
 124.399434,   -2.940630
 124.401101,   -2.940844
 124.402767,   -2.941058
 124.404434,   -2.941271
 124.406101,   -2.941485
 124.407767,   -2.941699
 124.409434,   -2.941641
 124.411101,   -2.941529
 124.412767,   -2.941418
 124.414434,   -2.941306
 124.416101,   -2.941195
 124.417767,   -2.941083
 124.419434,   -2.940972
 124.421101,   -2.940860
 124.422767,   -2.940749
 124.424434,   -2.940637
 124.426101,   -2.940937
 124.427767,   -2.941316
 124.429434,   -2.941695
 124.431101,   -2.942074
 124.432767,   -2.942453
 124.434434,   -2.942833
 124.436101,   -2.943212
 124.437767,   -2.943591
 124.439434,   -2.943970
 124.441101,   -2.944349
 124.442767,   -2.944206
 124.444434,   -2.943961
 124.446101,   -2.943715
 124.447767,   -2.943470
 124.449434,   -2.943225
 124.451101,   -2.942979
 124.452767,   -2.942734
 124.454434,   -2.942489
 124.456101,   -2.942243
 124.457767,   -2.941998
 124.459434,   -2.941939
 124.461101,   -2.941916
 124.462767,   -2.941893
 124.464434,   -2.941870
 124.466101,   -2.941847
 124.467767,   -2.941824
 124.469434,   -2.941801
 124.471101,   -2.941779
 124.472767,   -2.941756
 124.474434,   -2.941733
 124.476101,   -2.941864
 124.477767,   -2.942025
 124.479434,   -2.942186
 124.481101,   -2.942346
 124.482767,   -2.942507
 124.484434,   -2.942668
 124.486101,   -2.942829
 124.487767,   -2.942990
 124.489434,   -2.943151
 124.491101,   -2.943312
 124.492767,   -2.943186
 124.494434,   -2.943005
 124.496101,   -2.942823
 124.497767,   -2.942642
 124.499434,   -2.942460
 124.501101,   -2.942279
 124.502767,   -2.942097
 124.504434,   -2.941915
 124.506101,   -2.941734
 124.507767,   -2.941552
 124.509434,   -2.941552
 124.511101,   -2.941587
 124.512767,   -2.941622
 124.514434,   -2.941657
 124.516101,   -2.941693
 124.517767,   -2.941728
 124.519434,   -2.941763
 124.521101,   -2.941798
 124.522767,   -2.941833
 124.524434,   -2.941868
 124.526101,   -2.942049
 124.527767,   -2.942259
 124.529434,   -2.942469
 124.531101,   -2.942678
 124.532767,   -2.942888
 124.534434,   -2.943098
 124.536101,   -2.943308
 124.537767,   -2.943517
 124.539434,   -2.943727
 124.541101,   -2.943937
 124.542767,   -2.943850
 124.544434,   -2.943705
 124.546101,   -2.943560
 124.547767,   -2.943415
 124.549434,   -2.943270
 124.551101,   -2.943125
 124.552767,   -2.942980
 124.554434,   -2.942835
 124.556101,   -2.942690
 124.557767,   -2.942545
 124.559434,   -2.942159
 124.561101,   -2.941726
 124.562767,   -2.941293
 124.564434,   -2.940859
 124.566101,   -2.940426
 124.567767,   -2.939993
 124.569434,   -2.939560
 124.571101,   -2.939126
 124.572767,   -2.938693
 124.574434,   -2.938260
 124.576101,   -2.937986
 124.577767,   -2.937744
 124.579434,   -2.937502
 124.581101,   -2.937260
 124.582767,   -2.937018
 124.584434,   -2.936776
 124.586101,   -2.936533
 124.587767,   -2.936291
 124.589434,   -2.936049
 124.591101,   -2.935807
 124.592767,   -2.935771
 124.594434,   -2.935775
 124.596101,   -2.935779
 124.597767,   -2.935783
 124.599434,   -2.935787
 124.601101,   -2.935791
 124.602767,   -2.935795
 124.604434,   -2.935799
 124.606101,   -2.935804
 124.607767,   -2.935808
 124.609434,   -2.935983
 124.611101,   -2.936192
 124.612767,   -2.936401
 124.614434,   -2.936610
 124.616101,   -2.936818
 124.617767,   -2.937027
 124.619434,   -2.937236
 124.621101,   -2.937445
 124.622767,   -2.937654
 124.624434,   -2.937863
 124.626101,   -2.937798
 124.627767,   -2.937680
 124.629434,   -2.937563
 124.631101,   -2.937445
 124.632767,   -2.937327
 124.634434,   -2.937210
 124.636101,   -2.937092
 124.637767,   -2.936974
 124.639434,   -2.936857
 124.641101,   -2.936739
 124.642767,   -2.937034
 124.644434,   -2.937410
 124.646101,   -2.937785
 124.647767,   -2.938161
 124.649434,   -2.938536
 124.651101,   -2.938912
 124.652767,   -2.939287
 124.654434,   -2.939663
 124.656101,   -2.940038
 124.657767,   -2.940414
 124.659434,   -2.940265
 124.661101,   -2.940015
 124.662767,   -2.939764
 124.664434,   -2.939514
 124.666101,   -2.939263
 124.667767,   -2.939012
 124.669434,   -2.938762
 124.671101,   -2.938511
 124.672767,   -2.938261
 124.674434,   -2.938010
 124.676101,   -2.937947
 124.677767,   -2.937921
 124.679434,   -2.937895
 124.681101,   -2.937869
 124.682767,   -2.937843
 124.684434,   -2.937816
 124.686101,   -2.937790
 124.687767,   -2.937764
 124.689434,   -2.937738
 124.691101,   -2.937712
 124.692767,   -2.937841
 124.694434,   -2.938001
 124.696101,   -2.938160
 124.697767,   -2.938320
 124.699434,   -2.938479
 124.701101,   -2.938639
 124.702767,   -2.938798
 124.704434,   -2.938958
 124.706101,   -2.939117
 124.707767,   -2.939277
 124.709434,   -2.939150
 124.711101,   -2.938967
 124.712767,   -2.938784
 124.714434,   -2.938601
 124.716101,   -2.938418
 124.717767,   -2.938235
 124.719434,   -2.938053
 124.721101,   -2.937870
 124.722767,   -2.937687
 124.724434,   -2.937504
 124.726101,   -2.937504
 124.727767,   -2.937540
 124.729434,   -2.937576
 124.731101,   -2.937611
 124.732767,   -2.937647
 124.734434,   -2.937683
 124.736101,   -2.937719
 124.737767,   -2.937755
 124.739434,   -2.937791
 124.741101,   -2.937826
 124.742767,   -2.938010
 124.744434,   -2.938222
 124.746101,   -2.938435
 124.747767,   -2.938647
 124.749434,   -2.938859
 124.751101,   -2.939071
 124.752767,   -2.939284
 124.754434,   -2.939496
 124.756101,   -2.939708
 124.757767,   -2.939921
 124.759434,   -2.939836
 124.761101,   -2.939693
 124.762767,   -2.939551
 124.764434,   -2.939408
 124.766101,   -2.939265
 124.767767,   -2.939123
 124.769434,   -2.938980
 124.771101,   -2.938837
 124.772767,   -2.938694
 124.774434,   -2.938552
 124.776101,   -2.938168
 124.777767,   -2.937736
 124.779434,   -2.937305
 124.781101,   -2.936873
 124.782767,   -2.936442
 124.784434,   -2.936011
 124.786101,   -2.935579
 124.787767,   -2.935148
 124.789434,   -2.934717
 124.791101,   -2.934285
 124.792767,   -2.934015
 124.794434,   -2.933776
 124.796101,   -2.933537
 124.797767,   -2.933298
 124.799434,   -2.933059
 124.801101,   -2.932820
 124.802767,   -2.932581
 124.804434,   -2.932341
 124.806101,   -2.932102
 124.807767,   -2.931863
 124.809434,   -2.931831
 124.811101,   -2.931840
 124.812767,   -2.931848
 124.814434,   -2.931857
 124.816101,   -2.931865
 124.817767,   -2.931874
 124.819434,   -2.931882
 124.821101,   -2.931890
 124.822767,   -2.931899
 124.824434,   -2.931907
 124.826101,   -2.932088
 124.827767,   -2.932301
 124.829434,   -2.932515
 124.831101,   -2.932729
 124.832767,   -2.932943
 124.834434,   -2.933157
 124.836101,   -2.933371
 124.837767,   -2.933585
 124.839434,   -2.933799
 124.841101,   -2.934013
 124.842767,   -2.934045
 124.844434,   -2.934043
 124.846101,   -2.934040
 124.846511,   -2.934039
 124.848178,   -2.933876
 124.849844,   -2.933712
 124.851511,   -2.933548
 124.853178,   -2.933384
 124.854844,   -2.933220
 124.856511,   -2.933056
 124.858178,   -2.932940
 124.859844,   -2.933349
 124.861511,   -2.933758
 124.863178,   -2.934167
 124.864844,   -2.934577
 124.866511,   -2.934986
 124.868178,   -2.935395
 124.869844,   -2.935804
 124.871511,   -2.936213
 124.873178,   -2.936622
 124.874844,   -2.936939
 124.876511,   -2.936240
 124.878178,   -2.935541
 124.879844,   -2.934841
 124.881511,   -2.934142
 124.883178,   -2.933442
 124.884844,   -2.932743
 124.886511,   -2.932044
 124.888178,   -2.931344
 124.889844,   -2.930645
 124.891511,   -2.929956
 124.893178,   -2.929384
 124.894844,   -2.928813
 124.896511,   -2.928241
 124.898178,   -2.927669
 124.899844,   -2.927097
 124.901134,   -2.926655
 124.902801,   -2.926014
 124.904467,   -2.925373
 124.906134,   -2.924731
 124.907801,   -2.924090
 124.909467,   -2.857535
 124.911134,   -2.781545
 124.912801,   -2.705554
 124.914467,   -2.629564
 124.916134,   -2.553573
 124.917801,   -2.477583
 124.919467,   -2.401592
 124.921134,   -2.325601
 124.922801,   -2.249611
 124.924467,   -2.173620
 124.926134,   -2.078639
 124.927801,   -1.980939
 124.929467,   -1.883239
 124.931134,   -1.785539
 124.932801,   -1.687839
 124.934467,   -1.590140
 124.936134,   -1.492440
 124.937801,   -1.394740
 124.939467,   -1.297040
 124.941134,   -1.199340
 124.942801,   -1.133976
 124.944467,   -1.073240
 124.946134,   -1.012505
 124.947801,   -0.951769
 124.949467,   -0.891033
 124.951134,   -0.830298
 124.952801,   -0.769562
 124.954467,   -0.708827
 124.956134,   -0.648091
 124.957801,   -0.587356
 124.959467,   -0.372164
 124.961134,   -0.134863
 124.962081,    0.000000
 124.963748,    0.000000
 124.965414,    0.000000
 124.967081,    0.000000
 124.968748,    0.000000
 124.970414,    0.000000
 124.972081,    0.000000
 124.973748,    0.000000
 124.975414,    0.000000
 124.977081,    0.000000
 124.978748,    0.000000
 124.980414,    0.000000
 124.982081,    0.000000
 124.983748,    0.000000
 124.985414,    0.000000
 124.987081,    0.000000
 124.988748,    0.000000
 124.990414,    0.000000
 124.992081,    0.000000
 124.993748,    0.000000
 124.995414,    0.000000
 124.997081,    0.000000
 124.998748,    0.000000
 125.000414,    0.000000
 125.002081,    0.000000
 125.003748,    0.000000
 125.005414,    0.000000
 125.007081,    0.000000
 125.008748,    0.000000
 125.010414,    0.000000
 125.012081,    0.000000
 125.013748,    0.000000
 125.015414,    0.000000
 125.017081,    0.000000
 125.018748,    0.000000
 125.020414,    0.000000
 125.022081,    0.000000
 125.023748,    0.000000
 125.025414,    0.000000
 125.027081,    0.000000
 125.028748,    0.000000
 125.030414,    0.000000
 125.032081,    0.000000
 125.033748,    0.000000
 125.035414,    0.000000
 125.037081,    0.000000
 125.038748,    0.000000
 125.040414,    0.000000
 125.042081,    0.000000
 125.043748,    0.000000
 125.045414,    0.000000
 125.047081,    0.000000
 125.048748,    0.000000
 125.050414,    0.000000
 125.052081,    0.000000
 125.053748,    0.000000
 125.055414,    0.000000
 125.057081,    0.000000
 125.058748,    0.000000
 125.060414,    0.000000
 125.062081,    0.000000
 125.063748,    0.000000
 125.065414,    0.000000
 125.067081,    0.000000
 125.068748,    0.000000
 125.070414,    0.000000
 125.072081,    0.000000
 125.073748,    0.000000
 125.075414,    0.000000
 125.077081,    0.000000
 125.078748,    0.000000
 125.080414,    0.000000
 125.082081,    0.000000
 125.083748,    0.000000
 125.085414,    0.000000
 125.087081,    0.000000
 125.088748,    0.000000
 125.090414,    0.000000
 125.092081,    0.000000
 125.093748,    0.000000
 125.095414,    0.000000
 125.097081,    0.000000
 125.098748,    0.000000
 125.100414,    0.000000
 125.102081,    0.000000
 125.103748,    0.000000
 125.105414,    0.000000
 125.107081,    0.000000
 125.108748,    0.000000
 125.110414,    0.000000
 125.112081,    0.000000
 125.113748,    0.000000
 125.115414,    0.000000
 125.117081,    0.000000
 125.118748,    0.000000
 125.120414,    0.000000
 125.122081,    0.000000
 125.123748,    0.000000
 125.125414,    0.000000
 125.127081,    0.000000
 125.128748,    0.000000
 125.130414,    0.000000
 125.132081,    0.000000
 125.133748,    0.000000
 125.135414,    0.000000
 125.137081,    0.000000
 125.138748,    0.000000
 125.140414,    0.000000
 125.142081,    0.000000
 125.143748,    0.000000
 125.145414,    0.000000
 125.147081,    0.000000
 125.148748,    0.000000
 125.150414,    0.000000
 125.152081,    0.000000
 125.153748,    0.000000
 125.155414,    0.000000
 125.157081,    0.000000
 125.158748,    0.000000
 125.160050,    0.000000
