Speed, Forces
  58.835340, 24843.170400
  59.822207, 22177.612034
  60.809075, 20834.958467
  61.795942, 20110.943450
  62.782810, 19404.203689
  63.769677, 18869.866109
  64.756545, 18327.194905
  65.743412, 17863.975190
  66.730280, 17406.872048
  67.717147, 16976.745042
  68.704015, 16607.612926
  69.690882, 16233.140224
  70.677750, 15895.893895
  71.664617, 15600.450573
  72.651485, 15300.910601
  73.638352, 15015.445379
  74.625220, 14788.351248
  75.612087, 14558.233961
  76.598955, 14325.093521
  77.585822, 14128.161384
  78.572690, 13971.750680
  79.559557, 13813.363053
  80.546425, 13652.998503
  81.533292, 13498.042805
  82.520160, 13413.573761
  83.507027, 13328.088467
  84.493895, 13241.586921
  85.480762, 13154.069124
  86.467630, 13065.535076
  87.454497, 13033.715383
  88.441365, 13010.313791
  89.428232, 12986.649607
  90.415100, 12962.722834
  91.401967, 12938.533470
  92.388835, 12914.081516
  93.375702, 12919.460833
  94.362570, 12955.435586
  95.349437, 12991.788549
  96.336305, 13028.519724
  97.323172, 13065.629108
  98.310040, 13103.116704
  99.296907, 13140.982510
 100.283775, 13179.226527
 101.270642, 13248.714883
 102.257510, 13351.287926
 103.244377, 13454.855680
 104.231245, 13559.418147
 105.218112, 13664.975327
 106.204980, 13771.527219
 107.191847, 13879.073824
 108.178715, 13987.615141
 109.165582, 14097.151171
 110.152450, 14207.681913
 111.139317, 14319.207368
 112.126185, 14485.943281
 113.113052, 14654.266488
 114.099920, 14824.064684
 115.086787, 14995.337869
 116.073655, 15168.086043
 117.060522, 15342.309206
 118.047390, 15518.007358
 119.034257, 15695.180499
 120.021125, 15873.828629
 121.007992, 16053.951748
 121.994860, 16235.549856
 122.981727, 16418.622953
 123.968595, 16603.171039
 124.955462, 16789.194114
 125.942330, 16993.924923
 126.929197, 17225.730435
 127.916065, 17459.345256
 128.902932, 17694.769386
 129.889800, 17932.002824
 130.876667, 18171.045571
 131.863535, 18411.897626
 132.850402, 18654.558991
 133.837270, 18899.029664
 134.824137, 19145.309645
 135.811005, 19393.398936
 136.797872, 19643.297535
 137.784740, 19895.005443
 138.771607, 20148.522659
 139.758475, 20403.849184
 140.745342, 20660.985018
 141.732210, 20919.930161
 142.719077, 21180.684612
 143.705945, 21443.248372
 144.692812, 21707.621440
 145.679680, 21973.803818
 146.666547, 22241.795504
 147.653415, 22514.410998
 148.640282, 22823.103158
 149.627150, 23133.851645
 150.614017, 23446.656458
 151.600885, 23761.517598
 152.587752, 24078.435063
 153.574620, 24397.408855
 154.561487, 24718.438974
 155.548355, 25041.525418
 156.535222, 25366.668189
