Speed, Forces
  68.291028, 24843.170400
  69.127971, 22538.862829
  69.964915, 21555.161190
  70.801858, 20696.878738
  71.638801, 20167.386283
  72.475745, 19631.671515
  73.312688, 19200.043770
  74.149632, 18808.110109
  74.986575, 18411.727497
  75.823518, 18055.781752
  76.660462, 17724.577995
  77.497405, 17389.738463
  78.334348, 17061.675345
  79.171292, 16793.398824
  80.008235, 16522.271201
  80.845179, 16248.292477
  81.682122, 15986.513284
  82.519065, 15771.976011
  83.356009, 15555.251719
  84.192952, 15336.340408
  85.029896, 15115.242078
  85.866839, 14937.725706
  86.703782, 14771.336640
  87.540726, 14603.333646
  88.377669, 14433.716726
  89.214612, 14262.485878
  90.051556, 14128.626441
  90.888499, 14014.543162
  91.725443, 13899.404492
  92.562386, 13783.210431
  93.399329, 13665.960979
  94.236273, 13547.656136
  95.073216, 13465.985621
  95.910159, 13404.085110
  96.747103, 13341.642067
  97.584046, 13278.656493
  98.420990, 13215.128388
  99.257933, 13151.057752
 100.094876, 13086.444585
 100.931820, 13045.421563
 101.768763, 13028.445724
 102.605706, 13011.329699
 103.442650, 12994.073489
 104.279593, 12976.677093
 105.116537, 12959.140513
 105.953480, 12941.463747
 106.790423, 12923.646796
 107.627367, 12905.689659
 108.464310, 12922.016853
 109.301254, 12948.284469
 110.138197, 12974.753996
 110.975140, 13001.425433
 111.812084, 13028.298779
 112.649027, 13055.374036
 113.485970, 13082.651202
 114.322914, 13110.130278
 115.159857, 13137.811264
 115.996801, 13165.694160
 116.833744, 13193.778965
 117.670687, 13259.805603
 118.507631, 13334.732067
 119.344574, 13410.189565
 120.181517, 13486.178095
 121.018461, 13562.697657
 121.855404, 13639.748253
 122.692348, 13717.329881
 123.529291, 13795.442542
 124.366234, 13874.086236
 125.203178, 13953.260962
 126.040121, 14032.966722
 126.877065, 14113.203514
 127.714008, 14193.971338
 128.550951, 14275.270196
 129.387895, 14375.283501
 130.224838, 14497.410703
 131.061781, 14620.325336
 131.898725, 14744.027399
 132.735668, 14868.516894
 133.572612, 14993.793820
 134.409555, 15119.858177
 135.246498, 15246.709964
 136.083442, 15374.349183
 136.920385, 15502.775833
 137.757328, 15631.989913
 138.594272, 15761.991425
 139.431215, 15892.780367
 140.268159, 16024.356741
 141.105102, 16156.720545
 141.942045, 16289.871781
 142.778989, 16423.810447
 143.615932, 16558.536545
 144.452875, 16694.050073
 145.289819, 16830.351032
 146.126762, 16982.574946
 146.963706, 17151.701575
 147.800649, 17321.794112
 148.637592, 17492.852560
 149.474536, 17664.876916
 150.311479, 17837.867182
 151.148423, 18011.823357
