Speed, Forces
  80.148940, 21602.921928
  80.809736, 21495.576756
  81.470532, 21388.231584
  82.131329, 21280.886412
  82.792125, 21173.541241
  83.452922, 21066.196069
  84.113718, 20958.850897
  84.774514, 20851.505725
  85.435311, 20744.160554
  86.096107, 20636.815382
  86.756903, 20529.470210
  87.417700, 20425.467038
  88.078496, 20336.421233
  88.739292, 20247.375428
  89.400089, 20158.329623
  90.060885, 20069.283818
  90.721681, 19980.238012
  91.382478, 19891.192207
  92.043274, 19802.146402
  92.704071, 19713.100597
  93.364867, 19624.054792
  94.025663, 19535.008987
  94.686460, 19445.963181
  95.347256, 19356.917376
  96.008052, 19267.871571
  96.668849, 19178.825766
  97.329645, 19089.779961
  97.990441, 19000.734156
  98.651238, 18924.705063
  99.312034, 18855.115244
  99.972831, 18785.525425
 100.633627, 18715.935607
 101.294423, 18646.345788
 101.955220, 18576.755969
 102.616016, 18507.166150
 103.276812, 18437.576332
 103.937609, 18367.986513
 104.598405, 18298.396694
 105.259201, 18228.806875
 105.919998, 18159.217057
 106.580794, 18089.627238
 107.241591, 18020.037419
 107.902387, 17950.447600
 108.563183, 17880.857782
 109.223980, 17812.640614
 109.884776, 17751.882450
 110.545572, 17691.124285
 111.206369, 17630.366120
 111.867165, 17569.607956
 112.527961, 17508.849791
 113.188758, 17448.091627
 113.849554, 17387.333462
 114.510351, 17326.575297
 115.171147, 17265.817133
 115.831943, 17205.058968
 116.492740, 17144.300804
 117.153536, 17083.542639
 117.814332, 17022.784474
 118.475129, 16962.026310
 119.135925, 16901.268145
 119.796721, 16840.509980
 120.457518, 16784.709586
 121.118314, 16731.675867
 121.779111, 16678.642148
 122.439907, 16625.608429
 123.100703, 16572.574710
 123.761500, 16519.540992
 124.422296, 16466.507273
 125.083092, 16413.473554
 125.743889, 16360.439835
 126.404685, 16307.406116
 127.065481, 16254.372397
 127.726278, 16201.338679
 128.387074, 16148.304960
 129.047871, 16095.271241
 129.708667, 16042.237522
 130.369463, 15989.203803
 131.030260, 15937.016266
 131.691056, 15890.582055
 132.351852, 15844.147845
 133.012649, 15797.713635
 133.673445, 15751.279424
 134.334241, 15704.845214
 134.995038, 15658.411004
 135.655834, 15611.976793
 136.316631, 15565.542583
 136.977427, 15519.108373
 137.638223, 15472.674162
 138.299020, 15426.239952
 138.959816, 15379.805742
 139.620612, 15333.371531
 140.281409, 15286.937321
 140.942205, 15240.503111
 141.603001, 15194.068900
 142.263798, 15152.024564
 142.924594, 15112.732734
 143.585391, 15073.440905
 144.246187, 15034.149076
 144.906983, 14994.857246
 145.567780, 14955.565417
