Speed, Forces
  58.835340, 40565.472382
  59.822207, 40219.866147
  60.809075, 39874.259911
  61.795942, 39528.653676
  62.782810, 39183.047441
  63.769677, 38837.441206
  64.756545, 38491.834970
  65.743412, 38146.228735
  66.730280, 37800.622500
  67.717147, 37455.016265
  68.704015, 37109.410029
  69.690882, 36763.803794
  70.677750, 36429.670854
  71.664617, 36125.676523
  72.651485, 35821.682191
  73.638352, 35517.687859
  74.625220, 35213.693527
  75.612087, 34909.699195
  76.598955, 34605.704863
  77.585822, 34301.710532
  78.572690, 33997.716200
  79.559557, 33693.721868
  80.546425, 33389.727536
  81.533292, 33085.733204
  82.520160, 32795.304407
  83.507027, 32526.517814
  84.493895, 32257.731222
  85.480762, 31988.944629
  86.467630, 31720.158036
  87.454497, 31451.371444
  88.441365, 31182.584851
  89.428232, 30913.798258
  90.415100, 30645.011666
  91.401967, 30376.225073
  92.388835, 30107.438480
  93.375702, 29838.651888
  94.362570, 29585.275824
  95.349437, 29347.629606
  96.336305, 29109.983387
  97.323172, 28872.337168
  98.310040, 28634.690949
  99.296907, 28397.044730
 100.283775, 28159.398511
 101.270642, 27921.752293
 102.257510, 27684.106074
 103.244377, 27446.459855
 104.231245, 27208.813636
 105.218112, 26971.167417
 106.204980, 26750.161893
 107.191847, 26540.045924
 108.178715, 26329.929955
 109.165582, 26119.813986
 110.152450, 25909.698016
 111.139317, 25699.582047
 112.126185, 25489.466078
 113.113052, 25279.350109
 114.099920, 25069.234140
 115.086787, 24859.118170
 116.073655, 24649.002201
 117.060522, 24438.886232
 118.047390, 24247.943132
 119.034257, 24064.679194
 120.021125, 23881.415255
 121.007992, 23698.151317
 121.994860, 23514.887379
 122.981727, 23331.623441
 123.968595, 23148.359502
 124.955462, 22965.095564
 125.942330, 22781.831626
 126.929197, 22598.567688
 127.916065, 22415.303749
 128.902932, 22232.039811
 129.889800, 22062.872566
 130.876667, 21896.724623
 131.863535, 21730.576680
 132.850402, 21564.428737
 133.837270, 21398.280794
 134.824137, 21232.132851
 135.811005, 21065.984908
 136.797872, 20899.836965
 137.784740, 20733.689023
 138.771607, 20567.541080
 139.758475, 20401.393137
 140.745342, 20235.245194
 141.732210, 20078.794157
 142.719077, 19923.037623
 143.705945, 19767.281089
 144.692812, 19611.524555
 145.679680, 19455.768021
 146.666547, 19300.011487
 147.653415, 19144.254952
 148.640282, 18988.498418
 149.627150, 18832.741884
 150.614017, 18676.985350
 151.600885, 18521.228816
 152.587752, 18365.431312
 153.574620, 18208.716286
 154.561487, 18052.001259
 155.548355, 17895.286233
 156.535222, 17738.571206
