Speed, Forces
  63.305589, 36953.959708
  64.220328, 36668.296635
  65.135067, 36382.633562
  66.049807, 36096.970490
  66.964546, 35811.307417
  67.879285, 35525.644344
  68.794024, 35239.981272
  69.708763, 34982.530555
  70.623502, 34748.049403
  71.538241, 34513.568251
  72.452980, 34279.087099
  73.367720, 34044.605947
  74.282459, 33810.124795
  75.197198, 33575.643643
  76.111937, 33341.162491
  77.026676, 33106.681339
  77.941415, 32872.200188
  78.856154, 32637.719036
  79.770893, 32403.237884
  80.685633, 32168.756732
  81.600372, 31963.043215
  82.515111, 31759.098900
  83.429850, 31555.154586
  84.344589, 31351.210271
  85.259328, 31147.265956
  86.174067, 30943.321641
  87.088806, 30739.377326
  88.003546, 30535.433011
  88.918285, 30331.488697
  89.833024, 30127.544382
  90.747763, 29923.600067
  91.662502, 29719.655752
  92.577241, 29519.756943
  93.491980, 29327.964794
  94.406719, 29136.172646
  95.321459, 28944.380497
  96.236198, 28752.588349
  97.150937, 28560.796200
  98.065676, 28369.004052
  98.980415, 28177.211903
  99.895154, 27985.419755
 100.809893, 27793.627606
 101.724632, 27601.835458
 102.639372, 27410.043309
 103.554111, 27218.251161
 104.468850, 27026.160119
 105.383589, 26833.954993
 106.298328, 26641.749867
 107.213067, 26449.544741
 108.127806, 26257.339615
 109.042545, 26065.134489
 109.957285, 25872.929363
 110.872024, 25680.724237
 111.786763, 25488.519111
 112.701502, 25296.313985
 113.616241, 25104.108859
 114.530980, 24911.903733
 115.445719, 24722.490917
 116.360458, 24554.654588
 117.275198, 24386.818260
 118.189937, 24218.981932
 119.104676, 24051.145604
 120.019415, 23883.309276
 120.934154, 23715.472948
 121.848893, 23547.636619
 122.763632, 23379.800291
 123.678371, 23211.963963
 124.593111, 23044.127635
 125.507850, 22876.291307
 126.422589, 22708.454979
 127.337328, 22549.928458
 128.252067, 22400.511651
 129.166806, 22251.094843
 130.081545, 22101.678036
 130.996284, 21952.261229
 131.911024, 21802.844421
 132.825763, 21653.427614
 133.740502, 21504.010807
 134.655241, 21354.593999
 135.569980, 21205.177192
 136.484719, 21055.760385
 137.399458, 20906.343577
 138.314197, 20756.926770
 139.228937, 20619.934266
 140.143676, 20484.379741
 141.058415, 20348.825216
 141.973154, 20213.270690
 142.887893, 20077.716165
 143.802632, 19942.161640
 144.717371, 19806.607114
 145.632110, 19671.052589
 146.546850, 19535.498064
 147.461589, 19399.943539
 148.376328, 19264.389013
 149.291067, 19128.834488
 150.205806, 18994.398408
 151.120545, 18862.739371
 152.035284, 18731.080335
 152.950024, 18599.421298
 153.864763, 18467.762262
