Speed, Forces
  68.291028, 31423.561552
  69.127971, 31224.464383
  69.964915, 31025.367214
  70.801858, 30826.270044
  71.638801, 30627.172875
  72.475745, 30428.075706
  73.312688, 30228.978536
  74.149632, 30029.881367
  74.986575, 29830.784197
  75.823518, 29631.687028
  76.660462, 29432.589859
  77.497405, 29233.492689
  78.334348, 29034.395520
  79.171292, 28835.298351
  80.008235, 28663.329171
  80.845179, 28496.901815
  81.682122, 28330.474459
  82.519065, 28164.047103
  83.356009, 27997.619747
  84.192952, 27831.192391
  85.029896, 27664.765034
  85.866839, 27498.337678
  86.703782, 27331.910322
  87.540726, 27165.482966
  88.377669, 26999.055610
  89.214612, 26832.628254
  90.051556, 26666.200898
  90.888499, 26506.166519
  91.725443, 26361.598895
  92.562386, 26217.031271
  93.399329, 26072.463647
  94.236273, 25927.896023
  95.073216, 25783.328399
  95.910159, 25638.760775
  96.747103, 25494.193151
  97.584046, 25349.625527
  98.420990, 25205.057903
  99.257933, 25060.490279
 100.094876, 24915.922655
 100.931820, 24771.355031
 101.768763, 24626.787407
 102.605706, 24493.259027
 103.442650, 24363.321714
 104.279593, 24233.384400
 105.116537, 24103.447086
 105.953480, 23973.509773
 106.790423, 23843.572459
 107.627367, 23713.635145
 108.464310, 23583.697831
 109.301254, 23453.760518
 110.138197, 23323.823204
 110.975140, 23193.885890
 111.812084, 23063.948576
 112.649027, 22934.011263
 113.485970, 22808.344560
 114.322914, 22698.121443
 115.159857, 22587.898327
 115.996801, 22477.675210
 116.833744, 22367.452093
 117.670687, 22257.228976
 118.507631, 22147.005860
 119.344574, 22036.782743
 120.181517, 21926.559626
 121.018461, 21816.336509
 121.855404, 21706.113393
 122.692348, 21595.890276
 123.529291, 21485.667159
 124.366234, 21375.444042
 125.203178, 21275.785445
 126.040121, 21181.127734
 126.877065, 21086.470023
 127.714008, 20991.812312
 128.550951, 20897.154601
 129.387895, 20802.496891
 130.224838, 20707.839180
 131.061781, 20613.181469
 131.898725, 20518.523758
 132.735668, 20423.866047
 133.572612, 20329.208336
 134.409555, 20234.550626
 135.246498, 20139.892915
 136.083442, 20046.884643
 136.920385, 19963.941873
 137.757328, 19880.999104
 138.594272, 19798.056334
 139.431215, 19715.113565
 140.268159, 19632.170796
 141.105102, 19549.228026
 141.942045, 19466.285257
 142.778989, 19383.342488
 143.615932, 19300.399718
 144.452875, 19217.456949
 145.289819, 19134.514179
 146.126762, 19051.571410
 146.963706, 18968.628641
 147.800649, 18889.827261
 148.637592, 18813.753727
 149.474536, 18737.680193
 150.311479, 18661.606659
 151.148423, 18585.533125
