%Climb_angle_curves_AOE
\begin{tikzpicture}

\begin{axis}[
width=\figurewidth,
height=\figureheight,
scaled ticks=false, tick label style={/pgf/number format/fixed},
xmin=60.75200185424198,
xmax=142.9234635898666,
xlabel={Speed ((m/s))},
xmajorgrids,
ymin=-1.4522881034134554,
ymax=6.420136380962519,
ylabel={Climb angle ((deg))},
ymajorgrids,
legend style={at={(1.03,0.5)},anchor=west,draw=black,fill=white,legend cell align=left}
]

\addplot [
color=black,
solid
]
table[row sep=crcr]{
60.75200185424198	6.420136380962519\\
61.58201661924829	6.399106540940479\\
62.412031384254604	6.357680837344656\\
63.242046149260915	6.3006518120718065\\
64.07206091426723	6.232821080446533\\
64.90207567927354	6.158998101938893\\
65.73209044427985	6.083999442995498\\
66.56210520928616	6.012648514441939\\
67.39211997429247	5.949775753527972\\
68.22213473929878	5.900219218158331\\
69.05214950430509	5.8674962340253325\\
69.8821642693114	5.857498993996801\\
70.71217903431771	5.870977681359672\\
71.54219379932402	5.866611058376036\\
72.37220856433034	5.836365787855615\\
73.20222332933665	5.785548807469208\\
74.03223809434296	5.716653357595165\\
74.86225285934927	5.635072261557345\\
75.69226762435558	5.544799624796082\\
76.52228238936189	5.449146781201002\\
77.3522971543682	5.35378281603058\\
78.18231191937451	5.260761043747346\\
79.01232668438082	5.176581408556409\\
79.84234144938713	5.102902309041271\\
80.67235621439345	5.046175505846448\\
81.50237097939976	5.008566619899226\\
82.33238574440607	4.9941009964815875\\
83.16240050941238	4.969361326306428\\
83.99241527441869	4.921464221319084\\
84.822430039425	4.855935658865163\\
85.65244480443131	4.773217554947268\\
86.48245956943762	4.680027621013506\\
87.31247433444393	4.579003156377418\\
88.14248909945024	4.472712750025003\\
88.97250386445656	4.366877214593928\\
89.80251862946287	4.263644140983475\\
90.63253339446918	4.166480919463869\\
91.46254815947549	4.080610663317406\\
92.2925629244818	4.00853327612086\\
93.12257768948811	3.9530908810386904\\
93.95259245449442	3.9195564066489172\\
94.78260721950073	3.8831763298663065\\
95.61262198450704	3.8245412024484637\\
96.44263674951335	3.7496605279608386\\
97.27265151451967	3.6617957691338496\\
98.10266627952598	3.5634217235368943\\
98.93268104453229	3.456399666453575\\
99.7626958095386	3.3460067313455464\\
100.59271057454491	3.2354522714842187\\
101.42272533955122	3.1275308632226353\\
102.25274010455753	3.0235471951220796\\
103.08275486956384	2.9290003699243914\\
103.91276963457015	2.8470951495248773\\
104.74278439957646	2.781035896007253\\
105.57279916458278	2.732507159756025\\
106.40281392958909	2.6855223506793067\\
107.2328286945954	2.620993126795203\\
108.06284345960171	2.5417109639972257\\
108.89285822460802	2.450506468547824\\
109.72287298961433	2.3490728636099605\\
110.55288775462064	2.2399822756056365\\
111.38290251962695	2.127438388006083\\
112.21291728463326	2.0142687088248548\\
113.04293204963957	1.9032999105781743\\
113.87294681464589	1.797357950806691\\
114.7029615796522	1.6977122364218935\\
115.53297634465851	1.607874047510209\\
116.36299110966482	1.5315206052057513\\
117.19300587467113	1.4714766434913897\\
118.02302063967744	1.4179515777543628\\
118.85303540468375	1.3492429053581332\\
119.68305016969006	1.267216166104853\\
120.51306493469637	1.1720515574832884\\
121.34307969970268	1.0684942947698983\\
122.173094464709	0.9590261332991147\\
123.0031092297153	0.8461205628319745\\
123.83312399472162	0.7322506885288949\\
124.66313875972793	0.6198893067638753\\
125.49315352473424	0.5115090015049272\\
126.32316828974055	0.4089717298158234\\
127.15318305474686	0.3137823644835867\\
127.98319781975317	0.22997722296817832\\
128.81321258475947	0.16002891630107507\\
129.64322734976577	0.09864796581928259\\
130.47324211477206	0.024283526108469344\\
131.30325687977836	-0.06250662489874867\\
132.13327164478466	-0.1594837959152173\\
132.96328640979095	-0.2644094389116436\\
133.79330117479725	-0.3754059672184118\\
134.62331593980355	-0.49157628025197747\\
135.45333070480984	-0.6089926555518274\\
136.28334546981614	-0.7254165732725117\\
137.11336023482244	-0.8386092966699661\\
137.94337499982873	-0.9463317939946418\\
138.77338976483503	-1.046344686170084\\
139.60340452984133	-1.1364082307435168\\
140.43341929484762	-1.2142823502666074\\
141.26343405985392	-1.2822720609498253\\
142.09344882486022	-1.3611126693352373\\
142.9234635898666	-1.4522881034134554\\
};

\addplot [
color=black,
densely dashed
]
table[row sep=crcr]{
65.36787710872356	5.386988661007902\\
66.12663812832547	5.370887125323247\\
66.88539914792737	5.353037038866386\\
67.64416016752928	5.333957806951605\\
68.40292118713118	5.314175630290641\\
69.16168220673309	5.294223496151052\\
69.920443226335	5.273187607120676\\
70.6792042459369	5.250729407917621\\
71.4379652655388	5.227357776310129\\
72.19672628514071	5.203017282542864\\
72.95548730474262	5.176431860558319\\
73.71424832434452	5.149147716666225\\
74.47300934394643	5.12075428843366\\
75.23177036354834	5.090287625977272\\
75.99053138315024	5.0593791545679005\\
76.74929240275215	5.026228196520828\\
77.50805342235405	4.992229067812479\\
78.26681444195596	4.956606783705289\\
79.02557546155786	4.919515685364012\\
79.78433648115977	4.88108837402125\\
80.54309750076168	4.840924603199106\\
81.30185852036358	4.799505296378895\\
82.06061953996549	4.756970832384698\\
82.81938055956739	4.7132244795749685\\
83.5781415791693	4.668985007112868\\
84.3369025987712	4.6228687659568815\\
85.09566361837311	4.577034404084104\\
85.85442463797501	4.528720636795489\\
86.61318565757692	4.480402443322058\\
87.37194667717883	4.431089796554177\\
88.13070769678073	4.380243657283624\\
88.88946871638264	4.3295390013408035\\
89.64822973598454	4.2769017753167\\
90.40699075558645	4.223572402118317\\
91.16575177518835	4.170307118721291\\
91.92451279479026	4.114764286329424\\
92.68327381439217	4.058806887102891\\
93.44203483399407	4.002963604906321\\
94.20079585359598	3.945268478841513\\
94.95955687319788	3.8869352297705158\\
95.71831789279979	3.82867512689556\\
96.4770789124017	3.7695153825976715\\
97.2358399320036	3.708735395044784\\
97.9946009516055	3.6479744138721455\\
98.75336197120741	3.5872211511054743\\
99.51212299080932	3.52464849062565\\
100.27088401041122	3.461312765766546\\
101.02964503001313	3.3979317688979305\\
101.78840604961503	3.3344942187004802\\
102.54716706921694	3.269202359960224\\
103.30592808881885	3.203131068454437\\
104.06468910842075	3.136939399371403\\
104.82345012802266	3.070484758306926\\
105.58221114762456	3.002949621817347\\
106.34097216722647	2.9336240821049007\\
107.09973318682837	2.864123999401913\\
107.85849420643028	2.7945010301370745\\
108.61725522603219	2.7248068171421003\\
109.37601624563409	2.653926720930736\\
110.134777265236	2.5819237539020214\\
110.8935382848379	2.5099886045588553\\
111.65229930443981	2.4381728599960035\\
112.41106032404171	2.366528097118596\\
113.16982134364362	2.294832110837837\\
113.92858236324552	2.2214534790185936\\
114.68734338284743	2.1483858162295464\\
115.44610440244934	2.0756788041218908\\
116.20486542205124	2.003249961896137\\
116.96362644165315	1.9310201381374015\\
117.72238746125505	1.85878706109349\\
118.48114848085696	1.7847650611284918\\
119.23990950045886	1.7108805721865326\\
119.99867052006077	1.637117623130604\\
120.75743153966268	1.5634602465110514\\
121.51619255926458	1.489892478286869\\
122.27495357886649	1.416398357550721\\
123.03371459846839	1.3424444196244398\\
123.7924756180703	1.2669965981160216\\
124.5512366376722	1.1915620485256968\\
125.30999765727411	1.1161248103842258\\
126.06875867687602	1.0406689249388976\\
126.82751969647792	0.9651784348773773\\
127.58628071607983	0.8896963989240099\\
128.34504173568175	0.8142843911097133\\
129.10380275528365	0.7380965929010218\\
129.86256377488556	0.6608295821172685\\
130.62132479448746	0.5835855499835908\\
131.38008581408937	0.5063525284556618\\
132.13884683369128	0.4291185502645937\\
132.89760785329318	0.35187164869960813\\
133.6563688728951	0.27459985739087917\\
134.415129892497	0.19729121009241382\\
135.1738909120989	0.1199337404646384\\
135.9326519317008	0.04187669895953327\\
136.6914129513027	-0.037472991029483316\\
137.45017397090461	-0.11691775908240096\\
138.20893499050652	-0.19646958472190684\\
138.96769601010843	-0.2760930591441524\\
139.72645702971033	-0.3556851792289635\\
140.48521804931246	-0.4352644499743825\\
};

\addplot [
color=black,
dashdotted
]
table[row sep=crcr]{
70.51572499185646	3.9461895804635305\\
71.19743566296721	3.9421273512021546\\
71.87914633407796	3.936587270561964\\
72.56085700518871	3.929748406368392\\
73.24256767629946	3.920720215594175\\
73.92427834741021	3.910272493482377\\
74.60598901852096	3.8989479909924945\\
75.28769968963171	3.8855528895437272\\
75.96941036074246	3.87114868568975\\
76.65112103185321	3.8559403637779277\\
77.33283170296396	3.8387616690034365\\
78.01454237407471	3.8214232865649125\\
78.69625304518546	3.802170940178928\\
79.37796371629621	3.7826533612725597\\
80.05967438740696	3.7617407618192704\\
80.74138505851771	3.740262385702151\\
81.42309572962846	3.717599481329958\\
82.10480640073921	3.694374682316568\\
82.78651707184996	3.6699183769292962\\
83.4682277429607	3.6451935773531026\\
84.14993841407146	3.6189055313161944\\
84.8316490851822	3.5929413413263096\\
85.51335975629296	3.564787967861265\\
86.1950704274037	3.537001900831181\\
86.87678109851446	3.5078116365441327\\
87.5584917696252	3.4780889795219916\\
88.24020244073596	3.4482414003454775\\
88.9219131118467	3.416558859635839\\
89.60362378295746	3.3851485965080395\\
90.2853344540682	3.3527000440638255\\
90.96704512517896	3.3192828584534406\\
91.6487557962897	3.286181477753809\\
92.33046646740046	3.251698301477962\\
93.0121771385112	3.2167517745700214\\
93.69388780962196	3.182091499521138\\
94.3755984807327	3.1460783112264226\\
95.05730915184346	3.109538920560497\\
95.7390198229542	3.0732419638615833\\
96.42073049406495	3.0361206764615445\\
97.1024411651757	2.9979169459930763\\
97.78415183628645	2.9599126305381414\\
98.4658625073972	2.9220988932220955\\
99.14757317850795	2.882200987041601\\
99.8292838496187	2.84242573766648\\
100.51099452072945	2.8027988477934596\\
101.1927051918402	2.762748634813795\\
101.87441586295095	2.7211459698679055\\
102.5561265340617	2.6796691951315\\
103.23783720517245	2.6383469408489906\\
103.9195478762832	2.5967157034598185\\
104.60125854739395	2.553517711630268\\
105.2829692185047	2.510460066761204\\
105.96467988961545	2.4675425827405304\\
106.6463905607262	2.424765073998223\\
107.32810123183695	2.380378224488623\\
108.0098119029477	2.3357484577176013\\
108.69152257405845	2.2912447456264347\\
109.3732332451692	2.246866901718234\\
110.05494391627995	2.20254346879668\\
110.7366545873907	2.1563591816865157\\
111.41836525850145	2.110287621057355\\
112.1000759296122	2.0643285992286113\\
112.78178660072295	2.018481929000905\\
113.4634972718337	1.9727484030303726\\
114.14520794294445	1.925606342508777\\
114.8269186140552	1.878148314789076\\
115.50862928516595	1.8308125718151174\\
116.1903399562767	1.7835926185404851\\
116.87205062738745	1.7364819610985136\\
117.5537612984982	1.6894741067513104\\
118.23547196960895	1.640701886241054\\
118.9171826407197	1.5919452796494835\\
119.59889331183045	1.5432609672587774\\
120.2806039829412	1.4946424568823344\\
120.96231465405195	1.4460832572175006\\
121.6440253251627	1.3975768777960293\\
122.32573599627345	1.348181317435168\\
123.0074466673842	1.2979016595930206\\
123.68915733849495	1.2476450919557784\\
124.3708680096057	1.1974051232996918\\
125.05257868071645	1.1471886707113435\\
125.7342893518272	1.0970419710768777\\
126.41600002293795	1.04696389860527\\
127.0977106940487	0.9964891933483686\\
127.77942136515945	0.9447447635251971\\
128.4611320362702	0.8930399748760913\\
129.14284270738094	0.8413683272195033\\
129.8245533784917	0.7897233209015928\\
130.50626404960244	0.7380984567426356\\
131.18797472071319	0.6864872359837338\\
131.86968539182394	0.6348831602337258\\
132.55139606293469	0.58319075272193\\
133.23310673404544	0.5298749159863102\\
133.91481740515619	0.47653800398490603\\
134.59652807626694	0.4231735151796616\\
135.27823874737769	0.3697749480904131\\
135.95994941848843	0.3163358012385782\\
136.64166008959918	0.2628724847598778\\
137.32337076070993	0.20940534123928412\\
138.00508143182054	0.1559326572242739\\
};

\addplot [
color=black,
dashed
]
table[row sep=crcr]{
76.27942542816477	2.635460746547035\\
76.877418628968	2.635816980875222\\
77.47541182977123	2.63615629202427\\
78.07340503057446	2.635249602403042\\
78.6713982313777	2.6339783045477994\\
79.26939143218092	2.631962020639746\\
79.86738463298416	2.6290027078978375\\
80.46537783378739	2.6257410308828195\\
81.06337103459062	2.6211987996366655\\
81.66136423539385	2.6165970419949645\\
82.25935743619708	2.61058634204226\\
82.85735063700031	2.604552941937494\\
83.45534383780354	2.5971975743684474\\
84.05333703860677	2.5896440964376826\\
84.65133023941	2.581077211237091\\
85.24932344021323	2.571918347143781\\
85.84731664101646	2.5622824405648377\\
86.4453098418197	2.5514360093027975\\
87.04330304262292	2.5408586512872473\\
87.64129624342615	2.5282698690060927\\
88.23928944422939	2.5158651055273022\\
88.83728264503262	2.502505180056675\\
89.43527584583585	2.4882638036218165\\
90.03326904663908	2.4743788236246917\\
90.63126224744231	2.4588633282421304\\
91.22925544824554	2.4434428723230197\\
91.82724864904877	2.428017134686347\\
92.425241849852	2.4110234179303087\\
93.02323505065523	2.394290256302744\\
93.62122825145846	2.377311006623617\\
94.21922145226169	2.358926657118168\\
94.81721465306492	2.3407447206297873\\
95.41520785386815	2.322442059481\\
96.01320105467138	2.3025351740162483\\
96.61119425547462	2.282773086954272\\
97.20918745627785	2.263140918696345\\
97.80718065708108	2.2418391449798563\\
98.40517385788431	2.220370224119698\\
99.00316705868754	2.1989741374121654\\
99.60116025949077	2.1768567843624576\\
100.199153460294	2.1535601079370235\\
100.79714666109723	2.1303430960299297\\
101.39513986190046	2.1072377005069605\\
101.99313306270369	2.082930223772639\\
102.59112626350692	2.058085746518714\\
103.18911946431015	2.0333409115891192\\
103.78711266511338	2.0086955304773126\\
104.38510586591661	1.982826235525891\\
104.98309906671984	1.9564625363043295\\
105.58109226752308	1.9301868347923865\\
106.1790854683263	1.9039989420876755\\
106.77707866912954	1.8771152439146166\\
107.37507186993277	1.8492349686576066\\
107.973065070736	1.821431563195492\\
108.57105827153923	1.7937048381380933\\
109.16905147234246	1.766054604224626\\
109.76704467314569	1.7369971527839736\\
110.36503787394892	1.7076754057198453\\
110.96303107475215	1.6784197262996488\\
111.56102427555538	1.6492293895716776\\
112.15901747635861	1.6201019444228144\\
112.75701067716184	1.5895588291870284\\
113.35500387796507	1.5587834334587698\\
113.9529970787683	1.5280635022498024\\
114.55099027957154	1.4973998025050046\\
115.14898348037477	1.466793101226508\\
115.746976681178	1.4355132294621469\\
116.34496988198123	1.4033014050170343\\
116.94296308278446	1.3711400552180122\\
117.54095628358769	1.3390299460000163\\
118.13894948439092	1.3069718433567208\\
118.73694268519415	1.2749665133426935\\
119.33493588599738	1.2421515423602967\\
119.93292908680061	1.208583321897084\\
120.53092228760384	1.1750618608588859\\
121.12891548840707	1.1415879241328624\\
121.7269086892103	1.1081622766692176\\
122.32490189001354	1.074785683483608\\
122.92289509081677	1.0414082018267763\\
123.52088829162	1.0065267687576749\\
124.11888149242323	0.9716914069417112\\
124.71687469322646	0.9369000177106456\\
125.31486789402969	0.902150502581718\\
125.91286109483292	0.8674407632493526\\
126.51085429563615	0.832768701576935\\
127.10884749643938	0.7981322195886507\\
127.70684069724261	0.7621729643041534\\
128.30483389804584	0.7260359895934568\\
128.90282709884906	0.6899210121738107\\
129.50082029965228	0.6538259329849634\\
130.0988135004555	0.6177486530779114\\
130.6968067012587	0.5816870736064281\\
131.29479990206192	0.5456390958186386\\
131.89279310286514	0.509602621048616\\
132.49078630366836	0.4722212064821324\\
133.08877950447157	0.43469282306581253\\
133.6867727052748	0.39716584607449307\\
134.284765906078	0.35967274849532826\\
134.88275910688122	0.32221831280801977\\
135.48075230768399	0.2847966069679835\\
};

\addplot [
color=black,
densely dashdotted
]
table[row sep=crcr]{
82.75992854189037	1.3364718099244008\\
83.266492009288	1.3399404784107392\\
83.77305547668563	1.3432897634638894\\
84.27961894408325	1.3456332055629183\\
84.78618241148088	1.3476029523226973\\
85.2927458788785	1.3490213534031141\\
85.79930934627613	1.3496510725985982\\
86.30587281367376	1.3503503138464121\\
86.81243628107138	1.349681417387846\\
87.31899974846901	1.3493399242281763\\
87.82556321586664	1.3479026891926205\\
88.33212668326426	1.3461771692476543\\
88.83869015066189	1.3443056694539657\\
89.34525361805952	1.341182107045115\\
89.85181708545714	1.3383014541990996\\
90.35838055285477	1.3345818422637588\\
90.8649440202524	1.330323614906475\\
91.37150748765002	1.3263067362992382\\
91.87807095504765	1.3210024802438867\\
92.38463442244527	1.3156310288835236\\
92.8911978898429	1.3104996821962203\\
93.39776135724053	1.3038856363509395\\
93.90432482463815	1.2974252514740434\\
94.41088829203578	1.2912040438360466\\
94.9174517594334	1.2835664451479918\\
95.42401522683103	1.2760442656503188\\
95.93057869422866	1.2687606524928021\\
96.43714216162628	1.2603971171469566\\
96.94370562902391	1.2518431291833922\\
97.45026909642154	1.2435274130800493\\
97.95683256381916	1.2347469335428363\\
98.46339603121679	1.2252033459610505\\
98.96995949861441	1.2159569829030288\\
99.47652296601204	1.2070040411750338\\
99.98308643340967	1.196840072528435\\
100.4896499008073	1.186737159707186\\
100.99621336820492	1.1768779301585213\\
101.50277683560255	1.1669932280262822\\
102.00934030300017	1.1559223775917982\\
102.5159037703978	1.1450457906285014\\
103.02246723779542	1.134349741098708\\
103.52903070519305	1.1234881285558416\\
104.03559417259068	1.1114859645654822\\
104.5421576399883	1.0996152370321737\\
105.04872110738593	1.087862220661818\\
105.55528457478356	1.0761938692375652\\
106.06184804218118	1.0630434122887429\\
106.56841150957881	1.049961884486679\\
107.07497497697643	1.0369355612969098\\
107.58153844437406	1.0239507184343617\\
108.08810191177169	1.010137684710114\\
108.59466537916931	0.9956325036230672\\
109.10122884656694	0.9811203403951819\\
109.60779231396457	0.9666373162145129\\
110.11435578136219	0.9522361613275191\\
110.62091924875982	0.9367157274243233\\
111.12748271615744	0.9209468117260117\\
111.63404618355507	0.905250616003737\\
112.1406096509527	0.8896263881618197\\
112.64717311835032	0.8740733761541025\\
113.15373658574795	0.8575615963026776\\
113.66030005314558	0.840655232371395\\
114.1668635205432	0.8238111692916288\\
114.67342698794083	0.8070286548603048\\
115.17999045533846	0.7903069369216753\\
115.68655392273608	0.7733267330372876\\
116.19311739013371	0.7552698595230086\\
116.69968085753133	0.7372651827783369\\
117.20624432492896	0.7193119504505913\\
117.71280779232659	0.7014094102314122\\
118.21937125972421	0.6835568098557161\\
118.72593472712184	0.6652964029391564\\
119.23249819451947	0.6461230969060701\\
119.73906166191709	0.6269914456373441\\
120.24562512931472	0.6079020897616425\\
120.75218859671234	0.5888658350079469\\
121.25875206410997	0.5698839242864935\\
121.7653155315076	0.5509548800054227\\
122.27187899890522	0.5307751902020283\\
122.77844246630285	0.5105633535737423\\
123.28500593370048	0.4903942366800372\\
123.7915694010981	0.4702663616838444\\
124.29813286849573	0.4501782507972368\\
124.80469633589335	0.43012842627937253\\
125.31125980329098	0.41009635945152295\\
125.8178232706886	0.38877863268571344\\
126.32438673808623	0.36748935960452445\\
126.83095020548386	0.3462270621384612\\
127.33751367288149	0.3249902622546661\\
127.84407714027911	0.30377748195476495\\
128.35064060767675	0.2825872432727501\\
128.85720407507438	0.2614180682728639\\
129.363767542472	0.23968673384711148\\
129.87033100986963	0.21725287733793172\\
130.37689447726726	0.1948305644796338\\
130.88345794466488	0.17241831688890646\\
131.3900214120625	0.15002083724473517\\
131.89658487946014	0.12764683874517524\\
132.40314834685776	0.10529570576147104\\
132.90971181425576	0.08296670399769734\\
};
\end{axis}
\end{tikzpicture}%
