%Climb_angle_curves_AOE
\begin{tikzpicture}

\begin{axis}[
width=\figurewidth,
height=\figureheight,
scaled ticks=false, tick label style={/pgf/number format/fixed},
xmin=60.75200185424198,
xmax=146.32640319914915,
xlabel={Speed ((m/s))},
xmajorgrids,
ymin=-1.9127512536626627,
ymax=6.420136380962519,
ylabel={Climb angle ((deg))},
ymajorgrids,
legend style={at={(1.03,0.5)},anchor=west,draw=black,fill=white,legend cell align=left}
]

\addplot [
color=black,
solid
]
table[row sep=crcr]{
60.75200185424198	6.420136380962519\\
61.61638974661478	6.3978480974607175\\
62.480777638987576	6.35349324799311\\
63.34516553136037	6.292788459826304\\
64.20955342373317	6.221173031553865\\
65.07394131610597	6.14373916898693\\
65.93832920847878	6.06599036623313\\
66.80271710085158	5.99338728959226\\
67.66710499322438	5.931360145480951\\
68.53149288559719	5.8853475136381785\\
69.39588077796999	5.8607976724446\\
70.2602686703428	5.861989906843007\\
71.1246565627156	5.871938511506645\\
71.9890444550884	5.853386383458907\\
72.85343234746121	5.809310625969346\\
73.71782023983401	5.744249285496524\\
74.58220813220682	5.664195062251423\\
75.44659602457962	5.571987995252882\\
76.31098391695242	5.4737916976606655\\
77.17537180932523	5.373798813778817\\
78.03975970169803	5.2762767769969106\\
78.90414759407084	5.186876880874473\\
79.76853548644364	5.10885300079902\\
80.63292337881644	5.048414962048419\\
81.49731127118925	5.008728466970885\\
82.36169916356205	4.993679992431093\\
83.22608705593485	4.966393209698794\\
84.09047494830766	4.914570484215404\\
84.95486284068046	4.843645147262184\\
85.81925073305327	4.7552076801420915\\
86.68363862542607	4.65628300802143\\
87.54802651779887	4.549003237339762\\
88.41241441017168	4.43806887078433\\
89.27680230254448	4.328906137400072\\
90.14119019491729	4.222866682331645\\
91.00557808729009	4.126273545264714\\
91.8699659796629	4.043692350251439\\
92.7343538720357	3.9764895176785746\\
93.5987417644085	3.9310388685825073\\
94.4631296567813	3.899649884620699\\
95.32751754915411	3.8466869340518626\\
96.19190544152691	3.773796269170574\\
97.05629333389972	3.685770896512507\\
97.92068122627252	3.5861188465756704\\
98.78506911864532	3.4757713169294853\\
99.64945701101813	3.361148740748416\\
100.51384490339093	3.245876200128094\\
101.37823279576374	3.1333093846901656\\
102.24262068813654	3.0247646352436037\\
103.10700858050934	2.9264121374160323\\
103.97139647288215	2.8418715211856376\\
104.83578436525495	2.774761959723885\\
105.70017225762776	2.7265189099292533\\
106.56456015000056	2.674238411941442\\
107.42894804237336	2.6034858654841235\\
108.29333593474617	2.517458568586137\\
109.15772382711897	2.4193534223203503\\
110.02211171949178	2.3103195178161626\\
110.88649961186458	2.195003190780091\\
111.75088750423738	2.07717428113617\\
112.61527539661019	1.9600259184796947\\
113.47966328898299	1.8467503065940396\\
114.3440511813558	1.740026468252341\\
115.2084390737286	1.6415513874207024\\
116.0728269661014	1.556503212253226\\
116.9372148584742	1.488072338988175\\
117.80160275084701	1.4337143400492767\\
118.66599064321981	1.3659771665744505\\
119.53037853559262	1.2831911560237375\\
120.39476642796542	1.1861860265014204\\
121.25915432033823	1.0792751721024996\\
122.12354221271103	0.965682434841227\\
122.98793010508383	0.848201545811614\\
123.85231799745664	0.729625780124855\\
124.71670588982944	0.6127480481351346\\
125.58109378220225	0.5003610132241636\\
126.44548167457505	0.3943250764313015\\
127.30986956694785	0.29701529391947784\\
128.17425745932064	0.2125583811491755\\
129.03864535169345	0.1437470697832108\\
129.90303324406625	0.07684223279572988\\
130.76742113643905	-0.0051712620116548\\
131.63180902881186	-0.09980039499211768\\
132.49619692118466	-0.20451672995266468\\
133.36058481355747	-0.3167919872918963\\
134.22497270593027	-0.43553015392010536\\
135.08936059830307	-0.5574943877883013\\
135.95374849067588	-0.6794468835124613\\
136.81813638304868	-0.7988592040547565\\
137.68252427542149	-0.9132025993412225\\
138.5469121677943	-1.019947928900873\\
139.4113000601671	-1.1165656262410388\\
140.2756879525399	-1.2005257169438965\\
141.1400758449127	-1.2717007537477303\\
142.0044637372855	-1.352052338691687\\
142.8688516296583	-1.4458636381886152\\
143.7332395220311	-1.5522325110770419\\
144.59762741440392	-1.6670768383173076\\
145.46201530677672	-1.7880365579019362\\
146.32640319914915	-1.9127512536626627\\
};

\addplot [
color=black,
densely dashed
]
table[row sep=crcr]{
65.36787710872356	5.386988661007902\\
66.16042485705306	5.370185827871756\\
66.95297260538256	5.351455110706213\\
67.74552035371205	5.331366462999685\\
68.53806810204155	5.310497249266798\\
69.33061585037105	5.289412978059984\\
70.12316359870054	5.267631292917254\\
70.91571134703004	5.243750482166827\\
71.70825909535954	5.218558130785096\\
72.50080684368903	5.192351074678597\\
73.29335459201853	5.164826907326851\\
74.08590234034803	5.135139736424803\\
74.87845008867752	5.10464694727249\\
75.67099783700702	5.072631577542085\\
76.46354558533652	5.038655410240543\\
77.25609333366602	5.004128758975112\\
78.04864108199551	4.96681975120469\\
78.84118883032501	4.928872585917309\\
79.6337365786545	4.888707899131583\\
80.426284326984	4.847316407999201\\
81.2188320753135	4.804019063440428\\
82.011379823643	4.759822090273776\\
82.8039275719725	4.714111920163679\\
83.59647532030199	4.6678672501391105\\
84.38902306863149	4.6197115206711095\\
85.18157081696098	4.571751756988192\\
85.97411856529048	4.521084322132461\\
86.76666631361998	4.470653894477629\\
87.55921406194948	4.418526499751464\\
88.35176181027897	4.3654577755344866\\
89.14430955860847	4.312363910856324\\
89.93685730693797	4.256606949924368\\
90.72940505526746	4.200932016099365\\
91.52195280359696	4.144464371326424\\
92.31450055192646	4.0859935379120245\\
93.10704830025595	4.027602827829307\\
93.89959604858545	3.9684473853865567\\
94.69214379691495	3.907484914070424\\
95.48469154524444	3.846606591681578\\
96.27723929357394	3.7855279660640058\\
97.06978704190344	3.7220349217261792\\
97.86233479023294	3.6585653098550597\\
98.65488253856243	3.59510626570008\\
99.44743028689193	3.5300468245814005\\
100.23997803522143	3.463893374630319\\
101.03252578355092	3.3976910325160334\\
101.82507353188042	3.33142694172861\\
102.61762128020992	3.2630716211096042\\
103.41016902853941	3.19404577361018\\
104.20271677686891	3.124872261718048\\
104.99526452519841	3.0553986266429747\\
105.7878122735279	2.9841846933190435\\
106.5803600218574	2.9117133211575945\\
107.3729077701869	2.839069298317463\\
108.1654555185164	2.7663114883479683\\
108.95800326684589	2.6934987389179135\\
109.75055101517539	2.618379838099165\\
110.54309876350489	2.5432006828249083\\
111.33564651183438	2.4681258093357936\\
112.12819426016388	2.393214000864096\\
112.92074200849338	2.318524029109224\\
113.71328975682287	2.2422447432361854\\
114.50583750515237	2.165833538292471\\
115.29838525348187	2.0898043900731347\\
116.09093300181136	2.0141124885302433\\
116.88348075014086	1.9386406375368457\\
117.67602849847036	1.863314488261613\\
118.46857624679986	1.7859903986681789\\
119.26112399512935	1.7088166279557793\\
120.05367174345885	1.631774975067616\\
120.84621949178835	1.5548472433269185\\
121.63876724011784	1.478015240090688\\
122.43131498844734	1.4012607764081395\\
123.22386273677684	1.323534814103306\\
124.01641048510633	1.2447327640233972\\
124.80895823343583	1.165940054655038\\
125.60150598176533	1.087138497728931\\
126.39405373009483	1.0083099069073413\\
127.18660147842432	0.9294473647971614\\
127.97914922675382	0.8506418254483288\\
128.7716969750833	0.7719062158939388\\
129.5642447234128	0.6912049411138261\\
130.3567924717423	0.6105138325453747\\
131.1493402200718	0.529839289264283\\
131.9418879684013	0.4491676728295202\\
132.7344357167308	0.36848534554303164\\
133.52698346506028	0.2877786701797234\\
134.31953121338978	0.20703400971750432\\
135.11207896171928	0.12623772706703887\\
135.90462671004877	0.0448058548715788\\
136.69717445837827	-0.03807586632572175\\
137.48972220670777	-0.12106142078619452\\
138.28226995503726	-0.20416446069749336\\
139.07481770336676	-0.28733156316478586\\
139.86736545169626	-0.37046396389804465\\
140.65991320002576	-0.45358735762587465\\
141.45246094835525	-0.5367299360639033\\
142.24500869668475	-0.6199198924635898\\
143.03755644501425	-0.7031854222076714\\
143.83010419334371	-0.7866193982791405\\
};

\addplot [
color=black,
dashdotted
]
table[row sep=crcr]{
70.51572499185646	3.9461895804635305\\
71.23062591824181	3.941923730291628\\
71.94552684462717	3.9359300249746054\\
72.66042777101252	3.928393972334833\\
73.37532869739788	3.9190295749747595\\
74.09022962378323	3.907554385531544\\
74.80513055016858	3.8949750366192313\\
75.52003147655394	3.881121911061015\\
76.2349324029393	3.8651544144502528\\
76.94983332932465	3.8485531136161732\\
77.66473425571	3.8304296178384782\\
78.37963518209536	3.8110372478158667\\
79.09453610848071	3.791206710738808\\
79.80943703486606	3.7693533132081067\\
80.52433796125142	3.7475845268583456\\
81.23923888763677	3.72366201185984\\
81.95413981402213	3.699842262204978\\
82.66904074040748	3.67410010643081\\
83.38394166679284	3.6484728638371178\\
84.09884259317819	3.620861513870048\\
84.81374351956354	3.5936858580950766\\
85.5286444459489	3.5641609898649396\\
86.24354537233425	3.5350397938229356\\
86.95844629871961	3.504234112948652\\
87.67334722510496	3.4731124675358935\\
88.38824815149032	3.441337268859087\\
89.10314907787567	3.4081821754849315\\
89.81805000426102	3.375323308201537\\
90.53295093064638	3.340531310896901\\
91.24785185703173	3.3056083382206944\\
91.96275278341709	3.2706703570310545\\
92.67765370980244	3.2338641272565307\\
93.3925546361878	3.197377474273642\\
94.10745556257315	3.1605190193701866\\
94.8223564889585	3.122104453024068\\
95.53725741534386	3.0839598530199415\\
96.25215834172921	3.045599397439834\\
96.96705926811457	3.00548772973918\\
97.68196019449992	2.9655972977002047\\
98.39686112088528	2.925917909501172\\
99.11176204727063	2.8842947001766186\\
99.82666297365598	2.8425783661531656\\
100.54156390004134	2.8010252269400295\\
101.2564648264267	2.7588528132065937\\
101.97136575281205	2.715238312560839\\
102.6862666791974	2.6717687126551946\\
103.40116760558276	2.6284695852243725\\
104.11606853196811	2.584248361315295\\
104.83096945835347	2.538993232505358\\
105.54587038473882	2.493892380369697\\
106.26077131112417	2.448945590494179\\
106.97567223750953	2.4035002944834836\\
107.69057316389488	2.3566324557405123\\
108.40547409028024	2.3099033410990195\\
109.12037501666559	2.263312735211869\\
109.83527594305095	2.216860423350763\\
110.5501768694363	2.168981398143084\\
111.26507779582165	2.1206373228728723\\
111.97997872220701	2.0724170578231194\\
112.69487964859236	2.0243203869882946\\
113.40978057497772	1.9763475258567653\\
114.12468150136307	1.9270372776159648\\
114.83958242774843	1.8772678866805323\\
115.55448335413378	1.8276328449491386\\
116.26938428051913	1.7781246618296835\\
116.98428520690449	1.7287358481527304\\
117.69918613328984	1.679112612709543\\
118.4140870596752	1.6279198091371738\\
119.12898798606055	1.5768117803884323\\
119.8438889124459	1.52578103834695\\
120.55878983883126	1.474820096007182\\
121.27369076521661	1.4239214674110576\\
121.98859169160197	1.3730579672242686\\
122.70349261798732	1.3203165904812602\\
123.41839354437268	1.2676037901936794\\
124.13329447075803	1.2149120798229076\\
124.84819539714339	1.1622374664161501\\
125.56309632352874	1.1096282381190714\\
126.2779972499141	1.057096276884453\\
126.99289817629945	1.0044487915022837\\
127.7077991026848	0.950179189158318\\
128.42270002907017	0.8959539330358006\\
129.13760095545553	0.841765526508873\\
129.85250188184088	0.7876064735935657\\
130.56740280822623	0.7334692788798377\\
131.2823037346116	0.6793464474639663\\
131.99720466099694	0.6252304848812481\\
132.7121055873823	0.570623392884008\\
133.42700651376765	0.5147066624541395\\
134.141907440153	0.4587647209309866\\
134.85680836653836	0.40279007020357566\\
135.5717092929237	0.34677521220828617\\
136.28661021930907	0.29071772233298804\\
137.00151114569442	0.2346496481404023\\
137.71641207207978	0.17857637129833862\\
138.43131299846513	0.12249591391909304\\
139.14621392485049	0.06586993771153281\\
139.86111485123584	0.008059829932387285\\
140.5760157776212	-0.049772153675960634\\
141.29091670400675	-0.10762799629250831\\
};

\addplot [
color=black,
dashed
]
table[row sep=crcr]{
76.27942542816477	2.635460746547035\\
76.91000178248115	2.635837163660895\\
77.54057813679752	2.636015192018176\\
78.1711544911139	2.6351756448715635\\
78.80173084543027	2.6334827589143406\\
79.43230719974665	2.6315254227073694\\
80.06288355406302	2.627871088385283\\
80.6934599083794	2.6243143184534907\\
81.32403626269577	2.619127824730036\\
81.95461261701215	2.613843169522601\\
82.58518897132852	2.6072411690557478\\
83.2157653256449	2.6003389023082497\\
83.84634167996127	2.5922131996537994\\
84.47691803427765	2.583813993467242\\
85.10749438859402	2.574059870758209\\
85.7380707429104	2.5642947929569266\\
86.36864709722677	2.552811010665152\\
86.99922345154314	2.54162964448969\\
87.62979980585952	2.5285103192455916\\
88.2603761601759	2.5154312049840337\\
88.89095251449227	2.50121536489634\\
89.52152886880864	2.486238983728818\\
90.15210522312502	2.4714490138932206\\
90.7826815774414	2.4549290825738153\\
91.41325793175777	2.4387599195912637\\
92.04383428607414	2.4218311899378575\\
92.67441064039052	2.4040203178486945\\
93.3049869947069	2.3864922725235616\\
93.93556334902327	2.367621127311893\\
94.56613970333964	2.3483549378006208\\
95.19671605765602	2.329304220252621\\
95.8272924119724	2.3087077698786858\\
96.45786876628877	2.2878271080154655\\
97.08844512060514	2.2670951506906682\\
97.71902147492152	2.245011262871427\\
98.3495978292379	2.2223621948142553\\
98.98017418355427	2.1997956516694823\\
99.61075053787064	2.176482942161214\\
100.24132689218702	2.151919067412315\\
100.8719032465034	2.127448533619195\\
101.50247960081977	2.1031020848354376\\
102.13305595513614	2.077107988619966\\
102.76363230945252	2.050937264189717\\
103.3942086637689	2.024877275951059\\
104.02478501808527	1.9987542496618467\\
104.65536137240164	1.9709005830703281\\
105.28593772671802	1.9431448801797093\\
105.91651408103439	1.915486919412612\\
106.54709043535077	1.8878585074052376\\
107.17766678966714	1.8584300896288253\\
107.80824314398352	1.8290872163027214\\
108.43881949829989	1.7998296653148287\\
109.06939585261627	1.7706572147134503\\
109.69997220693264	1.7402900849592673\\
110.33054856124902	1.7093647430068921\\
110.96112491556539	1.6785128767486646\\
111.59170126988177	1.6477336269518084\\
112.22227762419814	1.6170243147980337\\
112.85285397851452	1.5846226049185608\\
113.48343033283089	1.5521812443712582\\
114.11400668714727	1.5198017404015867\\
114.74458304146364	1.487484992292202\\
115.37515939578002	1.4552318993971989\\
116.00573575009639	1.421568627867985\\
116.63631210441277	1.3876260462649925\\
117.26688845872914	1.3537400045653964\\
117.89746481304552	1.3199114008867405\\
118.52804116736189	1.2861411334206416\\
119.15861752167827	1.2520579504196439\\
119.78919387599464	1.2166476272271072\\
120.41977023031102	1.1812890934708202\\
121.05034658462739	1.145983245989277\\
121.68092293894377	1.1107309816983786\\
122.31149929326014	1.0755331975945566\\
122.94207564757652	1.040288647707552\\
123.57265200189289	1.003509545828296\\
124.20322835620927	0.966781470588747\\
124.83380471052564	0.930101961260601\\
125.46438106484202	0.8934685573434326\\
126.09495741915839	0.8568787985538974\\
126.72553377347477	0.8203302248150313\\
127.35611012779114	0.7833788330391221\\
127.98668648210752	0.7452588967683172\\
128.6172628364239	0.7071646620721945\\
129.24783919074028	0.6690936676679179\\
129.87841554505667	0.6310434524152274\\
130.50899189937306	0.5930115553053624\\
131.13956825368945	0.554995515450062\\
131.77014460800584	0.5169928720705878\\
132.40072096232223	0.4778734499806694\\
133.03129731663861	0.43830027964685037\\
133.661873670955	0.39872789667663733\\
134.2924500252714	0.35919123234370437\\
134.92302637958778	0.3196974731068131\\
135.55360273390417	0.2802396634684232\\
136.18417908822056	0.24081084814064826\\
136.81475544253695	0.2014040720118697\\
137.44533179685334	0.1616523130819934\\
138.07590815116973	0.12074439698207853\\
138.70648450548597	0.07983068161428254\\
};

\addplot [
color=black,
densely dashdotted
]
table[row sep=crcr]{
82.75992854189037	1.3364718099244008\\
83.29845682694415	1.3401427867663986\\
83.83698511199792	1.3437343913322992\\
84.37551339705169	1.3459822108394894\\
84.91404168210546	1.3481497859891012\\
85.45256996715923	1.3491858117139919\\
85.991098252213	1.34997299297566\\
86.52962653726678	1.350015026633566\\
87.06815482232055	1.3494675984083313\\
87.60668310737432	1.3487241755850194\\
88.1452113924281	1.3467851781247586\\
88.68373967748187	1.345124951627192\\
89.22226796253564	1.3419182436778554\\
89.76079624758941	1.3388010237551649\\
90.29932453264318	1.3350938458711032\\
90.83785281769696	1.3305452642934241\\
91.37638110275073	1.3262692719867084\\
91.9149093878045	1.3206038249190615\\
92.45343767285827	1.3149199140219718\\
92.99196595791204	1.3092314342563964\\
93.53049424296582	1.3021698879071628\\
94.06902252801959	1.295376182090767\\
94.60755081307336	1.288284642475713\\
95.14607909812713	1.2801421104701816\\
95.6846073831809	1.2722673633603727\\
96.22313566823468	1.2640817719801754\\
96.76166395328845	1.2548898683859289\\
97.30019223834222	1.2459660515197661\\
97.83872052339599	1.2370082755657632\\
98.37724880844976	1.226805982295827\\
98.91577709350354	1.216931725037572\\
99.45430537855731	1.2073907473890728\\
99.99283366361108	1.196643288689984\\
100.53136194866485	1.1859162997845702\\
101.06989023371862	1.1754634404752775\\
101.6084185187724	1.1646677402029026\\
102.14694680382617	1.1529491417929354\\
102.68547508887994	1.1414458828484777\\
103.22400337393371	1.1301414716316376\\
103.76253165898748	1.1179385145075094\\
104.30105994404126	1.1052495600379744\\
104.83958822909503	1.0927010238071453\\
105.3781165141488	1.0802764150431547\\
105.91664479920257	1.0668052592575152\\
106.45517308425634	1.0528808841733466\\
106.99370136931012	1.0390223678820627\\
107.53222965436389	1.0252132205913822\\
108.07075793941766	1.0106343614669429\\
108.60928622447143	0.9952138056236781\\
109.1478145095252	0.9797850539317026\\
109.68634279457898	0.9643988453563812\\
110.22487107963275	0.9490955290315142\\
110.76339936468652	0.9322730413841285\\
111.30192764974029	0.9155333516816041\\
111.84045593479406	0.8988755562389311\\
112.37898421984784	0.8822987514352658\\
112.91751250490161	0.8654669972655575\\
113.45604078995538	0.8474647697381039\\
113.99456907500915	0.8295332964699522\\
114.53309736006292	0.8116716736672367\\
115.0716256451167	0.7938789975970162\\
115.61015393017047	0.7760546505519123\\
116.14868221522424	0.7568516886430599\\
116.68721050027801	0.7377077932986389\\
117.22573878533179	0.7186220605634827\\
117.76426707038556	0.6995935865390578\\
118.30279535543933	0.6806214673820588\\
118.8413236404931	0.6609252575331924\\
119.37985192554687	0.6405536476354872\\
119.91838021060065	0.6202288679031687\\
120.45690849565442	0.5999555268320301\\
120.99543678070819	0.5797441647624435\\
121.53396506576196	0.5595934195638658\\
122.07249335081573	0.5387426994705964\\
122.6110216358695	0.517238630767347\\
123.14954992092328	0.49578339527038634\\
123.68807820597705	0.47437521733954935\\
124.22660649103082	0.4530123213981524\\
124.7651347760846	0.4316929319301848\\
125.30366306113837	0.41041527347753853\\
125.84219134619214	0.387753879299552\\
126.38071963124591	0.3651235586433407\\
126.91924791629968	0.3425235396407451\\
127.45777620135345	0.31995204644057207\\
127.99630448640723	0.29740730323519676\\
128.534832771461	0.2748875342576947\\
129.07336105651478	0.25239096377897496\\
129.61188934156857	0.22869678501297283\\
130.15041762662236	0.20485390860013908\\
130.68894591167614	0.1810231548031081\\
131.22747419672993	0.1572052219280209\\
131.76600248178372	0.13341221182649632\\
132.3045307668375	0.10964525790840819\\
132.8430590518913	0.08590347791056473\\
133.38158733694507	0.06209364107107248\\
133.92011562199886	0.03706059897089715\\
134.45864390705265	0.012044689486389384\\
134.99717219210643	-0.012954970264619932\\
135.53570047716022	-0.03793926314540044\\
136.07422876221423	-0.06290907200204557\\
};
\end{axis}
\end{tikzpicture}%
