%Climb_angle_curves_AOE_MACH
\begin{tikzpicture}

\begin{axis}[
width=\figurewidth,
height=\figureheight,
scaled ticks=false, tick label style={/pgf/number format/fixed},
xmin=0.17852800583092024,
xmax=0.42000000000000004,
xlabel={Mach ((m/s))},
xmajorgrids,
ymin=-1.4522880110080636,
ymax=6.420136295994119,
ylabel={Climb angle ((deg))},
ymajorgrids,
legend style={at={(1.03,0.5)},anchor=west,draw=black,fill=white,legend cell align=left}
]

\addplot [
color=black,
solid
]
table[row sep=crcr]{
0.17852800583092024	6.420136295994119\\
0.18096711687341996	6.399106444947633\\
0.18340622791591968	6.3576807335037\\
0.18584533895841943	6.300651703471851\\
0.18828445000091917	6.232820970088556\\
0.1907235610434189	6.158997992735164\\
0.1931626720859186	6.083999337769298\\
0.19560178312841833	6.012648415927584\\
0.19804089417091808	5.949775664371072\\
0.2004800052134178	5.900219140916215\\
0.20291911625591752	5.867496170553836\\
0.20535822729841724	5.857498947226115\\
0.207797338340917	5.870977640947479\\
0.2102364493834167	5.866611004523883\\
0.21267556042591643	5.836365723887803\\
0.21511467146841615	5.785548735935946\\
0.2175537825109159	5.716653280056796\\
0.2199928935534156	5.63507218125349\\
0.22243200459591533	5.544799543046293\\
0.22487111563841505	5.449146701169617\\
0.2273102266809148	5.353782738795636\\
0.22974933772341452	5.260760972397485\\
0.23218844876591424	5.176581343929075\\
0.23462755980841396	5.102902254149813\\
0.2370666708509137	5.046175461289808\\
0.23950578189341343	5.008566588616378\\
0.24194489293591315	4.994100972938128\\
0.24438400397841287	4.969361294136877\\
0.2468231150209126	4.921464181155048\\
0.24926222606341233	4.8559356125881195\\
0.251701337105912	4.7732175058076995\\
0.2541404481484118	4.680027569334988\\
0.2565795591909115	4.579003105346368\\
0.25901867023341124	4.47271269974815\\
0.26145778127591096	4.366877166601866\\
0.2638968923184107	4.2636440983466235\\
0.2663360033609104	4.1664808819836585\\
0.2687751144034101	4.080610632314327\\
0.27121422544590984	4.008533254548168\\
0.2736533364884096	3.9530908683970365\\
0.27609244753090934	3.91955640232813\\
0.27853155857340905	3.883176318648358\\
0.2809706696159088	3.8245411875935718\\
0.2834097806584085	3.749660509062977\\
0.2858488917009082	3.661795747516733\\
0.28828800274340793	3.5634217023602086\\
0.29072711378590765	3.456399645041042\\
0.29316622482840743	3.346006710835151\\
0.29560533587090715	3.235452252951909\\
0.29804444691340687	3.1275308496813183\\
0.3004835579559066	3.023547185547013\\
0.3029226689984063	2.9290003652063468\\
0.30536178004090603	2.847095150493019\\
0.30780089108340575	2.7810359034292444\\
0.31024000212590547	2.732507176453782\\
0.31267911316840524	2.6855223636624195\\
0.31511822421090496	2.6209931365641315\\
0.3175573352534047	2.5417109715258364\\
0.3199964462959044	2.4505064747556156\\
0.3224355573384041	2.3490728715862694\\
0.32487466838090384	2.239982283958978\\
0.32731377942340356	2.1274383974930022\\
0.3297528904659033	2.014268720147493\\
0.332192001508403	1.9032999243843045\\
0.3346311125509028	1.7973579676897753\\
0.3370702235934025	1.6977122592655047\\
0.3395093346359022	1.6078740744770152\\
0.34194844567840194	1.531520636726817\\
0.34438755672090166	1.4714766799436214\\
0.3468266677634014	1.4179516135445458\\
0.3492657788059011	1.3492429398306667\\
0.3517048898484008	1.2672161998959806\\
0.3541440008909006	1.1720515936554086\\
0.3565831119334003	1.068494331412744\\
0.35902222297590003	0.9590261709067959\\
0.36146133401839975	0.8461206018511473\\
0.36390044506089947	0.7322507293587467\\
0.3663395561033992	0.6198893497561433\\
0.3687786671458989	0.5115090469638985\\
0.37121777818839863	0.4089717805841078\\
0.3736568892308984	0.31378241820642017\\
0.3760960002733981	0.2299772798077333\\
0.37853511131589784	0.16002897637204025\\
0.3809742223583976	0.09864802685760046\\
0.3834133334008974	0.024283587388081913\\
0.3858524444433971	-0.06250656299681846\\
0.3882915554858969	-0.15948373305284924\\
0.39073066652839666	-0.264409374793636\\
0.39316977757089644	-0.3754058988733924\\
0.3956088886133962	-0.49157621016835196\\
0.398047999655896	-0.6089925835629376\\
0.40048711069839577	-0.7254164992546591\\
0.4029262217408955	-0.8386092205424512\\
0.40536533278339526	-0.9463317157197857\\
0.40780444382589504	-1.0463446057532653\\
0.4102435548683948	-1.1364081482332093\\
0.4126826659108946	-1.2142822657544072\\
0.41512177695339436	-1.2822719747839513\\
0.41756088799589414	-1.3611125815689786\\
0.4199999990383938	-1.4522880110080636\\
};

\addplot [
color=black,
densely dashed
]
table[row sep=crcr]{
0.19542631605260308	5.3869885710036645\\
0.1976947371025768	5.370887036648137\\
0.1999631581525505	5.353036951836767\\
0.2022315792025242	5.333957721877325\\
0.2045000002524979	5.314175547474891\\
0.2067684213024716	5.294223415890245\\
0.20903684235244532	5.273187528305742\\
0.21130526340241904	5.250729330792709\\
0.21357368445239275	5.2273577008858565\\
0.21584210550236646	5.203017208322255\\
0.21811052655234017	5.176431787999817\\
0.22037894760231388	5.149147645788181\\
0.2226473686522876	5.120754218594645\\
0.22491578970226128	5.090287557795415\\
0.227184210752235	5.059379088068449\\
0.2294526318022087	5.026228130918215\\
0.23172105285218242	4.992229003883046\\
0.23398947390215613	4.956606720583656\\
0.23625789495212984	4.919515623915334\\
0.23852631600210356	4.881088313300483\\
0.24079473705207727	4.840924544159672\\
0.24306315810205098	4.799505238220984\\
0.2453315791520247	4.7569707762524125\\
0.24760000020199838	4.713224424393063\\
0.2498684212519721	4.668984954034895\\
0.25213684230194583	4.62286871382703\\
0.25440526335191954	4.577034352891981\\
0.25667368440189325	4.528720587798181\\
0.2589421054518669	4.480402395264349\\
0.2612105265018406	4.431089750773836\\
0.26347894755181434	4.380243612447417\\
0.26574736860178805	4.3295389574413665\\
0.26801578965176176	4.276901733792345\\
0.2702842107017355	4.223572361539063\\
0.2725526317517092	4.170307079081458\\
0.2748210528016829	4.114764249165828\\
0.2770894738516566	4.058806850926289\\
0.2793578949016303	4.002963569743662\\
0.28162631595160403	3.9452684463263505\\
0.28389473700157775	3.8869351982862588\\
0.28616315805155146	3.82867509644037\\
0.28843157910152517	3.7695153548973517\\
0.2907000001514989	3.708735368392871\\
0.2929684212014726	3.647974388267971\\
0.2952368422514463	3.587221126548628\\
0.29750526330142	3.5246484689527495\\
0.29977368435139373	3.4613127451633945\\
0.30204210540136744	3.3979317493652603\\
0.3043105264513411	3.3344942002392752\\
0.3065789475013148	3.269202344513415\\
0.3088473685512885	3.203131054104384\\
0.31111578960126224	3.1369393860951833\\
0.31338421065123595	3.070484746075281\\
0.31565263170120966	3.0029496126982242\\
0.3179210527511834	2.933624074105355\\
0.3201894738011571	2.8641239925467974\\
0.3224578948511308	2.7945010244500623\\
0.3247263159011045	2.7248068126457103\\
0.3269947369510782	2.6539267198024343\\
0.32926315800105194	2.5819237540283533\\
0.33153157905102565	2.50998860595914\\
0.33380000010099936	2.4381728626883943\\
0.3360684211509731	2.3665281011200836\\
0.3383368422009468	2.2948321184272586\\
0.3406052632509205	2.2214534879699244\\
0.3428736843008942	2.1483858265565754\\
0.3451421053508679	2.075678815830543\\
0.34741052640084163	2.003249974948681\\
0.3496789474508153	1.9310201525318877\\
0.351947368500789	1.8587870792104173\\
0.3542157895507627	1.784765080606761\\
0.35648421060073643	1.7108805930255466\\
0.35875263165071014	1.6371176453301395\\
0.36102105270068385	1.5634602700712399\\
0.36328947375065757	1.4898925032082144\\
0.3655578948006313	1.4163983838340857\\
0.367826315850605	1.3424444497817576\\
0.3700947369005787	1.2669966296602737\\
0.3723631579505524	1.1915620814590868\\
0.3746315790005261	1.1161248447093286\\
0.37690000005049984	1.0406689606586397\\
0.37916842110047355	0.9651784719950616\\
0.38143684215044726	0.8896964374594932\\
0.3837052632004209	0.814284431066602\\
0.3859736842503946	0.7380966369273813\\
0.38824210530036823	0.6608296275927238\\
0.39051052635034195	0.583585596911672\\
0.3927789474003156	0.5063525768401775\\
0.39504736845028926	0.42911860010962527\\
0.3973157895002629	0.3518717000095081\\
0.3995842105502366	0.27459991017028157\\
0.40185263160021023	0.197291264346225\\
0.40412105265018394	0.11993379619803986\\
0.4063894737001576	0.04187675895918399\\
0.40865789475013126	-0.03747292951745299\\
0.4109263158001049	-0.11691769605177504\\
0.41319473685007857	-0.19646952016618574\\
0.4154631579000523	-0.2760929930546461\\
0.41773157895002594	-0.35568511160028204\\
0.42000000000000004	-0.4352643808016351\\
};

\addplot [
color=black,
dashdotted
]
table[row sep=crcr]{
0.21460517573390642	3.946189499175108\\
0.2166798709285134	3.942127270589399\\
0.21875456612312041	3.9365871907193672\\
0.2208292613177274	3.929748327390673\\
0.22290395651233438	3.9207201373452922\\
0.22497865170694137	3.9102724162185933\\
0.22705334690154838	3.8989479148088413\\
0.22912804209615537	3.8855528141484497\\
0.23120273729076235	3.871148611495317\\
0.23327743248536936	3.8559402904056985\\
0.23535212767997635	3.83876159695272\\
0.23742682287458333	3.8214232159300114\\
0.23950151806919034	3.802170870425641\\
0.24157621326379733	3.7826532930507324\\
0.24365090845840431	3.76174069445678\\
0.24572560365301133	3.7402623199161846\\
0.2478002988476183	3.7175994163911357\\
0.2498749940422253	3.6943746190291766\\
0.2519496892368323	3.669918314479467\\
0.25402438443143927	3.645193516631493\\
0.2560990796260463	3.618905471425064\\
0.2581737748206533	3.592941283241753\\
0.26024847001526025	3.564787910602501\\
0.26232316520986726	3.53700184438635\\
0.26439786040447427	3.507811581994939\\
0.26647255559908123	3.4780889257853924\\
0.26854725079368824	3.4482413485861665\\
0.27062194598829525	3.416558808689953\\
0.2726966411829022	3.385148546366117\\
0.2747713363775092	3.3526999959937167\\
0.27684603157211624	3.319282811223708\\
0.2789207267667232	3.28618143139185\\
0.2809954219613302	3.2516982573524333\\
0.2830701171559372	3.2167517313175895\\
0.2851448123505442	3.182091457134113\\
0.2872195075451512	3.1460782711727484\\
0.2892942027397582	3.109538881380005\\
0.29136889793436516	3.073241925547693\\
0.29344359312897217	3.0361206405789223\\
0.2955182883235792	2.9979169109871413\\
0.29759298351818614	2.959912596403409\\
0.29966767871279315	2.9220988599533197\\
0.30174237390740016	2.8822009563198696\\
0.3038170691020071	2.842425707823786\\
0.30589176429661413	2.8027988188256354\\
0.30796645949122115	2.762748608491994\\
0.3100411546858281	2.7211459444360613\\
0.3121158498804351	2.6796691706078737\\
0.3141905450750421	2.638346917237171\\
0.3162652402696491	2.5967156826424627\\
0.3183399354642561	2.5535176917478366\\
0.3204146306588631	2.5104600478141923\\
0.32248932585347007	2.467542564729439\\
0.3245640210480771	2.4247650569235595\\
0.3266387162426841	2.380378210358589\\
0.32871341143729105	2.335748444548034\\
0.33078810663189806	2.2912447334181594\\
0.3328628018265051	2.2468668904720794\\
0.33493749702111203	2.2025434606177092\\
0.33701219221571904	2.1563591744941313\\
0.33908688741032605	2.1102876148526826\\
0.341161582604933	2.0643285940127885\\
0.34323627779954	2.01848192477507\\
0.34531097299414704	1.9727483997983934\\
0.347385668188754	1.9256063425182932\\
0.349460363383361	1.8781483158225187\\
0.351535058577968	1.83081257387157\\
0.353609753772575	1.7835926216192104\\
0.355684448967182	1.7364819651989527\\
0.357759144161789	1.6894741118730756\\
0.35983383935639596	1.6407018947494714\\
0.36190853455100297	1.5919452892019181\\
0.36398322974561	1.543260977855626\\
0.36605792494021694	1.4946424685241693\\
0.36813262013482395	1.4460832699050785\\
0.37020731532943096	1.397576891530279\\
0.3722820105240379	1.3481813346986116\\
0.37435670571864493	1.2979016779282018\\
0.37643140091325195	1.247645111364393\\
0.3785060961078589	1.197405143783605\\
0.3805807913024659	1.1471886922801278\\
0.38265548649707287	1.0970419937364717\\
0.3847301816916799	1.0469639223567808\\
0.3868048768862869	0.9964892208002877\\
0.38887957208089385	0.9447447920942313\\
0.3909542672755009	0.8930400045640966\\
0.39302896247010793	0.8413683580285105\\
0.395103657664715	0.7897233528338132\\
0.397178352859322	0.7380984898004592\\
0.3992530480539291	0.6864872701697291\\
0.4013277432485361	0.6348831955506374\\
0.40340243844314316	0.5831907919122751\\
0.4054771336377502	0.5298749563357654\\
0.4075518288323572	0.4765380454969465\\
0.40962652402696426	0.4231735578579461\\
0.41170121922157127	0.36977499193877356\\
0.41377591441617834	0.31633584626102407\\
0.41585060961078535	0.26287253096144797\\
0.4179253048053924	0.20940538862354427\\
0.41999999999999993	0.15593270579480345\\
};

\addplot [
color=black,
dashed
]
table[row sep=crcr]{
0.23647166413931112	2.6354606691102123\\
0.2383254857136615	2.6358169044383715\\
0.2401793072880119	2.636156216719156\\
0.2420331288623623	2.6352495281122685\\
0.2438869504367127	2.6339782312973803\\
0.24574077201106312	2.6319619482240983\\
0.24759459358541352	2.62900263655665\\
0.2494484151597639	2.625740960322477\\
0.25130223673411434	2.6211987301892385\\
0.2531560583084647	2.6165969732789076\\
0.2550098798828151	2.610586274481698\\
0.2568637014571655	2.604552875063192\\
0.2587175230315159	2.59719750869608\\
0.26057134460586634	2.5896440314107485\\
0.2624251661802167	2.581077147462143\\
0.2642789877545671	2.571918283977634\\
0.26613280932891753	2.5622823787041016\\
0.2679866309032679	2.5514359480183453\\
0.26984045247761834	2.5408585905537673\\
0.2716942740519687	2.5282698096313925\\
0.27354809562631915	2.515865046677017\\
0.27540191720066953	2.5025051226265944\\
0.2772557387750199	2.488263746845323\\
0.27910956034937034	2.4743787675323246\\
0.2809633819237207	2.4588632738399547\\
0.28281720349807116	2.4434428185899266\\
0.28467102507242154	2.428017082712906\\
0.2865248466467719	2.411023366613633\\
0.28837866822112235	2.394290205626678\\
0.2902324897954727	2.3773109577840827\\
0.29208631136982316	2.3589266089109207\\
0.29394013294417354	2.3407446730405312\\
0.2957939545185239	2.3224420138091006\\
0.29764777609287435	2.302535128957892\\
0.29950159766722473	2.282773042497006\\
0.30135541924157516	2.2631408748282134\\
0.30320924081592554	2.2418391031246285\\
0.3050630623902759	2.220370182854254\\
0.30691688396462635	2.1989740967263796\\
0.30877070553897673	2.1768567457786325\\
0.31062452711332716	2.15356006994652\\
0.31247834868767754	2.1303430586814196\\
0.314332170262028	2.107237663799663\\
0.31618599183637836	2.082930189354303\\
0.31803981341072873	2.0580857127633214\\
0.31989363498507917	2.0333408784962033\\
0.32174745655942955	2.0086954980464236\\
0.32360127813378	1.9828262055181902\\
0.32545509970813036	1.9564625069811439\\
0.32730892128248074	1.9301868061535723\\
0.32916274285683117	1.9039989141330962\\
0.33101656443118155	1.8771152185146665\\
0.332870386005532	1.8492349439650007\\
0.33472420757988236	1.821431539210385\\
0.33657802915423274	1.7937048148606543\\
0.3384318507285832	1.766054581655025\\
0.34028567230293355	1.7369971329202645\\
0.342139493877284	1.7076753865878462\\
0.34399331545163436	1.6784197078998118\\
0.3458471370259848	1.6492293719036188\\
0.3477009586003352	1.6201019274866904\\
0.34955478017468555	1.589558815103319\\
0.351408601749036	1.5587834201323678\\
0.35326242332338637	1.528063489681841\\
0.3551162448977368	1.4973997906965968\\
0.3569700664720872	1.4667930901787356\\
0.35882388804643756	1.4355132214105977\\
0.360677709620788	1.4033013977516107\\
0.36253153119513837	1.3711400487399563\\
0.3643853527694888	1.3390299403105517\\
0.3662391743438392	1.3069718384570401\\
0.36809299591818956	1.2749665092339686\\
0.36994681749254	1.2421515414085713\\
0.37180063906689037	1.2085833217619255\\
0.3736544606412408	1.1750618615416073\\
0.3755082822155912	1.141587925634751\\
0.3773621037899416	1.1081622789915435\\
0.379215925364292	1.0747856866276078\\
0.3810697469386424	1.0414082082811114\\
0.3829235685129928	1.006526776060043\\
0.3847773900873432	0.9716914150927867\\
0.3866312116616936	0.9369000267111799\\
0.388485033236044	0.9021505124325297\\
0.3903388548103944	0.8674407739513315\\
0.3921926763847448	0.8327687131310401\\
0.3940464979590952	0.7981322319959132\\
0.3959003195334456	0.762172980207613\\
0.397754141107796	0.7260360063755156\\
0.3996079626821464	0.6899210298359078\\
0.4014617842564967	0.6538259515286085\\
0.4033156058308471	0.6177486725046809\\
0.4051694274051974	0.5816870939179732\\
0.4070232489795478	0.5456391170166799\\
0.40887707055389816	0.5096026431349482\\
0.4107308921282485	0.4722212322428298\\
0.41258471370259886	0.43469284974156985\\
0.41443853527694924	0.39716587366806677\\
0.41629235685129956	0.35967277700925004\\
0.41814617842564994	0.32221834224353796\\
0.42000000000000004	0.28479663732652905\\
};

\addplot [
color=black,
densely dashdotted
]
table[row sep=crcr]{
0.2615246832897865	1.3364717371644004\\
0.26312544406463717	1.3399404061067919\\
0.26472620483948783	1.3432896916143355\\
0.2663269656143385	1.3456331342920396\\
0.2679277263891891	1.3476028815337444\\
0.26952848716403977	1.3490212833144446\\
0.2711292479388904	1.3496510030189286\\
0.2727300087137411	1.3503502450874452\\
0.27433076948859175	1.349681349164437\\
0.27593153026344236	1.3493398565380805\\
0.277532291038293	1.34790262235667\\
0.2791330518131437	1.346177102861486\\
0.28073381258799435	1.3443056040301908\\
0.282334573362845	1.3411820420876035\\
0.2839353341376956	1.338301389705253\\
0.2855360949125463	1.3345817788590306\\
0.28713685568739694	1.3303235519822243\\
0.2887376164622476	1.3263066738528284\\
0.2903383772370982	1.3210024190126717\\
0.2919391380119489	1.3156309681472087\\
0.29353989878679954	1.310499621952123\\
0.2951406595616502	1.3038855774470925\\
0.29674142033650086	1.2974251930796343\\
0.29834218111135147	1.2912039859483395\\
0.29994294188620213	1.2835663887241895\\
0.3015437026610528	1.2760442097505165\\
0.30314446343590346	1.2687605971141949\\
0.3047452242107541	1.2603970633541413\\
0.3063459849856047	1.2518430759290702\\
0.3079467457604554	1.2435273603613295\\
0.30954750653530605	1.234746882529653\\
0.3111482673101567	1.2252032955362837\\
0.3127490280850073	1.2159569330854672\\
0.314349788859858	1.2070039919441131\\
0.31595054963470864	1.196840025163589\\
0.3175513104095593	1.1867371129132802\\
0.31915207118440997	1.176877883917035\\
0.3207528319592606	1.1669931837191165\\
0.32235359273411124	1.1559223338253837\\
0.3239543535089619	1.1450457473863527\\
0.32555511428381256	1.1343496983649344\\
0.3271558750586632	1.1234880878359108\\
0.32875663583351383	1.1114859243476394\\
0.3303573966083645	1.0996151973025523\\
0.33195815738321516	1.0878621814071312\\
0.3335589181580658	1.0761938320834923\\
0.3351596789329165	1.0630433756086024\\
0.3367604397077671	1.0499618482692041\\
0.33836120048261775	1.0369355255314234\\
0.3399619612574684	1.0239506831107712\\
0.3415627220323191	1.010137651594792\\
0.3431634828071697	0.9956324709552304\\
0.34476424358202035	0.9811203081667434\\
0.346365004356871	0.9666372844874612\\
0.34796576513172167	0.9522361301028963\\
0.34956652590657233	0.936715698609473\\
0.35116728668142294	0.920946783434367\\
0.3527680474562736	0.905250588233909\\
0.35436880823112427	0.8896263609124488\\
0.35596956900597493	0.8740733494238678\\
0.3575703297808256	0.8575615721273511\\
0.3591710905556762	0.8406552087367624\\
0.36077185133052686	0.823811146196686\\
0.3623726121053775	0.8070286323040731\\
0.3639733728802282	0.7903069149032101\\
0.3655741336550788	0.7733267137148794\\
0.36717489442992945	0.7552698407605879\\
0.3687756552047801	0.7372651645752625\\
0.3703764159796308	0.71931193280626\\
0.37197717675448144	0.7014093931452496\\
0.37357793752933205	0.683556793327182\\
0.3751786983041827	0.6652963892662092\\
0.3767794590790334	0.646123083813766\\
0.37838021985388404	0.6269914331254395\\
0.3799809806287347	0.6079020778322897\\
0.3815817414035853	0.5888658236637482\\
0.38318250217843597	0.5698839135266239\\
0.38478326295328663	0.5509548698291219\\
0.3863840237281373	0.5307751830623375\\
0.3879847845029879	0.5105633470403482\\
0.38958554527783856	0.4903942307525577\\
0.3911863060526892	0.470266356361958\\
0.3927870668275399	0.45017824608068924\\
0.39438782760239055	0.4301284221679694\\
0.39598858837724116	0.41009635852102294\\
0.3975893491520918	0.38877863238396115\\
0.3991901099269425	0.36748935993169335\\
0.40079087070179314	0.3462270630947934\\
0.4023916314766438	0.32499026384046065\\
0.4039923922514944	0.3037774841703875\\
0.4055931530263451	0.28258724611863006\\
0.4071939138011957	0.2614180717494926\\
0.4087946745760463	0.2396867406898387\\
0.4103954353508969	0.21725288483632849\\
0.4119961961257475	0.19483057263455308\\
0.4135969569005981	0.17241832570126034\\
0.4151977176754487	0.1500208467161098\\
0.4167984784502993	0.127646848876282\\
0.41839923922514993	0.10529571655294026\\
0.42	0.0829667154502219\\
};
\end{axis}
\end{tikzpicture}%
