%Climb_angle_curves_OEI_MACH
\begin{tikzpicture}

\begin{axis}[
width=\figurewidth,
height=\figureheight,
scaled ticks=false, tick label style={/pgf/number format/fixed},
xmin=0.17852800583092024,
xmax=0.42000000000000004,
xlabel={Mach ((m/s))},
xmajorgrids,
ymin=-3.898565905597529,
ymax=2.1098457450023003,
ylabel={Climb angle ((deg))},
ymajorgrids,
legend style={at={(1.03,0.5)},anchor=west,draw=black,fill=white,legend cell align=left}
]

\addplot [
color=black,
solid
]
table[row sep=crcr]{
0.17852800583092024	2.082358443254833\\
0.18096711687341996	2.105161800657296\\
0.18340622791591968	2.1098457450023003\\
0.18584533895841943	2.0997362386047134\\
0.18828445000091917	2.0779326178985285\\
0.1907235610434189	2.047671654106671\\
0.1931626720859186	2.0121911729430306\\
0.19560178312841833	1.9747295513508543\\
0.19804089417091808	1.9385348534293385\\
0.2004800052134178	1.9068648346430326\\
0.20291911625591752	1.8827189730648373\\
0.20535822729841724	1.868375819912792\\
0.207797338340917	1.8681646292036285\\
0.2102364493834167	1.882200637267265\\
0.21267556042591643	1.8830210105899474\\
0.21511467146841615	1.8677049046285519\\
0.2175537825109159	1.8391390511296912\\
0.2199928935534156	1.7980899047924057\\
0.22243200459591533	1.749532603901454\\
0.22487111563841505	1.6940369614069648\\
0.2273102266809148	1.6357619615958638\\
0.22974933772341452	1.5762651445385432\\
0.23218844876591424	1.5188693383681602\\
0.23462755980841396	1.4655289163440608\\
0.2370666708509137	1.4196368071915897\\
0.23950578189341343	1.382618450374756\\
0.24194489293591315	1.3588830645390675\\
0.24438400397841287	1.345400861617755\\
0.2468231150209126	1.3229084937806708\\
0.24926222606341233	1.285651912509656\\
0.251701337105912	1.2373477716365258\\
0.2541404481484118	1.1805652435328635\\
0.2565795591909115	1.1152725913761319\\
0.25901867023341124	1.0463785438940316\\
0.26145778127591096	0.9748919053183439\\
0.2638968923184107	0.9022031461121602\\
0.2663360033609104	0.8324702631260117\\
0.2687751144034101	0.7668090525863834\\
0.27121422544590984	0.7064851376910872\\
0.2736533364884096	0.6556747478489913\\
0.27609244753090934	0.6164243166839503\\
0.27853155857340905	0.5854122500429391\\
0.2809706696159088	0.5459034840824094\\
0.2834097806584085	0.4953341127716012\\
0.2858488917009082	0.434425520547708\\
0.28828800274340793	0.36467981631375207\\
0.29072711378590765	0.28969614802009164\\
0.29316622482840743	0.2114235423546781\\
0.29560533587090715	0.13063417986117531\\
0.29804444691340687	0.048826168478542195\\
0.3004835579559066	-0.03044748731848964\\
0.3029226689984063	-0.10523791236378324\\
0.30536178004090603	-0.17359617946187378\\
0.30780089108340575	-0.23618146882426466\\
0.31024000212590547	-0.28854255996152967\\
0.31267911316840524	-0.3314017631767768\\
0.31511822421090496	-0.38234954515924047\\
0.3175573352534047	-0.44339900449052516\\
0.3199964462959044	-0.5153007098362561\\
0.3224355573384041	-0.5938534089766286\\
0.32487466838090384	-0.6772202821598784\\
0.32731377942340356	-0.7636321007184688\\
0.3297528904659033	-0.8513195574541251\\
0.332192001508403	-0.9393002375449103\\
0.3346311125509028	-1.026715011850385\\
0.3370702235934025	-1.1101151647678391\\
0.3395093346359022	-1.1877306843241413\\
0.34194844567840194	-1.2577913341220233\\
0.34438755672090166	-1.3185266784616922\\
0.3468266677634014	-1.3708261135036757\\
0.3492657788059011	-1.4323729413932955\\
0.3517048898484008	-1.5031595137612994\\
0.3541440008909006	-1.5812743610585454\\
0.3565831119334003	-1.6651766964316956\\
0.35902222297590003	-1.753325609847735\\
0.36146133401839975	-1.8441800070290706\\
0.36390044506089947	-1.9361985506567083\\
0.3663395561033992	-2.0285711977343714\\
0.3687786671458989	-2.120542398363421\\
0.37121777818839863	-2.209067183348612\\
0.3736568892308984	-2.292602836200541\\
0.3760960002733981	-2.3696062689142483\\
0.37853511131589784	-2.4385340632321237\\
0.3809742223583976	-2.5004466103661502\\
0.3834133334008974	-2.569593134708698\\
0.3858524444433971	-2.64715981022582\\
0.3882915554858969	-2.7326564791302186\\
0.39073066652839666	-2.824806741274721\\
0.39316977757089644	-2.921009136682055\\
0.3956088886133962	-3.019802486805777\\
0.398047999655896	-3.1197251695442567\\
0.40048711069839577	-3.2193150533654435\\
0.4029262217408955	-3.317109448105765\\
0.40536533278339526	-3.411645076949771\\
0.40780444382589504	-3.501458074049082\\
0.4102435548683948	-3.5850840119219245\\
0.4126826659108946	-3.6610579621851964\\
0.41512177695339436	-3.7321790137448683\\
0.41756088799589414	-3.8111842678984154\\
0.4199999990383938	-3.898565905597529\\
};

\addplot [
color=black,
densely dashed
]
table[row sep=crcr]{
0.19542631605260308	1.6180140905897933\\
0.1976947371025768	1.626122307075444\\
0.1999631581525505	1.6315517062771414\\
0.2022315792025242	1.634523004205782\\
0.2045000002524979	1.6352641493451052\\
0.2067684213024716	1.6340103201396388\\
0.20903684235244532	1.6308400014666966\\
0.21130526340241904	1.6250145292385694\\
0.21357368445239275	1.6175005808837208\\
0.21584210550236646	1.6084936673077246\\
0.21811052655234017	1.5972366390910755\\
0.22037894760231388	1.5840106015380626\\
0.2226473686522876	1.5697555179572942\\
0.22491578970226128	1.5531624690887569\\
0.227184210752235	1.5352009836849752\\
0.2294526318022087	1.516159538689643\\
0.23172105285218242	1.494773490439377\\
0.23398947390215613	1.473161518733206\\
0.23625789495212984	1.4487338839637602\\
0.23852631600210356	1.4243111628805953\\
0.24079473705207727	1.3973718969584152\\
0.24306315810205098	1.370479211913414\\
0.2453315791520247	1.3410225136732314\\
0.24760000020199838	1.3119090531311535\\
0.2498684212519721	1.2802116336765865\\
0.25213684230194583	1.2486252535241045\\
0.25440526335191954	1.2153487516582935\\
0.25667368440189325	1.1812729489619356\\
0.2589421054518669	1.1468190916987924\\
0.2612105265018406	1.1102445733716713\\
0.26347894755181434	1.0738742076761238\\
0.26574736860178805	1.0359613840099045\\
0.26801578965176176	0.9970482020769532\\
0.2702842107017355	0.9582888117820006\\
0.2725526317517092	0.9174237709741195\\
0.2748210528016829	0.8760870618345667\\
0.2770894738516566	0.8348549790240064\\
0.2793578949016303	0.7916047163817731\\
0.28162631595160403	0.7478522822929531\\
0.28389473700157775	0.7042262281710787\\
0.28616315805155146	0.6593734041951446\\
0.28843157910152517	0.6132759468617538\\
0.2907000001514989	0.5672647947230536\\
0.2929684212014726	0.5213338311211225\\
0.2952368422514463	0.47299364980233666\\
0.29750526330142	0.42456617157469634\\
0.29977368435139373	0.376179989725279\\
0.30204210540136744	0.327652209879659\\
0.3043105264513411	0.2767879321847713\\
0.3065789475013148	0.2259272407430356\\
0.3088473685512885	0.17506401081563497\\
0.31111578960126224	0.12419211773735199\\
0.31338421065123595	0.07130485860434571\\
0.31565263170120966	0.01791117488232151\\
0.3179210527511834	-0.03552087595689079\\
0.3201894738011571	-0.08898268386200964\\
0.3224578948511308	-0.14272426781713723\\
0.3247263159011045	-0.19859893787368138\\
0.3269947369510782	-0.2544945176270877\\
0.32926315800105194	-0.31040240386254636\\
0.33153157905102565	-0.36631399328622133\\
0.33380000010099936	-0.42222068244324146\\
0.3360684211509731	-0.4801234604026578\\
0.3383368422009468	-0.5382996497836015\\
0.3406052632509205	-0.5964609357101143\\
0.3428736843008942	-0.6545987205724941\\
0.3451421053508679	-0.7127044062522161\\
0.34741052640084163	-0.770776277262476\\
0.3496789474508153	-0.8309377921758035\\
0.351947368500789	-0.8910433544071996\\
0.3542157895507627	-0.9511160179295196\\
0.35648421060073643	-1.0111788380023463\\
0.35875263165071014	-1.0712548714243302\\
0.36102105270068385	-1.131367176786846\\
0.36328947375065757	-1.192309859633371\\
0.3655578948006313	-1.2546777586883808\\
0.367826315850605	-1.3171645794762419\\
0.3700947369005787	-1.3797933990254267\\
0.3723631579505524	-1.442587297720234\\
0.3746315790005261	-1.505569359598285\\
0.37690000005049984	-1.568762672654725\\
0.37916842110047355	-1.6321903291539315\\
0.38143684215044726	-1.6973586957504445\\
0.3837052632004209	-1.763132675944673\\
0.3859736842503946	-1.8290339451043494\\
0.38824210530036823	-1.8950744023892903\\
0.39051052635034195	-1.9612659498458493\\
0.3927789474003156	-2.027620492581594\\
0.39504736845028926	-2.094149938943054\\
0.3973157895002629	-2.1608662006968142\\
0.3995842105502366	-2.2277811932140943\\
0.40185263160021023	-2.2966828575664304\\
0.40412105265018394	-2.3659514768796406\\
0.4063894737001576	-2.4354657501948793\\
0.40865789475013126	-2.505237620353124\\
0.4109263158001049	-2.5752790350914583\\
0.41319473685007857	-2.6456019472670693\\
0.4154631579000523	-2.7161925112131686\\
0.41773157895002594	-2.786987207669495\\
0.42000000000000004	-2.857991496150296\\
};

\addplot [
color=black,
dashdotted
]
table[row sep=crcr]{
0.21460517573390642	1.1866847391226765\\
0.2166798709285134	1.1981936540788345\\
0.21875456612312041	1.2082413721701606\\
0.2208292613177274	1.216947698324906\\
0.22290395651233438	1.2237496488510287\\
0.22497865170694137	1.2286757402181767\\
0.22705334690154838	1.232502825773299\\
0.22912804209615537	1.2346349366517468\\
0.23120273729076235	1.2348454872360892\\
0.23327743248536936	1.2342304913970241\\
0.23535212767997635	1.2313381607256104\\
0.23742682287458333	1.2273148548354549\\
0.23950151806919034	1.2218737241501831\\
0.24157621326379733	1.2145294377296934\\
0.24365090845840431	1.206365234176225\\
0.24572560365301133	1.1958547916569973\\
0.2478002988476183	1.1850538745769905\\
0.2498749940422253	1.1719035904353203\\
0.2519496892368323	1.1586117829389755\\
0.25402438443143927	1.1431583164312678\\
0.2560990796260463	1.1274155328606619\\
0.2581737748206533	1.110005705821979\\
0.26024847001526025	1.0918568996770308\\
0.26232316520986726	1.0728526282805677\\
0.26439786040447427	1.0523477889545854\\
0.26647255559908123	1.0320124156945754\\
0.26854725079368824	1.0093202283202085\\
0.27062194598829525	0.9866813059989437\\
0.2726966411829022	0.963226360464403\\
0.2747713363775092	0.9383447791175352\\
0.27684603157211624	0.913637666988229\\
0.2789207267667232	0.8874737011985289\\
0.2809954219613302	0.8605140631321015\\
0.2830701171559372	0.8336503811309256\\
0.2851448123505442	0.805098860723951\\
0.2872195075451512	0.7759452020651268\\
0.2892942027397582	0.7468863670169107\\
0.29136889793436516	0.7164922670120338\\
0.29344359312897217	0.6852012136144721\\
0.2955182883235792	0.6540046835857998\\
0.29759298351818614	0.6223580578833615\\
0.29966767871279315	0.5889937563947644\\
0.30174237390740016	0.5557245090446574\\
0.3038170691020071	0.5225561029639396\\
0.30589176429661413	0.4880796688222002\\
0.30796645949122115	0.4528101977937899\\
0.3100411546858281	0.4176429267832394\\
0.3121158498804351	0.38258363803546025\\
0.3141905450750421	0.3460663112754723\\
0.3162652402696491	0.3089594526276747\\
0.3183399354642561	0.2719356175547323\\
0.3204146306588631	0.23499003537897242\\
0.32248932585347007	0.19715118752822075\\
0.3245640210480771	0.15815592345333224\\
0.3266387162426841	0.11921026291219956\\
0.32871341143729105	0.08030943329929192\\
0.33078810663189806	0.04144866216039268\\
0.3328628018265051	9.313460079644929E-4\\
0.33493749702111203	-0.039994849102523176\\
0.33701219221571904	-0.08090881277039469\\
0.33908688741032605	-0.12181532020288896\\
0.341161582604933	-0.1627191466036787\\
0.34323627779954	-0.20506011273588978\\
0.34531097299414704	-0.24803511310204399\\
0.347385668188754	-0.2910214673328265\\
0.349460363383361	-0.33398276143465\\
0.351535058577968	-0.3769217423870534\\
0.353609753772575	-0.41997777719886464\\
0.355684448967182	-0.46487473118296013\\
0.357759144161789	-0.509778998805504\\
0.35983383935639596	-0.554696507955613\\
0.36190853455100297	-0.5996331867364656\\
0.36398322974561	-0.6445949635019349\\
0.36605792494021694	-0.6895877668933791\\
0.36813262013482395	-0.7361506590800485\\
0.37020731532943096	-0.7831444250264891\\
0.3722820105240379	-0.830198040945497\\
0.37435670571864493	-0.8773174412238843\\
0.37643140091325195	-0.924508560800626\\
0.3785060961078589	-0.9717773352090573\\
0.3805807913024659	-1.0191267135532027\\
0.38265548649707287	-1.0679418065071717\\
0.3847301816916799	-1.1172103250004823\\
0.3868048768862869	-1.1665267756058146\\
0.38887957208089385	-1.2158968804764416\\
0.3909542672755009	-1.265326362408181\\
0.39302896247010793	-1.3148209448838157\\
0.395103657664715	-1.3643863521179291\\
0.397178352859322	-1.414028309102241\\
0.3992530480539291	-1.46519427390465\\
0.4013277432485361	-1.5167744949688324\\
0.40340243844314316	-1.5684578468038717\\
0.4054771336377502	-1.6202500631213355\\
0.4075518288323572	-1.6721568787484047\\
0.40962652402696426	-1.724184029680896\\
0.41170121922157127	-1.7763372531370831\\
0.41377591441617834	-1.8286222876123728\\
0.41585060961078535	-1.8809947130232691\\
0.4179253048053924	-1.9345946927149338\\
0.41999999999999993	-1.9887425540506356\\
};

\addplot [
color=black,
dashed
]
table[row sep=crcr]{
0.23647166413931112	0.1832654082174395\\
0.2383254857136615	0.19400979754170689\\
0.2401793072880119	0.2043528789628867\\
0.2420331288623623	0.21332537601479581\\
0.2438869504367127	0.22151485907738958\\
0.24574077201106312	0.22924251854811095\\
0.24759459358541352	0.23549080557359758\\
0.2494484151597639	0.24185253520419414\\
0.25130223673411434	0.2462340045521152\\
0.2531560583084647	0.25087673613963385\\
0.2550098798828151	0.2537751467499386\\
0.2568637014571655	0.25683248550062543\\
0.2587175230315159	0.25816610885273683\\
0.26057134460586634	0.2597816631850413\\
0.2624251661802167	0.2594721057177324\\
0.2642789877545671	0.259512252286899\\
0.26613280932891753	0.25777169044026615\\
0.2679866309032679	0.25603591720245444\\
0.26984045247761834	0.25315675423244277\\
0.2716942740519687	0.24957389405781902\\
0.27354809562631915	0.24573252613825872\\
0.27540191720066953	0.24023474710709872\\
0.2772557387750199	0.23489509892304428\\
0.27910956034937034	0.22814738591380254\\
0.2809633819237207	0.22092569458405686\\
0.28281720349807116	0.21394659787576933\\
0.28467102507242154	0.2050505442743486\\
0.2865248466467719	0.1964039085823862\\
0.28837866822112235	0.1875385331266396\\
0.2902324897954727	0.1771538408169232\\
0.29208631136982316	0.16696770496919616\\
0.29394013294417354	0.1564757284962475\\
0.2957939545185239	0.14449228661628563\\
0.29764777609287435	0.13265709521304417\\
0.29950159766722473	0.12081819664898226\\
0.30135541924157516	0.10713089389772866\\
0.30320924081592554	0.09354209077059088\\
0.3050630623902759	0.08003966672042602\\
0.30691688396462635	0.06516467254578089\\
0.30877070553897673	0.04972269930954985\\
0.31062452711332716	0.03431790870431967\\
0.31247834868767754	0.01871863952598743\\
0.314332170262028	0.0013624075816327946\\
0.31618599183637836	-0.015931173782876302\\
0.31803981341072873	-0.03315974033081883\\
0.31989363498507917	-0.05084274327081916\\
0.32174745655942955	-0.06991246996558545\\
0.32360127813378	-0.08892181511254343\\
0.32545509970813036	-0.10786841491201216\\
0.32730892128248074	-0.12701373795663748\\
0.32916274285683117	-0.1477569608232794\\
0.33101656443118155	-0.1684415191543807\\
0.332870386005532	-0.18906504965286627\\
0.33472420757988236	-0.20962518896464366\\
0.33657802915423274	-0.23141418673132594\\
0.3384318507285832	-0.25372675807772804\\
0.34028567230293355	-0.275979467663892\\
0.342139493877284	-0.2981699526872216\\
0.34399331545163436	-0.32029585027229246\\
0.3458471370259848	-0.34396072265618066\\
0.3477009586003352	-0.3677827361878524\\
0.34955478017468555	-0.39152962532601326\\
0.351408601749036	-0.4152065697270368\\
0.35326242332338637	-0.4388192764192329\\
0.3551162448977368	-0.463529528868439\\
0.3569700664720872	-0.48881473564318173\\
0.35882388804643756	-0.5140623414634572\\
0.360677709620788	-0.5392780544774027\\
0.36253153119513837	-0.5644675828867028\\
0.3643853527694888	-0.5896366349574836\\
0.3662391743438392	-0.6164185694213635\\
0.36809299591818956	-0.6432970583947611\\
0.36994681749254	-0.6701811613925993\\
0.37180063906689037	-0.6970765882743136\\
0.3736544606412408	-0.7239890490397194\\
0.3755082822155912	-0.7509242538418032\\
0.3773621037899416	-0.7790206998427313\\
0.379215925364292	-0.8076945390719923\\
0.3810697469386424	-0.8364081572525295\\
0.3829235685129928	-0.865121255963824\\
0.3847773900873432	-0.8938314174673528\\
0.3866312116616936	-0.922542874272681\\
0.388485033236044	-0.9512598590236124\\
0.3903388548103944	-0.9812100562277888\\
0.3921926763847448	-1.0115707606268451\\
0.3940464979590952	-1.0419575581763203\\
0.3959003195334456	-1.0723746837278554\\
0.397754141107796	-1.1028263723485765\\
0.3996079626821464	-1.1333168593336347\\
0.4014617842564967	-1.1638503802188782\\
0.4033156058308471	-1.1945246345872051\\
0.4051694274051974	-1.2267130722696247\\
0.4070232489795478	-1.2589645700227385\\
0.40887707055389816	-1.2912833662690801\\
0.4107308921282485	-1.3236736997744127\\
0.41258471370259886	-1.356139809663083\\
0.41443853527694924	-1.3886835215260476\\
0.41629235685129956	-1.421267412386565\\
0.41814617842564994	-1.4538816855454544\\
0.42000000000000004	-1.487168600661065\\
};

\addplot [
color=black,
densely dashdotted
]
table[row sep=crcr]{
0.2615246832897865	-0.6612990515486649\\
0.26312544406463717	-0.6500351492639227\\
0.26472620483948783	-0.638909435554999\\
0.2663269656143385	-0.6290596026579984\\
0.2679277263891891	-0.6194547441038035\\
0.26952848716403977	-0.6108432155643468\\
0.2711292479388904	-0.6027486758370149\\
0.2727300087137411	-0.5951935285087275\\
0.27433076948859175	-0.5885967203894905\\
0.27593153026344236	-0.5819098720017407\\
0.277532291038293	-0.5767961568470462\\
0.2791330518131437	-0.5714329070494045\\
0.28073381258799435	-0.5671391838212464\\
0.282334573362845	-0.5632635107560956\\
0.2839353341376956	-0.5594388436054772\\
0.2855360949125463	-0.5570457989055926\\
0.28713685568739694	-0.5544345771282957\\
0.2887376164622476	-0.5525696315452451\\
0.2903383772370982	-0.5514417491042497\\
0.2919391380119489	-0.5501085766935839\\
0.29353989878679954	-0.5499580866057138\\
0.2951406595616502	-0.5501062279122861\\
0.29674142033650086	-0.5500616243535077\\
0.29834218111135147	-0.5513680017168673\\
0.29994294188620213	-0.552799949401757\\
0.3015437026610528	-0.5540513553603198\\
0.30314446343590346	-0.5565446887940025\\
0.3047452242107541	-0.5592651464494809\\
0.3063459849856047	-0.5618169236038898\\
0.3079467457604554	-0.5652149771289814\\
0.30954750653530605	-0.5692255691681086\\
0.3111482673101567	-0.5730790000815907\\
0.3127490280850073	-0.5770872119081061\\
0.314349788859858	-0.582367118924603\\
0.31595054963470864	-0.5874501344683841\\
0.3175513104095593	-0.5923430434961658\\
0.31915207118440997	-0.5980771645559062\\
0.3207528319592606	-0.6043417216830446\\
0.32235359273411124	-0.6104478335484887\\
0.3239543535089619	-0.6164030739272711\\
0.32555511428381256	-0.6235655522052437\\
0.3271558750586632	-0.6309390461755735\\
0.32875663583351383	-0.6381929885980802\\
0.3303573966083645	-0.6453349533709145\\
0.33195815738321516	-0.6536477573007632\\
0.3335589181580658	-0.6622511610723051\\
0.3351596789329165	-0.6707735661778801\\
0.3367604397077671	-0.679222546722095\\
0.33836120048261775	-0.6883871009958238\\
0.3399619612574684	-0.6983372864871503\\
0.3415627220323191	-0.708244685878428\\
0.3431634828071697	-0.7181168735926015\\
0.34476424358202035	-0.7279614241117724\\
0.346365004356871	-0.7392237968994675\\
0.34796576513172167	-0.750602647860513\\
0.34956652590657233	-0.7619054171666958\\
0.35116728668142294	-0.7731341895778883\\
0.3527680474562736	-0.784307169729298\\
0.35436880823112427	-0.7969476757218641\\
0.35596956900597493	-0.8095314798376375\\
0.3575703297808256	-0.8220619360454953\\
0.3591710905556762	-0.8345423983425868\\
0.36077185133052686	-0.8469762207556565\\
0.3623726121053775	-0.8605023766206583\\
0.3639733728802282	-0.8743705321672398\\
0.3655741336550788	-0.8882090034101133\\
0.36717489442992945	-0.9020211447817027\\
0.3687756552047801	-0.9158103107559894\\
0.3703764159796308	-0.9297053352269659\\
0.37197717675448144	-0.944933391387346\\
0.37357793752933205	-0.9601550885654941\\
0.3751786983041827	-0.9753737817777773\\
0.3767794590790334	-0.9905928260990331\\
0.37838021985388404	-1.0058155766649248\\
0.3799809806287347	-1.0210453886743338\\
0.3815817414035853	-1.0376447552661527\\
0.38318250217843597	-1.054287975910509\\
0.38478326295328663	-1.0709134458795426\\
0.3863840237281373	-1.08752338590787\\
0.3879847845029879	-1.1041200167706569\\
0.38958554527783856	-1.1207055592853934\\
0.3911863060526892	-1.1376952629625807\\
0.3927870668275399	-1.1556618589234107\\
0.39438782760239055	-1.1736299022832606\\
0.39598858837724116	-1.1916016145383894\\
0.3975893491520918	-1.2095792172443078\\
0.3991901099269425	-1.227564932018018\\
0.40079087070179314	-1.245560980540252\\
0.4023916314766438	-1.263604647520889\\
0.4039923922514944	-1.2829815815971166\\
0.4055931530263451	-1.302381048524879\\
0.4071939138011957	-1.3218052708566068\\
0.4087946745760463	-1.3412564712309627\\
0.4103954353508969	-1.3607368723756839\\
0.4119961961257475	-1.3802486971104804\\
0.4135969569005981	-1.3997941683499553\\
0.4151977176754487	-1.4194228759660075\\
0.4167984784502993	-1.440307760283168\\
0.41839923922514993	-1.461203465745319\\
0.42	-1.4821129016765828\\
};
\end{axis}
\end{tikzpicture}%
