%Climb_angle_curves_OEI
\begin{tikzpicture}

\begin{axis}[
width=\figurewidth,
height=\figureheight,
scaled ticks=false, tick label style={/pgf/number format/fixed},
xmin=60.75200237992029,
xmax=142.9234635898666,
xlabel={Speed ((m/s))},
xmajorgrids,
ymin=-4.06311306975707,
ymax=1.8483683172403085,
ylabel={Climb angle ((deg))},
ymajorgrids,
legend style={at={(1.03,0.5)},anchor=west,draw=black,fill=white,legend cell align=left}
]

\addplot [
color=black,
solid
]
table[row sep=crcr]{
60.75200237992029	1.837906222160929\\
61.58201713961672	1.846348050007376\\
62.41203189931314	1.8483683172403085\\
63.24204665900957	1.844485679283475\\
64.072061418706	1.8352315694286507\\
64.90207617840242	1.8211502637568646\\
65.73209093809885	1.8027989438042202\\
66.56210569779527	1.7807477576399953\\
67.3921204574917	1.7555798799115685\\
68.22213521718813	1.7278915713000598\\
69.05214997688455	1.6972520784257903\\
69.88216473658098	1.6650799493696176\\
70.7121794962774	1.6320650891550557\\
71.54219425597383	1.5980664019829742\\
72.37220901567025	1.5635697033507308\\
73.20222377536668	1.5299900224426555\\
74.0322385350631	1.4964834284542512\\
74.86225329475953	1.464542276351682\\
75.69226805445595	1.434537887177477\\
76.52228281415238	1.4062792310324324\\
77.3522975738488	1.3815194641950812\\
78.18231233354523	1.3590284197395335\\
79.01232709324165	1.3412516986301555\\
79.84234185293808	1.3209151660573681\\
80.6723566126345	1.2958928880348315\\
81.50237137233093	1.2649747441430998\\
82.33238613202735	1.229760757463898\\
83.16240089172378	1.1902620814593303\\
83.9924156514202	1.1464466986741604\\
84.82243041111663	1.100347787953199\\
85.65244517081305	1.049598609254053\\
86.48245993050948	0.9972764415584622\\
87.3124746902059	0.9429209367211747\\
88.14248944990233	0.8859970497717431\\
88.97250420959875	0.8287524873331856\\
89.80251896929518	0.7702851217825252\\
90.6325337289916	0.7108532378596961\\
91.46254848868803	0.6522927227347647\\
92.29256324838445	0.594006846988073\\
93.12257800808088	0.5356929893567747\\
93.9525927677773	0.4794452586524459\\
94.78260752747373	0.4256773567492452\\
95.61262228717015	0.3721733746468869\\
96.44263704686658	0.32188984255479897\\
97.272651806563	0.2752838662906997\\
98.10266656625943	0.23208425377026382\\
98.93268132595585	0.1877557931636705\\
99.76269608565228	0.13913645131518806\\
100.5927108453487	0.08655141651474785\\
101.42272560504513	0.029987407649277646\\
102.25274036474156	-0.031980668383444814\\
103.08275512443798	-0.09682565759845727\\
103.9127698841344	-0.16417170128187245\\
104.74278464383083	-0.23364293168808672\\
105.57279940352726	-0.3063189510798793\\
106.40281416322368	-0.38145199809728775\\
107.2328289229201	-0.4576187105478899\\
108.06284368261653	-0.534443127441909\\
108.89285844231296	-0.6115492559070876\\
109.72287320200938	-0.6896675195848555\\
110.5528879617058	-0.7686833636080097\\
111.38290272140223	-0.8468863429885402\\
112.21291748109866	-0.9239002569969034\\
113.04293224079508	-0.9993488428658194\\
113.87294700049151	-1.0728557715334512\\
114.70296176018793	-1.1455870357000293\\
115.53297651988436	-1.2164974113893803\\
116.36299127958078	-1.2843678078948608\\
117.19300603927721	-1.348821586300341\\
118.02302079897363	-1.4116679992540333\\
118.85303555867006	-1.4782636161671\\
119.68305031836648	-1.5485778578999252\\
120.51306507806291	-1.62460287093615\\
121.34307983775933	-1.7037281205694141\\
122.17309459745576	-1.7856182546327641\\
123.00310935715218	-1.869945802597426\\
123.83312411684861	-1.9563832608654717\\
124.66313887654503	-2.0446030838328233\\
125.49315363624146	-2.1342776745203933\\
126.32316839593788	-2.225707973411672\\
127.15318315563431	-2.3195697365336576\\
127.98319791533073	-2.413929080835423\\
128.81321267502716	-2.508458104544611\\
129.6432274347236	-2.6028288057733953\\
130.47324219442004	-2.69671307382211\\
131.30325695411648	-2.789782681382721\\
132.13327171381292	-2.881709277858261\\
132.96328647350936	-2.972164384010423\\
133.7933012332058	-3.06119906508791\\
134.62331599290223	-3.1499016804871456\\
135.45333075259867	-3.236169955354187\\
136.2833455122951	-3.3196748528958784\\
137.11336027199155	-3.4012777228909274\\
137.943375031688	-3.4861976593263098\\
138.77338979138443	-3.574823408508963\\
139.60340455108087	-3.666844701283805\\
140.4334193107773	-3.7619512256920546\\
141.26343407047375	-3.859832612429946\\
142.0934488301702	-3.9601784198687313\\
142.9234635898666	-4.06311306975707\\
};

\addplot [
color=black,
densely dashed
]
table[row sep=crcr]{
65.36787767434237	1.5107675663660003\\
66.12663868823095	1.5084674511994236\\
66.88539970211954	1.5046891384648033\\
67.64416071600813	1.4995194446757738\\
68.40292172989672	1.493054615647864\\
69.1616827437853	1.4854003493366648\\
69.9204437576739	1.4760362498487993\\
70.67920477156248	1.4652567673306591\\
71.43796578545107	1.453507913977667\\
72.19672679933966	1.4407792658928127\\
72.95548781322825	1.4260513285313663\\
73.71424882711683	1.4106333154665092\\
74.47300984100542	1.3942258140348935\\
75.23177085489401	1.376060687143626\\
75.9905318687826	1.3575442796722308\\
76.74929288267118	1.337204118452983\\
77.50805389655977	1.3162587453378642\\
78.26681491044836	1.2940969654197216\\
79.02557592433695	1.2708946313015415\\
79.78433693822554	1.2468133810164888\\
80.54309795211412	1.2215759610565602\\
81.30185896600271	1.1955345420813996\\
82.0606199798913	1.1685308787006086\\
82.81938099377989	1.1404625647067215\\
83.57814200766848	1.1119562844101314\\
84.33690302155706	1.0817964334022339\\
85.09566403544565	1.0518824209934383\\
85.85442504933424	1.0197753692993698\\
86.61318606322283	0.9876658240099289\\
87.37194707711141	0.9546788547661069\\
88.130708091	0.9203319667391395\\
88.88946910488859	0.8861296983779714\\
89.64823011877718	0.8502110347529932\\
90.40699113266577	0.8136942270938972\\
91.16575214655435	0.7772728298558113\\
91.92451316044294	0.7388231010353463\\
92.68327417433153	0.700024321636822\\
93.44203518822012	0.6612739123129835\\
94.2007962021087	0.6207545860203403\\
94.9595572159973	0.5795782476339401\\
95.71831822988588	0.5384053721532063\\
96.47707924377447	0.49633876054132087\\
97.23584025766306	0.4527049240143939\\
97.99460127155164	0.4090271176084387\\
98.75336228544023	0.36530516716647\\
99.51212329932882	0.3198315420675234\\
100.27088431321741	0.27360014786882153\\
101.029645327106	0.2272962514278216\\
101.78840634099458	0.18092108434095305\\
102.54716735488317	0.13277579224527683\\
103.30592836877176	0.0838841423703857\\
104.06468938266035	0.03489498857190799\\
104.82345039654894	-0.014190323851288655\\
105.58221141043752	-0.06415873336475467\\
106.34097242432611	-0.11574958623040278\\
107.0997334382147	-0.16746075024478274\\
107.85849445210329	-0.2192907793019345\\
108.61725546599187	-0.27123821128276776\\
109.37601647988046	-0.32443788154271425\\
110.13477749376905	-0.3788855969594063\\
110.89353850765764	-0.43347275361760307\\
111.65229952154623	-0.4881978024695983\\
112.41106053543481	-0.5430591809620763\\
113.1698215493234	-0.5983252920828216\\
113.92858256321199	-0.6556599972273052\\
114.68734357710058	-0.713144930281731\\
115.44610459098917	-0.7707638785979128\\
116.20486560487775	-0.828522510938982\\
116.96362661876634	-0.8864279506751169\\
117.72238763265493	-0.9446735480840703\\
118.48114864654352	-1.0050406640463574\\
119.2399096604321	-1.0655988507835332\\
119.99867067432069	-1.1263551721230818\\
120.75743168820928	-1.1873166835972138\\
121.51619270209787	-1.248490432752568\\
122.27495371598646	-1.3098834594562243\\
123.03371472987504	-1.372027881756244\\
123.79247574376363	-1.4359690717713158\\
124.55123675765222	-1.5001717724800083\\
125.30999777154081	-1.5646429799388535\\
126.0687587854294	-1.6293896847642584\\
126.82751979931798	-1.6944188724223637\\
127.58628081320657	-1.7597375235172246\\
128.34504182709514	-1.8253526140775482\\
129.10380284098372	-1.8921308716148606\\
129.8625638548723	-1.9603851137400294\\
130.62132486876087	-2.0289760584191963\\
131.38008588264944	-2.0979106547247026\\
132.138846896538	-2.1671656798740946\\
132.8976079104266	-2.2367042420383156\\
133.65636892431516	-2.306529893670797\\
134.41512993820373	-2.3766464538904324\\
135.1738909520923	-2.4470577391063375\\
135.93265196598088	-2.5184368074261667\\
136.69141297986945	-2.591400828754763\\
137.45017399375803	-2.664688578595434\\
138.2089350076466	-2.7383038575440435\\
138.96769602153518	-2.8122504652535643\\
139.72645703542375	-2.8865322006448295\\
140.48521804931246	-2.961152862117012\\
};

\addplot [
color=black,
dashdotted
]
table[row sep=crcr]{
70.51572560201885	1.154755869233528\\
71.19743626696633	1.156189884702796\\
71.87914693191382	1.156616514653216\\
72.56085759686131	1.1561535660964495\\
73.2425682618088	1.1539991935313132\\
73.92427892675629	1.1507775552417105\\
74.60598959170377	1.1469249284594256\\
75.28770025665126	1.141372224583228\\
75.96941092159875	1.1350067697950057\\
76.65112158654624	1.127977553704247\\
77.33283225149373	1.1192310001615713\\
78.01454291644121	1.1103250132677147\\
78.6962535813887	1.0996853979821049\\
79.37796424633619	1.0887371117425753\\
80.05967491128368	1.0764852132773797\\
80.74138557623117	1.0636807960317582\\
81.42309624117865	1.0497689725913975\\
82.10480690612614	1.0352740503784594\\
82.78651757107363	1.0195891251996605\\
83.46822823602112	1.0035800630429486\\
84.1499389009686	0.986080973810055\\
84.8316495659161	0.9687985469398039\\
85.51336023086358	0.9494581102936087\\
86.19507089581107	0.9303816609982563\\
86.87678156075856	0.9099610938095818\\
87.55849222570605	0.8889933593917335\\
88.24020289065353	0.8678573675490958\\
88.92191355560102	0.8449867218680578\\
89.60362422054851	0.8223223928981969\\
90.285334885496	0.7986630160647281\\
90.96704555044349	0.774064128342897\\
91.64875621539097	0.7496453518909253\\
92.33046688033846	0.7238204667194743\\
93.01217754528595	0.6974452252767044\\
93.69388821023344	0.6712254425595141\\
94.37559887518093	0.6436331865632692\\
95.05730954012841	0.6154446768896068\\
95.7390202050759	0.587388486536424\\
96.42073087002339	0.5584670947219642\\
97.10244153497088	0.5284369692542683\\
97.78415219991837	0.498510254912377\\
98.46586286486585	0.46868414020812876\\
99.14757352981334	0.43679905525110296\\
99.82928419476083	0.4049523320187184\\
100.51099485970832	0.3731740594242838\\
101.1927055246558	0.34092256779263996\\
101.8744161896033	0.30711713306470056\\
102.55612685455078	0.2733494053601573\\
103.23783751949827	0.23961676591472075\\
103.91954818444576	0.20546901408946494\\
104.60125884939325	0.16968522737799507\\
105.28296951434073	0.13390723845742086\\
105.96468017928822	0.09813251728586675\\
106.64639084423571	0.0623585469831271\\
107.3281015091832	0.024879425021837476\\
108.00981217413069	-0.012983172302758217\\
108.69152283907817	-0.050872830987917186\\
109.37323350402566	-0.08879199116900412\\
110.05494416897315	-0.12681297399204491\\
110.73665483392064	-0.16681983169324385\\
111.41836549886813	-0.2068826338264737\\
112.10007616381561	-0.24699634441605237\\
112.7817868287631	-0.2871422172411957\\
113.46349749371059	-0.32732169972684894\\
114.14520815865808	-0.3690672449493042\\
114.82691882360557	-0.41130977471690144\\
115.50862948855305	-0.45361222380442473\\
116.19034015350054	-0.495977323163501\\
116.87205081844803	-0.5384077959509853\\
117.55376148339552	-0.5809063577181729\\
118.235472148343	-0.6253359920086432\\
118.9171828132905	-0.6699190348430912\\
119.59889347823798	-0.7145950942319609\\
120.28060414318547	-0.7593668379877668\\
120.96231480813296	-0.8042369276833146\\
121.64402547308045	-0.8492080188106206\\
122.32573613802793	-0.8952263553635859\\
123.00744680297542	-0.9422869236358545\\
123.68915746792291	-0.9894720876252671\\
124.3708681328704	-1.0367844634719063\\
125.05257879781789	-1.084226662437777\\
125.73428946276537	-1.1318012910426127\\
126.41600012771286	-1.1795109511971462\\
127.09771079266035	-1.2278236267119347\\
127.77942145760784	-1.2776038132375402\\
128.46113212255534	-1.3275083983210059\\
129.14284278750284	-1.377539868034079\\
129.82455345245035	-1.4277007047306363\\
130.50626411739785	-1.4779933871600934\\
131.18797478234535	-1.52842039057895\\
131.86968544729285	-1.5789841868605896\\
132.55139611224035	-1.6297788036890752\\
133.23310677718786	-1.6823819846751684\\
133.91481744213536	-1.7351426862936739\\
134.59652810708286	-1.7880633569243432\\
135.27823877203036	-1.8411464424826167\\
135.95994943697787	-1.8943943865177206\\
136.64166010192537	-1.947809630309614\\
137.32337076687287	-2.001394612964782\\
138.00508143182054	-2.0551517715109995\\
};

\addplot [
color=black,
dashed
]
table[row sep=crcr]{
76.27942608819963	0.14475456976940246\\
76.87741928233584	0.152978824691225\\
77.47541247647204	0.16097514558554657\\
78.07340567060825	0.16755025065275644\\
78.67139886474446	0.17360910934520946\\
79.26939205888067	0.17883659280650377\\
79.86738525301688	0.18305006794560835\\
80.46537844715309	0.18684719737591193\\
81.0633716412893	0.18931962087688595\\
81.6613648354255	0.19160822242938655\\
82.25935802956171	0.19245611051956207\\
82.85735122369792	0.19316251681223606\\
83.45534441783413	0.19251450557629915\\
84.05333761197033	0.1916029330657916\\
84.65133080610654	0.18976245104100828\\
85.24932400024275	0.18740331354057202\\
85.84731719437896	0.18464348223492447\\
86.44531038851517	0.18079986472447712\\
87.04330358265138	0.17728034735640033\\
87.64129677678758	0.17193710984825175\\
88.23928997092379	0.16685857778602295\\
88.83728316506	0.1609757662130966\\
89.43527635919621	0.15430524988258854\\
90.03326955333242	0.1478790720751769\\
90.63126274746863	0.13980143916970791\\
91.22925594160483	0.13171988593547107\\
91.82724913574104	0.12354422711007888\\
92.42524232987725	0.11378360368950888\\
93.02323552401346	0.10419120354312944\\
93.62122871814967	0.09428741611329644\\
94.21922191228587	0.08296344146123186\\
94.81721510642208	0.07176719056286264\\
95.41520830055829	0.06039422256229154\\
96.0132014946945	0.047419675306679315\\
96.61119468883071	0.03453327327883742\\
97.20918788296692	0.021739377450626825\\
97.80718107710312	0.007336392964161292\\
98.40517427123933	-0.007209629188880788\\
99.00316746537554	-0.021651645324401034\\
99.60116065951175	-0.03674546869583963\\
100.19915385364796	-0.05292458789258084\\
100.79714704778416	-0.06901326983904937\\
101.39514024192037	-0.08501074873556849\\
101.99313343605658	-0.10219688395153749\\
102.59112663019279	-0.11992555581549258\\
103.189119824329	-0.1375756948214156\\
103.7871130184652	-0.15514647292512426\\
104.38510621260141	-0.17393235137771604\\
104.98309940673762	-0.19322129417697032\\
105.58109260087383	-0.21244267682889562\\
106.17908579501004	-0.23159561601007977\\
106.77707898914625	-0.2514491254174015\\
107.37507218328246	-0.2723001758391588\\
107.97306537741866	-0.293093739986179\\
108.57105857155487	-0.3138288854061526\\
109.16905176569108	-0.3345046726034564\\
109.76704495982729	-0.35658486574271897\\
110.3650381539635	-0.3789389391629001\\
110.9630313480997	-0.40123401874603226\\
111.56102454223591	-0.42347331591154974\\
112.15901773637212	-0.4456603329209235\\
112.75701093050833	-0.46926523360721334\\
113.35500412464454	-0.49312147966961917\\
113.95299731878075	-0.5169481891848193\\
114.55099051291695	-0.5407488273982151\\
115.14898370705316	-0.5645268545462828\\
115.74697690118937	-0.5890136630316911\\
116.34497009532558	-0.6144731988957709\\
116.94296328946179	-0.6399320655488201\\
117.540956483598	-0.6653936911735496\\
118.1389496777342	-0.6908614997550584\\
118.73694287187041	-0.7163389111785942\\
119.33493606600662	-0.7426931296134068\\
119.93292926014283	-0.7698738788031976\\
120.53092245427904	-0.7970853701496899\\
121.12891564841524	-0.8243309964881166\\
121.72690884255145	-0.8516141472498919\\
122.32490203668766	-0.8789382085442708\\
122.92289523082387	-0.9063607936281365\\
123.52088842496008	-0.9353862551765824\\
124.11888161909629	-0.964432407094266\\
124.7168748132325	-0.9935012402334086\\
125.3148680073687	-1.0225952911911398\\
125.91286120150491	-1.0517170938182367\\
126.51085439564112	-1.0808691792839549\\
127.10884758977733	-1.110054076139488\\
127.70684078391353	-1.1406455551417167\\
128.30483397804974	-1.1714883463662202\\
128.90282717218594	-1.2023810542471347\\
129.50082036632213	-1.233326188897181\\
130.09881356045832	-1.2643262583031474\\
130.69680675459452	-1.2953837683798584\\
131.2947999487307	-1.3265012230231765\\
131.8927931428669	-1.3576811241620457\\
132.4907863370031	-1.3903026300782222\\
133.0887795311393	-1.4231502759422776\\
133.6867727252755	-1.456076718617793\\
134.28476591941168	-1.4890844455684826\\
134.88275911354788	-1.5221759427169832\\
135.48075230768399	-1.555353694490304\\
};

\addplot [
color=black,
densely dashdotted
]
table[row sep=crcr]{
82.75992925800008	-0.8072033260627295\\
83.26649271816429	-0.7958736930039193\\
83.77305617832849	-0.7847001176458521\\
84.27961963849269	-0.7745758775333799\\
84.78618309865689	-0.7648759168775614\\
85.2927465588211	-0.7557848318246104\\
85.7993100189853	-0.7475468922691604\\
86.3058734791495	-0.7393110387699058\\
86.8124369393137	-0.7325216335057632\\
87.3190003994779	-0.7254903757005359\\
87.8255638596421	-0.7196055514550589\\
88.3321273198063	-0.714029335913014\\
88.8386907799705	-0.7086229878861068\\
89.34525424013471	-0.704495908145525\\
89.85181770029891	-0.7001569579147566\\
90.35838116046311	-0.6966913281508998\\
90.86494462062731	-0.69380227424345\\
91.37150808079151	-0.6907135222765722\\
91.87807154095572	-0.6889570374899652\\
92.38463500111992	-0.6873164163941285\\
92.89119846128412	-0.6854879539794557\\
93.39776192144832	-0.685197665215732\\
93.90432538161252	-0.6848130418655242\\
94.41088884177672	-0.684252118269096\\
94.91745230194093	-0.6851736992041251\\
95.42401576210513	-0.6860497961800673\\
95.93057922226933	-0.6867608183473266\\
96.43714268243353	-0.6886285637466169\\
96.94370614259773	-0.6907672610111035\\
97.45026960276194	-0.6927517933127034\\
97.95683306292614	-0.695288617602007\\
98.46339652309034	-0.69868239707384\\
98.96995998325454	-0.7018893711598699\\
99.47652344341874	-0.7049096492688075\\
99.98308690358294	-0.7092405632036718\\
100.48965036374715	-0.7136033253155093\\
100.99621382391135	-0.7178084321072021\\
101.50277728407555	-0.7221181021770631\\
102.00934074423975	-0.7276859732505566\\
102.51590420440395	-0.733124914377387\\
103.02246766456815	-0.738441748896441\\
103.52903112473236	-0.7439756374446626\\
104.03559458489656	-0.750694575640191\\
104.54215804506076	-0.7573198175825435\\
105.04872150522496	-0.7638581867301694\\
105.55528496538916	-0.7703358244651184\\
106.06184842555336	-0.7783124788906068\\
106.56841188571757	-0.7862303562077252\\
107.07497534588177	-0.7940962800815073\\
107.58153880604597	-0.8019170742246047\\
108.08810226621017	-0.8105554601941525\\
108.59466572637437	-0.8198685216015208\\
109.10122918653857	-0.8291642349767612\\
109.60779264670278	-0.8384162576915277\\
110.11435610686698	-0.8475902884095424\\
110.62091956703118	-0.8578897424851417\\
111.12748302719538	-0.8684461335285439\\
111.63404648735958	-0.8789405363559986\\
112.14060994752379	-0.8893759723470469\\
112.64717340768799	-0.8997554629060635\\
113.15373686785219	-0.9111112736669702\\
113.66030032801639	-0.9228815047446303\\
114.16686378818059	-0.9346115354796517\\
114.6734272483448	-0.9463043875583699\\
115.179990708509	-0.9579630826992799\\
115.6865541686732	-0.9699091874216497\\
116.1931176288374	-0.9829632156759143\\
116.6996810890016	-0.9959985185052604\\
117.2062445491658	-1.0090181180149853\\
117.71280800933	-1.022025036353512\\
118.2193714694942	-1.0350222957138413\\
118.72593492965841	-1.0484699558494195\\
119.23249838982261	-1.0628754495735941\\
119.73906184998681	-1.0772864031929568\\
120.24562531015101	-1.0917026626310204\\
120.75218877031521	-1.106099996322314\\
121.25875223047942	-1.1204743513756197\\
121.76531569064362	-1.1348277280341852\\
122.27187915080782	-1.1504643647236459\\
122.77844261097202	-1.166166119819804\\
123.28500607113622	-1.1818586357010055\\
123.79156953130042	-1.1975439131079133\\
124.29813299146463	-1.2132239528231916\\
124.80469645162883	-1.228900755672957\\
125.31125991179303	-1.244595374941522\\
125.81782337195723	-1.2616120423702164\\
126.32438683212143	-1.2786368999684237\\
126.83095029228564	-1.2956719491946882\\
127.33751375244984	-1.3127191915661824\\
127.84407721261404	-1.3297806286605638\\
128.35064067277824	-1.3468582621178717\\
128.85720413294243	-1.3639540936424437\\
129.36376759310662	-1.3816520314544258\\
129.8703310532708	-1.4000930238292324\\
130.376894513435	-1.4185633311713022\\
130.88345797359918	-1.4370649560086766\\
131.39002143376337	-1.4555872049269658\\
131.89658489392755	-1.4741124074461773\\
132.40314835409174	-1.492642934636455\\
132.90971181425576	-1.5111814068219696\\
};
\end{axis}
\end{tikzpicture}%
