%Climb_angle_curves_AOE_TAS
\begin{tikzpicture}

\begin{axis}[
width=\figurewidth,
height=\figureheight,
scaled ticks=false, tick label style={/pgf/number format/fixed},
xmin=60.75200237992029,
xmax=142.9234635898666,
xlabel={Speed (TAS) ((m/s))},
xmajorgrids,
ymin=-1.4522880110080636,
ymax=6.420136295994119,
ylabel={Climb angle ((deg))},
ymajorgrids,
legend style={at={(1.03,0.5)},anchor=west,draw=black,fill=white,legend cell align=left}
]

\addplot [
color=black,
solid
]
table[row sep=crcr]{
60.75200237992029	6.420136295994119\\
61.58201713961672	6.399106444947633\\
62.41203189931314	6.3576807335037\\
63.24204665900957	6.300651703471851\\
64.072061418706	6.232820970088556\\
64.90207617840242	6.158997992735164\\
65.73209093809885	6.083999337769298\\
66.56210569779527	6.012648415927584\\
67.3921204574917	5.949775664371072\\
68.22213521718813	5.900219140916215\\
69.05214997688455	5.867496170553836\\
69.88216473658098	5.857498947226115\\
70.7121794962774	5.870977640947479\\
71.54219425597383	5.866611004523883\\
72.37220901567025	5.836365723887803\\
73.20222377536668	5.785548735935946\\
74.0322385350631	5.716653280056796\\
74.86225329475953	5.63507218125349\\
75.69226805445595	5.544799543046293\\
76.52228281415238	5.449146701169617\\
77.3522975738488	5.353782738795636\\
78.18231233354523	5.260760972397485\\
79.01232709324165	5.176581343929075\\
79.84234185293808	5.102902254149813\\
80.6723566126345	5.046175461289808\\
81.50237137233093	5.008566588616378\\
82.33238613202735	4.994100972938128\\
83.16240089172378	4.969361294136877\\
83.9924156514202	4.921464181155048\\
84.82243041111663	4.8559356125881195\\
85.65244517081305	4.7732175058076995\\
86.48245993050948	4.680027569334988\\
87.3124746902059	4.579003105346368\\
88.14248944990233	4.47271269974815\\
88.97250420959875	4.366877166601866\\
89.80251896929518	4.2636440983466235\\
90.6325337289916	4.1664808819836585\\
91.46254848868803	4.080610632314327\\
92.29256324838445	4.008533254548168\\
93.12257800808088	3.9530908683970365\\
93.9525927677773	3.91955640232813\\
94.78260752747373	3.883176318648358\\
95.61262228717015	3.8245411875935718\\
96.44263704686658	3.749660509062977\\
97.272651806563	3.661795747516733\\
98.10266656625943	3.5634217023602086\\
98.93268132595585	3.456399645041042\\
99.76269608565228	3.346006710835151\\
100.5927108453487	3.235452252951909\\
101.42272560504513	3.1275308496813183\\
102.25274036474156	3.023547185547013\\
103.08275512443798	2.9290003652063468\\
103.9127698841344	2.847095150493019\\
104.74278464383083	2.7810359034292444\\
105.57279940352726	2.732507176453782\\
106.40281416322368	2.6855223636624195\\
107.2328289229201	2.6209931365641315\\
108.06284368261653	2.5417109715258364\\
108.89285844231296	2.4505064747556156\\
109.72287320200938	2.3490728715862694\\
110.5528879617058	2.239982283958978\\
111.38290272140223	2.1274383974930022\\
112.21291748109866	2.014268720147493\\
113.04293224079508	1.9032999243843045\\
113.87294700049151	1.7973579676897753\\
114.70296176018793	1.6977122592655047\\
115.53297651988436	1.6078740744770152\\
116.36299127958078	1.531520636726817\\
117.19300603927721	1.4714766799436214\\
118.02302079897363	1.4179516135445458\\
118.85303555867006	1.3492429398306667\\
119.68305031836648	1.2672161998959806\\
120.51306507806291	1.1720515936554086\\
121.34307983775933	1.068494331412744\\
122.17309459745576	0.9590261709067959\\
123.00310935715218	0.8461206018511473\\
123.83312411684861	0.7322507293587467\\
124.66313887654503	0.6198893497561433\\
125.49315363624146	0.5115090469638985\\
126.32316839593788	0.4089717805841078\\
127.15318315563431	0.31378241820642017\\
127.98319791533073	0.2299772798077333\\
128.81321267502716	0.16002897637204025\\
129.6432274347236	0.09864802685760046\\
130.47324219442004	0.024283587388081913\\
131.30325695411648	-0.06250656299681846\\
132.13327171381292	-0.15948373305284924\\
132.96328647350936	-0.264409374793636\\
133.7933012332058	-0.3754058988733924\\
134.62331599290223	-0.49157621016835196\\
135.45333075259867	-0.6089925835629376\\
136.2833455122951	-0.7254164992546591\\
137.11336027199155	-0.8386092205424512\\
137.943375031688	-0.9463317157197857\\
138.77338979138443	-1.0463446057532653\\
139.60340455108087	-1.1364081482332093\\
140.4334193107773	-1.2142822657544072\\
141.26343407047375	-1.2822719747839513\\
142.0934488301702	-1.3611125815689786\\
142.9234635898666	-1.4522880110080636\\
};

\addplot [
color=black,
densely dashed
]
table[row sep=crcr]{
65.36787767434237	5.3869885710036645\\
66.12663868823095	5.370887036648137\\
66.88539970211954	5.353036951836767\\
67.64416071600813	5.333957721877325\\
68.40292172989672	5.314175547474891\\
69.1616827437853	5.294223415890245\\
69.9204437576739	5.273187528305742\\
70.67920477156248	5.250729330792709\\
71.43796578545107	5.2273577008858565\\
72.19672679933966	5.203017208322255\\
72.95548781322825	5.176431787999817\\
73.71424882711683	5.149147645788181\\
74.47300984100542	5.120754218594645\\
75.23177085489401	5.090287557795415\\
75.9905318687826	5.059379088068449\\
76.74929288267118	5.026228130918215\\
77.50805389655977	4.992229003883046\\
78.26681491044836	4.956606720583656\\
79.02557592433695	4.919515623915334\\
79.78433693822554	4.881088313300483\\
80.54309795211412	4.840924544159672\\
81.30185896600271	4.799505238220984\\
82.0606199798913	4.7569707762524125\\
82.81938099377989	4.713224424393063\\
83.57814200766848	4.668984954034895\\
84.33690302155706	4.62286871382703\\
85.09566403544565	4.577034352891981\\
85.85442504933424	4.528720587798181\\
86.61318606322283	4.480402395264349\\
87.37194707711141	4.431089750773836\\
88.130708091	4.380243612447417\\
88.88946910488859	4.3295389574413665\\
89.64823011877718	4.276901733792345\\
90.40699113266577	4.223572361539063\\
91.16575214655435	4.170307079081458\\
91.92451316044294	4.114764249165828\\
92.68327417433153	4.058806850926289\\
93.44203518822012	4.002963569743662\\
94.2007962021087	3.9452684463263505\\
94.9595572159973	3.8869351982862588\\
95.71831822988588	3.82867509644037\\
96.47707924377447	3.7695153548973517\\
97.23584025766306	3.708735368392871\\
97.99460127155164	3.647974388267971\\
98.75336228544023	3.587221126548628\\
99.51212329932882	3.5246484689527495\\
100.27088431321741	3.4613127451633945\\
101.029645327106	3.3979317493652603\\
101.78840634099458	3.3344942002392752\\
102.54716735488317	3.269202344513415\\
103.30592836877176	3.203131054104384\\
104.06468938266035	3.1369393860951833\\
104.82345039654894	3.070484746075281\\
105.58221141043752	3.0029496126982242\\
106.34097242432611	2.933624074105355\\
107.0997334382147	2.8641239925467974\\
107.85849445210329	2.7945010244500623\\
108.61725546599187	2.7248068126457103\\
109.37601647988046	2.6539267198024343\\
110.13477749376905	2.5819237540283533\\
110.89353850765764	2.50998860595914\\
111.65229952154623	2.4381728626883943\\
112.41106053543481	2.3665281011200836\\
113.1698215493234	2.2948321184272586\\
113.92858256321199	2.2214534879699244\\
114.68734357710058	2.1483858265565754\\
115.44610459098917	2.075678815830543\\
116.20486560487775	2.003249974948681\\
116.96362661876634	1.9310201525318877\\
117.72238763265493	1.8587870792104173\\
118.48114864654352	1.784765080606761\\
119.2399096604321	1.7108805930255466\\
119.99867067432069	1.6371176453301395\\
120.75743168820928	1.5634602700712399\\
121.51619270209787	1.4898925032082144\\
122.27495371598646	1.4163983838340857\\
123.03371472987504	1.3424444497817576\\
123.79247574376363	1.2669966296602737\\
124.55123675765222	1.1915620814590868\\
125.30999777154081	1.1161248447093286\\
126.0687587854294	1.0406689606586397\\
126.82751979931798	0.9651784719950616\\
127.58628081320657	0.8896964374594932\\
128.34504182709514	0.814284431066602\\
129.10380284098372	0.7380966369273813\\
129.8625638548723	0.6608296275927238\\
130.62132486876087	0.583585596911672\\
131.38008588264944	0.5063525768401775\\
132.138846896538	0.42911860010962527\\
132.8976079104266	0.3518717000095081\\
133.65636892431516	0.27459991017028157\\
134.41512993820373	0.197291264346225\\
135.1738909520923	0.11993379619803986\\
135.93265196598088	0.04187675895918399\\
136.69141297986945	-0.03747292951745299\\
137.45017399375803	-0.11691769605177504\\
138.2089350076466	-0.19646952016618574\\
138.96769602153518	-0.2760929930546461\\
139.72645703542375	-0.35568511160028204\\
140.48521804931246	-0.4352643808016351\\
};

\addplot [
color=black,
dashdotted
]
table[row sep=crcr]{
70.51572560201885	3.946189499175108\\
71.19743626696633	3.942127270589399\\
71.87914693191382	3.9365871907193672\\
72.56085759686131	3.929748327390673\\
73.2425682618088	3.9207201373452922\\
73.92427892675629	3.9102724162185933\\
74.60598959170377	3.8989479148088413\\
75.28770025665126	3.8855528141484497\\
75.96941092159875	3.871148611495317\\
76.65112158654624	3.8559402904056985\\
77.33283225149373	3.83876159695272\\
78.01454291644121	3.8214232159300114\\
78.6962535813887	3.802170870425641\\
79.37796424633619	3.7826532930507324\\
80.05967491128368	3.76174069445678\\
80.74138557623117	3.7402623199161846\\
81.42309624117865	3.7175994163911357\\
82.10480690612614	3.6943746190291766\\
82.78651757107363	3.669918314479467\\
83.46822823602112	3.645193516631493\\
84.1499389009686	3.618905471425064\\
84.8316495659161	3.592941283241753\\
85.51336023086358	3.564787910602501\\
86.19507089581107	3.53700184438635\\
86.87678156075856	3.507811581994939\\
87.55849222570605	3.4780889257853924\\
88.24020289065353	3.4482413485861665\\
88.92191355560102	3.416558808689953\\
89.60362422054851	3.385148546366117\\
90.285334885496	3.3526999959937167\\
90.96704555044349	3.319282811223708\\
91.64875621539097	3.28618143139185\\
92.33046688033846	3.2516982573524333\\
93.01217754528595	3.2167517313175895\\
93.69388821023344	3.182091457134113\\
94.37559887518093	3.1460782711727484\\
95.05730954012841	3.109538881380005\\
95.7390202050759	3.073241925547693\\
96.42073087002339	3.0361206405789223\\
97.10244153497088	2.9979169109871413\\
97.78415219991837	2.959912596403409\\
98.46586286486585	2.9220988599533197\\
99.14757352981334	2.8822009563198696\\
99.82928419476083	2.842425707823786\\
100.51099485970832	2.8027988188256354\\
101.1927055246558	2.762748608491994\\
101.8744161896033	2.7211459444360613\\
102.55612685455078	2.6796691706078737\\
103.23783751949827	2.638346917237171\\
103.91954818444576	2.5967156826424627\\
104.60125884939325	2.5535176917478366\\
105.28296951434073	2.5104600478141923\\
105.96468017928822	2.467542564729439\\
106.64639084423571	2.4247650569235595\\
107.3281015091832	2.380378210358589\\
108.00981217413069	2.335748444548034\\
108.69152283907817	2.2912447334181594\\
109.37323350402566	2.2468668904720794\\
110.05494416897315	2.2025434606177092\\
110.73665483392064	2.1563591744941313\\
111.41836549886813	2.1102876148526826\\
112.10007616381561	2.0643285940127885\\
112.7817868287631	2.01848192477507\\
113.46349749371059	1.9727483997983934\\
114.14520815865808	1.9256063425182932\\
114.82691882360557	1.8781483158225187\\
115.50862948855305	1.83081257387157\\
116.19034015350054	1.7835926216192104\\
116.87205081844803	1.7364819651989527\\
117.55376148339552	1.6894741118730756\\
118.235472148343	1.6407018947494714\\
118.9171828132905	1.5919452892019181\\
119.59889347823798	1.543260977855626\\
120.28060414318547	1.4946424685241693\\
120.96231480813296	1.4460832699050785\\
121.64402547308045	1.397576891530279\\
122.32573613802793	1.3481813346986116\\
123.00744680297542	1.2979016779282018\\
123.68915746792291	1.247645111364393\\
124.3708681328704	1.197405143783605\\
125.05257879781789	1.1471886922801278\\
125.73428946276537	1.0970419937364717\\
126.41600012771286	1.0469639223567808\\
127.09771079266035	0.9964892208002877\\
127.77942145760784	0.9447447920942313\\
128.46113212255534	0.8930400045640966\\
129.14284278750284	0.8413683580285105\\
129.82455345245035	0.7897233528338132\\
130.50626411739785	0.7380984898004592\\
131.18797478234535	0.6864872701697291\\
131.86968544729285	0.6348831955506374\\
132.55139611224035	0.5831907919122751\\
133.23310677718786	0.5298749563357654\\
133.91481744213536	0.4765380454969465\\
134.59652810708286	0.4231735578579461\\
135.27823877203036	0.36977499193877356\\
135.95994943697787	0.31633584626102407\\
136.64166010192537	0.26287253096144797\\
137.32337076687287	0.20940538862354427\\
138.00508143182054	0.15593270579480345\\
};

\addplot [
color=black,
dashed
]
table[row sep=crcr]{
76.27942608819963	2.6354606691102123\\
76.87741928233584	2.6358169044383715\\
77.47541247647204	2.636156216719156\\
78.07340567060825	2.6352495281122685\\
78.67139886474446	2.6339782312973803\\
79.26939205888067	2.6319619482240983\\
79.86738525301688	2.62900263655665\\
80.46537844715309	2.625740960322477\\
81.0633716412893	2.6211987301892385\\
81.6613648354255	2.6165969732789076\\
82.25935802956171	2.610586274481698\\
82.85735122369792	2.604552875063192\\
83.45534441783413	2.59719750869608\\
84.05333761197033	2.5896440314107485\\
84.65133080610654	2.581077147462143\\
85.24932400024275	2.571918283977634\\
85.84731719437896	2.5622823787041016\\
86.44531038851517	2.5514359480183453\\
87.04330358265138	2.5408585905537673\\
87.64129677678758	2.5282698096313925\\
88.23928997092379	2.515865046677017\\
88.83728316506	2.5025051226265944\\
89.43527635919621	2.488263746845323\\
90.03326955333242	2.4743787675323246\\
90.63126274746863	2.4588632738399547\\
91.22925594160483	2.4434428185899266\\
91.82724913574104	2.428017082712906\\
92.42524232987725	2.411023366613633\\
93.02323552401346	2.394290205626678\\
93.62122871814967	2.3773109577840827\\
94.21922191228587	2.3589266089109207\\
94.81721510642208	2.3407446730405312\\
95.41520830055829	2.3224420138091006\\
96.0132014946945	2.302535128957892\\
96.61119468883071	2.282773042497006\\
97.20918788296692	2.2631408748282134\\
97.80718107710312	2.2418391031246285\\
98.40517427123933	2.220370182854254\\
99.00316746537554	2.1989740967263796\\
99.60116065951175	2.1768567457786325\\
100.19915385364796	2.15356006994652\\
100.79714704778416	2.1303430586814196\\
101.39514024192037	2.107237663799663\\
101.99313343605658	2.082930189354303\\
102.59112663019279	2.0580857127633214\\
103.189119824329	2.0333408784962033\\
103.7871130184652	2.0086954980464236\\
104.38510621260141	1.9828262055181902\\
104.98309940673762	1.9564625069811439\\
105.58109260087383	1.9301868061535723\\
106.17908579501004	1.9039989141330962\\
106.77707898914625	1.8771152185146665\\
107.37507218328246	1.8492349439650007\\
107.97306537741866	1.821431539210385\\
108.57105857155487	1.7937048148606543\\
109.16905176569108	1.766054581655025\\
109.76704495982729	1.7369971329202645\\
110.3650381539635	1.7076753865878462\\
110.9630313480997	1.6784197078998118\\
111.56102454223591	1.6492293719036188\\
112.15901773637212	1.6201019274866904\\
112.75701093050833	1.589558815103319\\
113.35500412464454	1.5587834201323678\\
113.95299731878075	1.528063489681841\\
114.55099051291695	1.4973997906965968\\
115.14898370705316	1.4667930901787356\\
115.74697690118937	1.4355132214105977\\
116.34497009532558	1.4033013977516107\\
116.94296328946179	1.3711400487399563\\
117.540956483598	1.3390299403105517\\
118.1389496777342	1.3069718384570401\\
118.73694287187041	1.2749665092339686\\
119.33493606600662	1.2421515414085713\\
119.93292926014283	1.2085833217619255\\
120.53092245427904	1.1750618615416073\\
121.12891564841524	1.141587925634751\\
121.72690884255145	1.1081622789915435\\
122.32490203668766	1.0747856866276078\\
122.92289523082387	1.0414082082811114\\
123.52088842496008	1.006526776060043\\
124.11888161909629	0.9716914150927867\\
124.7168748132325	0.9369000267111799\\
125.3148680073687	0.9021505124325297\\
125.91286120150491	0.8674407739513315\\
126.51085439564112	0.8327687131310401\\
127.10884758977733	0.7981322319959132\\
127.70684078391353	0.762172980207613\\
128.30483397804974	0.7260360063755156\\
128.90282717218594	0.6899210298359078\\
129.50082036632213	0.6538259515286085\\
130.09881356045832	0.6177486725046809\\
130.69680675459452	0.5816870939179732\\
131.2947999487307	0.5456391170166799\\
131.8927931428669	0.5096026431349482\\
132.4907863370031	0.4722212322428298\\
133.0887795311393	0.43469284974156985\\
133.6867727252755	0.39716587366806677\\
134.28476591941168	0.35967277700925004\\
134.88275911354788	0.32221834224353796\\
135.48075230768399	0.28479663732652905\\
};

\addplot [
color=black,
densely dashdotted
]
table[row sep=crcr]{
82.75992925800008	1.3364717371644004\\
83.26649271816429	1.3399404061067919\\
83.77305617832849	1.3432896916143355\\
84.27961963849269	1.3456331342920396\\
84.78618309865689	1.3476028815337444\\
85.2927465588211	1.3490212833144446\\
85.7993100189853	1.3496510030189286\\
86.3058734791495	1.3503502450874452\\
86.8124369393137	1.349681349164437\\
87.3190003994779	1.3493398565380805\\
87.8255638596421	1.34790262235667\\
88.3321273198063	1.346177102861486\\
88.8386907799705	1.3443056040301908\\
89.34525424013471	1.3411820420876035\\
89.85181770029891	1.338301389705253\\
90.35838116046311	1.3345817788590306\\
90.86494462062731	1.3303235519822243\\
91.37150808079151	1.3263066738528284\\
91.87807154095572	1.3210024190126717\\
92.38463500111992	1.3156309681472087\\
92.89119846128412	1.310499621952123\\
93.39776192144832	1.3038855774470925\\
93.90432538161252	1.2974251930796343\\
94.41088884177672	1.2912039859483395\\
94.91745230194093	1.2835663887241895\\
95.42401576210513	1.2760442097505165\\
95.93057922226933	1.2687605971141949\\
96.43714268243353	1.2603970633541413\\
96.94370614259773	1.2518430759290702\\
97.45026960276194	1.2435273603613295\\
97.95683306292614	1.234746882529653\\
98.46339652309034	1.2252032955362837\\
98.96995998325454	1.2159569330854672\\
99.47652344341874	1.2070039919441131\\
99.98308690358294	1.196840025163589\\
100.48965036374715	1.1867371129132802\\
100.99621382391135	1.176877883917035\\
101.50277728407555	1.1669931837191165\\
102.00934074423975	1.1559223338253837\\
102.51590420440395	1.1450457473863527\\
103.02246766456815	1.1343496983649344\\
103.52903112473236	1.1234880878359108\\
104.03559458489656	1.1114859243476394\\
104.54215804506076	1.0996151973025523\\
105.04872150522496	1.0878621814071312\\
105.55528496538916	1.0761938320834923\\
106.06184842555336	1.0630433756086024\\
106.56841188571757	1.0499618482692041\\
107.07497534588177	1.0369355255314234\\
107.58153880604597	1.0239506831107712\\
108.08810226621017	1.010137651594792\\
108.59466572637437	0.9956324709552304\\
109.10122918653857	0.9811203081667434\\
109.60779264670278	0.9666372844874612\\
110.11435610686698	0.9522361301028963\\
110.62091956703118	0.936715698609473\\
111.12748302719538	0.920946783434367\\
111.63404648735958	0.905250588233909\\
112.14060994752379	0.8896263609124488\\
112.64717340768799	0.8740733494238678\\
113.15373686785219	0.8575615721273511\\
113.66030032801639	0.8406552087367624\\
114.16686378818059	0.823811146196686\\
114.6734272483448	0.8070286323040731\\
115.179990708509	0.7903069149032101\\
115.6865541686732	0.7733267137148794\\
116.1931176288374	0.7552698407605879\\
116.6996810890016	0.7372651645752625\\
117.2062445491658	0.71931193280626\\
117.71280800933	0.7014093931452496\\
118.2193714694942	0.683556793327182\\
118.72593492965841	0.6652963892662092\\
119.23249838982261	0.646123083813766\\
119.73906184998681	0.6269914331254395\\
120.24562531015101	0.6079020778322897\\
120.75218877031521	0.5888658236637482\\
121.25875223047942	0.5698839135266239\\
121.76531569064362	0.5509548698291219\\
122.27187915080782	0.5307751830623375\\
122.77844261097202	0.5105633470403482\\
123.28500607113622	0.4903942307525577\\
123.79156953130042	0.470266356361958\\
124.29813299146463	0.45017824608068924\\
124.80469645162883	0.4301284221679694\\
125.31125991179303	0.41009635852102294\\
125.81782337195723	0.38877863238396115\\
126.32438683212143	0.36748935993169335\\
126.83095029228564	0.3462270630947934\\
127.33751375244984	0.32499026384046065\\
127.84407721261404	0.3037774841703875\\
128.35064067277824	0.28258724611863006\\
128.85720413294243	0.2614180717494926\\
129.36376759310662	0.2396867406898387\\
129.8703310532708	0.21725288483632849\\
130.376894513435	0.19483057263455308\\
130.88345797359918	0.17241832570126034\\
131.39002143376337	0.1500208467161098\\
131.89658489392755	0.127646848876282\\
132.40314835409174	0.10529571655294026\\
132.90971181425576	0.0829667154502219\\
};
\end{axis}
\end{tikzpicture}%
