%Climb_angle_curves_OEI
\begin{tikzpicture}

\begin{axis}[
width=\figurewidth,
height=\figureheight,
scaled ticks=false, tick label style={/pgf/number format/fixed},
xmin=60.75200237992029,
xmax=142.9234635898666,
xlabel={Speed ((m/s))},
xmajorgrids,
ymin=-3.898565905597529,
ymax=2.1098457450023003,
ylabel={Climb angle ((deg))},
ymajorgrids,
legend style={at={(1.03,0.5)},anchor=west,draw=black,fill=white,legend cell align=left}
]

\addplot [
color=black,
solid
]
table[row sep=crcr]{
60.75200237992029	2.082358443254833\\
61.58201713961672	2.105161800657296\\
62.41203189931314	2.1098457450023003\\
63.24204665900957	2.0997362386047134\\
64.072061418706	2.0779326178985285\\
64.90207617840242	2.047671654106671\\
65.73209093809885	2.0121911729430306\\
66.56210569779527	1.9747295513508543\\
67.3921204574917	1.9385348534293385\\
68.22213521718813	1.9068648346430326\\
69.05214997688455	1.8827189730648373\\
69.88216473658098	1.868375819912792\\
70.7121794962774	1.8681646292036285\\
71.54219425597383	1.882200637267265\\
72.37220901567025	1.8830210105899474\\
73.20222377536668	1.8677049046285519\\
74.0322385350631	1.8391390511296912\\
74.86225329475953	1.7980899047924057\\
75.69226805445595	1.749532603901454\\
76.52228281415238	1.6940369614069648\\
77.3522975738488	1.6357619615958638\\
78.18231233354523	1.5762651445385432\\
79.01232709324165	1.5188693383681602\\
79.84234185293808	1.4655289163440608\\
80.6723566126345	1.4196368071915897\\
81.50237137233093	1.382618450374756\\
82.33238613202735	1.3588830645390675\\
83.16240089172378	1.345400861617755\\
83.9924156514202	1.3229084937806708\\
84.82243041111663	1.285651912509656\\
85.65244517081305	1.2373477716365258\\
86.48245993050948	1.1805652435328635\\
87.3124746902059	1.1152725913761319\\
88.14248944990233	1.0463785438940316\\
88.97250420959875	0.9748919053183439\\
89.80251896929518	0.9022031461121602\\
90.6325337289916	0.8324702631260117\\
91.46254848868803	0.7668090525863834\\
92.29256324838445	0.7064851376910872\\
93.12257800808088	0.6556747478489913\\
93.9525927677773	0.6164243166839503\\
94.78260752747373	0.5854122500429391\\
95.61262228717015	0.5459034840824094\\
96.44263704686658	0.4953341127716012\\
97.272651806563	0.434425520547708\\
98.10266656625943	0.36467981631375207\\
98.93268132595585	0.28969614802009164\\
99.76269608565228	0.2114235423546781\\
100.5927108453487	0.13063417986117531\\
101.42272560504513	0.048826168478542195\\
102.25274036474156	-0.03044748731848964\\
103.08275512443798	-0.10523791236378324\\
103.9127698841344	-0.17359617946187378\\
104.74278464383083	-0.23618146882426466\\
105.57279940352726	-0.28854255996152967\\
106.40281416322368	-0.3314017631767768\\
107.2328289229201	-0.38234954515924047\\
108.06284368261653	-0.44339900449052516\\
108.89285844231296	-0.5153007098362561\\
109.72287320200938	-0.5938534089766286\\
110.5528879617058	-0.6772202821598784\\
111.38290272140223	-0.7636321007184688\\
112.21291748109866	-0.8513195574541251\\
113.04293224079508	-0.9393002375449103\\
113.87294700049151	-1.026715011850385\\
114.70296176018793	-1.1101151647678391\\
115.53297651988436	-1.1877306843241413\\
116.36299127958078	-1.2577913341220233\\
117.19300603927721	-1.3185266784616922\\
118.02302079897363	-1.3708261135036757\\
118.85303555867006	-1.4323729413932955\\
119.68305031836648	-1.5031595137612994\\
120.51306507806291	-1.5812743610585454\\
121.34307983775933	-1.6651766964316956\\
122.17309459745576	-1.753325609847735\\
123.00310935715218	-1.8441800070290706\\
123.83312411684861	-1.9361985506567083\\
124.66313887654503	-2.0285711977343714\\
125.49315363624146	-2.120542398363421\\
126.32316839593788	-2.209067183348612\\
127.15318315563431	-2.292602836200541\\
127.98319791533073	-2.3696062689142483\\
128.81321267502716	-2.4385340632321237\\
129.6432274347236	-2.5004466103661502\\
130.47324219442004	-2.569593134708698\\
131.30325695411648	-2.64715981022582\\
132.13327171381292	-2.7326564791302186\\
132.96328647350936	-2.824806741274721\\
133.7933012332058	-2.921009136682055\\
134.62331599290223	-3.019802486805777\\
135.45333075259867	-3.1197251695442567\\
136.2833455122951	-3.2193150533654435\\
137.11336027199155	-3.317109448105765\\
137.943375031688	-3.411645076949771\\
138.77338979138443	-3.501458074049082\\
139.60340455108087	-3.5850840119219245\\
140.4334193107773	-3.6610579621851964\\
141.26343407047375	-3.7321790137448683\\
142.0934488301702	-3.8111842678984154\\
142.9234635898666	-3.898565905597529\\
};

\addplot [
color=black,
densely dashed
]
table[row sep=crcr]{
65.36787767434237	1.6180140905897933\\
66.12663868823095	1.626122307075444\\
66.88539970211954	1.6315517062771414\\
67.64416071600813	1.634523004205782\\
68.40292172989672	1.6352641493451052\\
69.1616827437853	1.6340103201396388\\
69.9204437576739	1.6308400014666966\\
70.67920477156248	1.6250145292385694\\
71.43796578545107	1.6175005808837208\\
72.19672679933966	1.6084936673077246\\
72.95548781322825	1.5972366390910755\\
73.71424882711683	1.5840106015380626\\
74.47300984100542	1.5697555179572942\\
75.23177085489401	1.5531624690887569\\
75.9905318687826	1.5352009836849752\\
76.74929288267118	1.516159538689643\\
77.50805389655977	1.494773490439377\\
78.26681491044836	1.473161518733206\\
79.02557592433695	1.4487338839637602\\
79.78433693822554	1.4243111628805953\\
80.54309795211412	1.3973718969584152\\
81.30185896600271	1.370479211913414\\
82.0606199798913	1.3410225136732314\\
82.81938099377989	1.3119090531311535\\
83.57814200766848	1.2802116336765865\\
84.33690302155706	1.2486252535241045\\
85.09566403544565	1.2153487516582935\\
85.85442504933424	1.1812729489619356\\
86.61318606322283	1.1468190916987924\\
87.37194707711141	1.1102445733716713\\
88.130708091	1.0738742076761238\\
88.88946910488859	1.0359613840099045\\
89.64823011877718	0.9970482020769532\\
90.40699113266577	0.9582888117820006\\
91.16575214655435	0.9174237709741195\\
91.92451316044294	0.8760870618345667\\
92.68327417433153	0.8348549790240064\\
93.44203518822012	0.7916047163817731\\
94.2007962021087	0.7478522822929531\\
94.9595572159973	0.7042262281710787\\
95.71831822988588	0.6593734041951446\\
96.47707924377447	0.6132759468617538\\
97.23584025766306	0.5672647947230536\\
97.99460127155164	0.5213338311211225\\
98.75336228544023	0.47299364980233666\\
99.51212329932882	0.42456617157469634\\
100.27088431321741	0.376179989725279\\
101.029645327106	0.327652209879659\\
101.78840634099458	0.2767879321847713\\
102.54716735488317	0.2259272407430356\\
103.30592836877176	0.17506401081563497\\
104.06468938266035	0.12419211773735199\\
104.82345039654894	0.07130485860434571\\
105.58221141043752	0.01791117488232151\\
106.34097242432611	-0.03552087595689079\\
107.0997334382147	-0.08898268386200964\\
107.85849445210329	-0.14272426781713723\\
108.61725546599187	-0.19859893787368138\\
109.37601647988046	-0.2544945176270877\\
110.13477749376905	-0.31040240386254636\\
110.89353850765764	-0.36631399328622133\\
111.65229952154623	-0.42222068244324146\\
112.41106053543481	-0.4801234604026578\\
113.1698215493234	-0.5382996497836015\\
113.92858256321199	-0.5964609357101143\\
114.68734357710058	-0.6545987205724941\\
115.44610459098917	-0.7127044062522161\\
116.20486560487775	-0.770776277262476\\
116.96362661876634	-0.8309377921758035\\
117.72238763265493	-0.8910433544071996\\
118.48114864654352	-0.9511160179295196\\
119.2399096604321	-1.0111788380023463\\
119.99867067432069	-1.0712548714243302\\
120.75743168820928	-1.131367176786846\\
121.51619270209787	-1.192309859633371\\
122.27495371598646	-1.2546777586883808\\
123.03371472987504	-1.3171645794762419\\
123.79247574376363	-1.3797933990254267\\
124.55123675765222	-1.442587297720234\\
125.30999777154081	-1.505569359598285\\
126.0687587854294	-1.568762672654725\\
126.82751979931798	-1.6321903291539315\\
127.58628081320657	-1.6973586957504445\\
128.34504182709514	-1.763132675944673\\
129.10380284098372	-1.8290339451043494\\
129.8625638548723	-1.8950744023892903\\
130.62132486876087	-1.9612659498458493\\
131.38008588264944	-2.027620492581594\\
132.138846896538	-2.094149938943054\\
132.8976079104266	-2.1608662006968142\\
133.65636892431516	-2.2277811932140943\\
134.41512993820373	-2.2966828575664304\\
135.1738909520923	-2.3659514768796406\\
135.93265196598088	-2.4354657501948793\\
136.69141297986945	-2.505237620353124\\
137.45017399375803	-2.5752790350914583\\
138.2089350076466	-2.6456019472670693\\
138.96769602153518	-2.7161925112131686\\
139.72645703542375	-2.786987207669495\\
140.48521804931246	-2.857991496150296\\
};

\addplot [
color=black,
dashdotted
]
table[row sep=crcr]{
70.51572560201885	1.1866847391226765\\
71.19743626696633	1.1981936540788345\\
71.87914693191382	1.2082413721701606\\
72.56085759686131	1.216947698324906\\
73.2425682618088	1.2237496488510287\\
73.92427892675629	1.2286757402181767\\
74.60598959170377	1.232502825773299\\
75.28770025665126	1.2346349366517468\\
75.96941092159875	1.2348454872360892\\
76.65112158654624	1.2342304913970241\\
77.33283225149373	1.2313381607256104\\
78.01454291644121	1.2273148548354549\\
78.6962535813887	1.2218737241501831\\
79.37796424633619	1.2145294377296934\\
80.05967491128368	1.206365234176225\\
80.74138557623117	1.1958547916569973\\
81.42309624117865	1.1850538745769905\\
82.10480690612614	1.1719035904353203\\
82.78651757107363	1.1586117829389755\\
83.46822823602112	1.1431583164312678\\
84.1499389009686	1.1274155328606619\\
84.8316495659161	1.110005705821979\\
85.51336023086358	1.0918568996770308\\
86.19507089581107	1.0728526282805677\\
86.87678156075856	1.0523477889545854\\
87.55849222570605	1.0320124156945754\\
88.24020289065353	1.0093202283202085\\
88.92191355560102	0.9866813059989437\\
89.60362422054851	0.963226360464403\\
90.285334885496	0.9383447791175352\\
90.96704555044349	0.913637666988229\\
91.64875621539097	0.8874737011985289\\
92.33046688033846	0.8605140631321015\\
93.01217754528595	0.8336503811309256\\
93.69388821023344	0.805098860723951\\
94.37559887518093	0.7759452020651268\\
95.05730954012841	0.7468863670169107\\
95.7390202050759	0.7164922670120338\\
96.42073087002339	0.6852012136144721\\
97.10244153497088	0.6540046835857998\\
97.78415219991837	0.6223580578833615\\
98.46586286486585	0.5889937563947644\\
99.14757352981334	0.5557245090446574\\
99.82928419476083	0.5225561029639396\\
100.51099485970832	0.4880796688222002\\
101.1927055246558	0.4528101977937899\\
101.8744161896033	0.4176429267832394\\
102.55612685455078	0.38258363803546025\\
103.23783751949827	0.3460663112754723\\
103.91954818444576	0.3089594526276747\\
104.60125884939325	0.2719356175547323\\
105.28296951434073	0.23499003537897242\\
105.96468017928822	0.19715118752822075\\
106.64639084423571	0.15815592345333224\\
107.3281015091832	0.11921026291219956\\
108.00981217413069	0.08030943329929192\\
108.69152283907817	0.04144866216039268\\
109.37323350402566	9.313460079644929E-4\\
110.05494416897315	-0.039994849102523176\\
110.73665483392064	-0.08090881277039469\\
111.41836549886813	-0.12181532020288896\\
112.10007616381561	-0.1627191466036787\\
112.7817868287631	-0.20506011273588978\\
113.46349749371059	-0.24803511310204399\\
114.14520815865808	-0.2910214673328265\\
114.82691882360557	-0.33398276143465\\
115.50862948855305	-0.3769217423870534\\
116.19034015350054	-0.41997777719886464\\
116.87205081844803	-0.46487473118296013\\
117.55376148339552	-0.509778998805504\\
118.235472148343	-0.554696507955613\\
118.9171828132905	-0.5996331867364656\\
119.59889347823798	-0.6445949635019349\\
120.28060414318547	-0.6895877668933791\\
120.96231480813296	-0.7361506590800485\\
121.64402547308045	-0.7831444250264891\\
122.32573613802793	-0.830198040945497\\
123.00744680297542	-0.8773174412238843\\
123.68915746792291	-0.924508560800626\\
124.3708681328704	-0.9717773352090573\\
125.05257879781789	-1.0191267135532027\\
125.73428946276537	-1.0679418065071717\\
126.41600012771286	-1.1172103250004823\\
127.09771079266035	-1.1665267756058146\\
127.77942145760784	-1.2158968804764416\\
128.46113212255534	-1.265326362408181\\
129.14284278750284	-1.3148209448838157\\
129.82455345245035	-1.3643863521179291\\
130.50626411739785	-1.414028309102241\\
131.18797478234535	-1.46519427390465\\
131.86968544729285	-1.5167744949688324\\
132.55139611224035	-1.5684578468038717\\
133.23310677718786	-1.6202500631213355\\
133.91481744213536	-1.6721568787484047\\
134.59652810708286	-1.724184029680896\\
135.27823877203036	-1.7763372531370831\\
135.95994943697787	-1.8286222876123728\\
136.64166010192537	-1.8809947130232691\\
137.32337076687287	-1.9345946927149338\\
138.00508143182054	-1.9887425540506356\\
};

\addplot [
color=black,
dashed
]
table[row sep=crcr]{
76.27942608819963	0.1832654082174395\\
76.87741928233584	0.19400979754170689\\
77.47541247647204	0.2043528789628867\\
78.07340567060825	0.21332537601479581\\
78.67139886474446	0.22151485907738958\\
79.26939205888067	0.22924251854811095\\
79.86738525301688	0.23549080557359758\\
80.46537844715309	0.24185253520419414\\
81.0633716412893	0.2462340045521152\\
81.6613648354255	0.25087673613963385\\
82.25935802956171	0.2537751467499386\\
82.85735122369792	0.25683248550062543\\
83.45534441783413	0.25816610885273683\\
84.05333761197033	0.2597816631850413\\
84.65133080610654	0.2594721057177324\\
85.24932400024275	0.259512252286899\\
85.84731719437896	0.25777169044026615\\
86.44531038851517	0.25603591720245444\\
87.04330358265138	0.25315675423244277\\
87.64129677678758	0.24957389405781902\\
88.23928997092379	0.24573252613825872\\
88.83728316506	0.24023474710709872\\
89.43527635919621	0.23489509892304428\\
90.03326955333242	0.22814738591380254\\
90.63126274746863	0.22092569458405686\\
91.22925594160483	0.21394659787576933\\
91.82724913574104	0.2050505442743486\\
92.42524232987725	0.1964039085823862\\
93.02323552401346	0.1875385331266396\\
93.62122871814967	0.1771538408169232\\
94.21922191228587	0.16696770496919616\\
94.81721510642208	0.1564757284962475\\
95.41520830055829	0.14449228661628563\\
96.0132014946945	0.13265709521304417\\
96.61119468883071	0.12081819664898226\\
97.20918788296692	0.10713089389772866\\
97.80718107710312	0.09354209077059088\\
98.40517427123933	0.08003966672042602\\
99.00316746537554	0.06516467254578089\\
99.60116065951175	0.04972269930954985\\
100.19915385364796	0.03431790870431967\\
100.79714704778416	0.01871863952598743\\
101.39514024192037	0.0013624075816327946\\
101.99313343605658	-0.015931173782876302\\
102.59112663019279	-0.03315974033081883\\
103.189119824329	-0.05084274327081916\\
103.7871130184652	-0.06991246996558545\\
104.38510621260141	-0.08892181511254343\\
104.98309940673762	-0.10786841491201216\\
105.58109260087383	-0.12701373795663748\\
106.17908579501004	-0.1477569608232794\\
106.77707898914625	-0.1684415191543807\\
107.37507218328246	-0.18906504965286627\\
107.97306537741866	-0.20962518896464366\\
108.57105857155487	-0.23141418673132594\\
109.16905176569108	-0.25372675807772804\\
109.76704495982729	-0.275979467663892\\
110.3650381539635	-0.2981699526872216\\
110.9630313480997	-0.32029585027229246\\
111.56102454223591	-0.34396072265618066\\
112.15901773637212	-0.3677827361878524\\
112.75701093050833	-0.39152962532601326\\
113.35500412464454	-0.4152065697270368\\
113.95299731878075	-0.4388192764192329\\
114.55099051291695	-0.463529528868439\\
115.14898370705316	-0.48881473564318173\\
115.74697690118937	-0.5140623414634572\\
116.34497009532558	-0.5392780544774027\\
116.94296328946179	-0.5644675828867028\\
117.540956483598	-0.5896366349574836\\
118.1389496777342	-0.6164185694213635\\
118.73694287187041	-0.6432970583947611\\
119.33493606600662	-0.6701811613925993\\
119.93292926014283	-0.6970765882743136\\
120.53092245427904	-0.7239890490397194\\
121.12891564841524	-0.7509242538418032\\
121.72690884255145	-0.7790206998427313\\
122.32490203668766	-0.8076945390719923\\
122.92289523082387	-0.8364081572525295\\
123.52088842496008	-0.865121255963824\\
124.11888161909629	-0.8938314174673528\\
124.7168748132325	-0.922542874272681\\
125.3148680073687	-0.9512598590236124\\
125.91286120150491	-0.9812100562277888\\
126.51085439564112	-1.0115707606268451\\
127.10884758977733	-1.0419575581763203\\
127.70684078391353	-1.0723746837278554\\
128.30483397804974	-1.1028263723485765\\
128.90282717218594	-1.1333168593336347\\
129.50082036632213	-1.1638503802188782\\
130.09881356045832	-1.1945246345872051\\
130.69680675459452	-1.2267130722696247\\
131.2947999487307	-1.2589645700227385\\
131.8927931428669	-1.2912833662690801\\
132.4907863370031	-1.3236736997744127\\
133.0887795311393	-1.356139809663083\\
133.6867727252755	-1.3886835215260476\\
134.28476591941168	-1.421267412386565\\
134.88275911354788	-1.4538816855454544\\
135.48075230768399	-1.487168600661065\\
};

\addplot [
color=black,
densely dashdotted
]
table[row sep=crcr]{
82.75992925800008	-0.6612990515486649\\
83.26649271816429	-0.6500351492639227\\
83.77305617832849	-0.638909435554999\\
84.27961963849269	-0.6290596026579984\\
84.78618309865689	-0.6194547441038035\\
85.2927465588211	-0.6108432155643468\\
85.7993100189853	-0.6027486758370149\\
86.3058734791495	-0.5951935285087275\\
86.8124369393137	-0.5885967203894905\\
87.3190003994779	-0.5819098720017407\\
87.8255638596421	-0.5767961568470462\\
88.3321273198063	-0.5714329070494045\\
88.8386907799705	-0.5671391838212464\\
89.34525424013471	-0.5632635107560956\\
89.85181770029891	-0.5594388436054772\\
90.35838116046311	-0.5570457989055926\\
90.86494462062731	-0.5544345771282957\\
91.37150808079151	-0.5525696315452451\\
91.87807154095572	-0.5514417491042497\\
92.38463500111992	-0.5501085766935839\\
92.89119846128412	-0.5499580866057138\\
93.39776192144832	-0.5501062279122861\\
93.90432538161252	-0.5500616243535077\\
94.41088884177672	-0.5513680017168673\\
94.91745230194093	-0.552799949401757\\
95.42401576210513	-0.5540513553603198\\
95.93057922226933	-0.5565446887940025\\
96.43714268243353	-0.5592651464494809\\
96.94370614259773	-0.5618169236038898\\
97.45026960276194	-0.5652149771289814\\
97.95683306292614	-0.5692255691681086\\
98.46339652309034	-0.5730790000815907\\
98.96995998325454	-0.5770872119081061\\
99.47652344341874	-0.582367118924603\\
99.98308690358294	-0.5874501344683841\\
100.48965036374715	-0.5923430434961658\\
100.99621382391135	-0.5980771645559062\\
101.50277728407555	-0.6043417216830446\\
102.00934074423975	-0.6104478335484887\\
102.51590420440395	-0.6164030739272711\\
103.02246766456815	-0.6235655522052437\\
103.52903112473236	-0.6309390461755735\\
104.03559458489656	-0.6381929885980802\\
104.54215804506076	-0.6453349533709145\\
105.04872150522496	-0.6536477573007632\\
105.55528496538916	-0.6622511610723051\\
106.06184842555336	-0.6707735661778801\\
106.56841188571757	-0.679222546722095\\
107.07497534588177	-0.6883871009958238\\
107.58153880604597	-0.6983372864871503\\
108.08810226621017	-0.708244685878428\\
108.59466572637437	-0.7181168735926015\\
109.10122918653857	-0.7279614241117724\\
109.60779264670278	-0.7392237968994675\\
110.11435610686698	-0.750602647860513\\
110.62091956703118	-0.7619054171666958\\
111.12748302719538	-0.7731341895778883\\
111.63404648735958	-0.784307169729298\\
112.14060994752379	-0.7969476757218641\\
112.64717340768799	-0.8095314798376375\\
113.15373686785219	-0.8220619360454953\\
113.66030032801639	-0.8345423983425868\\
114.16686378818059	-0.8469762207556565\\
114.6734272483448	-0.8605023766206583\\
115.179990708509	-0.8743705321672398\\
115.6865541686732	-0.8882090034101133\\
116.1931176288374	-0.9020211447817027\\
116.6996810890016	-0.9158103107559894\\
117.2062445491658	-0.9297053352269659\\
117.71280800933	-0.944933391387346\\
118.2193714694942	-0.9601550885654941\\
118.72593492965841	-0.9753737817777773\\
119.23249838982261	-0.9905928260990331\\
119.73906184998681	-1.0058155766649248\\
120.24562531015101	-1.0210453886743338\\
120.75218877031521	-1.0376447552661527\\
121.25875223047942	-1.054287975910509\\
121.76531569064362	-1.0709134458795426\\
122.27187915080782	-1.08752338590787\\
122.77844261097202	-1.1041200167706569\\
123.28500607113622	-1.1207055592853934\\
123.79156953130042	-1.1376952629625807\\
124.29813299146463	-1.1556618589234107\\
124.80469645162883	-1.1736299022832606\\
125.31125991179303	-1.1916016145383894\\
125.81782337195723	-1.2095792172443078\\
126.32438683212143	-1.227564932018018\\
126.83095029228564	-1.245560980540252\\
127.33751375244984	-1.263604647520889\\
127.84407721261404	-1.2829815815971166\\
128.35064067277824	-1.302381048524879\\
128.85720413294243	-1.3218052708566068\\
129.36376759310662	-1.3412564712309627\\
129.8703310532708	-1.3607368723756839\\
130.376894513435	-1.3802486971104804\\
130.88345797359918	-1.3997941683499553\\
131.39002143376337	-1.4194228759660075\\
131.89658489392755	-1.440307760283168\\
132.40314835409174	-1.461203465745319\\
132.90971181425576	-1.4821129016765828\\
};
\end{axis}
\end{tikzpicture}%
