%Climb_angle_curves_AOE
\begin{tikzpicture}

\begin{axis}[
width=\figurewidth,
height=\figureheight,
scaled ticks=false, tick label style={/pgf/number format/fixed},
xmin=60.75200185424198,
xmax=146.32640319914915,
xlabel={Speed ((m/s))},
xmajorgrids,
ymin=-1.9037269920689137,
ymax=6.456884783115177,
ylabel={Climb angle ((deg))},
ymajorgrids,
legend style={at={(1.03,0.5)},anchor=west,draw=black,fill=white,legend cell align=left}
]

\addplot [
color=black,
solid
]
table[row sep=crcr]{
60.75200185424198	6.456884783115177\\
61.61638974661478	6.433402403825516\\
62.480777638987576	6.3881356150327715\\
63.34516553136037	6.326502095945391\\
64.20955342373317	6.253905394344472\\
65.07394131610597	6.175734570017757\\
65.93832920847878	6.097364369853597\\
66.80271710085158	6.024155909239119\\
67.66710499322438	5.961457820030755\\
68.53149288559719	5.914607824848849\\
69.39588077796999	5.8889347104346506\\
70.2602686703428	5.889760699015112\\
71.1246565627156	5.899309413603735\\
71.9890444550884	5.879838219552181\\
72.85343234746121	5.835109869215755\\
73.71782023983401	5.769825040509905\\
74.58220813220682	5.6886794275011745\\
75.44659602457962	5.596362557375169\\
76.31098391695242	5.497557044995637\\
77.17537180932523	5.396938277369629\\
78.03975970169803	5.299174498859646\\
78.90414759407084	5.208927255735479\\
79.76853548644364	5.130852155468812\\
80.63292337881644	5.0695999018625395\\
81.49731127118925	5.0298175815186985\\
82.36169916356205	5.014206381304291\\
83.22608705593485	4.986487875714033\\
84.09047494830766	4.934536522950996\\
84.95486284068046	4.862499786251231\\
85.81925073305327	4.774523042856471\\
86.68363862542607	4.674748564488343\\
87.54802651779887	4.567314818129887\\
88.41241441017168	4.456356082021325\\
89.27680230254448	4.346002354220865\\
90.14119019491729	4.24037951983462\\
91.00557808729009	4.143609737999903\\
91.8699659796629	4.0598120108149836\\
92.7343538720357	3.993102903554193\\
93.5987417644085	3.9475973986195294\\
94.4631296567813	3.9152254372671824\\
95.32751754915411	3.862239445543\\
96.19190544152691	3.7896361027287155\\
97.05629333389972	3.7010688487273082\\
97.92068122627252	3.6001894772955\\
98.78506911864532	3.4906476055370206\\
99.64945701101813	3.3760903575686068\\
100.51384490339093	3.26016224746219\\
101.37823279576374	3.1465052366952593\\
102.24262068813654	3.038758935714121\\
103.10700858050934	2.9405609177816983\\
103.97139647288215	2.8555471159926498\\
104.83578436525495	2.7873522811529092\\
105.70017225762776	2.739349987403566\\
106.56456015000056	2.6875543443408167\\
107.42894804237336	2.616739165040985\\
108.29333593474617	2.5301149822861544\\
109.15772382711897	2.430891440184912\\
110.02211171949178	2.3222769549353144\\
110.88649961186458	2.2074785110652124\\
111.75088750423738	2.0897015844707822\\
112.61527539661019	1.9721501753227058\\
113.47966328898299	1.8580269285203164\\
114.3440511813558	1.7505333168233483\\
115.2084390737286	1.6528698620549327\\
116.0728269661014	1.5682363728277129\\
116.9372148584742	1.4998321830842003\\
117.80160275084701	1.4451214260308642\\
118.66599064321981	1.376660178553763\\
119.53037853559262	1.2927867627400476\\
120.39476642796542	1.1963039951838317\\
121.25915432033823	1.0900140322018963\\
122.12354221271103	0.9767182854603658\\
122.98793010508383	0.8592174108574291\\
123.85231799745664	0.7403113597108689\\
124.71670588982944	0.6227994766302148\\
125.58109378220225	0.5094806256661449\\
126.44548167457505	0.4031533254146393\\
127.30986956694785	0.30661587470299306\\
128.17425745932064	0.22266645329507337\\
129.03864535169345	0.15410318672405413\\
129.90303324406625	0.08719215213576925\\
130.76742113643905	0.004923258841408522\\
131.63180902881186	-0.09020558719449988\\
132.49619692118466	-0.195661228194496\\
133.36058481355747	-0.30891082413269055\\
134.22497270593027	-0.42742179218095455\\
135.08936059830307	-0.5486617138794868\\
135.95374849067588	-0.6700982216597808\\
136.81813638304868	-0.7891988792208746\\
137.68252427542149	-0.903431071752751\\
138.5469121677943	-1.0102619221157498\\
139.4113000601671	-1.1071582478194029\\
140.2756879525399	-1.1915865709943252\\
141.1400758449127	-1.2634160372447358\\
142.0044637372855	-1.3446048717786312\\
142.8688516296583	-1.439156156067416\\
143.7332395220311	-1.544706966026422\\
144.59762741440392	-1.658894413723674\\
145.46201530677672	-1.7793555059623445\\
146.32640319914915	-1.9037269920689137\\
};

\addplot [
color=black,
densely dashed
]
table[row sep=crcr]{
65.36787710872356	5.423668399880798\\
66.16042485705306	5.406106039347546\\
66.95297260538256	5.386668644282786\\
67.74552035371205	5.365880636475861\\
68.53806810204155	5.344259139435253\\
69.33061585037105	5.322295207054099\\
70.12316359870054	5.29941821843584\\
70.91571134703004	5.2751549437116045\\
71.70825909535954	5.249506982011073\\
72.50080684368903	5.222470815855768\\
73.29335459201853	5.194038142681738\\
74.08590234034803	5.164196181783874\\
74.87845008867752	5.132927958746081\\
75.67099783700702	5.100212569228391\\
76.46354558533652	5.066025423808656\\
77.25609333366602	5.030338475420515\\
78.04864108199551	4.993120430788951\\
78.84118883032501	4.954336947138331\\
79.6337365786545	4.913950815333654\\
80.426284326984	4.871922130512549\\
81.2188320753135	4.828309549123091\\
82.011379823643	4.78350622422138\\
82.8039275719725	4.737578268294608\\
83.59647532030199	4.690548748308282\\
84.38902306863149	4.642438706270052\\
85.18157081696098	4.593267271682508\\
85.97411856529048	4.5430517667867125\\
86.76666631361998	4.491807805117783\\
87.55921406194948	4.439549383851685\\
88.35176181027897	4.3862889703840935\\
89.14430955860847	4.332037583547243\\
89.93685730693797	4.276804869838637\\
90.72940505526746	4.220599175006472\\
91.52195280359696	4.163427611309846\\
92.31450055192646	4.105296328622497\\
93.10704830025595	4.046293819233933\\
93.89959604858545	3.986497367693638\\
94.69214379691495	3.925917252198412\\
95.48469154524444	3.8645627963398557\\
96.27723929357394	3.8024424159588754\\
97.06978704190344	3.7395636633279246\\
97.86233479023294	3.675933268832229\\
98.65488253856243	3.6115571803090902\\
99.44743028689193	3.5464406001929456\\
100.23997803522143	3.480588020603426\\
101.03252578355092	3.4140032565040768\\
101.82507353188042	3.3466894770504596\\
102.61762128020992	3.2786492352381655\\
103.41016902853941	3.2098844959537662\\
104.20271677686891	3.1403689616919355\\
104.99526452519841	3.0699638903562856\\
105.7878122735279	2.9987106091555784\\
106.5803600218574	2.9266807353430644\\
107.3729077701869	2.8539453983682495\\
108.1654555185164	2.7805752607977396\\
108.95800326684589	2.7066405383011194\\
109.75055101517539	2.6322110187535026\\
110.54309876350489	2.5573560805026676\\
111.33564651183438	2.4821447098450493\\
112.12819426016388	2.40664551775164\\
112.92074200849338	2.330926755881821\\
113.71328975682287	2.255056331920333\\
114.50583750515237	2.1791018242699542\\
115.29838525348187	2.1031304961301984\\
116.09093300181136	2.027105773423176\\
116.88348075014086	1.9509184133344069\\
117.67602849847036	1.8745575979232654\\
118.46857624679986	1.7980125506660094\\
119.26112399512935	1.7212722506131677\\
120.05367174345885	1.6443254418921704\\
120.84621949178835	1.5671606427578346\\
121.63876724011784	1.4897661542137828\\
122.43131498844734	1.412130068226485\\
123.22386273677684	1.3342402755524243\\
124.01641048510633	1.256084473197557\\
124.80895823343583	1.1776501715272087\\
125.60150598176533	1.0989247010434355\\
126.39405373009483	1.0198952188458903\\
127.18660147842432	0.940559982183074\\
127.97914922675382	0.8610149573738668\\
128.7716969750833	0.7812779266574603\\
129.5642447234128	0.7013399629923013\\
130.3567924717423	0.6211919954349466\\
131.1493402200718	0.5408248141081173\\
131.9418879684013	0.46022907494600324\\
132.7344357167308	0.37939530422712225\\
133.52698346506028	0.2983139029043918\\
134.31953121338978	0.2169751507415818\\
135.11207896171928	0.13536921026479268\\
135.90462671004877	0.053486130537189876\\
136.69717445837827	-0.028684149235346956\\
137.48972220670777	-0.11115179626025709\\
138.28226995503726	-0.19392708086917634\\
139.07481770336676	-0.2769532967052281\\
139.86736545169626	-0.3601284911795738\\
140.65991320002576	-0.44347526252635106\\
141.45246094835525	-0.5270187947582848\\
142.24500869668475	-0.6107843592912242\\
143.03755644501425	-0.6947973127346161\\
143.83010419334371	-0.7790830948009562\\
};

\addplot [
color=black,
dashdotted
]
table[row sep=crcr]{
70.51572499185646	3.982793813943174\\
71.23062591824181	3.9780774303066933\\
71.94552684462717	3.971453580510726\\
72.66042777101252	3.963020526800853\\
73.37532869739788	3.952872926143376\\
74.09022962378323	3.9411020364684117\\
74.80513055016858	3.927795909252519\\
75.52003147655394	3.9130395694704445\\
76.2349324029393	3.8969151838586615\\
76.94983332932465	3.8795022183546313\\
77.66473425571	3.8608775855042974\\
78.37963518209536	3.841115782565348\\
79.09453610848071	3.8202890209746756\\
79.80943703486606	3.7984512677513824\\
80.52433796125142	3.775605603287286\\
81.23923888763677	3.7517792353350283\\
81.95413981402213	3.7270000920395523\\
82.66904074040748	3.7012943581077513\\
83.38394166679284	3.6746865639665884\\
84.09884259317819	3.647199669654202\\
84.81374351956354	3.6188551437961225\\
85.5286444459489	3.5896730379925272\\
86.24354537233425	3.559672056918269\\
86.95844629871961	3.5288696244152646\\
87.67334722510496	3.497281945836503\\
88.38824815149032	3.4649240668821872\\
89.10314907787567	3.4318099291512394\\
89.81805000426102	3.3979524226156137\\
90.53295093064638	3.3633634352101516\\
91.24785185703173	3.3280970977788153\\
91.96275278341709	3.2922411597677366\\
92.67765370980244	3.2558086686089958\\
93.3925546361878	3.218810399332191\\
94.10745556257315	3.18125633499323\\
94.8223564889585	3.1431557023501697\\
95.53725741534386	3.1045170056787965\\
96.25215834172921	3.0653480588376345\\
96.96705926811457	3.025656015684782\\
97.68196019449992	2.9854473989423447\\
98.39686112088528	2.944728127597925\\
99.11176204727063	2.9035035429269827\\
99.82666297365598	2.8617784332143636\\
100.54156390004134	2.819557057248455\\
101.2564648264267	2.7768431666566955\\
101.97136575281205	2.7336400271469037\\
102.6862666791974	2.6899791182173116\\
103.40116760558276	2.6458985488971996\\
104.11606853196811	2.6014102132165466\\
104.83096945835347	2.556525592730626\\
105.54587038473882	2.511255773595511\\
106.26077131112417	2.46561146243823\\
106.97567223750953	2.4196030014894037\\
107.69057316389488	2.3732403830172295\\
108.40547409028024	2.3265332630994013\\
109.12037501666559	2.279490974767471\\
109.83527594305095	2.232122540556067\\
110.5501768694363	2.1844366844875323\\
111.26507779582165	2.136441843520884\\
111.97997872220701	2.0881461784921713\\
112.69487964859236	2.0395575845719423\\
113.40978057497772	1.99068413218364\\
114.12468150136307	1.9415565517091\\
114.83958242774843	1.8921901084907218\\
115.55448335413378	1.8425844561899731\\
116.26938428051913	1.7927390295702579\\
116.98428520690449	1.7426530524785833\\
117.69918613328984	1.6923255454860269\\
118.4140870596752	1.6417553332033414\\
119.12898798606055	1.5909410512871696\\
119.8438889124459	1.5398811531515115\\
120.55878983883126	1.488573916398287\\
121.27369076521661	1.437017448980125\\
121.98859169160197	1.3852096951078408\\
122.70349261798732	1.3331484409143015\\
123.41839354437268	1.2808313198859533\\
124.13329447075803	1.2282558180724916\\
124.84819539714339	1.1754227719709165\\
125.56309632352874	1.1223851611030675\\
126.2779972499141	1.069159424928849\\
126.99289817629945	1.015742497134436\\
127.7077991026848	0.9621311874071807\\
128.42270002907017	0.9083221855164363\\
129.13760095545553	0.8543120652333255\\
129.85250188184088	0.8000972880963249\\
130.56740280822623	0.7456742070294381\\
131.2823037346116	0.6910390698191892\\
131.99720466099694	0.6361880224564912\\
132.7121055873823	0.5811171123491461\\
133.42700651376765	0.5258222914103139\\
134.141907440153	0.47029941902826966\\
134.85680836653836	0.41454426492224294\\
135.5717092929237	0.35855251188913295\\
136.28661021930907	0.3023248319264628\\
137.00151114569442	0.2458962875875043\\
137.71641207207978	0.18927519635358694\\
138.43131299846513	0.13246243943929067\\
139.14621392485049	0.07545882368280227\\
139.86111485123584	0.018265083785928688\\
140.5760157776212	-0.03911811552641564\\
141.29091670400675	-0.09669017742401585\\
};

\addplot [
color=black,
dashed
]
table[row sep=crcr]{
76.27942542816477	2.6720165995810143\\
76.91000178248115	2.6721423452106308\\
77.54057813679752	2.671507971856614\\
78.1711544911139	2.6701901896889155\\
78.80173084543027	2.6680826518340885\\
79.43230719974665	2.6651699207356776\\
80.06288355406302	2.66146176011149\\
80.6934599083794	2.656966524214346\\
81.32403626269577	2.651691223172233\\
81.95461261701215	2.6456415848307593\\
82.58518897132852	2.6388221133104204\\
83.2157653256449	2.6312361444766452\\
83.84634167996127	2.622885898507323\\
84.47691803427765	2.6137725297301007\\
85.10749438859402	2.6038961738903468\\
85.7380707429104	2.5932559930000196\\
86.36864709722677	2.5818502179078764\\
86.99922345154314	2.5696761887222617\\
87.62979980585952	2.5567303932093552\\
88.2603761601759	2.543008503281685\\
88.89095251449227	2.528505409684609\\
89.52152886880864	2.513309433802347\\
90.15210522312502	2.497582906770052\\
90.7826815774414	2.4813305194463204\\
91.41325793175777	2.4645533912702966\\
92.04383428607414	2.4472520090795182\\
92.67441064039052	2.4294262528773047\\
93.3049869947069	2.4110754203862905\\
93.93556334902327	2.3921982504529025\\
94.56613970333964	2.3727929453636136\\
95.19671605765602	2.352857192130252\\
95.8272924119724	2.332388182798291\\
96.45786876628877	2.3113826338287535\\
97.08844512060514	2.28983680460156\\
97.71902147492152	2.267746515085257\\
98.3495978292379	2.2451071627155375\\
98.98017418355427	2.2219137385225007\\
99.61075053787064	2.198160842544339\\
100.24132689218702	2.173845012293459\\
100.8719032465034	2.149034204411002\\
101.50247960081977	2.1237701168068095\\
102.13305595513614	2.098063145227107\\
102.76363230945252	2.0719233607274288\\
103.3942086637689	2.045360521483206\\
104.02478501808527	2.018384084102025\\
104.65536137240164	1.9910032144614638\\
105.28593772671802	1.9632267980950822\\
105.91651408103439	1.9350634501479902\\
106.54709043535077	1.9065215249222547\\
107.17766678966714	1.8776091250313531\\
107.80824314398352	1.8483341101818265\\
108.43881949829989	1.8187041055994402\\
109.06939585261627	1.7887265101161505\\
109.69997220693264	1.7584085039334276\\
110.33054856124902	1.7277570560766193\\
110.96112491556539	1.69677893155434\\
111.59170126988177	1.6654800616216499\\
112.22227762419814	1.6338643672547684\\
112.85285397851452	1.601938768149335\\
113.48343033283089	1.5697104021315584\\
114.11400668714727	1.5371862347530194\\
114.74458304146364	1.5043730649384512\\
115.37515939578002	1.4712775304188814\\
116.00573575009639	1.4379061129593758\\
116.63631210441277	1.4042651433902347\\
117.26688845872914	1.3703608064500716\\
117.89746481304552	1.336199145448748\\
118.52804116736189	1.3017860667578243\\
119.15861752167827	1.2671273441357653\\
119.78919387599464	1.2322286228948567\\
120.41977023031102	1.197095423916376\\
121.05034658462739	1.1617331475203696\\
121.68092293894377	1.1261470771959985\\
122.31149929326014	1.0903423831981758\\
122.94207564757652	1.05432757399224\\
123.57265200189289	1.0181100170869049\\
124.20322835620927	0.9816912288900119\\
124.83380471052564	0.9450726039137306\\
125.46438106484202	0.9082554397413841\\
126.09495741915839	0.871240939916229\\
126.72553377347477	0.834030216729441\\
127.35611012779114	0.7966242939112407\\
127.98668648210752	0.7590241092289886\\
128.6172628364239	0.7212305169958588\\
129.24783919074028	0.6832442904935465\\
129.87841554505667	0.6450661243123509\\
130.50899189937306	0.6066966366117708\\
131.13956825368945	0.568136371304698\\
131.77014460800584	0.5293858001680501\\
132.40072096232223	0.4904453248826803\\
133.03129731663861	0.4513152790051842\\
133.661873670955	0.41199824158494747\\
134.2924500252714	0.37253180944584946\\
134.92302637958778	0.33292577190617645\\
135.55360273390417	0.29317571540914283\\
136.18417908822056	0.25327716739699163\\
136.81475544253695	0.21322559790585055\\
137.44533179685334	0.17301642110782375\\
138.07590815116973	0.13264499680216058\\
138.70648450548597	0.09210663185734026\\
};

\addplot [
color=black,
densely dashdotted
]
table[row sep=crcr]{
82.75992854189037	1.3729986741348517\\
83.29845682694415	1.3765266923395514\\
83.83698511199792	1.3793374052207645\\
84.37551339705169	1.3814613151765867\\
84.91404168210546	1.3829282868155304\\
85.45256996715923	1.383767570941096\\
85.991098252213	1.384007827489009\\
86.52962653726678	1.3836771474693321\\
87.06815482232055	1.3828030739627588\\
87.60668310737432	1.3813969194470883\\
88.1452113924281	1.3794117025091173\\
88.68373967748187	1.3768583265672223\\
89.22226796253564	1.3737555971191047\\
89.76079624758941	1.370121864225928\\
90.29932453264318	1.365975038728255\\
90.83785281769696	1.3613326077918915\\
91.37638110275073	1.3562116498151506\\
91.9149093878045	1.3506288487274734\\
92.45343767285827	1.3446005077076955\\
92.99196595791204	1.3381425623488086\\
93.53049424296582	1.3312705932946278\\
94.06902252801959	1.3239998383725542\\
94.60755081307336	1.3163452042452641\\
95.14607909812713	1.3083212776031008\\
95.6846073831809	1.2999423359177706\\
96.22313566823468	1.291222357776928\\
96.76166395328845	1.2821750328182717\\
97.30019223834222	1.2728137712808019\\
97.83872052339599	1.2631517131900731\\
98.37724880844976	1.253205888333743\\
98.91577709350354	1.2430440620339054\\
99.45430537855731	1.2326802962816692\\
99.99283366361108	1.2221066794418813\\
100.53136194866485	1.2113150709406122\\
101.06989023371862	1.200297108574901\\
101.6084185187724	1.189044215552093\\
102.14694680382617	1.1775476072701132\\
102.68547508887994	1.1657982978494845\\
103.22400337393371	1.153787106427371\\
103.76253165898748	1.1415046632234844\\
104.30105994404126	1.128941415387179\\
104.83958822909503	1.116087632634663\\
105.3781165141488	1.1029334126848305\\
105.91664479920257	1.0894686865018004\\
106.45517308425634	1.0756832233519076\\
106.99370136931012	1.061566635682506\\
107.53222965436389	1.0471083838296311\\
108.07075793941766	1.0322977805612226\\
108.60928622447143	1.017123995462303\\
109.1478145095252	1.001576202093415\\
109.68634279457898	0.985710524425813\\
110.22487107963275	0.9695821604823017\\
110.76339936468652	0.9531953327157356\\
111.30192764974029	0.9365541398437884\\
111.84045593479406	0.9196625604092095\\
112.37898421984784	0.9025244562210414\\
112.91751250490161	0.8851435756813417\\
113.45604078995538	0.8675235570017243\\
113.99456907500915	0.8496679313138538\\
114.53309736006292	0.831580125677906\\
115.0716256451167	0.81326346599276\\
115.61015393017047	0.7947211798115905\\
116.14868221522424	0.7759563990663406\\
116.68721050027801	0.7569721627044507\\
117.22573878533179	0.7377714192410232\\
117.76426707038556	0.7183570292295243\\
118.30279535543933	0.6987317676539682\\
118.8413236404931	0.6788983262454327\\
119.37985192554687	0.6588593157256021\\
119.91838021060065	0.6386172679799768\\
120.45690849565442	0.6181801508078033\\
120.99543678070819	0.5975617891271838\\
121.53396506576196	0.5767640325761328\\
122.07249335081573	0.5557882467814055\\
122.6110216358695	0.5346357284515573\\
123.14954992092328	0.5133077071769911\\
123.68807820597705	0.49180534717518815\\
124.22660649103082	0.4701297489829764\\
124.7651347760846	0.4482819510976907\\
125.30366306113837	0.4262629315689491\\
125.84219134619214	0.4040736095427418\\
126.38071963124591	0.38171484675943484\\
126.91924791629968	0.3591874490072603\\
127.45777620135345	0.3364921675327854\\
127.99630448640723	0.31362970040978255\\
128.534832771461	0.2906006938679162\\
129.07336105651478	0.26740574358256786\\
129.61188934156857	0.24404539592705893\\
130.15041762662236	0.2205201491885594\\
130.68894591167614	0.19683045474881847\\
131.22747419672993	0.17297919280499863\\
131.76600248178372	0.14898060244122785\\
132.3045307668375	0.12483791070699067\\
132.8430590518913	0.10055228645090282\\
133.38158733694507	0.07612485704959117\\
133.92011562199886	0.051556709402456005\\
134.45864390705265	0.026848890898537748\\
134.99717219210643	0.00200241035638683\\
135.53570047716022	-0.02298176106222108\\
136.07422876221423	-0.04810268896391375\\
};
\end{axis}
\end{tikzpicture}%
