%Climb_angle_curves_OEI_CAS
\begin{tikzpicture}

\begin{axis}[
width=\figurewidth,
height=\figureheight,
scaled ticks=false, tick label style={/pgf/number format/fixed},
xmin=60.75200668180895,
xmax=142.92347371036968,
xlabel={Speed (CAS) ((m/s))},
xmajorgrids,
ymin=-3.898565905597529,
ymax=2.1098457450023003,
ylabel={Climb angle ((deg))},
ymajorgrids,
legend style={at={(1.03,0.5)},anchor=west,draw=black,fill=white,legend cell align=left}
]

\addplot [
color=black,
solid
]
table[row sep=crcr]{
60.75200668180895	2.082358443254833\\
61.582021500279254	2.105161800657296\\
62.412036318749564	2.1098457450023003\\
63.242051137219875	2.0997362386047134\\
64.07206595569019	2.0779326178985285\\
64.9020807741605	2.047671654106671\\
65.7320955926308	2.0121911729430306\\
66.56211041110112	1.9747295513508543\\
67.39212522957142	1.9385348534293385\\
68.22214004804172	1.9068648346430326\\
69.05215486651204	1.8827189730648373\\
69.88216968498234	1.868375819912792\\
70.71218450345265	1.8681646292036285\\
71.54219932192296	1.882200637267265\\
72.37221414039327	1.8830210105899474\\
73.20222895886357	1.8677049046285519\\
74.03224377733389	1.8391390511296912\\
74.86225859580419	1.7980899047924057\\
75.6922734142745	1.749532603901454\\
76.52228823274481	1.6940369614069648\\
77.35230305121512	1.6357619615958638\\
78.18231786968542	1.5762651445385432\\
79.01233268815574	1.5188693383681602\\
79.84234750662604	1.4655289163440608\\
80.67236232509634	1.4196368071915897\\
81.50237714356666	1.382618450374756\\
82.33239196203697	1.3588830645390675\\
83.16240678050727	1.345400861617755\\
83.99242159897759	1.3229084937806708\\
84.82243641744789	1.285651912509656\\
85.65245123591819	1.2373477716365258\\
86.48246605438851	1.1805652435328635\\
87.31248087285881	1.1152725913761319\\
88.14249569132912	1.0463785438940316\\
88.97251050979943	0.9748919053183439\\
89.80252532826974	0.9022031461121602\\
90.63254014674004	0.8324702631260117\\
91.46255496521036	0.7668090525863834\\
92.29256978368066	0.7064851376910872\\
93.12258460215097	0.6556747478489913\\
93.95259942062128	0.6164243166839503\\
94.78261423909159	0.5854122500429391\\
95.61262905756189	0.5459034840824094\\
96.44264387603221	0.4953341127716012\\
97.27265869450251	0.434425520547708\\
98.10267351297283	0.36467981631375207\\
98.93268833144313	0.28969614802009164\\
99.76270314991343	0.2114235423546781\\
100.59271796838375	0.13063417986117531\\
101.42273278685406	0.048826168478542195\\
102.25274760532436	-0.03044748731848964\\
103.08276242379468	-0.10523791236378324\\
103.91277724226498	-0.17359617946187378\\
104.74279206073528	-0.23618146882426466\\
105.5728068792056	-0.28854255996152967\\
106.4028216976759	-0.3314017631767768\\
107.23283651614621	-0.38234954515924047\\
108.06285133461652	-0.44339900449052516\\
108.89286615308683	-0.5153007098362561\\
109.72288097155713	-0.5938534089766286\\
110.55289579002745	-0.6772202821598784\\
111.38291060849775	-0.7636321007184688\\
112.21292542696806	-0.8513195574541251\\
113.04294024543837	-0.9393002375449103\\
113.87295506390868	-1.026715011850385\\
114.70296988237898	-1.1101151647678391\\
115.5329847008493	-1.1877306843241413\\
116.3629995193196	-1.2577913341220233\\
117.1930143377899	-1.3185266784616922\\
118.02302915626022	-1.3708261135036757\\
118.85304397473053	-1.4323729413932955\\
119.68305879320083	-1.5031595137612994\\
120.51307361167115	-1.5812743610585454\\
121.34308843014145	-1.6651766964316956\\
122.17310324861175	-1.753325609847735\\
123.00311806708207	-1.8441800070290706\\
123.83313288555237	-1.9361985506567083\\
124.66314770402268	-2.0285711977343714\\
125.493162522493	-2.120542398363421\\
126.3231773409633	-2.209067183348612\\
127.1531921594336	-2.292602836200541\\
127.98320697790392	-2.3696062689142483\\
128.81322179637422	-2.4385340632321237\\
129.64323661484454	-2.5004466103661502\\
130.47325143331486	-2.569593134708698\\
131.30326625178517	-2.64715981022582\\
132.13328107025552	-2.7326564791302186\\
132.96329588872584	-2.824806741274721\\
133.79331070719616	-2.921009136682055\\
134.62332552566647	-3.019802486805777\\
135.4533403441368	-3.1197251695442567\\
136.2833551626071	-3.2193150533654435\\
137.11336998107745	-3.317109448105765\\
137.94338479954777	-3.411645076949771\\
138.7733996180181	-3.501458074049082\\
139.6034144364884	-3.5850840119219245\\
140.43342925495872	-3.6610579621851964\\
141.26344407342907	-3.7321790137448683\\
142.0934588918994	-3.8111842678984154\\
142.92347371036968	-3.898565905597529\\
};

\addplot [
color=black,
densely dashed
]
table[row sep=crcr]{
60.75200766706598	1.6180140905897933\\
61.457189731609645	1.626122307075444\\
62.1623717961533	1.6315517062771414\\
62.867553860696965	1.634523004205782\\
63.57273592524063	1.6352641493451052\\
64.27791798978429	1.6340103201396388\\
64.98310005432795	1.6308400014666966\\
65.68828211887161	1.6250145292385694\\
66.39346418341528	1.6175005808837208\\
67.09864624795892	1.6084936673077246\\
67.80382831250259	1.5972366390910755\\
68.50901037704625	1.5840106015380626\\
69.21419244158992	1.5697555179572942\\
69.91937450613358	1.5531624690887569\\
70.62455657067724	1.5352009836849752\\
71.32973863522089	1.516159538689643\\
72.03492069976456	1.494773490439377\\
72.74010276430822	1.473161518733206\\
73.44528482885188	1.4487338839637602\\
74.15046689339555	1.4243111628805953\\
74.85564895793921	1.3973718969584152\\
75.56083102248286	1.370479211913414\\
76.26601308702652	1.3410225136732314\\
76.97119515157019	1.3119090531311535\\
77.67637721611385	1.2802116336765865\\
78.38155928065751	1.2486252535241045\\
79.08674134520118	1.2153487516582935\\
79.79192340974483	1.1812729489619356\\
80.49710547428849	1.1468190916987924\\
81.20228753883215	1.1102445733716713\\
81.90746960337582	1.0738742076761238\\
82.61265166791948	1.0359613840099045\\
83.31783373246314	0.9970482020769532\\
84.0230157970068	0.9582888117820006\\
84.72819786155046	0.9174237709741195\\
85.43337992609412	0.8760870618345667\\
86.13856199063778	0.8348549790240064\\
86.84374405518145	0.7916047163817731\\
87.54892611972511	0.7478522822929531\\
88.25410818426877	0.7042262281710787\\
88.95929024881242	0.6593734041951446\\
89.66447231335609	0.6132759468617538\\
90.36965437789975	0.5672647947230536\\
91.07483644244341	0.5213338311211225\\
91.78001850698708	0.47299364980233666\\
92.48520057153074	0.42456617157469634\\
93.19038263607439	0.376179989725279\\
93.89556470061805	0.327652209879659\\
94.60074676516172	0.2767879321847713\\
95.30592882970538	0.2259272407430356\\
96.01111089424904	0.17506401081563497\\
96.7162929587927	0.12419211773735199\\
97.42147502333636	0.07130485860434571\\
98.12665708788002	0.01791117488232151\\
98.83183915242368	-0.03552087595689079\\
99.53702121696735	-0.08898268386200964\\
100.24220328151101	-0.14272426781713723\\
100.94738534605467	-0.19859893787368138\\
101.65256741059832	-0.2544945176270877\\
102.35774947514199	-0.31040240386254636\\
103.06293153968565	-0.36631399328622133\\
103.76811360422931	-0.42222068244324146\\
104.47329566877298	-0.4801234604026578\\
105.17847773331664	-0.5382996497836015\\
105.88365979786029	-0.5964609357101143\\
106.58884186240395	-0.6545987205724941\\
107.29402392694762	-0.7127044062522161\\
107.99920599149128	-0.770776277262476\\
108.70438805603494	-0.8309377921758035\\
109.4095701205786	-0.8910433544071996\\
110.11475218512226	-0.9511160179295196\\
110.81993424966592	-1.0111788380023463\\
111.52511631420958	-1.0712548714243302\\
112.23029837875325	-1.131367176786846\\
112.93548044329691	-1.192309859633371\\
113.64066250784057	-1.2546777586883808\\
114.34584457238422	-1.3171645794762419\\
115.05102663692789	-1.3797933990254267\\
115.75620870147155	-1.442587297720234\\
116.46139076601521	-1.505569359598285\\
117.16657283055888	-1.568762672654725\\
117.87175489510254	-1.6321903291539315\\
118.57693695964619	-1.6973586957504445\\
119.28211902418984	-1.763132675944673\\
119.98730108873349	-1.8290339451043494\\
120.69248315327714	-1.8950744023892903\\
121.39766521782079	-1.9612659498458493\\
122.10284728236444	-2.027620492581594\\
122.80802934690809	-2.094149938943054\\
123.51321141145173	-2.1608662006968142\\
124.21839347599538	-2.2277811932140943\\
124.92357554053903	-2.2966828575664304\\
125.62875760508268	-2.3659514768796406\\
126.33393966962632	-2.4354657501948793\\
127.03912173416997	-2.505237620353124\\
127.74430379871362	-2.5752790350914583\\
128.44948586325728	-2.6456019472670693\\
129.15466792780092	-2.7161925112131686\\
129.85984999234455	-2.786987207669495\\
130.56503205688836	-2.857991496150296\\
};

\addplot [
color=black,
dashdotted
]
table[row sep=crcr]{
60.752007667065975	1.1866847391226765\\
61.33932760442793	1.1981936540788345\\
61.92664754178988	1.2082413721701606\\
62.51396747915184	1.216947698324906\\
63.10128741651379	1.2237496488510287\\
63.688607353875746	1.2286757402181767\\
64.2759272912377	1.232502825773299\\
64.86324722859966	1.2346349366517468\\
65.45056716596162	1.2348454872360892\\
66.03788710332356	1.2342304913970241\\
66.62520704068551	1.2313381607256104\\
67.21252697804746	1.2273148548354549\\
67.79984691540942	1.2218737241501831\\
68.38716685277137	1.2145294377296934\\
68.97448679013333	1.206365234176225\\
69.56180672749528	1.1958547916569973\\
70.14912666485723	1.1850538745769905\\
70.73644660221919	1.1719035904353203\\
71.32376653958114	1.1586117829389755\\
71.9110864769431	1.1431583164312678\\
72.49840641430505	1.1274155328606619\\
73.085726351667	1.110005705821979\\
73.67304628902896	1.0918568996770308\\
74.26036622639091	1.0728526282805677\\
74.84768616375287	1.0523477889545854\\
75.43500610111482	1.0320124156945754\\
76.02232603847678	1.0093202283202085\\
76.60964597583873	0.9866813059989437\\
77.19696591320069	0.963226360464403\\
77.78428585056264	0.9383447791175352\\
78.3716057879246	0.913637666988229\\
78.95892572528655	0.8874737011985289\\
79.5462456626485	0.8605140631321015\\
80.13356560001046	0.8336503811309256\\
80.72088553737241	0.805098860723951\\
81.30820547473436	0.7759452020651268\\
81.89552541209632	0.7468863670169107\\
82.48284534945827	0.7164922670120338\\
83.07016528682023	0.6852012136144721\\
83.65748522418218	0.6540046835857998\\
84.24480516154414	0.6223580578833615\\
84.83212509890609	0.5889937563947644\\
85.41944503626804	0.5557245090446574\\
86.00676497363	0.5225561029639396\\
86.59408491099195	0.4880796688222002\\
87.1814048483539	0.4528101977937899\\
87.76872478571586	0.4176429267832394\\
88.35604472307782	0.38258363803546025\\
88.94336466043977	0.3460663112754723\\
89.53068459780172	0.3089594526276747\\
90.11800453516368	0.2719356175547323\\
90.70532447252563	0.23499003537897242\\
91.29264440988757	0.19715118752822075\\
91.87996434724953	0.15815592345333224\\
92.46728428461148	0.11921026291219956\\
93.05460422197343	0.08030943329929192\\
93.64192415933539	0.04144866216039268\\
94.22924409669734	9.313460079644929E-4\\
94.8165640340593	-0.039994849102523176\\
95.40388397142125	-0.08090881277039469\\
95.9912039087832	-0.12181532020288896\\
96.57852384614516	-0.1627191466036787\\
97.16584378350711	-0.20506011273588978\\
97.75316372086907	-0.24803511310204399\\
98.34048365823102	-0.2910214673328265\\
98.92780359559298	-0.33398276143465\\
99.51512353295493	-0.3769217423870534\\
100.10244347031689	-0.41997777719886464\\
100.68976340767884	-0.46487473118296013\\
101.2770833450408	-0.509778998805504\\
101.86440328240275	-0.554696507955613\\
102.4517232197647	-0.5996331867364656\\
103.03904315712666	-0.6445949635019349\\
103.62636309448861	-0.6895877668933791\\
104.21368303185056	-0.7361506590800485\\
104.80100296921252	-0.7831444250264891\\
105.38832290657447	-0.830198040945497\\
105.97564284393643	-0.8773174412238843\\
106.56296278129838	-0.924508560800626\\
107.15028271866034	-0.9717773352090573\\
107.73760265602229	-1.0191267135532027\\
108.32492259338424	-1.0679418065071717\\
108.9122425307462	-1.1172103250004823\\
109.49956246810815	-1.1665267756058146\\
110.0868824054701	-1.2158968804764416\\
110.67420234283207	-1.265326362408181\\
111.26152228019403	-1.3148209448838157\\
111.848842217556	-1.3643863521179291\\
112.43616215491797	-1.414028309102241\\
113.02348209227993	-1.46519427390465\\
113.6108020296419	-1.5167744949688324\\
114.19812196700387	-1.5684578468038717\\
114.78544190436583	-1.6202500631213355\\
115.3727618417278	-1.6721568787484047\\
115.96008177908976	-1.724184029680896\\
116.54740171645173	-1.7763372531370831\\
117.1347216538137	-1.8286222876123728\\
117.72204159117567	-1.8809947130232691\\
118.30936152853762	-1.9345946927149338\\
118.89668146589975	-1.9887425540506356\\
};

\addplot [
color=black,
dashed
]
table[row sep=crcr]{
60.752007667065975	0.1832654082174395\\
61.22827353557172	0.19400979754170689\\
61.704539404077465	0.2043528789628867\\
62.18080527258321	0.21332537601479581\\
62.657071141088956	0.22151485907738958\\
63.1333370095947	0.22924251854811095\\
63.609602878100446	0.23549080557359758\\
64.0858687466062	0.24185253520419414\\
64.56213461511193	0.2462340045521152\\
65.03840048361768	0.25087673613963385\\
65.51466635212343	0.2537751467499386\\
65.99093222062918	0.25683248550062543\\
66.46719808913491	0.25816610885273683\\
66.94346395764066	0.2597816631850413\\
67.41972982614641	0.2594721057177324\\
67.89599569465216	0.259512252286899\\
68.37226156315789	0.25777169044026615\\
68.84852743166364	0.25603591720245444\\
69.32479330016939	0.25315675423244277\\
69.80105916867514	0.24957389405781902\\
70.27732503718087	0.24573252613825872\\
70.75359090568662	0.24023474710709872\\
71.22985677419237	0.23489509892304428\\
71.70612264269812	0.22814738591380254\\
72.18238851120385	0.22092569458405686\\
72.6586543797096	0.21394659787576933\\
73.13492024821535	0.2050505442743486\\
73.61118611672109	0.1964039085823862\\
74.08745198522683	0.1875385331266396\\
74.56371785373258	0.1771538408169232\\
75.03998372223833	0.16696770496919616\\
75.51624959074407	0.1564757284962475\\
75.99251545924982	0.14449228661628563\\
76.46878132775556	0.13265709521304417\\
76.94504719626131	0.12081819664898226\\
77.42131306476705	0.10713089389772866\\
77.8975789332728	0.09354209077059088\\
78.37384480177855	0.08003966672042602\\
78.8501106702843	0.06516467254578089\\
79.32637653879003	0.04972269930954985\\
79.80264240729578	0.03431790870431967\\
80.27890827580153	0.01871863952598743\\
80.75517414430728	0.0013624075816327946\\
81.23144001281301	-0.015931173782876302\\
81.70770588131876	-0.03315974033081883\\
82.18397174982451	-0.05084274327081916\\
82.66023761833026	-0.06991246996558545\\
83.13650348683599	-0.08892181511254343\\
83.61276935534174	-0.10786841491201216\\
84.08903522384749	-0.12701373795663748\\
84.56530109235324	-0.1477569608232794\\
85.04156696085897	-0.1684415191543807\\
85.51783282936472	-0.18906504965286627\\
85.99409869787047	-0.20962518896464366\\
86.47036456637622	-0.23141418673132594\\
86.94663043488195	-0.25372675807772804\\
87.4228963033877	-0.275979467663892\\
87.89916217189345	-0.2981699526872216\\
88.3754280403992	-0.32029585027229246\\
88.85169390890493	-0.34396072265618066\\
89.32795977741068	-0.3677827361878524\\
89.80422564591643	-0.39152962532601326\\
90.28049151442218	-0.4152065697270368\\
90.75675738292792	-0.4388192764192329\\
91.23302325143366	-0.463529528868439\\
91.70928911993941	-0.48881473564318173\\
92.18555498844516	-0.5140623414634572\\
92.6618208569509	-0.5392780544774027\\
93.13808672545665	-0.5644675828867028\\
93.6143525939624	-0.5896366349574836\\
94.09061846246814	-0.6164185694213635\\
94.56688433097388	-0.6432970583947611\\
95.04315019947963	-0.6701811613925993\\
95.51941606798538	-0.6970765882743136\\
95.99568193649111	-0.7239890490397194\\
96.47194780499686	-0.7509242538418032\\
96.94821367350261	-0.7790206998427313\\
97.42447954200836	-0.8076945390719923\\
97.90074541051409	-0.8364081572525295\\
98.37701127901984	-0.865121255963824\\
98.85327714752559	-0.8938314174673528\\
99.32954301603134	-0.922542874272681\\
99.80580888453707	-0.9512598590236124\\
100.28207475304282	-0.9812100562277888\\
100.75834062154857	-1.0115707606268451\\
101.23460649005432	-1.0419575581763203\\
101.71087235856005	-1.0723746837278554\\
102.1871382270658	-1.1028263723485765\\
102.66340409557154	-1.1333168593336347\\
103.13966996407727	-1.1638503802188782\\
103.615935832583	-1.1945246345872051\\
104.09220170108874	-1.2267130722696247\\
104.56846756959447	-1.2589645700227385\\
105.04473343810021	-1.2912833662690801\\
105.52099930660594	-1.3236736997744127\\
105.99726517511168	-1.356139809663083\\
106.47353104361741	-1.3886835215260476\\
106.94979691212315	-1.421267412386565\\
107.42606278062888	-1.4538816855454544\\
107.90232864913455	-1.487168600661065\\
};

\addplot [
color=black,
densely dashdotted
]
table[row sep=crcr]{
60.75200766706598	-0.6612990515486649\\
61.123863316190715	-0.6500351492639227\\
61.495718965315454	-0.638909435554999\\
61.867574614440194	-0.6290596026579984\\
62.239430263564934	-0.6194547441038035\\
62.611285912689674	-0.6108432155643468\\
62.983141561814406	-0.6027486758370149\\
63.354997210939146	-0.5951935285087275\\
63.726852860063886	-0.5885967203894905\\
64.09870850918863	-0.5819098720017407\\
64.47056415831337	-0.5767961568470462\\
64.8424198074381	-0.5714329070494045\\
65.21427545656285	-0.5671391838212464\\
65.58613110568758	-0.5632635107560956\\
65.95798675481231	-0.5594388436054772\\
66.32984240393705	-0.5570457989055926\\
66.70169805306179	-0.5544345771282957\\
67.07355370218653	-0.5525696315452451\\
67.44540935131127	-0.5514417491042497\\
67.81726500043601	-0.5501085766935839\\
68.18912064956075	-0.5499580866057138\\
68.56097629868549	-0.5501062279122861\\
68.93283194781023	-0.5500616243535077\\
69.30468759693497	-0.5513680017168673\\
69.6765432460597	-0.552799949401757\\
70.04839889518443	-0.5540513553603198\\
70.42025454430917	-0.5565446887940025\\
70.79211019343391	-0.5592651464494809\\
71.16396584255865	-0.5618169236038898\\
71.5358214916834	-0.5652149771289814\\
71.90767714080813	-0.5692255691681086\\
72.27953278993287	-0.5730790000815907\\
72.65138843905761	-0.5770872119081061\\
73.02324408818235	-0.582367118924603\\
73.39509973730709	-0.5874501344683841\\
73.76695538643182	-0.5923430434961658\\
74.13881103555656	-0.5980771645559062\\
74.5106666846813	-0.6043417216830446\\
74.88252233380604	-0.6104478335484887\\
75.25437798293078	-0.6164030739272711\\
75.62623363205552	-0.6235655522052437\\
75.99808928118026	-0.6309390461755735\\
76.369944930305	-0.6381929885980802\\
76.74180057942974	-0.6453349533709145\\
77.11365622855448	-0.6536477573007632\\
77.48551187767922	-0.6622511610723051\\
77.85736752680394	-0.6707735661778801\\
78.22922317592868	-0.679222546722095\\
78.60107882505342	-0.6883871009958238\\
78.97293447417816	-0.6983372864871503\\
79.3447901233029	-0.708244685878428\\
79.71664577242764	-0.7181168735926015\\
80.08850142155238	-0.7279614241117724\\
80.46035707067712	-0.7392237968994675\\
80.83221271980186	-0.750602647860513\\
81.2040683689266	-0.7619054171666958\\
81.57592401805132	-0.7731341895778883\\
81.94777966717606	-0.784307169729298\\
82.3196353163008	-0.7969476757218641\\
82.69149096542554	-0.8095314798376375\\
83.06334661455028	-0.8220619360454953\\
83.43520226367502	-0.8345423983425868\\
83.80705791279976	-0.8469762207556565\\
84.1789135619245	-0.8605023766206583\\
84.55076921104924	-0.8743705321672398\\
84.92262486017398	-0.8882090034101133\\
85.29448050929872	-0.9020211447817027\\
85.66633615842345	-0.9158103107559894\\
86.03819180754819	-0.9297053352269659\\
86.41004745667293	-0.944933391387346\\
86.78190310579767	-0.9601550885654941\\
87.1537587549224	-0.9753737817777773\\
87.52561440404715	-0.9905928260990331\\
87.89747005317189	-1.0058155766649248\\
88.26932570229663	-1.0210453886743338\\
88.64118135142137	-1.0376447552661527\\
89.0130370005461	-1.054287975910509\\
89.38489264967083	-1.0709134458795426\\
89.75674829879557	-1.08752338590787\\
90.12860394792031	-1.1041200167706569\\
90.50045959704505	-1.1207055592853934\\
90.87231524616979	-1.1376952629625807\\
91.24417089529453	-1.1556618589234107\\
91.61602654441927	-1.1736299022832606\\
91.98788219354401	-1.1916016145383894\\
92.35973784266875	-1.2095792172443078\\
92.73159349179349	-1.227564932018018\\
93.10344914091823	-1.245560980540252\\
93.47530479004296	-1.263604647520889\\
93.8471604391677	-1.2829815815971166\\
94.21901608829243	-1.302381048524879\\
94.59087173741716	-1.3218052708566068\\
94.9627273865419	-1.3412564712309627\\
95.33458303566663	-1.3607368723756839\\
95.70643868479135	-1.3802486971104804\\
96.07829433391608	-1.3997941683499553\\
96.4501499830408	-1.4194228759660075\\
96.82200563216553	-1.440307760283168\\
97.19386128129027	-1.461203465745319\\
97.56571693041487	-1.4821129016765828\\
};
\end{axis}
\end{tikzpicture}%
