%Drag_and_Thrust_curves_CONTINOUS_OEI
\begin{tikzpicture}

\begin{axis}[
width=\figurewidth,
height=\figureheight,
scaled ticks=false, tick label style={/pgf/number format/fixed},
xmin=60.75200185424198,
xmax=146.32640319914915,
xlabel={Speed ((m/s))},
xmajorgrids,
ymin=10148.972130677008,
ymax=27488.63660457045,
ylabel={Forces ((N))},
ymajorgrids,
legend style={at={(1.03,0.5)},anchor=west,draw=black,fill=white,legend cell align=left}
]

\addplot [
color=black,
solid
]
table[row sep=crcr]{
60.75200185424198	16714.54285990715\\
61.61638974661478	16495.950668838723\\
62.480777638987576	16293.301571823516\\
63.34516553136037	16105.82726465711\\
64.20955342373317	15932.81080710959\\
65.07394131610597	15773.582556707883\\
65.93832920847878	15627.516473173702\\
66.80271710085158	15494.026755400258\\
67.66710499322438	15372.56477720462\\
68.53149288559719	15262.616291900493\\
69.39588077796999	15163.698879073572\\
70.2602686703428	15075.359609869844\\
71.1246565627156	14997.172909682768\\
71.9890444550884	14928.738599392924\\
72.85343234746121	14869.680098314011\\
73.71782023983401	14819.642773766433\\
74.58220813220682	14778.292423763125\\
75.44659602457962	14745.313880677977\\
76.31098391695242	14720.40972499646\\
77.17537180932523	14703.299099340717\\
78.03975970169803	14693.71661393364\\
78.90414759407084	14691.411335532632\\
79.76853548644364	14696.145852636708\\
80.63292337881644	14707.695410461305\\
81.49731127118925	14725.847109792527\\
82.36169916356205	14750.399164386083\\
83.22608705593485	14781.160212072033\\
84.09047494830766	14817.948675171821\\
84.95486284068046	14860.592166234357\\
85.81925073305327	14908.92693545806\\
86.68363862542607	14962.797356490106\\
87.54802651779887	15022.055447586743\\
88.41241441017168	15086.56042538265\\
89.27680230254448	15156.178288755775\\
90.14119019491729	15230.781430490202\\
91.00557808729009	15310.248274634872\\
91.8699659796629	15394.4629376332\\
92.7343538720357	15483.314911459398\\
93.5987417644085	15576.698767143176\\
94.4631296567813	15674.513877197236\\
95.32751754915411	15776.664155582586\\
96.19190544152691	15883.057813956637\\
97.05629333389972	15993.6071330492\\
97.92068122627252	16108.228248102747\\
98.78506911864532	16226.840947396853\\
99.64945701101813	16349.36848295275\\
100.51384490339093	16475.737392583706\\
101.37823279576374	16605.877332520635\\
102.24262068813654	16739.720919900756\\
103.10700858050934	16877.203584460585\\
103.97139647288215	17018.263428823655\\
104.83578436525495	17162.841096818443\\
105.70017225762776	17310.87964930324\\
106.56456015000056	17462.32444701291\\
107.42894804237336	17617.12303997729\\
108.29333593474617	17775.225063093392\\
109.15772382711897	17936.582137462996\\
110.02211171949178	18101.147777134818\\
110.88649961186458	18268.877300915447\\
111.75088750423738	18439.727748936708\\
112.61527539661019	18613.65780368842\\
113.47966328898299	18790.627715245562\\
114.3440511813558	18970.599230437118\\
115.2084390737286	19153.535525720894\\
116.0728269661014	19339.401143544386\\
116.9372148584742	19528.161931986273\\
117.80160275084701	19719.784987486735\\
118.66599064321981	19914.23860048717\\
119.53037853559262	20111.492203811693\\
120.39476642796542	20311.516323633474\\
121.25915432033823	20514.282532879\\
122.12354221271103	20719.763406932765\\
122.98793010508383	20927.932481513504\\
123.85231799745664	21138.764212601072\\
124.71670588982944	21352.233938300786\\
125.58109378220225	21568.317842538774\\
126.44548167457505	21786.99292048872\\
127.30986956694785	22008.23694563604\\
128.17425745932064	22232.02843839168\\
129.03864535169345	22458.346636172744\\
129.90303324406625	22687.171464871808\\
130.76742113643905	22918.48351164232\\
131.63180902881186	23152.263998930575\\
132.49619692118466	23388.494759689816\\
133.36058481355747	23627.158213715207\\
134.22497270593027	23868.237345042133\\
135.08936059830307	24111.715680353616\\
135.95374849067588	24357.57726834557\\
136.81813638304868	24605.806660001857\\
137.68252427542149	24856.388889733327\\
138.5469121677943	25109.309457338044\\
139.4113000601671	25364.554310742027\\
140.2756879525399	25622.10982948215\\
141.1400758449127	25881.962808894958\\
142.0044637372855	26144.10044497712\\
142.8688516296583	26408.510319885125\\
143.7332395220311	26675.180388043518\\
144.59762741440392	26944.098962832766\\
145.46201530677672	27215.254703829105\\
146.32640319914915	27488.63660457045\\
};

\addplot [
color=black,
densely dashed
]
table[row sep=crcr]{
65.36787710872356	16714.542859907146\\
66.16042485705306	16527.247251670233\\
66.95297260538256	16351.61362243073\\
67.74552035371205	16187.159239831106\\
68.53806810204155	16033.429119831646\\
69.33061585037105	15889.994134457556\\
70.12316359870054	15756.44926839859\\
70.91571134703004	15632.412011227636\\
71.70825909535954	15517.520873314237\\
72.50080684368903	15411.434014675231\\
73.29335459201853	15313.827977046176\\
74.08590234034803	15224.396510387538\\
74.87845008867752	15142.849485872046\\
75.67099783700702	15068.911888145547\\
76.46354558533652	15002.322880322254\\
77.25609333366602	14942.834935776174\\
78.04864108199551	14890.213031330213\\
78.84118883032501	14844.233896930511\\
79.6337365786545	14804.68531733121\\
80.426284326984	14771.36548170997\\
81.2188320753135	14744.082377490817\\
82.011379823643	14722.653224973365\\
82.8039275719725	14706.903949658907\\
83.59647532030199	14696.668689427941\\
84.38902306863149	14691.789333963026\\
85.18157081696098	14692.115094028199\\
85.97411856529048	14697.502098413226\\
86.76666631361998	14707.813016530516\\
87.55921406194948	14722.916704815576\\
88.35176181027897	14742.687875230551\\
89.14430955860847	14767.006784305773\\
89.93685730693797	14795.758941277943\\
90.72940505526746	14828.834833996216\\
91.52195280359696	14866.129671370749\\
92.31450055192646	14907.543141232385\\
93.10704830025595	14952.979182558569\\
93.89959604858545	15002.34577109951\\
94.69214379691495	15055.554717511197\\
95.48469154524444	15112.52147716823\\
96.27723929357394	15173.164970890464\\
97.06978704190344	15237.407415873553\\
97.86233479023294	15305.174166165009\\
98.65488253856243	15376.393562074742\\
99.44743028689193	15450.996787952812\\
100.23997803522143	15528.917737807176\\
101.03252578355092	15610.092888271427\\
101.82507353188042	15694.461178466649\\
102.61762128020992	15781.963896333067\\
103.41016902853941	15872.54457103634\\
104.20271677686891	15966.148871080317\\
104.99526452519841	16062.724507782943\\
105.7878122735279	16162.221143795083\\
106.5803600218574	16264.590306363456\\
107.3729077701869	16369.78530505845\\
108.1654555185164	16477.761153706222\\
108.95800326684589	16588.47449628118\\
109.75055101517539	16701.883536531022\\
110.54309876350489	16817.947971120866\\
111.33564651183438	16936.628926096953\\
112.12819426016388	17057.888896482727\\
112.92074200849338	17181.691688832158\\
113.71328975682287	17308.002366575878\\
114.50583750515237	17436.787198006175\\
115.29838525348187	17568.013606756067\\
116.09093300181136	17701.650124636857\\
116.88348075014086	17837.666346706552\\
117.67602849847036	17976.03288844946\\
118.46857624679986	18116.721344954243\\
119.26112399512935	18259.70425198465\\
120.05367174345885	18404.9550488432\\
120.84621949178835	18552.44804293416\\
121.63876724011784	18702.158375937433\\
122.43131498844734	18854.06199151027\\
123.22386273677684	19008.135604438397\\
124.01641048510633	19164.3566711628\\
124.80895823343583	19322.703361612344\\
125.60150598176533	19483.154532276636\\
126.39405373009483	19645.68970045706\\
127.18660147842432	19810.289019637552\\
127.97914922675382	19976.93325591953\\
128.7716969750833	20145.603765469143\\
129.5642447234128	20316.28247292706\\
130.3567924717423	20488.951850734444\\
131.1493402200718	20663.594899330685\\
131.9418879684013	20840.195128181414\\
132.7344357167308	21018.736537596935\\
133.52698346506028	21199.203601303943\\
134.31953121338978	21381.58124973489\\
135.11207896171928	21565.8548540015\\
135.90462671004877	21752.010210520595\\
136.69717445837827	21940.033526262072\\
137.48972220670777	22129.91140459036\\
138.28226995503726	22321.630831672366\\
139.07481770336676	22515.179163425993\\
139.86736545169626	22710.54411298491\\
140.65991320002576	22907.713738656297\\
141.45246094835525	23106.67643234963\\
142.24500869668475	23307.4209084554\\
143.03755644501425	23509.93619315409\\
143.83010419334371	23714.211614136304\\
};

\addplot [
color=black,
dashdotted
]
table[row sep=crcr]{
70.51572499185646	16714.542859907142\\
71.23062591824181	16557.11836230714\\
71.94552684462717	16407.904561929714\\
72.66042777101252	16266.615108415832\\
73.37532869739788	16132.977532768147\\
74.09022962378323	16006.732447601453\\
74.80513055016858	15887.632800637137\\
75.52003147655394	15775.44317742834\\
76.2349324029393	15669.93914964019\\
76.94983332932465	15570.906665515111\\
77.66473425571	15478.141479431166\\
78.37963518209536	15391.448617713924\\
79.09453610848071	15310.641878092532\\
79.80943703486606	15235.54336039979\\
80.52433796125142	15165.983026307109\\
81.23923888763677	15101.798286059446\\
81.95413981402213	15042.833610334228\\
82.66904074040748	14988.940165493716\\
83.38394166679284	14939.975470633335\\
84.09884259317819	14895.80307494989\\
84.81374351956354	14856.292254065484\\
85.5286444459489	14821.317724044697\\
86.24354537233425	14790.75937193683\\
86.95844629871961	14764.502001760748\\
87.67334722510496	14742.435094929122\\
88.38824815149032	14724.45258418156\\
89.10314907787567	14710.452640163114\\
89.81805000426102	14700.337469846074\\
90.53295093064638	14694.013126049991\\
91.24785185703173	14691.389327366947\\
91.96275278341709	14692.379287847565\\
92.67765370980244	14696.899555847753\\
93.3925546361878	14704.869861477348\\
94.10745556257315	14716.212972129873\\
94.8223564889585	14730.854555607895\\
95.53725741534386	14748.72305039097\\
96.25215834172921	14769.749542623333\\
96.96705926811457	14793.867649426558\\
97.68196019449992	14821.013408168077\\
98.39686112088528	14851.12517134085\\
99.11176204727063	14884.143506731349\\
99.82666297365598	14920.01110257418\\
100.54156390004134	14958.672677410555\\
101.2564648264267	15000.074894385956\\
101.97136575281205	15044.166279738803\\
102.6862666791974	15090.897145247687\\
103.40116760558276	15140.219514418748\\
104.11606853196811	15192.087052208673\\
104.83096945835347	15246.454998090976\\
105.54587038473882	15303.280102284989\\
106.26077131112417	15362.520564978013\\
106.97567223750953	15424.135978381093\\
107.69057316389488	15488.08727146839\\
108.40547409028024	15554.336657259117\\
109.12037501666559	15622.847582509188\\
109.83527594305095	15693.584679687472\\
110.5501768694363	15766.51372111894\\
111.26507779582165	15841.601575183588\\
111.97997872220701	15918.81616446651\\
112.69487964859236	15998.126425760478\\
113.40978057497772	16079.502271827763\\
114.12468150136307	16162.914554833505\\
114.83958242774843	16248.33503136745\\
115.55448335413378	16335.73632897584\\
116.26938428051913	16425.09191412929\\
116.98428520690449	16516.376061556766\\
117.69918613328984	16609.563824879395\\
118.4140870596752	16704.631008481538\\
119.12898798606055	16801.55414056001\\
119.8438889124459	16900.310447295204\\
120.55878983883126	17000.877828091223\\
121.27369076521661	17103.234831834674\\
121.98859169160197	17207.360634124507\\
122.70349261798732	17313.23501542781\\
123.41839354437268	17420.83834011875\\
124.13329447075803	17530.15153636007\\
124.84819539714339	17641.15607678872\\
125.56309632352874	17753.83395996902\\
126.2779972499141	17868.167692578743\\
126.99289817629945	17984.140272295208\\
127.7077991026848	18101.73517135006\\
128.42270002907017	18220.936320723158\\
129.13760095545553	18341.7280949472\\
129.85250188184088	18464.09529749639\\
130.56740280822623	18588.023146733532\\
131.2823037346116	18713.49726239138\\
131.99720466099694	18840.503652565105\\
132.7121055873823	18969.028701193864\\
133.42700651376765	19099.05915601074\\
134.141907440153	19230.582116940896\\
134.85680836653836	19363.58502492919\\
135.5717092929237	19498.05565117906\\
136.28661021930907	19633.982086785516\\
137.00151114569442	19771.35273274583\\
137.71641207207978	19910.156290332234\\
138.43131299846513	20050.38175181181\\
139.14621392485049	20192.018391499187\\
139.86111485123584	20335.055757128623\\
140.5760157776212	20479.483661532417\\
141.29091670400675	20625.29217461335\\
};

\addplot [
color=black,
dashed
]
table[row sep=crcr]{
76.27942542816477	16714.542859907146\\
76.91000178248115	16585.5523260024\\
77.54057813679752	16462.056811938088\\
78.1711544911139	16343.898931040161\\
78.80173084543027	16230.92756842665\\
79.43230719974665	16122.99758346667\\
80.06288355406302	16019.969528578558\\
80.6934599083794	15921.709383349465\\
81.32403626269577	15828.08830302995\\
81.95461261701215	15738.982380522026\\
82.58518897132852	15654.27242103966\\
83.2157653256449	15573.843728676424\\
83.84634167996127	15497.585904166644\\
84.47691803427765	15425.3926531741\\
85.10749438859402	15357.161604486595\\
85.7380707429104	15292.794137535799\\
86.36864709722677	15232.195218699571\\
86.99922345154314	15175.273245879493\\
87.62979980585952	15121.939900878864\\
88.2603761601759	15072.110009137008\\
88.89095251449227	15025.701406403801\\
89.52152886880864	14982.634811964863\\
90.15210522312502	14942.833708051969\\
90.7826815774414	14906.224225096386\\
91.41325793175777	14872.735032503613\\
92.04383428607414	14842.297234648153\\
92.67441064039052	14814.844271804954\\
93.3049869947069	14790.311825751713\\
93.93556334902327	14768.63772979187\\
94.56613970333964	14749.761882963394\\
95.19671605765602	14733.626168212268\\
95.8272924119724	14720.174374322565\\
96.45786876628877	14709.352121407399\\
97.08844512060514	14701.106789776302\\
97.71902147492152	14695.387452005269\\
98.3495978292379	14692.144808045756\\
98.98017418355427	14691.331123218228\\
99.61075053787064	14692.900168944645\\
100.24132689218702	14696.807166082479\\
100.8719032465034	14703.008730730595\\
101.50247960081977	14711.462822384496\\
102.13305595513614	14722.12869432525\\
102.76363230945252	14734.966846132842\\
103.3942086637689	14749.938978220549\\
104.02478501808527	14767.00794829268\\
104.65536137240164	14786.13772963318\\
105.28593772671802	14807.293371137772\\
105.91651408103439	14830.4409590067\\
106.54709043535077	14855.547580019776\\
107.17766678966714	14882.581286319397\\
107.80824314398352	14911.511061631307\\
108.43881949829989	14942.306788856291\\
109.06939585261627	14974.939218969588\\
109.69997220693264	15009.379941168158\\
110.33054856124902	15045.601354208808\\
110.96112491556539	15083.576638883269\\
111.59170126988177	15123.279731578874\\
112.22227762419814	15164.685298876304\\
112.85285397851452	15207.76871313806\\
113.48343033283089	15252.506029043843\\
114.11400668714727	15298.873961030962\\
114.74458304146364	15346.849861600298\\
115.37515939578002	15396.411700449828\\
116.00573575009639	15447.538044400066\\
116.63631210441277	15500.208038077086\\
117.26688845872914	15554.401385320713\\
117.89746481304552	15610.098331286898\\
118.52804116736189	15667.279645214854\\
119.15861752167827	15725.926603830858\\
119.78919387599464	15786.020975361911\\
120.41977023031102	15847.54500413395\\
121.05034658462739	15910.48139573014\\
121.68092293894377	15974.813302686149\\
122.31149929326014	16040.524310700353\\
122.94207564757652	16107.598425337877\\
123.57265200189289	16176.020059208297\\
124.20322835620927	16245.774019597922\\
124.83380471052564	16316.845496538263\\
125.46438106484202	16389.2200512932\\
126.09495741915839	16462.883605248175\\
126.72553377347477	16537.822429185402\\
127.35611012779114	16614.023132929873\\
127.98668648210752	16691.472655351583\\
128.6172628364239	16770.158254709997\\
129.24783919074028	16850.067499327488\\
129.87841554505667	16931.188258578957\\
130.50899189937306	17013.508694185493\\
131.13956825368945	17097.017251800306\\
131.77014460800584	17181.702652875905\\
132.40072096232223	17267.553886801747\\
133.03129731663861	17354.560203302106\\
133.661873670955	17442.711105084436\\
134.2924500252714	17531.996340728794\\
134.92302637958778	17622.405897809345\\
135.55360273390417	17713.929996239312\\
136.18417908822056	17806.559081831147\\
136.81475544253695	17900.28382006399\\
137.44533179685334	17995.0950900508\\
138.07590815116973	18090.98397869794\\
138.70648450548597	18187.941775050138\\
};

\addplot [
color=black,
densely dashdotted
]
table[row sep=crcr]{
82.75992854189037	16714.542859907146\\
83.29845682694415	16612.542029753175\\
83.83698511199792	16513.967097973433\\
84.37551339705169	16418.740302133945\\
84.91404168210546	16326.786337818714\\
85.45256996715923	16238.032265980244\\
85.991098252213	16152.407424338791\\
86.52962653726678	16069.843342629523\\
87.06815482232055	15990.273661507688\\
87.60668310737432	15913.634054932509\\
88.1452113924281	15839.862155860286\\
88.68373967748187	15768.897485086447\\
89.22226796253564	15700.68138308493\\
89.76079624758941	15635.156944701477\\
90.29932453264318	15572.268956565169\\
90.83785281769696	15511.96383708947\\
91.37638110275073	15454.18957894128\\
91.9149093878045	15398.89569386253\\
92.45343767285827	15346.033159734983\\
92.99196595791204	15295.554369784733\\
93.53049424296582	15247.413083828065\\
94.06902252801959	15201.564381465407\\
94.60755081307336	15157.964617135005\\
95.14607909812713	15116.57137694232\\
95.6846073831809	15077.343437185378\\
96.22313566823468	15040.240724500423\\
96.76166395328845	15005.224277555853\\
97.30019223834222	14972.25621022619\\
97.83872052339599	14941.299676180959\\
98.37724880844976	14912.318834826774\\
98.91577709350354	14885.278818543824\\
99.45430537855731	14860.145701160836\\
99.99283366361108	14836.886467615352\\
100.53136194866485	14815.468984748532\\
101.06989023371862	14795.861973186404\\
101.6084185187724	14778.034980261536\\
102.14694680382617	14761.95835393136\\
102.68547508887994	14747.603217651465\\
103.22400337393371	14734.941446164128\\
103.76253165898748	14723.945642164123\\
104.30105994404126	14714.589113805707\\
104.83958822909503	14706.845853016344\\
105.3781165141488	14700.690514584127\\
105.91664479920257	14696.09839598769\\
106.45517308425634	14693.045417938512\\
106.99370136931012	14691.50810560705\\
107.53222965436389	14691.46357050536\\
108.07075793941766	14692.88949300009\\
108.60928622447143	14695.764105430932\\
109.1478145095252	14700.066175810674\\
109.68634279457898	14705.774992084065\\
110.22487107963275	14712.870346923706\\
110.76339936468652	14721.332523042125\\
111.30192764974029	14731.14227900013\\
111.84045593479406	14742.280835492327\\
112.37898421984784	14754.729862091595\\
112.91751250490161	14768.471464435024\\
113.45604078995538	14783.488171834577\\
113.99456907500915	14799.76292529655\\
114.53309736006292	14817.279065934337\\
115.0716256451167	14836.02032375996\\
115.61015393017047	14855.970806840196\\
116.14868221522424	14877.114990803839\\
116.68721050027801	14899.437708687135\\
117.22573878533179	14922.924141105043\\
117.76426707038556	14947.559806736364\\
118.30279535543933	14973.330553111404\\
118.8413236404931	15000.222547691135\\
119.37985192554687	15028.222269227488\\
119.91838021060065	15057.316499394572\\
120.45690849565442	15087.492314681218\\
120.99543678070819	15118.73707853556\\
121.53396506576196	15151.038433752736\\
122.07249335081573	15184.38429509714\\
122.6110216358695	15218.76284215098\\
123.14954992092328	15254.162512381308\\
123.68807820597705	15290.571994417842\\
124.22660649103082	15327.980221534375\\
124.7651347760846	15366.376365326687\\
125.30366306113837	15405.749829580238\\
125.84219134619214	15446.09024432118\\
126.38071963124591	15487.387460044449\\
126.91924791629968	15529.631542112886\\
127.45777620135345	15572.812765321683\\
127.99630448640723	15616.921608622588\\
128.534832771461	15661.94875000251\\
129.07336105651478	15707.88506151134\\
129.61188934156857	15754.721604434164\\
130.15041762662236	15802.449624602954\\
130.68894591167614	15851.060547843237\\
131.22747419672993	15900.545975551302\\
131.76600248178372	15950.897680397653\\
132.3045307668375	16002.107602152682\\
132.8430590518913	16054.167843630481\\
133.38158733694507	16107.070666747137\\
133.92011562199886	16160.808488689716\\
134.45864390705265	16215.37387819243\\
134.99717219210643	16270.759551916612\\
135.53570047716022	16326.958370931163\\
136.07422876221423	16383.963337290314\\
};

\addplot [
color=black,
densely dotted
]
table[row sep=crcr]{
60.75200185424198	23982.736768242652\\
61.61638974661478	23791.94286748051\\
62.480777638987576	23559.441975195226\\
63.34516553136037	23297.571366023865\\
64.20955342373317	23018.668314603492\\
65.07394131610597	22735.07009557115\\
65.93832920847878	22459.113983563915\\
66.80271710085158	22203.137253218843\\
67.66710499322438	21979.477179172995\\
68.53149288559719	21800.471036063434\\
69.39588077796999	21678.45609852722\\
70.2602686703428	21625.76964120141\\
71.1246565627156	21601.25531846906\\
71.9890444550884	21517.200600645327\\
72.85343234746121	21381.790468930252\\
73.71782023983401	21205.38759600755\\
74.58220813220682	20998.35465456093\\
75.44659602457962	20771.0543172741\\
76.31098391695242	20533.849256830785\\
77.17537180932523	20297.102145914687\\
78.03975970169803	20071.175657209522\\
78.90414759407084	19866.432463399\\
79.76853548644364	19693.235237166846\\
80.63292337881644	19561.94665119675\\
81.49731127118925	19482.92937817245\\
82.36169916356205	19462.225494364062\\
83.22608705593485	19419.157547711995\\
84.09047494830766	19326.53941594513\\
84.95486284068046	19193.329651935568\\
85.81925073305327	19028.486808555408\\
86.68363862542607	18840.96943867674\\
87.54802651779887	18639.736095171662\\
88.41241441017168	18433.745330912276\\
89.27680230254448	18231.95569877067\\
90.14119019491729	18043.325751618955\\
91.00557808729009	17876.81404232922\\
91.8699659796629	17741.379123773568\\
92.7343538720357	17645.97954882409\\
93.5987417644085	17599.573870352884\\
94.4631296567813	17584.424490346315\\
95.32751754915411	17526.535108724787\\
96.19190544152691	17428.03568181284\\
97.05629333389972	17296.879158015323\\
97.92068122627252	17141.018485737095\\
98.78506911864532	16968.406613383013\\
99.64945701101813	16786.996489357934\\
100.51384490339093	16604.741062066718\\
101.37823279576374	16429.593279914217\\
102.24262068813654	16269.50609130529\\
103.10700858050934	16132.432444644788\\
103.97139647288215	16026.325288337577\\
104.83578436525495	15959.137570788507\\
105.70017225762776	15938.242474629029\\
106.56456015000056	15910.165573104592\\
107.42894804237336	15841.066175044787\\
108.29333593474617	15738.164604659501\\
109.15772382711897	15608.681186158616\\
110.02211171949178	15459.836243752014\\
110.88649961186458	15298.85010164958\\
111.75088750423738	15132.943084061195\\
112.61527539661019	14969.335515196746\\
113.47966328898299	14815.247719266112\\
114.3440511813558	14677.90002047918\\
115.2084390737286	14564.512743045827\\
116.0728269661014	14482.306211175945\\
116.9372148584742	14438.50074907941\\
117.80160275084701	14427.37424306162\\
118.66599064321981	14386.977770036712\\
119.53037853559262	14313.524728330294\\
120.39476642796542	14213.303493222806\\
121.25915432033823	14092.602439994691\\
122.12354221271103	13957.709943926386\\
122.98793010508383	13814.914380298333\\
123.85231799745664	13670.504124390975\\
124.71670588982944	13530.76755148475\\
125.58109378220225	13401.9930368601\\
126.44548167457505	13290.468955797467\\
127.30986956694785	13202.48368357729\\
128.17425745932064	13144.325595480012\\
129.03864535169345	13122.283066786067\\
129.90303324406625	13104.638885349397\\
130.76742113643905	13052.321866656725\\
131.63180902881186	12971.209401411263\\
132.49619692118466	12867.260790921613\\
133.36058481355747	12746.435336496377\\
134.22497270593027	12614.69233944417\\
135.08936059830307	12477.991101073581\\
135.95374849067588	12342.290922693224\\
136.81813638304868	12213.551105611705\\
137.68252427542149	12097.730951137619\\
138.5469121677943	12000.789760579575\\
139.4113000601671	11928.686835246177\\
140.2756879525399	11887.38147644603\\
141.1400758449127	11877.000967584347\\
142.0044637372855	11844.177732491888\\
142.8688516296583	11779.354419130186\\
143.7332395220311	11688.449011208264\\
144.59762741440392	11577.379492435142\\
145.46201530677672	11452.063846519835\\
146.32640319914915	11318.42005717142\\
};

\addplot [
color=black,
dashdotdotted
]
table[row sep=crcr]{
65.36787710872356	22197.97197509196\\
66.16042485705306	22043.389288608956\\
66.95297260538256	21890.26206829241\\
67.74552035371205	21738.796918832617\\
68.53806810204155	21589.200444919865\\
69.33061585037105	21441.66746580412\\
70.12316359870054	21295.762619886485\\
70.91571134703004	21151.159827030257\\
71.70825909535954	21007.835202067316\\
72.50080684368903	20865.76485982954\\
73.29335459201853	20724.924915148833\\
74.08590234034803	20585.291482857072\\
74.87845008867752	20446.840677786142\\
75.67099783700702	20309.548614767933\\
76.46354558533652	20173.391408634325\\
77.25609333366602	20038.34517421721\\
78.04864108199551	19904.38602634847\\
78.84118883032501	19771.49007986\\
79.6337365786545	19639.63344958367\\
80.426284326984	19508.792250351376\\
81.2188320753135	19378.988681514707\\
82.011379823643	19250.379965530738\\
82.8039275719725	19122.951797143312\\
83.59647532030199	18996.6701101915\\
84.38902306863149	18871.50083851434\\
85.18157081696098	18747.409915950917\\
85.97411856529048	18624.36327634029\\
86.76666631361998	18502.32685352151\\
87.55921406194948	18381.26658133365\\
88.35176181027897	18261.148393615767\\
89.14430955860847	18141.93822420693\\
89.93685730693797	18023.6020069462\\
90.72940505526746	17906.105675672636\\
91.52195280359696	17789.415164225305\\
92.31450055192646	17673.496770102123\\
93.10704830025595	17558.462051255246\\
93.89959604858545	17444.402161489495\\
94.69214379691495	17331.292195670467\\
95.48469154524444	17219.107248663768\\
96.27723929357394	17107.822415335006\\
97.06978704190344	16997.412790549773\\
97.86233479023294	16887.853469173682\\
98.65488253856243	16779.119546072336\\
99.44743028689193	16671.18611611134\\
100.23997803522143	16564.028274156284\\
101.03252578355092	16457.621115072787\\
101.82507353188042	16351.939733726445\\
102.61762128020992	16246.95922498286\\
103.41016902853941	16142.654683707642\\
104.20271677686891	16038.993342525917\\
104.99526452519841	15935.925648712951\\
105.7878122735279	15833.476624755569\\
106.5803600218574	15731.68170303714\\
107.3729077701869	15630.57631594104\\
108.1654555185164	15530.195895850633\\
108.95800326684589	15430.57587514929\\
109.75055101517539	15331.75168622039\\
110.54309876350489	15233.75876144729\\
111.33564651183438	15136.632533213373\\
112.12819426016388	15040.408433901996\\
112.92074200849338	14945.12189589654\\
113.71328975682287	14850.808351580368\\
114.50583750515237	14757.50323333686\\
115.29838525348187	14665.241973549373\\
116.09093300181136	14574.160362844581\\
116.88348075014086	14484.33549289398\\
117.67602849847036	14395.673657942967\\
118.46857624679986	14308.080767593478\\
119.26112399512935	14221.462731447464\\
120.05367174345885	14135.72545910685\\
120.84621949178835	14050.774860173591\\
121.63876724011784	13966.516844249625\\
122.43131498844734	13882.85732093689\\
123.22386273677684	13799.702199837327\\
124.01641048510633	13716.95739055288\\
124.80895823343583	13634.528802685485\\
125.60150598176533	13552.322345837092\\
126.39405373009483	13470.243929609633\\
127.18660147842432	13388.251933180278\\
127.97914922675382	13306.768466783116\\
128.7716969750833	13225.867436961282\\
129.5642447234128	13145.500578338952\\
130.3567924717423	13065.619625540323\\
131.1493402200718	12986.176313189575\\
131.9418879684013	12907.1223759109\\
132.7344357167308	12828.409548328485\\
133.52698346506028	12749.989565066513\\
134.31953121338978	12671.814160749182\\
135.11207896171928	12593.835070000667\\
135.90462671004877	12516.004027445162\\
136.69717445837827	12438.272767706852\\
137.48972220670777	12360.593025409928\\
138.28226995503726	12282.916535178576\\
139.07481770336676	12205.342233345431\\
139.86736545169626	12128.090734599222\\
140.65991320002576	12051.126480810675\\
141.45246094835525	11974.408603893029\\
142.24500869668475	11897.896235759506\\
143.03755644501425	11821.548508323336\\
143.83010419334371	11745.32455349776\\
};

\addplot [
color=black,
densely dashdotdetted
]
table[row sep=crcr]{
70.51572499185646	20614.826815204015\\
71.23062591824181	20504.741989534108\\
71.94552684462717	20395.980092095913\\
72.66042777101252	20288.37465470135\\
73.37532869739788	20181.759209162326\\
74.09022962378323	20075.967287290765\\
74.80513055016858	19970.832420898572\\
75.52003147655394	19866.188141797666\\
76.2349324029393	19761.867981799955\\
76.94983332932465	19657.705472717364\\
77.66473425571	19553.534146361795\\
78.37963518209536	19449.187534545163\\
79.09453610848071	19344.499169079394\\
79.80943703486606	19239.477426038902\\
80.52433796125142	19134.570766204928\\
81.23923888763677	19029.847987060857\\
81.95413981402213	18925.34709873387\\
82.66904074040748	18821.106111351128\\
83.38394166679284	18717.163035039815\\
84.09884259317819	18613.555879927095\\
84.81374351956354	18510.322656140146\\
85.5286444459489	18407.50137380613\\
86.24354537233425	18305.13004305224\\
86.95844629871961	18203.246674005626\\
87.67334722510496	18101.889276793478\\
88.38824815149032	18001.095861542955\\
89.10314907787567	17900.904438381243\\
89.81805000426102	17801.353017435504\\
90.53295093064638	17702.479608832917\\
91.24785185703173	17604.20413626778\\
91.96275278341709	17506.347895157505\\
92.67765370980244	17408.930808509806\\
93.3925546361878	17311.97671341539\\
94.10745556257315	17215.50944696498\\
94.8223564889585	17119.55284624928\\
95.53725741534386	17024.130748359\\
96.25215834172921	16929.266990384847\\
96.96705926811457	16834.985409417543\\
97.68196019449992	16741.309842547787\\
98.39686112088528	16648.2641268663\\
99.11176204727063	16555.87209946378\\
99.82666297365598	16464.157597430953\\
100.54156390004134	16373.144457858518\\
101.2564648264267	16282.85651783719\\
101.97136575281205	16193.317614457681\\
102.6862666791974	16104.533180360042\\
103.40116760558276	16016.479551387198\\
104.11606853196811	15929.137186857726\\
104.83096945835347	15842.486546267408\\
105.54587038473882	15756.508089112027\\
106.26077131112417	15671.182274887353\\
106.97567223750953	15586.489563089168\\
107.69057316389488	15502.410413213254\\
108.40547409028024	15418.925284755385\\
109.12037501666559	15336.014637211345\\
109.83527594305095	15253.65893007691\\
110.5501768694363	15171.838622847861\\
111.26507779582165	15090.53417501997\\
111.97997872220701	15009.726046089025\\
112.69487964859236	14929.3946955508\\
113.40978057497772	14849.52308102914\\
114.12468150136307	14770.235167986653\\
114.83958242774843	14691.591350409695\\
115.55448335413378	14613.567379673772\\
116.26938428051913	14536.139007154383\\
116.98428520690449	14459.28198422703\\
117.69918613328984	14382.972062267221\\
118.4140870596752	14307.184992650456\\
119.12898798606055	14231.896526752238\\
119.8438889124459	14157.082415948073\\
120.55878983883126	14082.718411613458\\
121.27369076521661	14008.780265123902\\
121.98859169160197	13935.243727854904\\
122.70349261798732	13862.08455118197\\
123.41839354437268	13789.2784864806\\
124.13329447075803	13716.801285126301\\
124.84819539714339	13644.639871192048\\
125.56309632352874	13572.948660592238\\
126.2779972499141	13501.766207085715\\
126.99289817629945	13431.069158088532\\
127.7077991026848	13360.834161016743\\
128.42270002907017	13291.03786328639\\
129.13760095545553	13221.656912313534\\
129.85250188184088	13152.667955514225\\
130.56740280822623	13084.047640304516\\
131.2823037346116	13015.772614100453\\
131.99720466099694	12947.819524318096\\
132.7121055873823	12880.165018373491\\
133.42700651376765	12812.785743682693\\
134.141907440153	12745.65834766175\\
134.85680836653836	12678.759477726717\\
135.5717092929237	12612.06578129365\\
136.28661021930907	12545.599578102896\\
137.00151114569442	12479.662058855385\\
137.71641207207978	12414.260481946243\\
138.43131299846513	12349.331306043447\\
139.14621392485049	12284.81098981497\\
139.86111485123584	12220.635991928786\\
140.5760157776212	12156.742771052872\\
141.29091670400675	12093.06778585518\\
};

\addplot [
color=black,
loosely dashed
]
table[row sep=crcr]{
76.27942542816477	16877.074739466265\\
76.91000178248115	16793.45104006459\\
77.54057813679752	16711.57689727472\\
78.1711544911139	16631.546521051416\\
78.80173084543027	16553.163668671612\\
79.43230719974665	16476.3108705767\\
80.06288355406302	16400.904632292077\\
80.6934599083794	16326.86145934314\\
81.32403626269577	16254.097857255281\\
81.95461261701215	16182.5303315539\\
82.58518897132852	16112.07538776439\\
83.2157653256449	16042.649531412144\\
83.84634167996127	15974.16926802256\\
84.47691803427765	15906.551103121034\\
85.10749438859402	15839.711542232959\\
85.7380707429104	15773.567090883733\\
86.36864709722677	15708.034254598748\\
86.99922345154314	15643.029538903402\\
87.62979980585952	15578.46944932309\\
88.2603761601759	15514.270491383208\\
88.89095251449227	15450.349170609152\\
89.52152886880864	15386.90898392133\\
90.15210522312502	15324.384477132046\\
90.7826815774414	15262.734404958414\\
91.41325793175777	15201.908671082647\\
92.04383428607414	15141.857179186949\\
92.67441064039052	15082.529832953529\\
93.3049869947069	15023.876536064594\\
93.93556334902327	14965.847192202353\\
94.56613970333964	14908.391705049009\\
95.19671605765602	14851.459978286775\\
95.8272924119724	14795.001915597853\\
96.45786876628877	14738.967420664454\\
97.08844512060514	14683.306397168786\\
97.71902147492152	14627.968748793053\\
98.3495978292379	14572.904379219464\\
98.98017418355427	14518.063192130227\\
99.61075053787064	14463.395091207547\\
100.24132689218702	14408.855298106926\\
100.8719032465034	14354.568971742636\\
101.50247960081977	14300.614951566471\\
102.13305595513614	14247.00301658233\\
102.76363230945252	14193.742945794105\\
103.3942086637689	14140.844518205697\\
104.02478501808527	14088.317512820993\\
104.65536137240164	14036.171708643898\\
105.28593772671802	13984.416884678305\\
105.91651408103439	13933.062819928113\\
106.54709043535077	13882.11929339721\\
107.17766678966714	13831.596084089502\\
107.80824314398352	13781.502971008878\\
108.43881949829989	13731.849733159235\\
109.06939585261627	13682.646149544475\\
109.69997220693264	13633.901999168484\\
110.33054856124902	13585.627061035166\\
110.96112491556539	13537.831114148414\\
111.59170126988177	13490.53609413517\\
112.22227762419814	13443.793791036955\\
112.85285397851452	13397.588563792153\\
113.48343033283089	13351.896837395103\\
114.11400668714727	13306.695036840165\\
114.74458304146364	13261.959587121682\\
115.37515939578002	13217.666913234012\\
116.00573575009639	13173.793440171501\\
116.63631210441277	13130.315592928499\\
117.26688845872914	13087.209796499359\\
117.89746481304552	13044.452475878432\\
118.52804116736189	13002.02005606007\\
119.15861752167827	12959.888962038622\\
119.78919387599464	12918.035618808437\\
120.41977023031102	12876.43645136387\\
121.05034658462739	12835.067884699267\\
121.68092293894377	12793.906343808985\\
122.31149929326014	12752.928253687372\\
122.94207564757652	12712.215310847529\\
123.57265200189289	12671.885073077456\\
124.20322835620927	12631.920660475407\\
124.83380471052564	12592.304609826659\\
125.46438106484202	12553.019457916487\\
126.09495741915839	12514.047741530165\\
126.72553377347477	12475.371997452969\\
127.35611012779114	12436.974762470172\\
127.98668648210752	12398.838573367053\\
128.6172628364239	12360.945966928883\\
129.24783919074028	12323.279479940937\\
129.87841554505667	12285.821649188492\\
130.50899189937306	12248.55501145682\\
131.13956825368945	12211.4621035312\\
131.77014460800584	12174.525462196902\\
132.40072096232223	12137.727624239205\\
133.03129731663861	12101.051126443386\\
133.661873670955	12064.48859287927\\
134.2924500252714	12028.189570716679\\
134.92302637958778	11992.191371327313\\
135.55360273390417	11956.47075552501\\
136.18417908822056	11921.004484123596\\
136.81475544253695	11885.769317936894\\
137.44533179685334	11850.74201777874\\
138.07590815116973	11815.89934446296\\
138.70648450548597	11781.21805880339\\
};

\addplot [
color=black,
loosely dashdotted
]
table[row sep=crcr]{
82.75992854189037	13746.902015706633\\
83.29845682694415	13690.658738689488\\
83.83698511199792	13634.91850671186\\
84.37551339705169	13579.688680834639\\
84.91404168210546	13524.976622118715\\
85.45256996715923	13470.789691624968\\
85.991098252213	13417.135250414281\\
86.52962653726678	13364.020659547545\\
87.06815482232055	13311.453280085647\\
87.60668310737432	13259.434879465103\\
88.1452113924281	13207.943500373376\\
88.68373967748187	13156.973752970209\\
89.22226796253564	13106.523001899479\\
89.76079624758941	13056.588611805062\\
90.29932453264318	13007.167947330832\\
90.83785281769696	12958.258373120663\\
91.37638110275073	12909.857253818436\\
91.9149093878045	12861.96195406802\\
92.45343767285827	12814.569838513296\\
92.99196595791204	12767.678271798139\\
93.53049424296582	12721.284618566422\\
94.06902252801959	12675.386243462024\\
94.60755081307336	12629.980511128819\\
95.14607909812713	12585.064786210683\\
95.6846073831809	12540.636433351494\\
96.22313566823468	12496.692817195122\\
96.76166395328845	12453.231302385448\\
97.30019223834222	12410.249253566346\\
97.83872052339599	12367.744035381691\\
98.37724880844976	12325.724121653291\\
98.91577709350354	12284.341539663543\\
99.45430537855731	12243.62094180582\\
99.99283366361108	12203.53075913345\\
100.53136194866485	12164.03942269976\\
101.06989023371862	12125.115363558074\\
101.6084185187724	12086.727012761732\\
102.14694680382617	12048.842801364053\\
102.68547508887994	12011.431160418373\\
103.22400337393371	11974.460520978013\\
103.76253165898748	11937.899314096307\\
104.30105994404126	11901.71597082658\\
104.83958822909503	11865.878922222164\\
105.3781165141488	11830.356599336385\\
105.91664479920257	11795.117433222573\\
106.45517308425634	11760.129854934055\\
106.99370136931012	11725.362295524159\\
107.53222965436389	11690.783186046216\\
108.07075793941766	11656.360957553554\\
108.60928622447143	11622.064041099498\\
109.1478145095252	11587.861241636336\\
109.68634279457898	11553.892608748403\\
110.22487107963275	11520.280677527668\\
110.76339936468652	11487.011469828292\\
111.30192764974029	11454.071007504439\\
111.84045593479406	11421.445312410277\\
112.37898421984784	11389.120406399968\\
112.91751250490161	11357.082311327682\\
113.45604078995538	11325.317049047579\\
113.99456907500915	11293.810641413831\\
114.53309736006292	11262.549110280595\\
115.0716256451167	11231.518477502039\\
115.61015393017047	11200.704764932332\\
116.14868221522424	11170.093994425637\\
116.68721050027801	11139.672187836115\\
117.22573878533179	11109.425367017939\\
117.76426707038556	11079.339553825266\\
118.30279535543933	11049.40077011227\\
118.8413236404931	11019.595037733106\\
119.37985192554687	10989.908378541948\\
119.91838021060065	10960.326814392956\\
120.45690849565442	10930.885265042225\\
120.99543678070819	10901.677891929303\\
121.53396506576196	10872.699015698463\\
122.07249335081573	10843.939386243565\\
122.6110216358695	10815.38975345846\\
123.14954992092328	10787.040867237001\\
123.68807820597705	10758.88347747305\\
124.22660649103082	10730.908334060457\\
124.7651347760846	10703.106186893085\\
125.30366306113837	10675.46778586478\\
125.84219134619214	10647.983880869406\\
126.38071963124591	10620.645221800814\\
126.91924791629968	10593.442558552859\\
127.45777620135345	10566.366641019404\\
127.99630448640723	10539.408219094292\\
128.534832771461	10512.558042671391\\
129.07336105651478	10485.80686164455\\
129.61188934156857	10459.145425907624\\
130.15041762662236	10432.56448535447\\
130.68894591167614	10406.054789878946\\
131.22747419672993	10379.626792824172\\
131.76600248178372	10353.377886712802\\
132.3045307668375	10327.31238912265\\
132.8430590518913	10301.41819036433\\
133.38158733694507	10275.68318074845\\
133.92011562199886	10250.095250585622\\
134.45864390705265	10224.642290186455\\
134.99717219210643	10199.31218986156\\
135.53570047716022	10174.092839921543\\
136.07422876221423	10148.972130677008\\
};
\end{axis}
\end{tikzpicture}%
