%Drag_and_Thrust_curves_CLIMB_AOE
\begin{tikzpicture}

\begin{axis}[
width=\figurewidth,
height=\figureheight,
scaled ticks=false, tick label style={/pgf/number format/fixed},
xmin=60.75200185424198,
xmax=146.32640319914915,
xlabel={Speed ((m/s))},
xmajorgrids,
ymin=14691.331123218228,
ymax=41525.99049996476,
ylabel={Forces ((N))},
ymajorgrids,
legend style={at={(1.03,0.5)},anchor=west,draw=black,fill=white,legend cell align=left}
]

\addplot [
color=black,
solid
]
table[row sep=crcr]{
60.75200185424198	16714.54285990715\\
61.61638974661478	16495.950668838723\\
62.480777638987576	16293.301571823516\\
63.34516553136037	16105.82726465711\\
64.20955342373317	15932.81080710959\\
65.07394131610597	15773.582556707883\\
65.93832920847878	15627.516473173702\\
66.80271710085158	15494.026755400258\\
67.66710499322438	15372.56477720462\\
68.53149288559719	15262.616291900493\\
69.39588077796999	15163.698879073572\\
70.2602686703428	15075.359609869844\\
71.1246565627156	14997.172909682768\\
71.9890444550884	14928.738599392924\\
72.85343234746121	14869.680098314011\\
73.71782023983401	14819.642773766433\\
74.58220813220682	14778.292423763125\\
75.44659602457962	14745.313880677977\\
76.31098391695242	14720.40972499646\\
77.17537180932523	14703.299099340717\\
78.03975970169803	14693.71661393364\\
78.90414759407084	14691.411335532632\\
79.76853548644364	14696.145852636708\\
80.63292337881644	14707.695410461305\\
81.49731127118925	14725.847109792527\\
82.36169916356205	14750.399164386083\\
83.22608705593485	14781.160212072033\\
84.09047494830766	14817.948675171821\\
84.95486284068046	14860.592166234357\\
85.81925073305327	14908.92693545806\\
86.68363862542607	14962.797356490106\\
87.54802651779887	15022.055447586743\\
88.41241441017168	15086.56042538265\\
89.27680230254448	15156.178288755775\\
90.14119019491729	15230.781430490202\\
91.00557808729009	15310.248274634872\\
91.8699659796629	15394.4629376332\\
92.7343538720357	15483.314911459398\\
93.5987417644085	15576.698767143176\\
94.4631296567813	15674.513877197236\\
95.32751754915411	15776.664155582586\\
96.19190544152691	15883.057813956637\\
97.05629333389972	15993.6071330492\\
97.92068122627252	16108.228248102747\\
98.78506911864532	16226.840947396853\\
99.64945701101813	16349.36848295275\\
100.51384490339093	16475.737392583706\\
101.37823279576374	16605.877332520635\\
102.24262068813654	16739.720919900756\\
103.10700858050934	16877.203584460585\\
103.97139647288215	17018.263428823655\\
104.83578436525495	17162.841096818443\\
105.70017225762776	17310.87964930324\\
106.56456015000056	17462.32444701291\\
107.42894804237336	17617.12303997729\\
108.29333593474617	17775.225063093392\\
109.15772382711897	17936.582137462996\\
110.02211171949178	18101.147777134818\\
110.88649961186458	18268.877300915447\\
111.75088750423738	18439.727748936708\\
112.61527539661019	18613.65780368842\\
113.47966328898299	18790.627715245562\\
114.3440511813558	18970.599230437118\\
115.2084390737286	19153.535525720894\\
116.0728269661014	19339.401143544386\\
116.9372148584742	19528.161931986273\\
117.80160275084701	19719.784987486735\\
118.66599064321981	19914.23860048717\\
119.53037853559262	20111.492203811693\\
120.39476642796542	20311.516323633474\\
121.25915432033823	20514.282532879\\
122.12354221271103	20719.763406932765\\
122.98793010508383	20927.932481513504\\
123.85231799745664	21138.764212601072\\
124.71670588982944	21352.233938300786\\
125.58109378220225	21568.317842538774\\
126.44548167457505	21786.99292048872\\
127.30986956694785	22008.23694563604\\
128.17425745932064	22232.02843839168\\
129.03864535169345	22458.346636172744\\
129.90303324406625	22687.171464871808\\
130.76742113643905	22918.48351164232\\
131.63180902881186	23152.263998930575\\
132.49619692118466	23388.494759689816\\
133.36058481355747	23627.158213715207\\
134.22497270593027	23868.237345042133\\
135.08936059830307	24111.715680353616\\
135.95374849067588	24357.57726834557\\
136.81813638304868	24605.806660001857\\
137.68252427542149	24856.388889733327\\
138.5469121677943	25109.309457338044\\
139.4113000601671	25364.554310742027\\
140.2756879525399	25622.10982948215\\
141.1400758449127	25881.962808894958\\
142.0044637372855	26144.10044497712\\
142.8688516296583	26408.510319885125\\
143.7332395220311	26675.180388043518\\
144.59762741440392	26944.098962832766\\
145.46201530677672	27215.254703829105\\
146.32640319914915	27488.63660457045\\
};

\addplot [
color=black,
densely dashed
]
table[row sep=crcr]{
65.36787710872356	16714.542859907146\\
66.16042485705306	16527.247251670233\\
66.95297260538256	16351.61362243073\\
67.74552035371205	16187.159239831106\\
68.53806810204155	16033.429119831646\\
69.33061585037105	15889.994134457556\\
70.12316359870054	15756.44926839859\\
70.91571134703004	15632.412011227636\\
71.70825909535954	15517.520873314237\\
72.50080684368903	15411.434014675231\\
73.29335459201853	15313.827977046176\\
74.08590234034803	15224.396510387538\\
74.87845008867752	15142.849485872046\\
75.67099783700702	15068.911888145547\\
76.46354558533652	15002.322880322254\\
77.25609333366602	14942.834935776174\\
78.04864108199551	14890.213031330213\\
78.84118883032501	14844.233896930511\\
79.6337365786545	14804.68531733121\\
80.426284326984	14771.36548170997\\
81.2188320753135	14744.082377490817\\
82.011379823643	14722.653224973365\\
82.8039275719725	14706.903949658907\\
83.59647532030199	14696.668689427941\\
84.38902306863149	14691.789333963026\\
85.18157081696098	14692.115094028199\\
85.97411856529048	14697.502098413226\\
86.76666631361998	14707.813016530516\\
87.55921406194948	14722.916704815576\\
88.35176181027897	14742.687875230551\\
89.14430955860847	14767.006784305773\\
89.93685730693797	14795.758941277943\\
90.72940505526746	14828.834833996216\\
91.52195280359696	14866.129671370749\\
92.31450055192646	14907.543141232385\\
93.10704830025595	14952.979182558569\\
93.89959604858545	15002.34577109951\\
94.69214379691495	15055.554717511197\\
95.48469154524444	15112.52147716823\\
96.27723929357394	15173.164970890464\\
97.06978704190344	15237.407415873553\\
97.86233479023294	15305.174166165009\\
98.65488253856243	15376.393562074742\\
99.44743028689193	15450.996787952812\\
100.23997803522143	15528.917737807176\\
101.03252578355092	15610.092888271427\\
101.82507353188042	15694.461178466649\\
102.61762128020992	15781.963896333067\\
103.41016902853941	15872.54457103634\\
104.20271677686891	15966.148871080317\\
104.99526452519841	16062.724507782943\\
105.7878122735279	16162.221143795083\\
106.5803600218574	16264.590306363456\\
107.3729077701869	16369.78530505845\\
108.1654555185164	16477.761153706222\\
108.95800326684589	16588.47449628118\\
109.75055101517539	16701.883536531022\\
110.54309876350489	16817.947971120866\\
111.33564651183438	16936.628926096953\\
112.12819426016388	17057.888896482727\\
112.92074200849338	17181.691688832158\\
113.71328975682287	17308.002366575878\\
114.50583750515237	17436.787198006175\\
115.29838525348187	17568.013606756067\\
116.09093300181136	17701.650124636857\\
116.88348075014086	17837.666346706552\\
117.67602849847036	17976.03288844946\\
118.46857624679986	18116.721344954243\\
119.26112399512935	18259.70425198465\\
120.05367174345885	18404.9550488432\\
120.84621949178835	18552.44804293416\\
121.63876724011784	18702.158375937433\\
122.43131498844734	18854.06199151027\\
123.22386273677684	19008.135604438397\\
124.01641048510633	19164.3566711628\\
124.80895823343583	19322.703361612344\\
125.60150598176533	19483.154532276636\\
126.39405373009483	19645.68970045706\\
127.18660147842432	19810.289019637552\\
127.97914922675382	19976.93325591953\\
128.7716969750833	20145.603765469143\\
129.5642447234128	20316.28247292706\\
130.3567924717423	20488.951850734444\\
131.1493402200718	20663.594899330685\\
131.9418879684013	20840.195128181414\\
132.7344357167308	21018.736537596935\\
133.52698346506028	21199.203601303943\\
134.31953121338978	21381.58124973489\\
135.11207896171928	21565.8548540015\\
135.90462671004877	21752.010210520595\\
136.69717445837827	21940.033526262072\\
137.48972220670777	22129.91140459036\\
138.28226995503726	22321.630831672366\\
139.07481770336676	22515.179163425993\\
139.86736545169626	22710.54411298491\\
140.65991320002576	22907.713738656297\\
141.45246094835525	23106.67643234963\\
142.24500869668475	23307.4209084554\\
143.03755644501425	23509.93619315409\\
143.83010419334371	23714.211614136304\\
};

\addplot [
color=black,
dashdotted
]
table[row sep=crcr]{
70.51572499185646	16714.542859907142\\
71.23062591824181	16557.11836230714\\
71.94552684462717	16407.904561929714\\
72.66042777101252	16266.615108415832\\
73.37532869739788	16132.977532768147\\
74.09022962378323	16006.732447601453\\
74.80513055016858	15887.632800637137\\
75.52003147655394	15775.44317742834\\
76.2349324029393	15669.93914964019\\
76.94983332932465	15570.906665515111\\
77.66473425571	15478.141479431166\\
78.37963518209536	15391.448617713924\\
79.09453610848071	15310.641878092532\\
79.80943703486606	15235.54336039979\\
80.52433796125142	15165.983026307109\\
81.23923888763677	15101.798286059446\\
81.95413981402213	15042.833610334228\\
82.66904074040748	14988.940165493716\\
83.38394166679284	14939.975470633335\\
84.09884259317819	14895.80307494989\\
84.81374351956354	14856.292254065484\\
85.5286444459489	14821.317724044697\\
86.24354537233425	14790.75937193683\\
86.95844629871961	14764.502001760748\\
87.67334722510496	14742.435094929122\\
88.38824815149032	14724.45258418156\\
89.10314907787567	14710.452640163114\\
89.81805000426102	14700.337469846074\\
90.53295093064638	14694.013126049991\\
91.24785185703173	14691.389327366947\\
91.96275278341709	14692.379287847565\\
92.67765370980244	14696.899555847753\\
93.3925546361878	14704.869861477348\\
94.10745556257315	14716.212972129873\\
94.8223564889585	14730.854555607895\\
95.53725741534386	14748.72305039097\\
96.25215834172921	14769.749542623333\\
96.96705926811457	14793.867649426558\\
97.68196019449992	14821.013408168077\\
98.39686112088528	14851.12517134085\\
99.11176204727063	14884.143506731349\\
99.82666297365598	14920.01110257418\\
100.54156390004134	14958.672677410555\\
101.2564648264267	15000.074894385956\\
101.97136575281205	15044.166279738803\\
102.6862666791974	15090.897145247687\\
103.40116760558276	15140.219514418748\\
104.11606853196811	15192.087052208673\\
104.83096945835347	15246.454998090976\\
105.54587038473882	15303.280102284989\\
106.26077131112417	15362.520564978013\\
106.97567223750953	15424.135978381093\\
107.69057316389488	15488.08727146839\\
108.40547409028024	15554.336657259117\\
109.12037501666559	15622.847582509188\\
109.83527594305095	15693.584679687472\\
110.5501768694363	15766.51372111894\\
111.26507779582165	15841.601575183588\\
111.97997872220701	15918.81616446651\\
112.69487964859236	15998.126425760478\\
113.40978057497772	16079.502271827763\\
114.12468150136307	16162.914554833505\\
114.83958242774843	16248.33503136745\\
115.55448335413378	16335.73632897584\\
116.26938428051913	16425.09191412929\\
116.98428520690449	16516.376061556766\\
117.69918613328984	16609.563824879395\\
118.4140870596752	16704.631008481538\\
119.12898798606055	16801.55414056001\\
119.8438889124459	16900.310447295204\\
120.55878983883126	17000.877828091223\\
121.27369076521661	17103.234831834674\\
121.98859169160197	17207.360634124507\\
122.70349261798732	17313.23501542781\\
123.41839354437268	17420.83834011875\\
124.13329447075803	17530.15153636007\\
124.84819539714339	17641.15607678872\\
125.56309632352874	17753.83395996902\\
126.2779972499141	17868.167692578743\\
126.99289817629945	17984.140272295208\\
127.7077991026848	18101.73517135006\\
128.42270002907017	18220.936320723158\\
129.13760095545553	18341.7280949472\\
129.85250188184088	18464.09529749639\\
130.56740280822623	18588.023146733532\\
131.2823037346116	18713.49726239138\\
131.99720466099694	18840.503652565105\\
132.7121055873823	18969.028701193864\\
133.42700651376765	19099.05915601074\\
134.141907440153	19230.582116940896\\
134.85680836653836	19363.58502492919\\
135.5717092929237	19498.05565117906\\
136.28661021930907	19633.982086785516\\
137.00151114569442	19771.35273274583\\
137.71641207207978	19910.156290332234\\
138.43131299846513	20050.38175181181\\
139.14621392485049	20192.018391499187\\
139.86111485123584	20335.055757128623\\
140.5760157776212	20479.483661532417\\
141.29091670400675	20625.29217461335\\
};

\addplot [
color=black,
dashed
]
table[row sep=crcr]{
76.27942542816477	16714.542859907146\\
76.91000178248115	16585.5523260024\\
77.54057813679752	16462.056811938088\\
78.1711544911139	16343.898931040161\\
78.80173084543027	16230.92756842665\\
79.43230719974665	16122.99758346667\\
80.06288355406302	16019.969528578558\\
80.6934599083794	15921.709383349465\\
81.32403626269577	15828.08830302995\\
81.95461261701215	15738.982380522026\\
82.58518897132852	15654.27242103966\\
83.2157653256449	15573.843728676424\\
83.84634167996127	15497.585904166644\\
84.47691803427765	15425.3926531741\\
85.10749438859402	15357.161604486595\\
85.7380707429104	15292.794137535799\\
86.36864709722677	15232.195218699571\\
86.99922345154314	15175.273245879493\\
87.62979980585952	15121.939900878864\\
88.2603761601759	15072.110009137008\\
88.89095251449227	15025.701406403801\\
89.52152886880864	14982.634811964863\\
90.15210522312502	14942.833708051969\\
90.7826815774414	14906.224225096386\\
91.41325793175777	14872.735032503613\\
92.04383428607414	14842.297234648153\\
92.67441064039052	14814.844271804954\\
93.3049869947069	14790.311825751713\\
93.93556334902327	14768.63772979187\\
94.56613970333964	14749.761882963394\\
95.19671605765602	14733.626168212268\\
95.8272924119724	14720.174374322565\\
96.45786876628877	14709.352121407399\\
97.08844512060514	14701.106789776302\\
97.71902147492152	14695.387452005269\\
98.3495978292379	14692.144808045756\\
98.98017418355427	14691.331123218228\\
99.61075053787064	14692.900168944645\\
100.24132689218702	14696.807166082479\\
100.8719032465034	14703.008730730595\\
101.50247960081977	14711.462822384496\\
102.13305595513614	14722.12869432525\\
102.76363230945252	14734.966846132842\\
103.3942086637689	14749.938978220549\\
104.02478501808527	14767.00794829268\\
104.65536137240164	14786.13772963318\\
105.28593772671802	14807.293371137772\\
105.91651408103439	14830.4409590067\\
106.54709043535077	14855.547580019776\\
107.17766678966714	14882.581286319397\\
107.80824314398352	14911.511061631307\\
108.43881949829989	14942.306788856291\\
109.06939585261627	14974.939218969588\\
109.69997220693264	15009.379941168158\\
110.33054856124902	15045.601354208808\\
110.96112491556539	15083.576638883269\\
111.59170126988177	15123.279731578874\\
112.22227762419814	15164.685298876304\\
112.85285397851452	15207.76871313806\\
113.48343033283089	15252.506029043843\\
114.11400668714727	15298.873961030962\\
114.74458304146364	15346.849861600298\\
115.37515939578002	15396.411700449828\\
116.00573575009639	15447.538044400066\\
116.63631210441277	15500.208038077086\\
117.26688845872914	15554.401385320713\\
117.89746481304552	15610.098331286898\\
118.52804116736189	15667.279645214854\\
119.15861752167827	15725.926603830858\\
119.78919387599464	15786.020975361911\\
120.41977023031102	15847.54500413395\\
121.05034658462739	15910.48139573014\\
121.68092293894377	15974.813302686149\\
122.31149929326014	16040.524310700353\\
122.94207564757652	16107.598425337877\\
123.57265200189289	16176.020059208297\\
124.20322835620927	16245.774019597922\\
124.83380471052564	16316.845496538263\\
125.46438106484202	16389.2200512932\\
126.09495741915839	16462.883605248175\\
126.72553377347477	16537.822429185402\\
127.35611012779114	16614.023132929873\\
127.98668648210752	16691.472655351583\\
128.6172628364239	16770.158254709997\\
129.24783919074028	16850.067499327488\\
129.87841554505667	16931.188258578957\\
130.50899189937306	17013.508694185493\\
131.13956825368945	17097.017251800306\\
131.77014460800584	17181.702652875905\\
132.40072096232223	17267.553886801747\\
133.03129731663861	17354.560203302106\\
133.661873670955	17442.711105084436\\
134.2924500252714	17531.996340728794\\
134.92302637958778	17622.405897809345\\
135.55360273390417	17713.929996239312\\
136.18417908822056	17806.559081831147\\
136.81475544253695	17900.28382006399\\
137.44533179685334	17995.0950900508\\
138.07590815116973	18090.98397869794\\
138.70648450548597	18187.941775050138\\
};

\addplot [
color=black,
densely dashdotted
]
table[row sep=crcr]{
82.75992854189037	16714.542859907146\\
83.29845682694415	16612.542029753175\\
83.83698511199792	16513.967097973433\\
84.37551339705169	16418.740302133945\\
84.91404168210546	16326.786337818714\\
85.45256996715923	16238.032265980244\\
85.991098252213	16152.407424338791\\
86.52962653726678	16069.843342629523\\
87.06815482232055	15990.273661507688\\
87.60668310737432	15913.634054932509\\
88.1452113924281	15839.862155860286\\
88.68373967748187	15768.897485086447\\
89.22226796253564	15700.68138308493\\
89.76079624758941	15635.156944701477\\
90.29932453264318	15572.268956565169\\
90.83785281769696	15511.96383708947\\
91.37638110275073	15454.18957894128\\
91.9149093878045	15398.89569386253\\
92.45343767285827	15346.033159734983\\
92.99196595791204	15295.554369784733\\
93.53049424296582	15247.413083828065\\
94.06902252801959	15201.564381465407\\
94.60755081307336	15157.964617135005\\
95.14607909812713	15116.57137694232\\
95.6846073831809	15077.343437185378\\
96.22313566823468	15040.240724500423\\
96.76166395328845	15005.224277555853\\
97.30019223834222	14972.25621022619\\
97.83872052339599	14941.299676180959\\
98.37724880844976	14912.318834826774\\
98.91577709350354	14885.278818543824\\
99.45430537855731	14860.145701160836\\
99.99283366361108	14836.886467615352\\
100.53136194866485	14815.468984748532\\
101.06989023371862	14795.861973186404\\
101.6084185187724	14778.034980261536\\
102.14694680382617	14761.95835393136\\
102.68547508887994	14747.603217651465\\
103.22400337393371	14734.941446164128\\
103.76253165898748	14723.945642164123\\
104.30105994404126	14714.589113805707\\
104.83958822909503	14706.845853016344\\
105.3781165141488	14700.690514584127\\
105.91664479920257	14696.09839598769\\
106.45517308425634	14693.045417938512\\
106.99370136931012	14691.50810560705\\
107.53222965436389	14691.46357050536\\
108.07075793941766	14692.88949300009\\
108.60928622447143	14695.764105430932\\
109.1478145095252	14700.066175810674\\
109.68634279457898	14705.774992084065\\
110.22487107963275	14712.870346923706\\
110.76339936468652	14721.332523042125\\
111.30192764974029	14731.14227900013\\
111.84045593479406	14742.280835492327\\
112.37898421984784	14754.729862091595\\
112.91751250490161	14768.471464435024\\
113.45604078995538	14783.488171834577\\
113.99456907500915	14799.76292529655\\
114.53309736006292	14817.279065934337\\
115.0716256451167	14836.02032375996\\
115.61015393017047	14855.970806840196\\
116.14868221522424	14877.114990803839\\
116.68721050027801	14899.437708687135\\
117.22573878533179	14922.924141105043\\
117.76426707038556	14947.559806736364\\
118.30279535543933	14973.330553111404\\
118.8413236404931	15000.222547691135\\
119.37985192554687	15028.222269227488\\
119.91838021060065	15057.316499394572\\
120.45690849565442	15087.492314681218\\
120.99543678070819	15118.73707853556\\
121.53396506576196	15151.038433752736\\
122.07249335081573	15184.38429509714\\
122.6110216358695	15218.76284215098\\
123.14954992092328	15254.162512381308\\
123.68807820597705	15290.571994417842\\
124.22660649103082	15327.980221534375\\
124.7651347760846	15366.376365326687\\
125.30366306113837	15405.749829580238\\
125.84219134619214	15446.09024432118\\
126.38071963124591	15487.387460044449\\
126.91924791629968	15529.631542112886\\
127.45777620135345	15572.812765321683\\
127.99630448640723	15616.921608622588\\
128.534832771461	15661.94875000251\\
129.07336105651478	15707.88506151134\\
129.61188934156857	15754.721604434164\\
130.15041762662236	15802.449624602954\\
130.68894591167614	15851.060547843237\\
131.22747419672993	15900.545975551302\\
131.76600248178372	15950.897680397653\\
132.3045307668375	16002.107602152682\\
132.8430590518913	16054.167843630481\\
133.38158733694507	16107.070666747137\\
133.92011562199886	16160.808488689716\\
134.45864390705265	16215.37387819243\\
134.99717219210643	16270.759551916612\\
135.53570047716022	16326.958370931163\\
136.07422876221423	16383.963337290314\\
};

\addplot [
color=black,
densely dotted
]
table[row sep=crcr]{
60.75200185424198	41525.99049996476\\
61.61638974661478	41217.544285561366\\
62.480777638987576	40841.672626224565\\
63.34516553136037	40418.3205288055\\
64.20955342373317	39967.43300015531\\
65.07394131610597	39508.955047125135\\
65.93832920847878	39062.831676566115\\
66.80271710085158	38649.00789532937\\
67.66710499322438	38287.42871026606\\
68.53149288559719	37998.03912822733\\
69.39588077796999	37800.78415606429\\
70.2602686703428	37715.608800628106\\
71.1246565627156	37673.9976996725\\
71.9890444550884	37530.979847894734\\
72.85343234746121	37300.58152346697\\
73.71782023983401	37000.434659780636\\
74.58220813220682	36648.17119022712\\
75.44659602457962	36261.42304819781\\
76.31098391695242	35857.82216708412\\
77.17537180932523	35455.000480277435\\
78.03975970169803	35070.58992116917\\
78.90414759407084	34722.222423150706\\
79.76853548644364	34427.52991961345\\
80.63292337881644	34204.14434394881\\
81.49731127118925	34069.69762954816\\
82.36169916356205	34034.365145673444\\
83.22608705593485	33958.794527061036\\
84.09047494830766	33796.27901247449\\
84.95486284068046	33562.538027496936\\
85.81925073305327	33273.290997711534\\
86.68363862542607	32944.25734870144\\
87.54802651779887	32591.156506049792\\
88.41241441017168	32229.707895339754\\
89.27680230254448	31875.63094215448\\
90.14119019491729	31544.64507207711\\
91.00557808729009	31252.469710690806\\
91.8699659796629	31014.82428357871\\
92.7343538720357	30847.428216323988\\
93.5987417644085	30766.000934509775\\
94.4631296567813	30739.45207906559\\
95.32751754915411	30638.03473050675\\
96.19190544152691	30465.471983554544\\
97.05629333389972	30235.69673778145\\
97.92068122627252	29962.64189275996\\
98.78506911864532	29660.24034806254\\
99.64945701101813	29342.425003261687\\
100.51384490339093	29023.128757929877\\
101.37823279576374	28716.28451163959\\
102.24262068813654	28435.82516396331\\
103.10700858050934	28195.68361447352\\
103.97139647288215	28009.792762742705\\
104.83578436525495	27892.085508343338\\
105.70017225762776	27855.492762628965\\
106.56456015000056	27807.707599980928\\
107.42894804237336	27690.104666754993\\
108.29333593474617	27514.972511473545\\
109.15772382711897	27294.599682658936\\
110.02211171949178	27041.274728833556\\
110.88649961186458	26767.286198519767\\
111.75088750423738	26484.92264023994\\
112.61527539661019	26206.472602516445\\
113.47966328898299	25944.22463387165\\
114.3440511813558	25710.46728282793\\
115.2084390737286	25517.489097907655\\
116.0728269661014	25377.578627633193\\
116.9372148584742	25303.024420526912\\
117.80160275084701	25284.038020144326\\
118.66599064321981	25214.942441989504\\
119.53037853559262	25089.305721654888\\
120.39476642796542	24917.88372204436\\
121.25915432033823	24711.432306061815\\
122.12354221271103	24480.707336611144\\
122.98793010508383	24236.464676596235\\
123.85231799745664	23989.460188920973\\
124.71670588982944	23750.44973648925\\
125.58109378220225	23530.189182204947\\
126.44548167457505	23339.434388971968\\
127.30986956694785	23188.94121969419\\
128.17425745932064	23089.465537275508\\
129.03864535169345	23051.7632046198\\
129.90303324406625	23022.9290259027\\
130.76742113643905	22937.44189237178\\
131.63180902881186	22804.902379977266\\
132.49619692118466	22635.048115201906\\
133.36058481355747	22437.616724528434\\
134.22497270593027	22222.345834439588\\
135.08936059830307	21998.973071418102\\
135.95374849067588	21777.23606194672\\
136.81813638304868	21566.87243250818\\
137.68252427542149	21377.619809585205\\
138.5469121677943	21219.215819660552\\
139.4113000601671	21101.39808921695\\
140.2756879525399	21033.90424473713\\
141.1400758449127	21017.22132243602\\
142.0044637372855	20966.799698184404\\
142.8688516296583	20867.220947343405\\
143.7332395220311	20727.576018750395\\
144.59762741440392	20556.95586124278\\
145.46201530677672	20364.451423657938\\
146.32640319914915	20159.15365483336\\
};

\addplot [
color=black,
dashdotdotted
]
table[row sep=crcr]{
65.36787710872356	37568.71753787014\\
66.16042485705306	37314.0949147317\\
66.95297260538256	37063.94386726038\\
67.74552035371205	36819.79156578361\\
68.53806810204155	36583.165180628865\\
69.33061585037105	36355.51804601091\\
70.12316359870054	36134.257075051035\\
70.91571134703004	35917.184795663394\\
71.70825909535954	35703.94524219628\\
72.50080684368903	35494.18244899798\\
73.29335459201853	35287.54045041677\\
74.08590234034803	35083.663280800945\\
74.87845008867752	34882.19497449881\\
75.67099783700702	34682.77956585863\\
76.46354558533652	34485.0610892287\\
77.25609333366602	34288.6835789573\\
78.04864108199551	34093.29106939273\\
78.84118883032501	33898.527594883264\\
79.6337365786545	33704.03718977721\\
80.426284326984	33509.46388842283\\
81.2188320753135	33314.83964975149\\
82.011379823643	33121.48928722235\\
82.8039275719725	32929.49164539289\\
83.59647532030199	32738.768639636968\\
84.38902306863149	32549.24218532844\\
85.18157081696098	32360.834197841174\\
85.97411856529048	32173.46659254903\\
86.76666631361998	31987.06128482586\\
87.55921406194948	31801.540190045536\\
88.35176181027897	31616.825223581913\\
89.14430955860847	31432.838300808853\\
89.93685730693797	31249.501337100217\\
90.72940505526746	31066.73624782986\\
91.52195280359696	30884.46494837165\\
92.31450055192646	30702.610152526537\\
93.10704830025595	30521.415133273124\\
93.89959604858545	30341.084255934747\\
94.69214379691495	30161.5683972264\\
95.48469154524444	29982.818433863093\\
96.27723929357394	29804.78524255979\\
97.06978704190344	29627.419700031507\\
97.86233479023294	29450.672682993245\\
98.65488253856243	29274.495068159984\\
99.44743028689193	29098.837732246728\\
100.23997803522143	28923.65155196847\\
101.03252578355092	28748.8874040402\\
101.82507353188042	28574.496165176934\\
102.61762128020992	28400.42871209363\\
103.41016902853941	28226.63592150532\\
104.20271677686891	28052.96216050995\\
104.99526452519841	27878.82145263424\\
105.7878122735279	27704.32210948541\\
106.5803600218574	27529.690859688162\\
107.3729077701869	27355.154431867224\\
108.1654555185164	27180.9395546473\\
108.95800326684589	27007.272956653105\\
109.75055101517539	26834.381366509366\\
110.54309876350489	26662.49151284078\\
111.33564651183438	26491.830124272088\\
112.12819426016388	26322.62392942798\\
112.92074200849338	26155.099656933176\\
113.71328975682287	25989.484035412403\\
114.50583750515237	25826.003793490352\\
115.29838525348187	25664.885659791766\\
116.09093300181136	25505.957919852142\\
116.88348075014086	25348.7702281605\\
117.67602849847036	25193.25199665346\\
118.46857624679986	25039.33377564553\\
119.26112399512935	24886.946115451246\\
120.05367174345885	24736.019566385126\\
120.84621949178835	24586.48467876169\\
121.63876724011784	24438.27200289548\\
122.43131498844734	24291.312089101004\\
123.22386273677684	24145.535487692792\\
124.01641048510633	24000.872748985363\\
124.80895823343583	23857.254423293252\\
125.60150598176533	23714.611060930984\\
126.39405373009483	23572.873212213068\\
127.18660147842432	23432.014809842254\\
127.97914922675382	23292.386625189833\\
128.7716969750833	23154.0390208792\\
129.5642447234128	23016.92009836786\\
130.3567924717423	22880.977959113327\\
131.1493402200718	22746.160704573118\\
131.9418879684013	22612.41643620476\\
132.7344357167308	22479.693255465743\\
133.52698346506028	22347.939263813598\\
134.31953121338978	22217.102562705844\\
135.11207896171928	22087.131253599986\\
135.90462671004877	21957.973437953544\\
136.69717445837827	21829.57721722403\\
137.48972220670777	21701.890692868958\\
138.28226995503726	21574.861966345845\\
139.07481770336676	21448.697433519945\\
139.86736545169626	21323.77808514938\\
140.65991320002576	21200.00565009838\\
141.45246094835525	21077.27224557645\\
142.24500869668475	20955.469988793106\\
143.03755644501425	20834.49099695784\\
143.83010419334371	20714.227387280174\\
};

\addplot [
color=black,
densely dashdotdetted
]
table[row sep=crcr]{
70.51572499185646	32039.054247785356\\
71.23062591824181	31863.511803206915\\
71.94552684462717	31688.85236602058\\
72.66042777101252	31515.166891244822\\
73.37532869739788	31342.54633389812\\
74.09022962378323	31171.08164899896\\
74.80513055016858	31000.863791565815\\
75.52003147655394	30831.983716617164\\
76.2349324029393	30664.532379171487\\
76.94983332932465	30498.600734247262\\
77.66473425571	30334.279736862973\\
78.37963518209536	30171.660342037096\\
79.09453610848071	30010.83350478811\\
79.80943703486606	29851.82839544858\\
80.52433796125142	29694.48652838382\\
81.23923888763677	29538.749567771825\\
81.95413981402213	29384.569008643022\\
82.66904074040748	29231.896346027817\\
83.38394166679284	29080.68307495663\\
84.09884259317819	28930.880690459853\\
84.81374351956354	28782.440687567912\\
85.5286444459489	28635.314561311203\\
86.24354537233425	28489.45380672014\\
86.95844629871961	28344.809918825144\\
87.67334722510496	28201.334392656605\\
88.38824815149032	28058.978723244945\\
89.10314907787567	27917.694405620572\\
89.81805000426102	27777.43293481389\\
90.53295093064638	27638.145805855318\\
91.24785185703173	27499.95057945154\\
91.96275278341709	27363.097586117845\\
92.67765370980244	27227.55334381205\\
93.3925546361878	27093.27882425179\\
94.10745556257315	26960.234999154673\\
94.8223564889585	26828.382840238337\\
95.53725741534386	26697.68331922041\\
96.25215834172921	26568.097407818506\\
96.96705926811457	26439.586077750264\\
97.68196019449992	26312.110300733304\\
98.39686112088528	26185.63104848525\\
99.11176204727063	26060.109292723737\\
99.82666297365598	25935.506005166382\\
100.54156390004134	25811.78215753081\\
101.2564648264267	25688.898721534657\\
101.97136575281205	25566.81666889555\\
102.6862666791974	25445.60728807818\\
103.40116760558276	25325.369102497163\\
104.11606853196811	25206.101457966408\\
104.83096945835347	25087.803698659558\\
105.54587038473882	24970.47516875026\\
106.26077131112417	24854.115212412158\\
106.97567223750953	24738.723173818893\\
107.69057316389488	24624.298397144114\\
108.40547409028024	24510.840226561464\\
109.12037501666559	24398.34800624457\\
109.83527594305095	24286.82108036711\\
110.5501768694363	24176.25879310269\\
111.26507779582165	24066.660488624984\\
111.97997872220701	23958.02551110762\\
112.69487964859236	23850.353204724244\\
113.40978057497772	23743.644572023484\\
114.12468150136307	23637.98877129772\\
114.83958242774843	23533.416363183154\\
115.55448335413378	23429.898703755232\\
116.26938428051913	23327.407149089395\\
116.98428520690449	23225.9130552611\\
117.69918613328984	23125.387778345797\\
118.4140870596752	23025.802674418926\\
119.12898798606055	22927.129099555943\\
119.8438889124459	22829.3384098323\\
120.55878983883126	22732.401961323452\\
121.27369076521661	22636.29111010483\\
121.98859169160197	22540.977212251903\\
122.70349261798732	22446.431623840097\\
123.41839354437268	22352.625700944885\\
124.13329447075803	22259.530799641707\\
124.84819539714339	22167.131723508006\\
125.56309632352874	22075.61455978954\\
126.2779972499141	21985.02523996193\\
126.99289817629945	21895.335094078895\\
127.7077991026848	21806.51545219417\\
128.42270002907017	21718.53764436147\\
129.13760095545553	21631.373000634543\\
129.85250188184088	21544.992851067098\\
130.56740280822623	21459.368525712867\\
131.2823037346116	21374.47135462558\\
131.99720466099694	21290.272667858957\\
132.7121055873823	21206.743795466733\\
133.42700651376765	21123.856067502627\\
134.141907440153	21041.580814020374\\
134.85680836653836	20959.88936507369\\
135.5717092929237	20878.753050716314\\
136.28661021930907	20798.162737582967\\
137.00151114569442	20718.24203663547\\
137.71641207207978	20639.011877556575\\
138.43131299846513	20560.464850521545\\
139.14621392485049	20482.59354570563\\
139.86111485123584	20405.390553284084\\
140.5760157776212	20328.84846343216\\
141.29091670400675	20252.9598663251\\
};

\addplot [
color=black,
loosely dashed
]
table[row sep=crcr]{
76.27942542816477	27000.159016158283\\
76.91000178248115	26871.652174449984\\
77.54057813679752	26745.71648409121\\
78.1711544911139	26622.48962710528\\
78.80173084543027	26501.411405754596\\
79.43230719974665	26382.277281473427\\
80.06288355406302	26264.98534208324\\
80.6934599083794	26149.433675405475\\
81.32403626269577	26035.52036926161\\
81.95461261701215	25923.1435114731\\
82.58518897132852	25812.201189861404\\
83.2157653256449	25702.59149224797\\
83.84634167996127	25594.212506454274\\
84.47691803427765	25486.962320301773\\
85.10749438859402	25380.739021611917\\
85.7380707429104	25275.440698206166\\
86.36864709722677	25170.965437905994\\
86.99922345154314	25067.21132853284\\
87.62979980585952	24964.076457908184\\
88.2603761601759	24861.458913853476\\
88.89095251449227	24759.256784190173\\
89.52152886880864	24657.730469752587\\
90.15210522312502	24557.42787114686\\
90.7826815774414	24458.29309636374\\
91.41325793175777	24360.259051735597\\
92.04383428607414	24263.258643594825\\
92.67441064039052	24167.224778273816\\
93.3049869947069	24072.090362104955\\
93.93556334902327	23977.788301420624\\
94.56613970333964	23884.25150255322\\
95.19671605765602	23791.412871835117\\
95.8272924119724	23699.20531559872\\
96.45786876628877	23607.5617401764\\
97.08844512060514	23516.415051900556\\
97.71902147492152	23425.69815710357\\
98.3495978292379	23335.34396211783\\
98.98017418355427	23245.285373275725\\
99.61075053787064	23155.45529690964\\
100.24132689218702	23065.795542605265\\
100.8719032465034	22976.524140040696\\
101.50247960081977	22887.759432399078\\
102.13305595513614	22799.500610694973\\
102.76363230945252	22711.746865942932\\
103.3942086637689	22624.497389157503\\
104.02478501808527	22537.75137135324\\
104.65536137240164	22451.508003544695\\
105.28593772671802	22365.76647674642\\
105.91651408103439	22280.525981972973\\
106.54709043535077	22195.785710238906\\
107.17766678966714	22111.544852558767\\
107.80824314398352	22027.80259994711\\
108.43881949829989	21944.558143418497\\
109.06939585261627	21861.810673987464\\
109.69997220693264	21779.559382668576\\
110.33054856124902	21697.80346047638\\
110.96112491556539	21616.542098425434\\
111.59170126988177	21535.772037104078\\
112.22227762419814	21455.483012345107\\
112.85285397851452	21375.67701123692\\
113.48343033283089	21296.35754617568\\
114.11400668714727	21217.528129557555\\
114.74458304146364	21139.192273778706\\
115.37515939578002	21061.353491235284\\
116.00573575009639	20984.01529432346\\
116.63631210441277	20907.181195439392\\
117.26688845872914	20830.85470697925\\
117.89746481304552	20755.039341339183\\
118.52804116736189	20679.738610915356\\
119.15861752167827	20604.956028103927\\
119.78919387599464	20530.695105301067\\
120.41977023031102	20456.95935490293\\
121.05034658462739	20383.752289305678\\
121.68092293894377	20311.077420905473\\
122.31149929326014	20238.938262098483\\
122.94207564757652	20167.351600427257\\
123.57265200189289	20096.330240900472\\
124.20322835620927	20025.864858239376\\
124.83380471052564	19955.946042567037\\
125.46438106484202	19886.56438400652\\
126.09495741915839	19817.710472680894\\
126.72553377347477	19749.374898713235\\
127.35611012779114	19681.548252226603\\
127.98668648210752	19614.221123344072\\
128.6172628364239	19547.384102188713\\
129.24783919074028	19481.02777888359\\
129.87841554505667	19415.142743551776\\
130.50899189937306	19349.719586316336\\
131.13956825368945	19284.748897300346\\
131.77014460800584	19220.221266626868\\
132.40072096232223	19156.127284418984\\
133.03129731663861	19092.457540799747\\
133.661873670955	19029.211527548872\\
134.2924500252714	18966.523827355843\\
134.92302637958778	18904.422187617984\\
135.55360273390417	18842.87989884365\\
136.18417908822056	18781.870251541197\\
136.81475544253695	18721.36653621897\\
137.44533179685334	18661.342043385328\\
138.07590815116973	18601.770063548618\\
138.70648450548597	18542.623887217207\\
};

\addplot [
color=black,
loosely dashdotted
]
table[row sep=crcr]{
82.75992854189037	22001.151116149245\\
83.29845682694415	21912.731993704765\\
83.83698511199792	21824.97736609227\\
84.37551339705169	21737.926904476662\\
84.91404168210546	21651.620280022828\\
85.45256996715923	21566.097163895665\\
85.991098252213	21481.39722726005\\
86.52962653726678	21397.560141280905\\
87.06815482232055	21314.625577123104\\
87.60668310737432	21232.572755626912\\
88.1452113924281	21151.158443507193\\
88.68373967748187	21070.364130518472\\
89.22226796253564	20990.203545122873\\
89.76079624758941	20910.69041578249\\
90.29932453264318	20831.83847095942\\
90.83785281769696	20753.66143911579\\
91.37638110275073	20676.173048713696\\
91.9149093878045	20599.387028215253\\
92.45343767285827	20523.31710608255\\
92.99196595791204	20447.977010777715\\
93.53049424296582	20373.38047076284\\
94.06902252801959	20299.54121450005\\
94.60755081307336	20226.47297045143\\
95.14607909812713	20154.189467079097\\
95.6846073831809	20082.704432845156\\
96.22313566823468	20012.031596211717\\
96.76166395328845	19942.18468564088\\
97.30019223834222	19873.177429594765\\
97.83872052339599	19805.02355653547\\
98.37724880844976	19737.752776225356\\
98.91577709350354	19671.59109757465\\
99.45430537855731	19606.55872309239\\
99.99283366361108	19542.592170879765\\
100.53136194866485	19479.627959037967\\
101.06989023371862	19417.60260566819\\
101.6084185187724	19356.452628871622\\
102.14694680382617	19296.114546749446\\
102.68547508887994	19236.52487740286\\
103.22400337393371	19177.620138933045\\
103.76253165898748	19119.3368494412\\
104.30105994404126	19061.611527028504\\
104.83958822909503	19004.38068979616\\
105.3781165141488	18947.58085584535\\
105.91664479920257	18891.14854327726\\
106.45517308425634	18835.020270193087\\
106.99370136931012	18779.132554694017\\
107.53222965436389	18723.421914881237\\
108.07075793941766	18667.824868855947\\
108.60928622447143	18612.27793471933\\
109.1478145095252	18556.71818086172\\
109.68634279457898	18501.340968011256\\
110.22487107963275	18446.338600843053\\
110.76339936468652	18391.707609900604\\
111.30192764974029	18337.444525727416\\
111.84045593479406	18283.54587886699\\
112.37898421984784	18230.008199862823\\
112.91751250490161	18176.828019258413\\
113.45604078995538	18124.001867597268\\
113.99456907500915	18071.526275422886\\
114.53309736006292	18019.397773278764\\
115.0716256451167	17967.612891708406\\
115.61015393017047	17916.168161255315\\
116.14868221522424	17865.060112462983\\
116.68721050027801	17814.28527587491\\
117.22573878533179	17763.840182034604\\
117.76426707038556	17713.72136148557\\
118.30279535543933	17663.925344771298\\
118.8413236404931	17614.44866243529\\
119.37985192554687	17565.287845021045\\
119.91838021060065	17516.439423072075\\
120.45690849565442	17467.92115387142\\
120.99543678070819	17419.773635871625\\
121.53396506576196	17371.99163634218\\
122.07249335081573	17324.568331370225\\
122.6110216358695	17277.49689704291\\
123.14954992092328	17230.770509447375\\
123.68807820597705	17184.382344670765\\
124.22660649103082	17138.325578800224\\
124.7651347760846	17092.593387922898\\
125.30366306113837	17047.17894812593\\
125.84219134619214	17002.07543549646\\
126.38071963124591	16957.27602612164\\
126.91924791629968	16912.773896088605\\
127.45777620135345	16868.56222148451\\
127.99630448640723	16824.63417839649\\
128.534832771461	16780.98294291169\\
129.07336105651478	16737.60169111726\\
129.61188934156857	16694.483599100335\\
130.15041762662236	16651.62184294807\\
130.68894591167614	16609.009598747598\\
131.22747419672993	16566.649571580085\\
131.76600248178372	16524.588378901633\\
132.3045307668375	16482.830401315587\\
132.8430590518913	16441.372257435785\\
133.38158733694507	16400.210565876074\\
133.92011562199886	16359.341945250302\\
134.45864390705265	16318.763014172306\\
134.99717219210643	16278.470391255933\\
135.53570047716022	16238.460695115027\\
136.07422876221423	16198.730544363412\\
};
\end{axis}
\end{tikzpicture}%
