%Drag_and_Thrust_curves_CLIMB_AOE
\begin{tikzpicture}

\begin{axis}[
width=\figurewidth,
height=\figureheight,
scaled ticks=false, tick label style={/pgf/number format/fixed},
xmin=60.75200185424198,
xmax=142.9234635898666,
xlabel={Speed ((m/s))},
xmajorgrids,
ymin=14774.794828014125,
ymax=41525.99049996476,
ylabel={Forces ((N))},
ymajorgrids,
legend style={at={(1.03,0.5)},anchor=west,draw=black,fill=white,legend cell align=left}
]

\addplot [
color=black,
solid
]
table[row sep=crcr]{
60.75200185424198	16855.160421044082\\
61.58201661924829	16640.874256754712\\
62.412031384254604	16441.745952713\\
63.242046149260915	16257.109652877865\\
64.07206091426723	16086.263109547988\\
64.90207567927354	15928.467683361723\\
65.73209044427985	15782.948343297183\\
66.56210520928616	15648.893666672171\\
67.39211997429247	15525.455839144213\\
68.22213473929878	15411.750654710555\\
69.05214950430509	15311.949667078301\\
69.8821642693114	15221.129214433984\\
70.71217903431771	15138.01525573216\\
71.54219379932402	15065.363270328238\\
72.37220856433034	15002.872029227858\\
73.20222332933665	14945.836717679751\\
74.03223809434296	14900.336309071003\\
74.86225285934927	14861.340241270615\\
75.69226762435558	14829.17100149622\\
76.52228238936189	14806.760516185437\\
77.3522971543682	14787.993446096987\\
78.18231191937451	14780.605707036873\\
79.01232668438082	14775.275415825672\\
79.84234144938713	14781.238411796417\\
80.67235621439345	14789.3431169935\\
81.50237097939976	14806.875661794451\\
82.33238574440607	14828.377189270559\\
83.16240050941238	14855.588921720218\\
83.99241527441869	14890.412705685807\\
84.822430039425	14925.582327786298\\
85.65244480443131	14973.339172627077\\
86.48245956943762	15021.84200582918\\
87.31247433444393	15074.900529841058\\
88.14248909945024	15136.583159757949\\
88.97250386445656	15198.84938665692\\
89.80251862946287	15267.367771017898\\
90.63253339446918	15342.733770093078\\
91.46254815947549	15418.793147658866\\
92.2925629244818	15499.845762680461\\
93.12257768948811	15588.876365670161\\
93.95259245449442	15678.704063382269\\
94.78260721950073	15769.328855816784\\
95.61262198450704	15871.768783584343\\
96.44263674951335	15975.285383431868\\
97.27265151451967	16079.696728956886\\
98.10266627952598	16187.841335988218\\
98.93268104453229	16304.912832469821\\
99.7626958095386	16422.970660307303\\
100.59271057454491	16542.014819500662\\
101.42272533955122	16663.634610215762\\
102.25274010455753	16795.14426209723\\
103.08275486956384	16927.725765736242\\
103.91276963457015	17061.3791211328\\
104.74278439957646	17196.104328286896\\
105.57279916458278	17337.747158662372\\
106.40281392958909	17484.76200259392\\
107.2328286945954	17632.928153407964\\
108.06284345960171	17782.245611104503\\
108.89285822460802	17932.71437568354\\
109.72287298961433	18088.708407191054\\
110.55288775462064	18251.218169316304\\
111.38290251962695	18414.952628172294\\
112.21291728463326	18579.911783759017\\
113.04293204963957	18746.095636076465\\
113.87294681464589	18913.504185124657\\
114.7029615796522	19088.12658259532\\
115.53297634465851	19267.322031209453\\
116.36299110966482	19447.80950112585\\
117.19300587467113	19629.5889923445\\
118.02302063967744	19812.66050486541\\
118.85303540468375	19997.024038688578\\
119.68305016969006	20182.679593813995\\
120.51306493469637	20378.460833727444\\
121.34307969970268	20575.62553585937\\
122.173094464709	20774.143518588353\\
123.0031092297153	20974.014781914408\\
123.83312399472162	21175.239325837527\\
124.66313875972793	21377.81715035771\\
125.49315352473424	21581.748255474966\\
126.32316828974055	21789.383547007434\\
127.15318305474686	22004.449002144313\\
127.98319781975317	22220.92293189635\\
128.81321258475947	22438.805336263547\\
129.64322734976577	22658.096215245907\\
130.47324211477206	22878.795568843438\\
131.30325687977836	23100.903397056118\\
132.13327164478466	23324.419699883976\\
132.96328640979095	23549.344477326988\\
133.79330117479725	23777.067259888478\\
134.62331593980355	24012.752803419582\\
135.45333070480984	24249.895950307226\\
136.28334546981614	24488.496700551423\\
137.11336023482244	24728.55505415216\\
137.94337499982873	24970.071011109438\\
138.77338976483503	25213.04457142327\\
139.60340452984133	25457.47573509364\\
140.43341929484762	25703.36450212056\\
141.26343405985392	25950.71087250402\\
142.09344882486022	26199.51484624403\\
142.9234635898666	26451.330071003944\\
};

\addplot [
color=black,
densely dashed
]
table[row sep=crcr]{
65.36787710872356	16855.160421044075\\
66.12663812832547	16673.04253554509\\
66.88539914792737	16501.66897166916\\
67.64416016752928	16340.388920564976\\
68.40292118713118	16188.525305038102\\
69.16168220673309	16045.374779550952\\
69.920443226335	15913.209973065763\\
70.6792042459369	15790.432878120973\\
71.4379652655388	15674.771952005833\\
72.19672628514071	15566.127787301866\\
72.95548730474262	15469.082250914282\\
73.71424832434452	15377.39397403032\\
74.47300934394643	15292.32560042768\\
75.23177036354834	15217.262635425499\\
75.99053138315024	15145.636032484965\\
76.74929240275215	15084.040989245015\\
77.50805342235405	15026.81758330953\\
78.26681444195596	14976.627057194002\\
79.02557546155786	14932.565870203089\\
79.78433648115977	14893.813787605071\\
80.54309750076168	14861.595036468883\\
81.30185852036358	14834.289055438345\\
82.06061953996549	14812.514152037644\\
82.81938055956739	14796.635662281426\\
83.5781415791693	14783.827213467588\\
84.3369025987712	14779.331336349402\\
85.09566361837311	14774.794828014125\\
85.85442463797501	14780.74873248486\\
86.61318565757692	14787.624822929238\\
87.37194667717883	14799.15543215787\\
88.13070769678073	14817.342328002173\\
88.88946871638264	14835.686480814282\\
89.64822973598454	14862.083582987372\\
90.40699075558645	14891.702856483204\\
91.16575177518835	14921.571763953503\\
91.92451279479026	14960.61544032315\\
92.68327381439217	15001.688759303486\\
93.44203483399407	15043.09971120776\\
94.20079585359598	15092.412432967278\\
94.95955687319788	15144.922062750393\\
95.71831789279979	15197.852946349729\\
96.4770789124017	15254.899574633688\\
97.2358399320036	15318.788378023155\\
97.9946009516055	15383.17767806396\\
98.75336197120741	15448.067474756099\\
99.51212299080932	15520.436901232877\\
100.27088401041122	15596.183699946845\\
101.02964503001313	15672.505860090067\\
101.78840604961503	15749.403381662532\\
102.54716706921694	15833.744390506648\\
103.30592808881885	15921.354215760775\\
104.06468910842075	16009.609889164873\\
104.82345012802266	16098.511410718944\\
105.58221114762456	16191.210102673638\\
106.34097216722647	16290.635448997318\\
107.09973318682837	16390.77275213451\\
107.85849420643028	16491.62201208521\\
108.61725522603219	16593.18322884942\\
109.37601624563409	16699.942629698828\\
110.134777265236	16811.85714235506\\
110.8935382848379	16924.54534243116\\
111.65229930443981	17038.007229927116\\
112.41106032404171	17152.242804842925\\
113.16982134364362	17268.305459692587\\
113.92858236324552	17392.67126493659\\
114.68734338284743	17517.86811014962\\
115.44610440244934	17643.895995331666\\
116.20486542205124	17770.754920482726\\
116.96362644165315	17898.444885602818\\
117.72238746125505	18027.682902520435\\
118.48114848085696	18165.280470210597\\
119.23990950045886	18303.76205236175\\
119.99867052006077	18443.127648973903\\
120.75743153966268	18583.377260047044\\
121.51619255926458	18724.51088558118\\
122.27495357886649	18866.52852557631\\
123.03371459846839	19011.422436502085\\
123.7924756180703	19163.11235494333\\
124.5512366376722	19315.73488428035\\
125.30999765727411	19469.290024513153\\
126.06875867687602	19623.777775641727\\
126.82751969647792	19779.198137666088\\
127.58628071607983	19935.55111058623\\
128.34504173568175	20092.836694402155\\
129.10380275528365	20254.26662182092\\
129.86256377488556	20420.963329421582\\
130.62132479448746	20588.636866295616\\
131.38008581408937	20757.28723244303\\
132.13884683369128	20926.914427863823\\
132.89760785329318	21097.51845255799\\
133.6563688728951	21269.099306525535\\
134.415129892497	21441.656989766452\\
135.1738909120989	21615.191502280748\\
135.9326519317008	21792.16265503629\\
136.6914129513027	21974.80817196499\\
137.45017397090461	22158.470358487473\\
138.20893499050652	22343.149214603745\\
138.96769601010843	22528.8447403138\\
139.72645702971033	22715.556935617646\\
140.48521804931246	22903.285800515332\\
};

\addplot [
color=black,
dashdotted
]
table[row sep=crcr]{
70.51572499185646	16855.16042104407\\
71.19743566296721	16703.35463439706\\
71.87914633407796	16558.025454116098\\
72.56085700518871	16418.56392964592\\
73.24256767629946	16288.470307060816\\
73.92427834741021	16164.866311253336\\
74.60598901852096	16045.745832940951\\
75.28769968963171	15935.77443524089\\
75.96941036074246	15830.953094594359\\
76.65112103185321	15730.573308719559\\
77.33283170296396	15639.195017252967\\
78.01454237407471	15549.940482769225\\
78.69625304518546	15469.629058841138\\
79.37796371629621	15392.004084167236\\
80.05967438740696	15321.339792033752\\
80.74138505851771	15254.339481299365\\
81.42309572962846	15193.338904256165\\
82.10480640073921	15135.903697653845\\
82.78651707184996	15084.565197684256\\
83.4682277429607	15035.580871469423\\
84.14993841407146	14993.884589244384\\
84.8316490851822	14952.182255735344\\
85.51335975629296	14920.090110613424\\
86.1950704274037	14887.741103750297\\
86.87678109851446	14861.901908218739\\
87.5584917696252	14839.179999213762\\
88.24020244073596	14817.9672432382\\
88.9219131118467	14804.794871939788\\
89.60362378295746	14791.521127432443\\
90.2853344540682	14783.141876544372\\
90.96704512517896	14779.395077217683\\
91.6487557962897	14775.620093620098\\
92.33046646740046	14778.367388586248\\
93.0121771385112	14784.072462560236\\
93.69388780962196	14789.819504315974\\
94.3755984807327	14801.877058028816\\
95.05730915184346	14817.032974663887\\
95.7390198229542	14832.29797424795\\
96.42073049406495	14851.74017172571\\
97.1024411651757	14876.3185684137\\
97.78415183628645	14901.07012633253\\
98.4658625073972	14925.99484548221\\
99.14757317850795	14959.807206883357\\
99.8292838496187	14993.98659167483\\
100.51099452072945	15028.400179093609\\
101.1927051918402	15065.212861335163\\
101.87441586295095	15108.734009568598\\
102.5561265340617	15152.5473649404\\
103.23783720517245	15196.652927450563\\
103.9195478762832	15242.835027496205\\
104.60125854739395	15295.931718536382\\
105.2829692185047	15349.375584340587\\
105.96467988961545	15403.166624908827\\
106.6463905607262	15457.304840241088\\
107.32810123183695	15518.519931543637\\
108.0098119029477	15581.554405007577\\
108.69152257405845	15644.987983975816\\
109.3732332451692	15708.82066844836\\
110.05494391627995	15773.326705349282\\
110.7366545873907	15845.875441075543\\
111.41836525850145	15918.87217616098\\
112.1000759296122	15992.316910605581\\
112.78178660072295	16066.209644409359\\
113.4634972718337	16140.550377572308\\
114.14520794294445	16221.282831975723\\
114.8269186140552	16304.22075459943\\
115.50862928516595	16387.65253355179\\
116.1903399562767	16471.5781688328\\
116.87205062738745	16555.997660442463\\
117.5537612984982	16640.911008380768\\
118.23547196960895	16733.48033011641\\
118.9171826407197	16826.829489326978\\
119.59889331183045	16920.715324950277\\
120.2806039829412	17015.1378369863\\
120.96231465405195	17110.097025435065\\
121.6440253251627	17205.59289029656\\
122.32573599627345	17305.226881634295\\
123.0074466673842	17408.954663184002\\
123.68915733849495	17513.258904345123\\
124.3708680096057	17618.139605117663\\
125.05257868071645	17723.596765501617\\
125.7342893518272	17829.630385496992\\
126.41600002293795	17936.240465103787\\
127.0977106940487	18045.19332685081\\
127.77942136515945	18159.825658479516\\
128.4611320362702	18275.071196032928\\
129.14284270738094	18390.92993951105\\
129.8245533784917	18507.401888913875\\
130.50626404960244	18624.487044241414\\
131.18797472071319	18742.185405493656\\
131.86968539182394	18860.496972670604\\
132.55139606293469	18979.764365292656\\
133.23310673404544	19105.873639086785\\
133.91481740515619	19232.629828233516\\
134.59652807626694	19360.032932732844\\
135.27823874737769	19488.08295258478\\
135.95994941848843	19616.779887789315\\
136.64166008959918	19746.12373834645\\
137.32337076070993	19876.11450425619\\
138.00508143182054	20006.752185518504\\
};

\addplot [
color=black,
dashed
]
table[row sep=crcr]{
76.27942542816477	16855.16042104408\\
76.877418628968	16731.862574988394\\
77.47541182977123	16610.93070336332\\
78.07340503057446	16497.252905337606\\
78.6713982313777	16386.978012288375\\
79.26939143218092	16281.336194460802\\
79.86738463298416	16181.00236567171\\
80.46537783378739	16083.42516696833\\
81.06337103459062	15992.280542142653\\
81.66136423539385	15902.784619495833\\
82.25935743619708	15820.04139235586\\
82.85735063700031	15738.631420704309\\
83.45534383780354	15663.465838991335\\
84.05333703860677	15590.134511280095\\
84.65133023941	15521.686876754402\\
85.24932344021323	15456.41490393484\\
85.84731664101646	15393.789572375717\\
86.4453098418197	15336.545683405537\\
87.04330304262292	15278.90443028704\\
87.64129624342615	15229.552006454525\\
88.23928944422939	15179.955693817681\\
88.83728264503262	15134.411101869448\\
89.43527584583585	15092.802497685685\\
90.03326904663908	15050.914751691123\\
90.63126224744231	15016.36216071038\\
91.22925544824554	14982.449024817004\\
91.82724864904877	14949.50407373643\\
92.425241849852	14923.48235492938\\
93.02323505065523	14897.291728653252\\
93.62122825145846	14872.824222904575\\
94.21922145226169	14854.481960378722\\
94.81721465306492	14836.02291205625\\
95.41520785386815	14818.633128867536\\
96.01320105467138	14807.963414967706\\
96.61119425547462	14797.227039944766\\
97.20918745627785	14786.424003798718\\
97.80718065708108	14782.421318662618\\
98.40517385788431	14779.380739294596\\
99.00316705868754	14776.321626478022\\
99.60116025949077	14776.242433486745\\
100.199153460294	14780.852799138518\\
100.79714666109723	14785.490762017365\\
101.39513986190046	14790.156322123274\\
101.99313306270369	14799.904170566326\\
102.59112626350692	14812.174388516027\\
103.18911946431015	14824.516337369463\\
103.78711266511338	14836.930017126646\\
104.38510586591661	14854.507646130292\\
104.98309906671984	14874.441193117254\\
105.58109226752308	14894.488607685686\\
106.1790854683263	14914.649889835586\\
106.77707866912954	14937.940218589421\\
107.37507186993277	14965.516607365655\\
107.973065070736	14993.247003402137\\
108.57105827153923	15021.131406698874\\
109.16905147234246	15049.169817255864\\
109.76704467314569	15083.072313786004\\
110.36503787394892	15118.439243056268\\
110.96303107475215	15153.998322266627\\
111.56102427555538	15189.749551417077\\
112.15901747635861	15225.692930507617\\
112.75701067716184	15267.521333286853\\
113.35500387796507	15310.682679190282\\
113.9529970787683	15354.072320714698\\
114.55099027957154	15397.6902578601\\
115.14898348037477	15441.53649062649\\
115.746976681178	15488.424808222622\\
116.34496988198123	15539.35449191417\\
116.94296308278446	15590.54661990866\\
117.54095628358769	15642.001192206086\\
118.13894948439092	15693.718208806456\\
118.73694268519415	15745.69766970976\\
119.33493588599738	15801.262707532733\\
119.93292908680061	15860.199291169154\\
120.53092228760384	15919.43047079151\\
121.12891548840707	15978.956246399812\\
121.7269086892103	16038.776617994063\\
122.32490189001354	16098.891585574249\\
122.92289509081677	16159.508855975137\\
123.52088829162	16226.426660111167\\
124.11888149242323	16293.669214917198\\
124.71687469322646	16361.236520393237\\
125.31486789402969	16429.128576539282\\
125.91286109483292	16497.345383355332\\
126.51085429563615	16565.886940841385\\
127.10884749643938	16634.753248997447\\
127.70684069724261	16709.166483592086\\
128.30483389804584	16784.70969951172\\
128.90282709884906	16860.605823786478\\
129.50082029965228	16936.85485641636\\
130.0988135004555	17013.45679740136\\
130.6968067012587	17090.41164674148\\
131.29479990206192	17167.719404436728\\
131.89279310286514	17245.380070487096\\
132.49078630366836	17328.608747307997\\
133.08877950447157	17412.78444634868\\
133.6867727052748	17497.339214430656\\
134.284765906078	17582.27305155393\\
134.88275910688122	17667.585957718493\\
135.48075230768399	17753.277932924288\\
};

\addplot [
color=black,
densely dashdotted
]
table[row sep=crcr]{
82.75992854189037	16855.160421044075\\
83.266492009288	16758.61790121\\
83.77305547668563	16663.120862246313\\
84.27961894408325	16572.114937991035\\
84.78618241148088	16483.19954756551\\
85.2927458788785	16397.091608067105\\
85.79930934627613	16314.73780948051\\
86.30587281367376	16232.867331000123\\
86.81243628107138	16157.047763247589\\
87.31899974846901	16080.78448248354\\
87.82556321586664	16009.412306900438\\
88.33212668326426	15939.69132184794\\
88.83869015066189	15871.085121250208\\
89.34525361805952	15807.863244908818\\
89.85181708545714	15744.28189854765\\
90.35838055285477	15684.517410949109\\
90.8649440202524	15627.424977412438\\
91.37150748765002	15570.013369275446\\
91.87807095504765	15518.17922832102\\
92.38463442244527	15467.236598047715\\
92.8911978898429	15416.013871209267\\
93.39776135724053	15371.154884710035\\
93.90432482463815	15326.37146170028\\
94.41088829203578	15281.345802776304\\
94.9174517594334	15242.462952709493\\
95.42401522683103	15203.837184505011\\
95.93057869422866	15165.005823652938\\
96.43714216162628	15131.056266161939\\
96.94370562902391	15098.575643846001\\
97.45026909642154	15065.924854764822\\
97.95683256381916	15035.821920159166\\
98.46339603121679	15009.46297835656\\
98.96995949861441	14982.968078286816\\
99.47652296601204	14956.337219949919\\
99.98308643340967	14935.309587919259\\
100.4896499008073	14914.934937643004\\
100.99621336820492	14894.457320213405\\
101.50277683560255	14874.860133665867\\
102.00934030300017	14860.559137506702\\
102.5159037703978	14846.186947923736\\
103.02246723779542	14831.743564916982\\
103.52903070519305	14818.508643800467\\
104.03559417259068	14810.183112544999\\
104.5421576399883	14801.816944211012\\
105.04872110738593	14793.410138798485\\
105.55528457478356	14785.037084790509\\
106.06184804218118	14782.67718776741\\
106.56841150957881	14780.305992626778\\
107.07497497697643	14777.923499368604\\
107.58153844437406	14775.529707992893\\
108.08810191177169	14776.42016901692\\
108.59466537916931	14780.018290402753\\
109.10122884656694	14783.63323524777\\
109.60779231396457	14787.265003551964\\
110.11435578136219	14790.91359531534\\
110.62091924875982	14799.201165880388\\
111.12748271615744	14808.772066166144\\
111.63404618355507	14818.38669410352\\
112.1406096509527	14828.045049692524\\
112.64717311835032	14837.747132933157\\
113.15373658574795	14851.455842963629\\
113.66030005314558	14866.996021876184\\
114.1668635205432	14882.605615248545\\
114.67342698794083	14898.284623080695\\
115.17999045533846	14914.033045372647\\
115.68655392273608	14931.077360208325\\
116.19311739013371	14952.565056710473\\
116.69968085753133	14974.146637096312\\
117.20624432492896	14995.822101365853\\
117.71280779232659	15017.591449519086\\
118.21937125972421	15039.45468155602\\
118.72593472712184	15063.171462205542\\
119.23249819451947	15090.683790419276\\
119.73906166191709	15118.313254556337\\
120.24562512931472	15146.059854616711\\
120.75218859671234	15173.923590600414\\
121.25875206410997	15201.90446250743\\
121.7653155315076	15230.002470337771\\
122.27187899890522	15263.231245019459\\
122.77844246630285	15296.893162268734\\
123.28500593370048	15330.694250096683\\
123.7915694010981	15364.634508503303\\
124.29813286849573	15398.713937488597\\
124.80469633589335	15432.93253705256\\
125.31125980329098	15467.363666437326\\
125.8178232706886	15507.020693242906\\
126.32438673808623	15546.837707898232\\
126.83095020548386	15586.814710403314\\
127.33751367288149	15626.951700758136\\
127.84407714027911	15667.248678962716\\
128.35064060767675	15707.705645017042\\
128.85720407507438	15748.322598921119\\
129.363767542472	15791.339693110749\\
129.87033100986963	15837.291748472893\\
130.37689447726726	15883.423391571596\\
130.88345794466488	15929.734622406844\\
131.3900214120625	15976.225440978655\\
131.89658487946014	16022.895847287013\\
132.40314834685776	16069.745841331925\\
132.90971181425576	16116.775423113428\\
};

\addplot [
color=black,
densely dotted
]
table[row sep=crcr]{
60.75200185424198	41525.99049996476\\
61.58201661924829	41231.229198360335\\
62.412031384254604	40873.56698638477\\
63.242046149260915	40470.66284420937\\
64.07206091426723	40040.17575200542\\
64.90207567927354	39599.76468994419\\
65.73209044427985	39167.08863819698\\
66.56210520928616	38759.80657693509\\
67.39211997429247	38395.577486329756\\
68.22213473929878	38092.06034655231\\
69.05214950430509	37866.91413777402\\
69.8821642693114	37737.797840166175\\
70.71217903431771	37706.315742791034\\
71.54219379932402	37616.93697791964\\
72.37220856433034	37438.58465890833\\
73.20222332933665	37186.869808829906\\
74.03223809434296	36877.40345075716\\
74.86225285934927	36525.79660776288\\
75.69226762435558	36147.66030291985\\
76.52228238936189	35758.605559300886\\
77.3522971543682	35374.24339997876\\
78.18231191937451	35010.18484802628\\
79.01232668438082	34682.040926516216\\
79.84234144938713	34405.422658521384\\
80.67235621439345	34195.94106711456\\
81.50237097939976	34069.207175368545\\
82.33238574440607	34035.21683909764\\
83.16240050941238	33967.521399046746\\
83.99241527441869	33818.59055350546\\
84.822430039425	33602.34202267056\\
85.65244480443131	33332.69352673882\\
86.48245956943762	33023.562785907\\
87.31247433444393	32688.867520371892\\
88.14248909945024	32342.525450330253\\
88.97250386445656	31998.454295978885\\
89.80251862946287	31670.571777514524\\
90.63253339446918	31372.79561513396\\
91.46254815947549	31119.043529033966\\
92.2925629244818	30923.233239411325\\
93.12257768948811	30799.28246646279\\
93.95259245449442	30760.28091029282\\
94.78260721950073	30711.138669424556\\
95.61262198450704	30588.29820088181\\
96.44263674951335	30404.09546419146\\
97.27265151451967	30170.86641888039\\
98.10266627952598	29900.947024475463\\
98.93268104453229	29606.67324050357\\
99.7626958095386	29300.381026491596\\
100.59271057454491	28994.40634196641\\
101.42272533955122	28701.08514645489\\
102.25274010455753	28432.75339948392\\
103.08275486956384	28201.74706058038\\
103.91276963457015	28020.402089271138\\
104.74278439957646	27901.054445083093\\
105.57279916458278	27856.0400875431\\
106.40281392958909	27822.328996264558\\
107.2328286945954	27722.273739688677\\
108.06284345960171	27566.60289642452\\
108.89285822460802	27366.19654469469\\
109.72287298961433	27131.934762721765\\
110.55288775462064	26874.697628728332\\
111.38290251962695	26605.365220936983\\
112.21291728463326	26334.817617570294\\
113.04293204963957	26073.934896850868\\
113.87294681464589	25833.597137001278\\
114.7029615796522	25624.684416244116\\
115.53297634465851	25458.07681280197\\
116.36299110966482	25344.654404897425\\
117.19300587467113	25295.297270753064\\
118.02302063967744	25272.32111254522\\
118.85303540468375	25192.179892722874\\
119.68305016969006	25062.050968208205\\
120.51306493469637	24891.4574026513\\
121.34307969970268	24689.922259702245\\
122.173094464709	24466.96860301114\\
123.0031092297153	24232.119496228057\\
123.83312399472162	23994.898003003094\\
124.66313875972793	23764.827186986346\\
125.49315352473424	23551.43011182788\\
126.32316828974055	23364.22984117781\\
127.15318305474686	23212.749438686198\\
127.98319781975317	23106.511968003153\\
128.81321258475947	23055.040492778753\\
129.64322734976577	23037.967522621075\\
130.47324211477206	22972.306053470336\\
131.30325687977836	22860.204259036487\\
132.13327164478466	22710.28367323315\\
132.96328640979095	22531.1658299739\\
133.79330117479725	22331.47226317234\\
134.62331593980355	22119.824506742076\\
135.45333070480984	21904.8440945967\\
136.28334546981614	21695.152560649814\\
137.11336023482244	21499.371438815007\\
137.94337499982873	21326.122263005887\\
138.77338976483503	21184.02656713605\\
139.60340452984133	21081.70588511909\\
140.43341929484762	21027.781750868606\\
141.26343405985392	21013.3769240915\\
142.09344882486022	20958.663939590213\\
142.9234635898666	20859.488568966448\\
};

\addplot [
color=black,
dashdotdotted
]
table[row sep=crcr]{
65.36787710872356	37568.71753787014\\
66.12663812832547	37324.86919289721\\
66.88539914792737	37085.05962724977\\
67.64416016752928	36850.628906970276\\
68.40292118713118	36622.9170981012\\
69.16168220673309	36403.26426668498\\
69.920443226335	36190.439048798165\\
70.6792042459369	35981.54479335193\\
71.4379652655388	35776.26080823589\\
72.19672628514071	35574.274739632274\\
72.95548730474262	35375.27423372332\\
73.71424832434452	35178.94693669128\\
74.47300934394643	34984.98049471841\\
75.23177036354834	34793.06255398693\\
75.99053138315024	34602.88076067908\\
76.74929240275215	34414.122760977116\\
77.50805342235405	34226.47620106328\\
78.26681444195596	34039.628727119816\\
79.02557546155786	33853.26798532897\\
79.78433648115977	33667.08162187296\\
80.54309750076168	33480.757282934064\\
81.30185852036358	33294.51872957237\\
82.06061953996549	33109.52217762964\\
82.81938055956739	32925.76102391104\\
83.5781415791693	32743.166750482436\\
84.3369025987712	32561.670839409675\\
85.09566361837311	32381.204772758614\\
85.85442463797501	32201.7000325951\\
86.61318565757692	32023.08810098499\\
87.37194667717883	31845.30045999413\\
88.13070769678073	31668.268591688386\\
88.88946871638264	31491.9239781336\\
89.64822973598454	31316.19810139563\\
90.40699075558645	31141.022443540318\\
91.16575177518835	30966.32848663353\\
91.92451279479026	30792.047712741103\\
92.68327381439217	30618.189304657782\\
93.44203483399407	30445.09200383732\\
94.20079585359598	30272.76770731483\\
94.95955687319788	30101.173310241473\\
95.71831789279979	29930.265707768387\\
96.4770789124017	29760.001795046734\\
97.2358399320036	29590.338467227666\\
97.9946009516055	29421.23261946233\\
98.75336197120741	29252.64114690189\\
99.51212299080932	29084.52094469748\\
100.27088401041122	28916.82890800027\\
101.02964503001313	28749.5219319614\\
101.78840604961503	28582.556911732023\\
102.54716706921694	28415.890742463303\\
103.30592808881885	28249.480319306385\\
104.06468910842075	28083.236500083647\\
104.82345012802266	27916.611224283297\\
105.58221114762456	27749.612188561154\\
106.34097216722647	27582.43834343726\\
107.09973318682837	27415.28863943165\\
107.85849420643028	27248.36202706438\\
108.61725522603219	27081.85745685546\\
109.37601624563409	26915.973879324963\\
110.134777265236	26750.910244992905\\
110.8935382848379	26586.865504379344\\
111.65229930443981	26424.038608004303\\
112.41106032404171	26262.628506387828\\
113.16982134364362	26102.83415004996\\
113.92858236324552	25944.854489510733\\
114.68734338284743	25788.888475290198\\
115.44610440244934	25635.127926770918\\
116.20486542205124	25483.256068040977\\
116.96362644165315	25332.96886748207\\
117.72238746125505	25184.205384173943\\
118.48114848085696	25036.9046771963\\
119.23990950045886	24891.00580562889\\
119.99867052006077	24746.44782855143\\
120.75743153966268	24603.169805043657\\
121.51619255926458	24461.110794185293\\
122.27495357886649	24320.20985505607\\
123.03371459846839	24180.40604673572\\
123.7924756180703	24041.638428303966\\
124.5512366376722	23903.846058840543\\
125.30999765727411	23766.967997425167\\
126.06875867687602	23630.943303137585\\
126.82751969647792	23495.711035057517\\
127.58628071607983	23361.437478090324\\
128.34504173568175	23228.36022267929\\
129.10380275528365	23096.434730747973\\
129.86256377488556	22965.615462206195\\
130.62132479448746	22835.856876963757\\
131.38008581408937	22707.113434930503\\
132.13884683369128	22579.339596016216\\
132.89760785329318	22452.489820130744\\
133.6563688728951	22326.518567183884\\
134.415129892497	22201.38029708546\\
135.1738909120989	22077.029469745277\\
135.9326519317008	21953.420545073168\\
136.6914129513027	21830.50798297894\\
137.45017397090461	21708.24624337241\\
138.20893499050652	21586.589786163397\\
138.96769601010843	21465.67555639369\\
139.72645702971033	21345.90078544472\\
140.48521804931246	21227.194805292314\\
};

\addplot [
color=black,
densely dashdotdetted
]
table[row sep=crcr]{
70.51572499185646	32039.054247785356\\
71.19743566296721	31871.642758250935\\
71.87914633407796	31705.03034997032\\
72.56085700518871	31539.29588886163\\
73.24256767629946	31374.51824084304\\
73.92427834741021	31210.77627183267\\
74.60598901852096	31048.148847748682\\
75.28769968963171	30886.71483450921\\
75.96941036074246	30726.553098032407\\
76.65112103185321	30567.74250423641\\
77.33283170296396	30410.361919039377\\
78.01454237407471	30254.49020835944\\
78.69625304518546	30100.20623811475\\
79.37796371629621	29947.58793855902\\
80.05967438740696	29796.56829360209\\
80.74138505851771	29647.03666170758\\
81.42309572962846	29498.950984844785\\
82.10480640073921	29352.269204982964\\
82.78651707184996	29206.949264091407\\
83.4682277429607	29062.949104139392\\
84.14993841407146	28920.226667096205\\
84.8316490851822	28778.739894931114\\
85.51335975629296	28638.44672961341\\
86.1950704274037	28499.305113112372\\
86.87678109851446	28361.272987397268\\
87.5584917696252	28224.308294437382\\
88.24020244073596	28088.368976202\\
88.9219131118467	27953.4129746604\\
89.60362378295746	27819.398231781855\\
90.2853344540682	27686.282689535656\\
90.96704512517896	27554.071727311017\\
91.6487557962897	27423.04233158955\\
92.33046646740046	27293.218573847105\\
93.0121771385112	27164.566613165673\\
93.69388780962196	27037.052608627244\\
94.3755984807327	26910.6427193138\\
95.05730915184346	26785.30310430734\\
95.7390198229542	26660.99992268985\\
96.42073049406495	26537.69933354331\\
97.1024411651757	26415.367495949726\\
97.78415183628645	26293.970568991073\\
98.4658625073972	26173.474711749346\\
99.14757317850795	26053.84608330653\\
99.8292838496187	25935.050842744622\\
100.51099452072945	25817.055149145595\\
101.1927051918402	25699.825161591456\\
101.87441586295095	25583.32703916418\\
102.5561265340617	25467.599847572095\\
103.23783720517245	25352.753851894664\\
103.9195478762832	25238.79050802691\\
104.60125854739395	25125.7092473103\\
105.2829692185047	25013.509501086297\\
105.96467988961545	24902.190700696363\\
106.6463905607262	24791.752277481966\\
107.32810123183695	24682.193662784557\\
108.0098119029477	24573.51428794561\\
108.69152257405845	24465.713584306584\\
109.3732332451692	24358.790983208946\\
110.05494391627995	24252.745915994154\\
110.7366545873907	24147.57781400368\\
111.41836525850145	24043.286108578974\\
112.1000759296122	23939.870231061504\\
112.78178660072295	23837.329612792746\\
113.4634972718337	23735.667454248593\\
114.14520794294445	23634.971288346987\\
114.8269186140552	23535.259506395843\\
115.50862928516595	23436.507271619295\\
116.1903399562767	23338.689747241453\\
116.87205062738745	23241.78209648645\\
117.5537612984982	23145.759482578407\\
118.23547196960895	23050.59706874143\\
118.9171826407197	22956.27001819966\\
119.59889331183045	22862.753494177206\\
120.2806039829412	22770.022659898197\\
120.96231465405195	22678.05267858675\\
121.6440253251627	22586.81871346699\\
122.32573599627345	22496.29592776304\\
123.0074466673842	22406.459484699022\\
123.68915733849495	22317.284547499046\\
124.3708680096057	22228.746279387255\\
125.05257868071645	22140.871463475105\\
125.7342893518272	22053.838268510604\\
126.41600002293795	21967.64252172605\\
127.0977106940487	21882.259363782458\\
127.77942136515945	21797.663935340854\\
128.4611320362702	21713.831377062263\\
129.14284270738094	21630.736829607707\\
129.8245533784917	21548.355433638208\\
130.50626404960244	21466.662329814793\\
131.18797472071319	21385.632658798484\\
131.86968539182394	21305.241561250303\\
132.55139606293469	21225.464177831273\\
133.23310673404544	21146.27564920242\\
133.91481740515619	21067.65111602477\\
134.59652807626694	20989.565718959333\\
135.27823874737769	20911.99459866715\\
135.95994941848843	20834.912895809233\\
136.64166008959918	20758.38397788824\\
137.32337076070993	20682.486357085487\\
138.00508143182054	20607.213614394157\\
};

\addplot [
color=black,
loosely dashed
]
table[row sep=crcr]{
76.27942542816477	27000.159016158283\\
76.877418628968	26878.231498790392\\
77.47541182977123	26758.604856995604\\
78.07340503057446	26641.439290844784\\
78.6713982313777	26526.274084824803\\
79.26939143218092	26412.87619919739\\
79.86738463298416	26301.158717552582\\
80.46537783378739	26191.034723480407\\
81.06337103459062	26082.41730057089\\
81.66136423539385	25975.21953241407\\
82.25935743619708	25869.354502599977\\
82.85735063700031	25764.735294718645\\
83.45534383780354	25661.2749923601\\
84.05333703860677	25558.886679114374\\
84.65133023941	25457.483438571504\\
85.24932344021323	25356.97835432152\\
85.84731664101646	25257.28450995445\\
86.4453098418197	25158.314989060327\\
87.04330304262292	25059.982875229187\\
87.64129624342615	24962.20125205105\\
88.23928944422939	24864.88320311596\\
88.83728264503262	24767.941812013945\\
89.43527584583585	24671.544813293334\\
90.03326904663908	24576.23920568568\\
90.63126224744231	24481.995223645128\\
91.22925544824554	24388.755645936653\\
91.82724864904877	24296.463251325215\\
92.425241849852	24205.060818575792\\
93.02323505065523	24114.491126453355\\
93.62122825145846	24024.69695372288\\
94.21922145226169	23935.621079149336\\
94.81721465306492	23847.20628149769\\
95.41520785386815	23759.39533953292\\
96.01320105467138	23672.131032019985\\
96.61119425547462	23585.35613772388\\
97.20918745627785	23499.01343540956\\
97.80718065708108	23413.045703842003\\
98.40517385788431	23327.395721786183\\
99.00316705868754	23242.00626800706\\
99.60116025949077	23156.82012126961\\
100.199153460294	23071.784179906266\\
100.79714666109723	22987.081023712664\\
101.39513986190046	22902.833637668704\\
101.99313306270369	22819.04133182631\\
102.59112626350692	22735.70341623742\\
103.18911946431015	22652.819200953963\\
103.78711266511338	22570.38799602788\\
104.38510586591661	22488.409111511082\\
104.98309906671984	22406.88185745551\\
105.58109226752308	22325.8055439131\\
106.1790854683263	22245.179480935774\\
106.77707866912954	22165.002978575478\\
107.37507186993277	22085.275346884126\\
107.973065070736	22005.995895913657\\
108.57105827153923	21927.163935716\\
109.16905147234246	21848.77877634309\\
109.76704467314569	21770.83972784685\\
110.36503787394892	21693.346100279217\\
110.96303107475215	21616.297203692124\\
111.56102427555538	21539.690288480644\\
112.15901747635861	21463.515960046734\\
112.75701067716184	21387.775710427475\\
113.35500387796507	21312.472535190896\\
113.9529970787683	21237.609429905042\\
114.55099027957154	21163.189390137944\\
115.14898348037477	21089.215411457644\\
115.746976681178	21015.690489432185\\
116.34496988198123	20942.617619629593\\
116.94296308278446	20869.999797617922\\
117.54095628358769	20797.840018965187\\
118.13894948439092	20726.141279239455\\
118.73694268519415	20654.906574008735\\
119.33493588599738	20584.138898841087\\
119.93292908680061	20513.841249304543\\
120.53092228760384	20444.016620967137\\
121.12891548840707	20374.66800939692\\
121.7269086892103	20305.798410161908\\
122.32490189001354	20237.41081883015\\
122.92289509081677	20169.520705407864\\
123.52088829162	20102.139275682606\\
124.11888149242323	20035.258545071698\\
124.71687469322646	19968.870488305423\\
125.31486789402969	19902.967080114053\\
125.91286109483292	19837.540295227856\\
126.51085429563615	19772.58210837711\\
127.10884749643938	19708.084494292096\\
127.70684069724261	19644.03942770308\\
128.30483389804584	19580.438883340346\\
128.90282709884906	19517.274835934157\\
129.50082029965228	19454.539260214795\\
130.0988135004555	19392.22413091254\\
130.6968067012587	19330.321422757654\\
131.29479990206192	19268.823110480425\\
131.89279310286514	19207.721168811117\\
132.49078630366836	19147.00757248001\\
133.08877950447157	19086.674296217385\\
133.6867727052748	19026.724786676215\\
134.284765906078	18967.284149741892\\
134.88275910688122	18908.370864899585\\
135.48075230768399	18849.962152799904\\
};

\addplot [
color=black,
loosely dashdotted
]
table[row sep=crcr]{
82.75992854189037	22001.151116149245\\
83.266492009288	21917.962028879538\\
83.77305547668563	21835.358810712096\\
84.27961894408325	21753.374479664548\\
84.78618241148088	21672.042053754514\\
85.2927458788785	21591.39455099963\\
85.79930934627613	21511.46498941751\\
86.30587281367376	21432.286387025786\\
86.81243628107138	21353.89176184207\\
87.31899974846901	21276.313831149902\\
87.82556321586664	21199.408714208446\\
88.33212668326426	21123.044969530125\\
88.83869015066189	21047.23402321257\\
89.34525361805952	20971.987301353434\\
89.85181708545714	20897.31623005036\\
90.35838055285477	20823.232235400992\\
90.8649440202524	20749.74674350298\\
91.37150748765002	20676.87118045397\\
91.87807095504765	20604.616972351618\\
92.38463442244527	20532.99554529355\\
92.8911978898429	20462.018325377423\\
93.39776135724053	20391.69673870088\\
93.90432482463815	20322.042211361582\\
94.41088829203578	20253.06616945715\\
94.9174517594334	20184.780039085254\\
95.42401522683103	20117.195246343523\\
95.93057869422866	20050.32321732961\\
96.43714216162628	19984.17537814116\\
96.94370562902391	19918.76315487583\\
97.45026909642154	19854.09797363125\\
97.95683256381916	19790.191260505067\\
98.46339603121679	19727.090540413996\\
98.96995949861441	19664.99801944339\\
99.47652296601204	19603.899068314717\\
99.98308643340967	19543.740851512335\\
100.4896499008073	19484.470533520587\\
100.99621336820492	19426.035278823812\\
101.50277683560255	19368.382251906358\\
102.00934030300017	19311.45861725257\\
102.5159037703978	19255.211539346794\\
103.02246723779542	19199.588182673375\\
103.52903070519305	19144.535711716646\\
104.03559417259068	19090.001290960965\\
104.5421576399883	19035.932084890672\\
105.04872110738593	18982.27525799011\\
105.55528457478356	18928.97797474363\\
106.06184804218118	18875.987399635567\\
106.56841150957881	18823.250697150266\\
107.07497497697643	18770.71503177208\\
107.58153844437406	18718.32756798535\\
108.08810191177169	18666.03547027441\\
108.59466537916931	18613.785903123622\\
109.10122884656694	18561.52603101732\\
109.60779231396457	18509.39493210102\\
110.11435578136219	18457.5956358617\\
110.62091924875982	18406.12556750827\\
111.12748271615744	18354.98183943769\\
111.63404618355507	18304.161564046928\\
112.1406096509527	18253.66185373297\\
112.64717311835032	18203.47982089278\\
113.15373658574795	18153.612577923326\\
113.66030005314558	18104.05723722159\\
114.1668635205432	18054.810911184537\\
114.67342698794083	18005.870712209144\\
115.17999045533846	17957.233752692384\\
115.68655392273608	17908.897145031224\\
116.19311739013371	17860.858001622644\\
116.69968085753133	17813.11343486361\\
117.20624432492896	17765.6605571511\\
117.71280779232659	17718.496480882077\\
118.21937125972421	17671.618318453522\\
118.72593472712184	17625.02318226241\\
119.23249819451947	17578.708184705705\\
119.73906166191709	17532.670438180383\\
120.24562512931472	17486.9124194642\\
120.75218859671234	17441.475746744087\\
121.25875206410997	17396.36521617425\\
121.7653155315076	17351.575148262404\\
122.27187899890522	17307.09986351626\\
122.77844246630285	17262.93368244354\\
123.28500593370048	17219.070925551954\\
123.7915694010981	17175.505913349218\\
124.29813286849573	17132.232966343043\\
124.80469633589335	17089.246405041155\\
125.31125980329098	17046.540549951256\\
125.8178232706886	17004.10972158107\\
126.32438673808623	16961.948240438305\\
126.83095020548386	16920.050427030685\\
127.33751367288149	16878.410601865915\\
127.84407714027911	16837.023085451718\\
128.35064060767675	16795.882198295803\\
128.85720407507438	16754.982260905894\\
129.363767542472	16714.317593789692\\
129.87033100986963	16673.882517454924\\
130.37689447726726	16633.6713524093\\
130.88345794466488	16593.678419160533\\
131.3900214120625	16553.921839972474\\
131.89658487946014	16514.435180725377\\
132.40314834685776	16475.216084165924\\
132.90971181425576	16436.261735991346\\
};
\end{axis}
\end{tikzpicture}%
