%Drag_and_Thrust_curves_CLIMB_AOE
\begin{tikzpicture}

\begin{axis}[
width=\figurewidth,
height=\figureheight,
scaled ticks=false, tick label style={/pgf/number format/fixed},
xmin=60.75200185424198,
xmax=146.32640319914915,
xlabel={Speed ((m/s))},
xmajorgrids,
ymin=14774.701770116348,
ymax=41525.99049996476,
ylabel={Forces ((N))},
ymajorgrids,
legend style={at={(1.03,0.5)},anchor=west,draw=black,fill=white,legend cell align=left}
]

\addplot [
color=black,
solid
]
table[row sep=crcr]{
60.75200185424198	16855.160421044082\\
61.61638974661478	16632.005149633536\\
62.480777638987576	16425.877980631238\\
63.34516553136037	16234.864722132625\\
64.20955342373317	16058.109815762296\\
65.07394131610597	15896.078548644658\\
65.93832920847878	15747.650961431844\\
66.80271710085158	15611.859037397437\\
67.66710499322438	15487.8407261319\\
68.53149288559719	15374.694509001727\\
69.39588077796999	15271.479399149492\\
70.2602686703428	15181.737011822142\\
71.1246565627156	15102.016675679337\\
71.9890444550884	15030.065358804142\\
72.85343234746121	14968.514865393961\\
73.71782023983401	14917.632675110195\\
74.58220813220682	14872.114028702788\\
75.44659602457962	14838.729557438386\\
76.31098391695242	14811.505754526304\\
77.17537180932523	14792.010799919384\\
78.03975970169803	14781.515502484772\\
78.90414759407084	14775.973323788105\\
79.76853548644364	14780.52178914131\\
80.63292337881644	14788.956177383729\\
81.49731127118925	14806.745258163292\\
82.36169916356205	14829.140536149698\\
83.22608705593485	14858.24868032235\\
84.09047494830766	14894.549702633709\\
84.95486284068046	14932.936953494376\\
85.81925073305327	14983.049106487724\\
86.68363862542607	15033.668553442689\\
87.54802651779887	15092.346304467952\\
88.41241441017168	15156.768440750857\\
89.27680230254448	15221.823511508239\\
90.14119019491729	15298.03567791756\\
91.00557808729009	15376.832372350262\\
91.8699659796629	15456.381063732975\\
92.7343538720357	15547.134751402195\\
93.5987417644085	15640.311376509018\\
94.4631296567813	15734.352483004075\\
95.32751754915411	15836.417988465424\\
96.19190544152691	15943.92071443481\\
97.05629333389972	16052.393828193319\\
97.92068122627252	16162.30463863541\\
98.78506911864532	16284.02043331988\\
99.64945701101813	16406.805944157044\\
100.51384490339093	16530.661171146905\\
101.37823279576374	16656.615366341077\\
102.24262068813654	16793.534461736203\\
103.10700858050934	16931.616023610266\\
103.97139647288215	17070.860051963275\\
104.83578436525495	17211.26654679522\\
105.70017225762776	17360.233101620655\\
106.56456015000056	17513.545044252875\\
107.42894804237336	17668.105625652952\\
108.29333593474617	17823.9148458209\\
109.15772382711897	17980.972704756714\\
110.02211171949178	18147.15560596029\\
110.88649961186458	18316.881555643504\\
111.75088750423738	18487.935738346183\\
112.61527539661019	18660.318154068336\\
113.47966328898299	18834.028802809953\\
114.3440511813558	19011.04001377952\\
115.2084390737286	19197.102459767797\\
116.0728269661014	19384.566154989832\\
116.9372148584742	19573.431099445606\\
117.80160275084701	19763.697293135137\\
118.66599064321981	19955.364736058415\\
119.53037853559262	20148.433428215434\\
120.39476642796542	20350.469963285388\\
121.25915432033823	20555.62809909438\\
122.12354221271103	20762.25392231408\\
122.98793010508383	20970.347432944483\\
123.85231799745664	21179.908630985596\\
124.71670588982944	21390.937516437414\\
125.58109378220225	21603.434089299935\\
126.44548167457505	21820.987731330213\\
127.30986956694785	22045.206145652854\\
128.17425745932064	22270.952107525827\\
129.03864535169345	22498.22561694915\\
129.90303324406625	22727.02667392281\\
130.76742113643905	22957.355278446812\\
131.63180902881186	23189.21143052116\\
132.49619692118466	23422.595130145848\\
133.36058481355747	23657.50637732088\\
134.22497270593027	23899.459967245057\\
135.08936059830307	24145.726769295812\\
135.95374849067588	24393.574400999216\\
136.81813638304868	24643.00286235528\\
137.68252427542149	24894.01215336399\\
138.5469121677943	25146.60227402536\\
139.4113000601671	25400.773224339384\\
140.2756879525399	25656.525004306062\\
141.1400758449127	25913.857613925386\\
142.0044637372855	26172.77105319737\\
142.8688516296583	26434.331165458632\\
143.7332395220311	26704.14901634048\\
144.59762741440392	26975.594400939994\\
145.46201530677672	27248.66731925714\\
146.32640319914915	27523.36777129181\\
};

\addplot [
color=black,
densely dashed
]
table[row sep=crcr]{
65.36787710872356	16855.160421044075\\
66.16042485705306	16664.956945716265\\
66.95297260538256	16486.61831171992\\
67.74552035371205	16319.487089094244\\
68.53806810204155	16162.877188053715\\
69.33061585037105	16016.073858988026\\
70.12316359870054	15878.333692462133\\
70.91571134703004	15752.834575086934\\
71.70825909535954	15636.201202593576\\
72.50080684368903	15526.939838025763\\
73.29335459201853	15425.854754033511\\
74.08590234034803	15335.83489029501\\
74.87845008867752	15251.31914428178\\
75.67099783700702	15174.702009368653\\
76.46354558533652	15107.30930919613\\
77.25609333366602	15043.376100962609\\
78.04864108199551	14991.108871876206\\
78.84118883032501	14941.927092709402\\
79.6337365786545	14901.53480759435\\
80.426284326984	14865.776118648671\\
81.2188320753135	14837.289452323866\\
82.011379823643	14813.539535279433\\
82.8039275719725	14796.960502739012\\
83.59647532030199	14783.719059801679\\
84.38902306863149	14779.021016215018\\
85.18157081696098	14774.701770116348\\
85.97411856529048	14781.82941082807\\
86.76666631361998	14789.023061563967\\
87.55921406194948	14803.629465355309\\
88.35176181027897	14822.67039959731\\
89.14430955860847	14842.550319274844\\
89.93685730693797	14873.32113608059\\
90.72940505526746	14904.364313648777\\
91.52195280359696	14938.96111136811\\
92.31450055192646	14981.68412114586\\
93.10704830025595	15024.77550209901\\
93.89959604858545	15071.684871273115\\
94.69214379691495	15126.367820981974\\
95.48469154524444	15181.510375641708\\
96.27723929357394	15238.156050735013\\
97.06978704190344	15304.763697596925\\
97.86233479023294	15371.917406547736\\
98.65488253856243	15439.61717758745\\
99.44743028689193	15514.005274575875\\
100.23997803522143	15593.087128665118\\
101.03252578355092	15672.796725343826\\
101.82507353188042	15753.134064612006\\
102.61762128020992	15841.852137419042\\
103.41016902853941	15933.440784209493\\
104.20271677686891	16025.73407745252\\
104.99526452519841	16118.732017148122\\
105.7878122735279	16218.081021449656\\
106.5803600218574	16322.151726765684\\
107.3729077701869	16426.99920575993\\
108.1654555185164	16532.623458432394\\
108.95800326684589	16639.024484783076\\
109.75055101517539	16755.08846167317\\
110.54309876350489	16872.403295956017\\
111.33564651183438	16990.562254505272\\
112.12819426016388	17109.565337320928\\
112.92074200849338	17229.412544402992\\
113.71328975682287	17357.29897653459\\
114.50583750515237	17487.84371421103\\
115.29838525348187	17619.2951501046\\
116.09093300181136	17751.653284215306\\
116.88348075014086	17884.918116543136\\
117.67602849847036	18019.3045891978\\
118.46857624679986	18162.993355132712\\
119.26112399512935	18307.64661659802\\
120.05367174345885	18453.26437359372\\
120.84621949178835	18599.84662611982\\
121.63876724011784	18747.393374176314\\
122.43131498844734	18895.904617763204\\
123.22386273677684	19049.34888240661\\
124.01641048510633	19208.059184315367\\
124.80895823343583	19367.787002430323\\
125.60150598176533	19528.532336751494\\
126.39405373009483	19690.29518727885\\
127.18660147842432	19853.075554012416\\
127.97914922675382	20016.87343695218\\
128.7716969750833	20181.688836098147\\
129.5642447234128	20355.30731893003\\
130.3567924717423	20530.068718951643\\
131.1493402200718	20705.8958792178\\
131.9418879684013	20882.7887997285\\
132.7344357167308	21060.747480483747\\
133.52698346506028	21239.77192148355\\
134.31953121338978	21419.862122727893\\
135.11207896171928	21601.018084216783\\
135.90462671004877	21785.436019668836\\
136.69717445837827	21976.198945112872\\
137.48972220670777	22168.071098202334\\
138.28226995503726	22361.052478937232\\
139.07481770336676	22555.14308731756\\
139.86736545169626	22750.342923343327\\
140.65991320002576	22946.651987014524\\
141.45246094835525	23144.07027833115\\
142.24500869668475	23342.597797293212\\
143.03755644501425	23542.234543900708\\
143.83010419334371	23743.22954330654\\
};

\addplot [
color=black,
dashdotted
]
table[row sep=crcr]{
70.51572499185646	16855.16042104407\\
71.23062591824181	16696.005923628323\\
71.94552684462717	16544.37240809944\\
72.66042777101252	16399.638301093844\\
73.37532869739788	16262.993455416736\\
74.09022962378323	16135.614175323813\\
74.80513055016858	16013.72437743721\\
75.52003147655394	15898.066865382989\\
76.2349324029393	15791.962412283348\\
76.94983332932465	15689.813942621624\\
77.66473425571	15595.12590217062\\
78.37963518209536	15507.016285982945\\
79.09453610848071	15422.384499155558\\
79.80943703486606	15347.348918490417\\
80.52433796125142	15273.653567494759\\
81.23923888763677	15209.841220769233\\
81.95413981402213	15147.192871120478\\
82.66904074040748	15093.442418340936\\
83.38394166679284	15040.712602084313\\
84.09884259317819	14997.021581623418\\
84.81374351956354	14953.02171447644\\
85.5286444459489	14919.367625930969\\
86.24354537233425	14885.431055269739\\
86.95844629871961	14859.189311474207\\
87.67334722510496	14835.334302224455\\
88.38824815149032	14815.115243360146\\
89.10314907787567	14801.275877770828\\
89.81805000426102	14787.325027620174\\
90.53295093064638	14781.784193136305\\
91.24785185703173	14777.843519202379\\
91.96275278341709	14775.30750444472\\
92.67765370980244	14781.267671628666\\
93.3925546361878	14787.273992621762\\
94.10745556257315	14795.945547143321\\
94.8223564889585	14811.797144870807\\
95.53725741534386	14827.768705898714\\
96.25215834172921	14845.689174902214\\
96.96705926811457	14871.423729913142\\
97.68196019449992	14897.348717919764\\
98.39686112088528	14923.464138922081\\
99.11176204727063	14958.018194822896\\
99.82666297365598	14993.854738588294\\
100.54156390004134	15029.94884524867\\
101.2564648264267	15069.270958684116\\
101.97136575281205	15114.947128824468\\
102.6862666791974	15160.944651963118\\
103.40116760558276	15207.263528100068\\
104.11606853196811	15258.1059005653\\
104.83096945835347	15313.901512838564\\
105.54587038473882	15370.078928417446\\
106.26077131112417	15426.63814730195\\
106.97567223750953	15486.08903266497\\
107.69057316389488	15551.986262382276\\
108.40547409028024	15618.322405916546\\
109.12037501666559	15685.097463267784\\
109.83527594305095	15752.311434435978\\
110.5501768694363	15825.985672558154\\
111.26507779582165	15902.419302011152\\
111.97997872220701	15979.345615996468\\
112.69487964859236	16056.764614514104\\
113.40978057497772	16134.676297564061\\
114.12468150136307	16218.793213837453\\
114.83958242774843	16305.766125072387\\
115.55448335413378	16393.282151759016\\
116.26938428051913	16481.34129389733\\
116.98428520690449	16569.943551487333\\
117.69918613328984	16660.421889665373\\
118.4140870596752	16757.886867788722\\
119.12898798606055	16855.942052487146\\
119.8438889124459	16954.587443760647\\
120.55878983883126	17053.823041609223\\
121.27369076521661	17153.648846032876\\
121.98859169160197	17254.140696985156\\
122.70349261798732	17362.6343880661\\
123.41839354437268	17471.762037049524\\
124.13329447075803	17581.52364393542\\
124.84819539714339	17691.919208723793\\
125.56309632352874	17802.948731414643\\
126.2779972499141	17914.61221200797\\
126.99289817629945	18027.623077311702\\
127.7077991026848	18147.753265073898\\
128.42270002907017	18268.557822269984\\
129.13760095545553	18390.036748899965\\
129.85250188184088	18512.190044963838\\
130.56740280822623	18635.0177104616\\
131.2823037346116	18758.51974539326\\
131.99720466099694	18882.69614975881\\
132.7121055873823	19009.435652818265\\
133.42700651376765	19141.861219863935\\
134.141907440153	19274.998228078926\\
134.85680836653836	19408.846677463243\\
135.5717092929237	19543.406568016882\\
136.28661021930907	19678.677899739847\\
137.00151114569442	19814.660672632137\\
137.71641207207978	19951.35488669375\\
138.43131299846513	20088.76054192468\\
139.14621392485049	20228.94304215092\\
139.86111485123584	20374.353931184945\\
140.5760157776212	20520.509993327738\\
141.29091670400675	20667.41122857935\\
};

\addplot [
color=black,
dashed
]
table[row sep=crcr]{
76.27942542816477	16855.16042104408\\
76.91000178248115	16725.20561341924\\
77.54057813679752	16598.585100488322\\
78.1711544911139	16478.587734567314\\
78.80173084543027	16364.021554445373\\
79.43230719974665	16252.416745825227\\
80.06288355406302	16149.18202279393\\
80.6934599083794	16047.31230868307\\
81.32403626269577	15953.350140945902\\
81.95461261701215	15861.30210909404\\
82.58518897132852	15775.756251094892\\
83.2157653256449	15692.698218796331\\
83.84634167996127	15615.577402216195\\
84.47691803427765	15540.637716851512\\
85.10749438859402	15471.937350066812\\
85.7380707429104	15404.204389102835\\
86.36864709722677	15343.906557185415\\
86.99922345154314	15283.166878633534\\
87.62979980585952	15230.502192892394\\
88.2603761601759	15178.200649553022\\
88.89095251449227	15130.688133289803\\
89.52152886880864	15086.777943074876\\
90.15210522312502	15043.374961261412\\
90.7826815774414	15007.796018778277\\
91.41325793175777	14971.969083742262\\
92.04383428607414	14940.098843024109\\
92.67441064039052	14912.589903948336\\
93.3049869947069	14884.893149245358\\
93.93556334902327	14863.19717328684\\
94.56613970333964	14843.787398366449\\
95.19671605765602	14824.247764193766\\
95.8272924119724	14811.287636831757\\
96.45786876628877	14799.986201857904\\
97.08844512060514	14788.6106434559\\
97.71902147492152	14782.868008699814\\
98.3495978292379	14779.664104506783\\
98.98017418355427	14776.439592158984\\
99.61075053787064	14776.316154190768\\
100.24132689218702	14781.178986655976\\
100.8719032465034	14786.072505689042\\
101.50247960081977	14790.996711289963\\
102.13305595513614	14802.768818907196\\
102.76363230945252	14815.727369690918\\
103.3942086637689	14828.76568121435\\
104.02478501808527	14842.551662120952\\
104.65536137240164	14863.50226006826\\
105.28593772671802	14884.579472376376\\
105.91651408103439	14905.783299045297\\
106.54709043535077	14927.375342983523\\
107.17766678966714	14956.39626598162\\
107.80824314398352	14985.588436410855\\
108.43881949829989	15014.951854271236\\
109.06939585261627	15044.486519562759\\
109.69997220693264	15079.117452081704\\
110.33054856124902	15116.394230619635\\
110.96112491556539	15153.884669108282\\
111.59170126988177	15191.588767547639\\
112.22227762419814	15229.506525937708\\
112.85285397851452	15274.423650954765\\
113.48343033283089	15319.981892899337\\
114.11400668714727	15365.793986763421\\
114.74458304146364	15411.859932547028\\
115.37515939578002	15458.179730250147\\
116.00573575009639	15510.430502114055\\
116.63631210441277	15564.262507070613\\
117.26688845872914	15618.386335364738\\
117.89746481304552	15672.801986996417\\
118.52804116736189	15727.509461965656\\
119.15861752167827	15783.941485456502\\
119.78919387599464	15846.006244768962\\
120.41977023031102	15908.398578286258\\
121.05034658462739	15971.118486008403\\
121.68092293894377	16034.165967935396\\
122.31149929326014	16097.541024067223\\
122.94207564757652	16161.65019501543\\
123.57265200189289	16232.234496287621\\
124.20322835620927	16303.179902081176\\
124.83380471052564	16374.48641239609\\
125.46438106484202	16446.15402723237\\
126.09495741915839	16518.182746590006\\
126.72553377347477	16590.572570469005\\
127.35611012779114	16665.023625098478\\
127.98668648210752	16744.474876970067\\
128.6172628364239	16824.318543128764\\
129.24783919074028	16904.554623574582\\
129.87841554505667	16985.183118307516\\
130.50899189937306	17066.20402732757\\
131.13956825368945	17147.617350634737\\
131.77014460800584	17229.42308822902\\
132.40072096232223	17315.96366784264\\
133.03129731663861	17404.676576684524\\
133.661873670955	17493.810989028512\\
134.2924500252714	17583.36690487461\\
134.92302637958778	17673.344324222813\\
135.55360273390417	17763.743247073133\\
136.18417908822056	17854.563673425557\\
136.81475544253695	17945.805603280096\\
137.44533179685334	18038.85556959696\\
138.07590815116973	18136.810444040366\\
138.70648450548597	18235.21369065009\\
};

\addplot [
color=black,
densely dashdotted
]
table[row sep=crcr]{
82.75992854189037	16855.160421044075\\
83.29845682694415	16752.609034338635\\
83.83698511199792	16651.027724677584\\
84.37551339705169	16555.323791354454\\
84.91404168210546	16460.672620911784\\
85.45256996715923	16371.161103910485\\
85.991098252213	16283.430747102406\\
86.52962653726678	16199.431843725755\\
87.06815482232055	16118.604719756238\\
87.60668310737432	16039.413861670377\\
88.1452113924281	15965.464134531154\\
88.68373967748187	15891.061222863256\\
89.22226796253564	15823.245566236094\\
89.76079624758941	15755.732877300847\\
90.29932453264318	15691.152568831061\\
90.83785281769696	15630.486380327045\\
91.37638110275073	15569.459465671345\\
91.9149093878045	15514.484009840698\\
92.45343767285827	15460.295783488005\\
92.99196595791204	15406.85502289173\\
93.53049424296582	15359.443876247442\\
94.06902252801959	15311.758958353648\\
94.60755081307336	15265.991724938429\\
95.14607909812713	15225.055436594239\\
95.6846073831809	15183.886790648576\\
96.22313566823468	15144.727136018448\\
96.76166395328845	15110.267662513941\\
97.30019223834222	15075.615869187288\\
97.83872052339599	15041.948313672894\\
98.37724880844976	15013.955228729317\\
98.91577709350354	14985.80848587421\\
99.45430537855731	14957.50808510757\\
99.99283366361108	14934.918513053042\\
100.53136194866485	14913.25263570366\\
101.06989023371862	14891.470386484667\\
101.6084185187724	14871.883596387708\\
102.14694680382617	14856.662016759898\\
102.68547508887994	14841.35997543568\\
103.22400337393371	14825.97747241506\\
103.76253165898748	14814.676030217077\\
104.30105994404126	14805.803870316417\\
104.83958822909503	14796.885783023858\\
105.3781165141488	14787.921768339396\\
105.91664479920257	14783.354792572598\\
106.45517308425634	14780.837035849829\\
106.99370136931012	14778.306510170956\\
107.53222965436389	14775.763215535982\\
108.07075793941766	14776.297272610262\\
108.60928622447143	14780.122392091664\\
109.1478145095252	14783.966525184054\\
109.68634279457898	14787.829671887434\\
110.22487107963275	14791.74877609036\\
110.76339936468652	14801.888734377739\\
111.30192764974029	14812.078112974492\\
111.84045593479406	14822.31691188062\\
112.37898421984784	14832.60513109613\\
112.91751250490161	14844.23277464815\\
113.45604078995538	14860.721475057906\\
113.99456907500915	14877.288626606727\\
114.53309736006292	14893.934229294608\\
115.0716256451167	14910.658283121544\\
115.61015393017047	14927.84472955424\\
116.14868221522424	14950.676423761219\\
116.68721050027801	14973.614224068238\\
117.22573878533179	14996.658130475287\\
117.76426707038556	15019.808142982374\\
118.30279535543933	15043.0642615895\\
118.8413236404931	15069.428129292304\\
119.37985192554687	15098.708816133063\\
119.91838021060065	15128.121888166135\\
120.45690849565442	15157.667345391517\\
120.99543678070819	15187.345187809202\\
121.53396506576196	15217.155415419196\\
122.07249335081573	15250.019933269485\\
122.6110216358695	15285.752394804842\\
123.14954992092328	15321.642144756073\\
123.68807820597705	15357.689183123177\\
124.22660649103082	15393.893509906153\\
124.7651347760846	15430.255125105006\\
125.30366306113837	15466.774028719736\\
125.84219134619214	15508.932415177344\\
126.38071963124591	15551.275483602138\\
126.91924791629968	15593.799367797676\\
127.45777620135345	15636.504067763943\\
127.99630448640723	15679.389583500944\\
128.534832771461	15722.455915008682\\
129.07336105651478	15765.703062287157\\
129.61188934156857	15813.825206828104\\
130.15041762662236	15862.776435902075\\
130.68894591167614	15911.930632232936\\
131.22747419672993	15961.287795820686\\
131.76600248178372	16010.847926665328\\
132.3045307668375	16060.611024766866\\
132.8430590518913	16110.577090125289\\
133.38158733694507	16161.101736283088\\
133.92011562199886	16216.629786523148\\
134.45864390705265	16272.38157963755\\
134.99717219210643	16328.35711562629\\
135.53570047716022	16384.556394489373\\
136.07422876221423	16440.97941622682\\
};

\addplot [
color=black,
densely dotted
]
table[row sep=crcr]{
60.75200185424198	41525.99049996476\\
61.61638974661478	41217.544285561366\\
62.480777638987576	40841.672626224565\\
63.34516553136037	40418.3205288055\\
64.20955342373317	39967.43300015531\\
65.07394131610597	39508.955047125135\\
65.93832920847878	39062.831676566115\\
66.80271710085158	38649.00789532937\\
67.66710499322438	38287.42871026606\\
68.53149288559719	37998.03912822733\\
69.39588077796999	37800.78415606429\\
70.2602686703428	37715.608800628106\\
71.1246565627156	37673.9976996725\\
71.9890444550884	37530.979847894734\\
72.85343234746121	37300.58152346697\\
73.71782023983401	37000.434659780636\\
74.58220813220682	36648.17119022712\\
75.44659602457962	36261.42304819781\\
76.31098391695242	35857.82216708412\\
77.17537180932523	35455.000480277435\\
78.03975970169803	35070.58992116917\\
78.90414759407084	34722.222423150706\\
79.76853548644364	34427.52991961345\\
80.63292337881644	34204.14434394881\\
81.49731127118925	34069.69762954816\\
82.36169916356205	34034.365145673444\\
83.22608705593485	33958.794527061036\\
84.09047494830766	33796.27901247449\\
84.95486284068046	33562.538027496936\\
85.81925073305327	33273.290997711534\\
86.68363862542607	32944.25734870144\\
87.54802651779887	32591.156506049792\\
88.41241441017168	32229.707895339754\\
89.27680230254448	31875.63094215448\\
90.14119019491729	31544.64507207711\\
91.00557808729009	31252.469710690806\\
91.8699659796629	31014.82428357871\\
92.7343538720357	30847.428216323988\\
93.5987417644085	30766.000934509775\\
94.4631296567813	30739.45207906559\\
95.32751754915411	30638.03473050675\\
96.19190544152691	30465.471983554544\\
97.05629333389972	30235.69673778145\\
97.92068122627252	29962.64189275996\\
98.78506911864532	29660.24034806254\\
99.64945701101813	29342.425003261687\\
100.51384490339093	29023.128757929877\\
101.37823279576374	28716.28451163959\\
102.24262068813654	28435.82516396331\\
103.10700858050934	28195.68361447352\\
103.97139647288215	28009.792762742705\\
104.83578436525495	27892.085508343338\\
105.70017225762776	27855.492762628965\\
106.56456015000056	27807.707599980928\\
107.42894804237336	27690.104666754993\\
108.29333593474617	27514.972511473545\\
109.15772382711897	27294.599682658936\\
110.02211171949178	27041.274728833556\\
110.88649961186458	26767.286198519767\\
111.75088750423738	26484.92264023994\\
112.61527539661019	26206.472602516445\\
113.47966328898299	25944.22463387165\\
114.3440511813558	25710.46728282793\\
115.2084390737286	25517.489097907655\\
116.0728269661014	25377.578627633193\\
116.9372148584742	25303.024420526912\\
117.80160275084701	25284.038020144326\\
118.66599064321981	25214.942441989504\\
119.53037853559262	25089.305721654888\\
120.39476642796542	24917.88372204436\\
121.25915432033823	24711.432306061815\\
122.12354221271103	24480.707336611144\\
122.98793010508383	24236.464676596235\\
123.85231799745664	23989.460188920973\\
124.71670588982944	23750.44973648925\\
125.58109378220225	23530.189182204947\\
126.44548167457505	23339.434388971968\\
127.30986956694785	23188.94121969419\\
128.17425745932064	23089.465537275508\\
129.03864535169345	23051.7632046198\\
129.90303324406625	23022.9290259027\\
130.76742113643905	22937.44189237178\\
131.63180902881186	22804.902379977266\\
132.49619692118466	22635.048115201906\\
133.36058481355747	22437.616724528434\\
134.22497270593027	22222.345834439588\\
135.08936059830307	21998.973071418102\\
135.95374849067588	21777.23606194672\\
136.81813638304868	21566.87243250818\\
137.68252427542149	21377.619809585205\\
138.5469121677943	21219.215819660552\\
139.4113000601671	21101.39808921695\\
140.2756879525399	21033.90424473713\\
141.1400758449127	21017.22132243602\\
142.0044637372855	20966.799698184404\\
142.8688516296583	20867.220947343405\\
143.7332395220311	20727.576018750395\\
144.59762741440392	20556.95586124278\\
145.46201530677672	20364.451423657938\\
146.32640319914915	20159.15365483336\\
};

\addplot [
color=black,
dashdotdotted
]
table[row sep=crcr]{
65.36787710872356	37568.71753787014\\
66.16042485705306	37314.0949147317\\
66.95297260538256	37063.94386726038\\
67.74552035371205	36819.79156578361\\
68.53806810204155	36583.165180628865\\
69.33061585037105	36355.51804601091\\
70.12316359870054	36134.257075051035\\
70.91571134703004	35917.184795663394\\
71.70825909535954	35703.94524219628\\
72.50080684368903	35494.18244899798\\
73.29335459201853	35287.54045041677\\
74.08590234034803	35083.663280800945\\
74.87845008867752	34882.19497449881\\
75.67099783700702	34682.77956585863\\
76.46354558533652	34485.0610892287\\
77.25609333366602	34288.6835789573\\
78.04864108199551	34093.29106939273\\
78.84118883032501	33898.527594883264\\
79.6337365786545	33704.03718977721\\
80.426284326984	33509.46388842283\\
81.2188320753135	33314.83964975149\\
82.011379823643	33121.48928722235\\
82.8039275719725	32929.49164539289\\
83.59647532030199	32738.768639636968\\
84.38902306863149	32549.24218532844\\
85.18157081696098	32360.834197841174\\
85.97411856529048	32173.46659254903\\
86.76666631361998	31987.06128482586\\
87.55921406194948	31801.540190045536\\
88.35176181027897	31616.825223581913\\
89.14430955860847	31432.838300808853\\
89.93685730693797	31249.501337100217\\
90.72940505526746	31066.73624782986\\
91.52195280359696	30884.46494837165\\
92.31450055192646	30702.610152526537\\
93.10704830025595	30521.415133273124\\
93.89959604858545	30341.084255934747\\
94.69214379691495	30161.5683972264\\
95.48469154524444	29982.818433863093\\
96.27723929357394	29804.78524255979\\
97.06978704190344	29627.419700031507\\
97.86233479023294	29450.672682993245\\
98.65488253856243	29274.495068159984\\
99.44743028689193	29098.837732246728\\
100.23997803522143	28923.65155196847\\
101.03252578355092	28748.8874040402\\
101.82507353188042	28574.496165176934\\
102.61762128020992	28400.42871209363\\
103.41016902853941	28226.63592150532\\
104.20271677686891	28052.96216050995\\
104.99526452519841	27878.82145263424\\
105.7878122735279	27704.32210948541\\
106.5803600218574	27529.690859688162\\
107.3729077701869	27355.154431867224\\
108.1654555185164	27180.9395546473\\
108.95800326684589	27007.272956653105\\
109.75055101517539	26834.381366509366\\
110.54309876350489	26662.49151284078\\
111.33564651183438	26491.830124272088\\
112.12819426016388	26322.62392942798\\
112.92074200849338	26155.099656933176\\
113.71328975682287	25989.484035412403\\
114.50583750515237	25826.003793490352\\
115.29838525348187	25664.885659791766\\
116.09093300181136	25505.957919852142\\
116.88348075014086	25348.7702281605\\
117.67602849847036	25193.25199665346\\
118.46857624679986	25039.33377564553\\
119.26112399512935	24886.946115451246\\
120.05367174345885	24736.019566385126\\
120.84621949178835	24586.48467876169\\
121.63876724011784	24438.27200289548\\
122.43131498844734	24291.312089101004\\
123.22386273677684	24145.535487692792\\
124.01641048510633	24000.872748985363\\
124.80895823343583	23857.254423293252\\
125.60150598176533	23714.611060930984\\
126.39405373009483	23572.873212213068\\
127.18660147842432	23432.014809842254\\
127.97914922675382	23292.386625189833\\
128.7716969750833	23154.0390208792\\
129.5642447234128	23016.92009836786\\
130.3567924717423	22880.977959113327\\
131.1493402200718	22746.160704573118\\
131.9418879684013	22612.41643620476\\
132.7344357167308	22479.693255465743\\
133.52698346506028	22347.939263813598\\
134.31953121338978	22217.102562705844\\
135.11207896171928	22087.131253599986\\
135.90462671004877	21957.973437953544\\
136.69717445837827	21829.57721722403\\
137.48972220670777	21701.890692868958\\
138.28226995503726	21574.861966345845\\
139.07481770336676	21448.697433519945\\
139.86736545169626	21323.77808514938\\
140.65991320002576	21200.00565009838\\
141.45246094835525	21077.27224557645\\
142.24500869668475	20955.469988793106\\
143.03755644501425	20834.49099695784\\
143.83010419334371	20714.227387280174\\
};

\addplot [
color=black,
densely dashdotdetted
]
table[row sep=crcr]{
70.51572499185646	32039.054247785356\\
71.23062591824181	31863.511803206915\\
71.94552684462717	31688.85236602058\\
72.66042777101252	31515.166891244822\\
73.37532869739788	31342.54633389812\\
74.09022962378323	31171.08164899896\\
74.80513055016858	31000.863791565815\\
75.52003147655394	30831.983716617164\\
76.2349324029393	30664.532379171487\\
76.94983332932465	30498.600734247262\\
77.66473425571	30334.279736862973\\
78.37963518209536	30171.660342037096\\
79.09453610848071	30010.83350478811\\
79.80943703486606	29851.82839544858\\
80.52433796125142	29694.48652838382\\
81.23923888763677	29538.749567771825\\
81.95413981402213	29384.569008643022\\
82.66904074040748	29231.896346027817\\
83.38394166679284	29080.68307495663\\
84.09884259317819	28930.880690459853\\
84.81374351956354	28782.440687567912\\
85.5286444459489	28635.314561311203\\
86.24354537233425	28489.45380672014\\
86.95844629871961	28344.809918825144\\
87.67334722510496	28201.334392656605\\
88.38824815149032	28058.978723244945\\
89.10314907787567	27917.694405620572\\
89.81805000426102	27777.43293481389\\
90.53295093064638	27638.145805855318\\
91.24785185703173	27499.95057945154\\
91.96275278341709	27363.097586117845\\
92.67765370980244	27227.55334381205\\
93.3925546361878	27093.27882425179\\
94.10745556257315	26960.234999154673\\
94.8223564889585	26828.382840238337\\
95.53725741534386	26697.68331922041\\
96.25215834172921	26568.097407818506\\
96.96705926811457	26439.586077750264\\
97.68196019449992	26312.110300733304\\
98.39686112088528	26185.63104848525\\
99.11176204727063	26060.109292723737\\
99.82666297365598	25935.506005166382\\
100.54156390004134	25811.78215753081\\
101.2564648264267	25688.898721534657\\
101.97136575281205	25566.81666889555\\
102.6862666791974	25445.60728807818\\
103.40116760558276	25325.369102497163\\
104.11606853196811	25206.101457966408\\
104.83096945835347	25087.803698659558\\
105.54587038473882	24970.47516875026\\
106.26077131112417	24854.115212412158\\
106.97567223750953	24738.723173818893\\
107.69057316389488	24624.298397144114\\
108.40547409028024	24510.840226561464\\
109.12037501666559	24398.34800624457\\
109.83527594305095	24286.82108036711\\
110.5501768694363	24176.25879310269\\
111.26507779582165	24066.660488624984\\
111.97997872220701	23958.02551110762\\
112.69487964859236	23850.353204724244\\
113.40978057497772	23743.644572023484\\
114.12468150136307	23637.98877129772\\
114.83958242774843	23533.416363183154\\
115.55448335413378	23429.898703755232\\
116.26938428051913	23327.407149089395\\
116.98428520690449	23225.9130552611\\
117.69918613328984	23125.387778345797\\
118.4140870596752	23025.802674418926\\
119.12898798606055	22927.129099555943\\
119.8438889124459	22829.3384098323\\
120.55878983883126	22732.401961323452\\
121.27369076521661	22636.29111010483\\
121.98859169160197	22540.977212251903\\
122.70349261798732	22446.431623840097\\
123.41839354437268	22352.625700944885\\
124.13329447075803	22259.530799641707\\
124.84819539714339	22167.131723508006\\
125.56309632352874	22075.61455978954\\
126.2779972499141	21985.02523996193\\
126.99289817629945	21895.335094078895\\
127.7077991026848	21806.51545219417\\
128.42270002907017	21718.53764436147\\
129.13760095545553	21631.373000634543\\
129.85250188184088	21544.992851067098\\
130.56740280822623	21459.368525712867\\
131.2823037346116	21374.47135462558\\
131.99720466099694	21290.272667858957\\
132.7121055873823	21206.743795466733\\
133.42700651376765	21123.856067502627\\
134.141907440153	21041.580814020374\\
134.85680836653836	20959.88936507369\\
135.5717092929237	20878.753050716314\\
136.28661021930907	20798.162737582967\\
137.00151114569442	20718.24203663547\\
137.71641207207978	20639.011877556575\\
138.43131299846513	20560.464850521545\\
139.14621392485049	20482.59354570563\\
139.86111485123584	20405.390553284084\\
140.5760157776212	20328.84846343216\\
141.29091670400675	20252.9598663251\\
};

\addplot [
color=black,
loosely dashed
]
table[row sep=crcr]{
76.27942542816477	27000.159016158283\\
76.91000178248115	26871.652174449984\\
77.54057813679752	26745.71648409121\\
78.1711544911139	26622.48962710528\\
78.80173084543027	26501.411405754596\\
79.43230719974665	26382.277281473427\\
80.06288355406302	26264.98534208324\\
80.6934599083794	26149.433675405475\\
81.32403626269577	26035.52036926161\\
81.95461261701215	25923.1435114731\\
82.58518897132852	25812.201189861404\\
83.2157653256449	25702.59149224797\\
83.84634167996127	25594.212506454274\\
84.47691803427765	25486.962320301773\\
85.10749438859402	25380.739021611917\\
85.7380707429104	25275.440698206166\\
86.36864709722677	25170.965437905994\\
86.99922345154314	25067.21132853284\\
87.62979980585952	24964.076457908184\\
88.2603761601759	24861.458913853476\\
88.89095251449227	24759.256784190173\\
89.52152886880864	24657.730469752587\\
90.15210522312502	24557.42787114686\\
90.7826815774414	24458.29309636374\\
91.41325793175777	24360.259051735597\\
92.04383428607414	24263.258643594825\\
92.67441064039052	24167.224778273816\\
93.3049869947069	24072.090362104955\\
93.93556334902327	23977.788301420624\\
94.56613970333964	23884.25150255322\\
95.19671605765602	23791.412871835117\\
95.8272924119724	23699.20531559872\\
96.45786876628877	23607.5617401764\\
97.08844512060514	23516.415051900556\\
97.71902147492152	23425.69815710357\\
98.3495978292379	23335.34396211783\\
98.98017418355427	23245.285373275725\\
99.61075053787064	23155.45529690964\\
100.24132689218702	23065.795542605265\\
100.8719032465034	22976.524140040696\\
101.50247960081977	22887.759432399078\\
102.13305595513614	22799.500610694973\\
102.76363230945252	22711.746865942932\\
103.3942086637689	22624.497389157503\\
104.02478501808527	22537.75137135324\\
104.65536137240164	22451.508003544695\\
105.28593772671802	22365.76647674642\\
105.91651408103439	22280.525981972973\\
106.54709043535077	22195.785710238906\\
107.17766678966714	22111.544852558767\\
107.80824314398352	22027.80259994711\\
108.43881949829989	21944.558143418497\\
109.06939585261627	21861.810673987464\\
109.69997220693264	21779.559382668576\\
110.33054856124902	21697.80346047638\\
110.96112491556539	21616.542098425434\\
111.59170126988177	21535.772037104078\\
112.22227762419814	21455.483012345107\\
112.85285397851452	21375.67701123692\\
113.48343033283089	21296.35754617568\\
114.11400668714727	21217.528129557555\\
114.74458304146364	21139.192273778706\\
115.37515939578002	21061.353491235284\\
116.00573575009639	20984.01529432346\\
116.63631210441277	20907.181195439392\\
117.26688845872914	20830.85470697925\\
117.89746481304552	20755.039341339183\\
118.52804116736189	20679.738610915356\\
119.15861752167827	20604.956028103927\\
119.78919387599464	20530.695105301067\\
120.41977023031102	20456.95935490293\\
121.05034658462739	20383.752289305678\\
121.68092293894377	20311.077420905473\\
122.31149929326014	20238.938262098483\\
122.94207564757652	20167.351600427257\\
123.57265200189289	20096.330240900472\\
124.20322835620927	20025.864858239376\\
124.83380471052564	19955.946042567037\\
125.46438106484202	19886.56438400652\\
126.09495741915839	19817.710472680894\\
126.72553377347477	19749.374898713235\\
127.35611012779114	19681.548252226603\\
127.98668648210752	19614.221123344072\\
128.6172628364239	19547.384102188713\\
129.24783919074028	19481.02777888359\\
129.87841554505667	19415.142743551776\\
130.50899189937306	19349.719586316336\\
131.13956825368945	19284.748897300346\\
131.77014460800584	19220.221266626868\\
132.40072096232223	19156.127284418984\\
133.03129731663861	19092.457540799747\\
133.661873670955	19029.211527548872\\
134.2924500252714	18966.523827355843\\
134.92302637958778	18904.422187617984\\
135.55360273390417	18842.87989884365\\
136.18417908822056	18781.870251541197\\
136.81475544253695	18721.36653621897\\
137.44533179685334	18661.342043385328\\
138.07590815116973	18601.770063548618\\
138.70648450548597	18542.623887217207\\
};

\addplot [
color=black,
loosely dashdotted
]
table[row sep=crcr]{
82.75992854189037	22001.151116149245\\
83.29845682694415	21912.731993704765\\
83.83698511199792	21824.97736609227\\
84.37551339705169	21737.926904476662\\
84.91404168210546	21651.620280022828\\
85.45256996715923	21566.097163895665\\
85.991098252213	21481.39722726005\\
86.52962653726678	21397.560141280905\\
87.06815482232055	21314.625577123104\\
87.60668310737432	21232.572755626912\\
88.1452113924281	21151.158443507193\\
88.68373967748187	21070.364130518472\\
89.22226796253564	20990.203545122873\\
89.76079624758941	20910.69041578249\\
90.29932453264318	20831.83847095942\\
90.83785281769696	20753.66143911579\\
91.37638110275073	20676.173048713696\\
91.9149093878045	20599.387028215253\\
92.45343767285827	20523.31710608255\\
92.99196595791204	20447.977010777715\\
93.53049424296582	20373.38047076284\\
94.06902252801959	20299.54121450005\\
94.60755081307336	20226.47297045143\\
95.14607909812713	20154.189467079097\\
95.6846073831809	20082.704432845156\\
96.22313566823468	20012.031596211717\\
96.76166395328845	19942.18468564088\\
97.30019223834222	19873.177429594765\\
97.83872052339599	19805.02355653547\\
98.37724880844976	19737.752776225356\\
98.91577709350354	19671.59109757465\\
99.45430537855731	19606.55872309239\\
99.99283366361108	19542.592170879765\\
100.53136194866485	19479.627959037967\\
101.06989023371862	19417.60260566819\\
101.6084185187724	19356.452628871622\\
102.14694680382617	19296.114546749446\\
102.68547508887994	19236.52487740286\\
103.22400337393371	19177.620138933045\\
103.76253165898748	19119.3368494412\\
104.30105994404126	19061.611527028504\\
104.83958822909503	19004.38068979616\\
105.3781165141488	18947.58085584535\\
105.91664479920257	18891.14854327726\\
106.45517308425634	18835.020270193087\\
106.99370136931012	18779.132554694017\\
107.53222965436389	18723.421914881237\\
108.07075793941766	18667.824868855947\\
108.60928622447143	18612.27793471933\\
109.1478145095252	18556.71818086172\\
109.68634279457898	18501.340968011256\\
110.22487107963275	18446.338600843053\\
110.76339936468652	18391.707609900604\\
111.30192764974029	18337.444525727416\\
111.84045593479406	18283.54587886699\\
112.37898421984784	18230.008199862823\\
112.91751250490161	18176.828019258413\\
113.45604078995538	18124.001867597268\\
113.99456907500915	18071.526275422886\\
114.53309736006292	18019.397773278764\\
115.0716256451167	17967.612891708406\\
115.61015393017047	17916.168161255315\\
116.14868221522424	17865.060112462983\\
116.68721050027801	17814.28527587491\\
117.22573878533179	17763.840182034604\\
117.76426707038556	17713.72136148557\\
118.30279535543933	17663.925344771298\\
118.8413236404931	17614.44866243529\\
119.37985192554687	17565.287845021045\\
119.91838021060065	17516.439423072075\\
120.45690849565442	17467.92115387142\\
120.99543678070819	17419.773635871625\\
121.53396506576196	17371.99163634218\\
122.07249335081573	17324.568331370225\\
122.6110216358695	17277.49689704291\\
123.14954992092328	17230.770509447375\\
123.68807820597705	17184.382344670765\\
124.22660649103082	17138.325578800224\\
124.7651347760846	17092.593387922898\\
125.30366306113837	17047.17894812593\\
125.84219134619214	17002.07543549646\\
126.38071963124591	16957.27602612164\\
126.91924791629968	16912.773896088605\\
127.45777620135345	16868.56222148451\\
127.99630448640723	16824.63417839649\\
128.534832771461	16780.98294291169\\
129.07336105651478	16737.60169111726\\
129.61188934156857	16694.483599100335\\
130.15041762662236	16651.62184294807\\
130.68894591167614	16609.009598747598\\
131.22747419672993	16566.649571580085\\
131.76600248178372	16524.588378901633\\
132.3045307668375	16482.830401315587\\
132.8430590518913	16441.372257435785\\
133.38158733694507	16400.210565876074\\
133.92011562199886	16359.341945250302\\
134.45864390705265	16318.763014172306\\
134.99717219210643	16278.470391255933\\
135.53570047716022	16238.460695115027\\
136.07422876221423	16198.730544363412\\
};
\end{axis}
\end{tikzpicture}%
