%Drag_and_Thrust_curves_CONTINOUS_OEI
\begin{tikzpicture}

\begin{axis}[
width=\figurewidth,
height=\figureheight,
scaled ticks=false, tick label style={/pgf/number format/fixed},
xmin=60.75200237992029,
xmax=142.9234635898666,
xlabel={Speed ((m/s))},
xmajorgrids,
ymin=10298.224624404718,
ymax=26451.329715285505,
ylabel={Forces ((N))},
ymajorgrids,
legend style={at={(1.03,0.5)},anchor=west,draw=black,fill=white,legend cell align=left}
]

\addplot [
color=black,
solid
]
table[row sep=crcr]{
60.75200237992029	16855.160583150704\\
61.58201713961672	16640.874417739244\\
62.41203189931314	16441.74611231489\\
63.24204665900957	16257.10981082795\\
64.072061418706	16086.263265569054\\
64.90207617840242	15928.467837169175\\
65.73209093809885	15782.94849459963\\
66.56210569779527	15648.89381517206\\
67.3921204574917	15525.455984538476\\
68.22213521718813	15411.750796691205\\
69.05214997688455	15311.94980768504\\
69.88216473658098	15221.129351253901\\
70.7121794962774	15138.015388445168\\
71.54219425597383	15065.363401534649\\
72.37220901567025	15002.872155932731\\
73.20222377536668	14945.836839554759\\
74.0322385350631	14900.336429279954\\
74.86225329475953	14861.340356239147\\
75.69226805445595	14829.171114702538\\
76.52228281415238	14806.760623732269\\
77.3522975738488	14787.993551777552\\
78.18231233354523	14780.605806632211\\
79.01232709324165	14775.275513443412\\
79.84234185293808	14781.238502898408\\
80.6723566126345	14789.343205999907\\
81.50237137233093	14806.875743851662\\
82.33238613202735	14828.377269108181\\
83.16240089172378	14855.588994174137\\
83.9924156514202	14890.412775790724\\
84.82243041111663	14925.582395515097\\
85.65244517081305	14973.339232431406\\
86.48245993050948	15021.842063121101\\
87.3124746902059	15074.90057877544\\
88.14248944990233	15136.583206039591\\
88.97250420959875	15198.849430254644\\
89.80251896929518	15267.36780571747\\
90.6325337289916	15342.733801963082\\
91.46254848868803	15418.793176666237\\
92.29256324838445	15499.845782252394\\
93.12257800808088	15588.876382229331\\
93.9525927677773	15678.704076893839\\
94.78260752747373	15769.328866245918\\
95.61262228717015	15871.768783928826\\
96.44263704686658	15975.28538053846\\
97.272651806563	16079.69672278909\\
98.10266656625943	16187.84131921514\\
98.93268132595585	16304.912812264176\\
99.76269608565228	16422.970636631017\\
100.5927108453487	16542.01479231567\\
101.42272560504513	16663.63457179811\\
102.25274036474156	16795.14422000934\\
103.08275512443798	16927.725719938586\\
103.9127698841344	17061.379071585827\\
104.74278464383083	17196.10427495108\\
105.57279940352726	17337.747093360667\\
106.40281416322368	17484.761933338174\\
107.2328289229201	17632.92808015728\\
108.06284368261653	17782.245533817986\\
108.89285844231296	17932.714294320285\\
109.72287320200938	18088.70831315224\\
110.5528879617058	18251.218071033152\\
111.38290272140223	18414.95252560263\\
112.21291748109866	18579.911676860695\\
113.04293224079508	18746.09552480734\\
113.87294700049151	18913.504069442566\\
114.70296176018793	19088.12645343428\\
115.53297651988436	19267.321897465503\\
116.36299127958078	19447.809362755674\\
117.19300603927721	19629.5888493048\\
118.02302079897363	19812.66035711288\\
118.85303555867006	19997.02388617991\\
119.68305031836648	20182.67943650589\\
120.51306507806291	20378.460662053127\\
121.34307983775933	20575.625359213725\\
122.17309459745576	20774.143336927038\\
123.00310935715218	20974.01459519306\\
123.83312411684861	21175.2391340118\\
124.66313887654503	21377.81695338325\\
125.49315363624146	21581.748053307416\\
126.32316839593788	21789.383329645432\\
127.15318315563431	22004.448779417075\\
127.98319791533073	22220.922703758577\\
128.81321267502716	22438.80510266995\\
129.6432274347236	22658.095976151188\\
130.47324219442004	22878.795324202285\\
131.30325695411648	23100.90314682325\\
132.13327171381292	23324.41944401408\\
132.96328647350936	23549.344215774785\\
133.7933012332058	23777.066982138313\\
134.62331599290223	24012.75251981467\\
135.45333075259867	24249.89566080143\\
136.2833455122951	24488.49640509859\\
137.11336027199155	24728.55475270616\\
137.943375031688	24970.070703624137\\
138.77338979138443	25213.04425785252\\
139.60340455108087	25457.47541539131\\
140.4334193107773	25703.364176240502\\
141.26343407047375	25950.710540400105\\
142.0934488301702	26199.514507870103\\
142.9234635898666	26451.329715285505\\
};

\addplot [
color=black,
densely dashed
]
table[row sep=crcr]{
65.36787767434237	16855.160583150708\\
66.12663868823095	16673.042696898978\\
66.88539970211954	16501.669131986066\\
67.64416071600813	16340.389079554947\\
68.40292172989672	16188.525462405983\\
69.1616827437853	16045.374934996924\\
69.9204437576739	15913.210127660612\\
70.67920477156248	15790.43303044264\\
71.43796578545107	15674.772101742721\\
72.19672679933966	15566.127936096073\\
72.95548781322825	15469.082396751568\\
73.71424882711683	15377.39411659045\\
74.47300984100542	15292.325741928104\\
75.23177085489401	15217.262773260269\\
75.9905318687826	15145.636166328346\\
76.74929288267118	15084.041121889219\\
77.50805389655977	15026.817711561971\\
78.26681491044836	14976.627184167175\\
79.02557592433695	14932.565992377666\\
79.78433693822554	14893.813908413516\\
80.54309795211412	14861.595152066953\\
81.30185896600271	14834.289169577174\\
82.0606199798913	14812.514260550905\\
82.81938099377989	14796.63576923659\\
83.57814200766848	14783.827314380107\\
84.33690302155706	14779.331435599735\\
85.09566403544565	14774.794925587763\\
85.85442504933424	14780.748823504107\\
86.61318606322283	14787.62491216102\\
87.37194707711141	14799.15551441674\\
88.130708091	14817.342408358672\\
88.88946910488859	14835.686559250065\\
89.64823011877718	14862.083653934646\\
90.40699113266577	14891.702925389453\\
91.16575214655435	14921.571830798588\\
91.92451316044294	14960.615499164436\\
92.68327417433153	15001.688815958547\\
93.44203518822012	15043.099765654773\\
94.2007962021087	15092.41247889855\\
94.9595572159973	15144.922106344497\\
95.71831822988588	15197.852987583223\\
96.47707924377447	15254.899606845898\\
97.23584025766306	15318.78840774227\\
97.99460127155164	15383.177705264976\\
98.75336228544023	15448.067499414023\\
99.51212329932882	15520.436916263261\\
100.27088431321741	15596.183712297516\\
101.029645327106	15672.505869734561\\
101.78840634099458	15749.403388574416\\
102.54716735488317	15833.744387194745\\
103.30592836877176	15921.354209576328\\
104.06468938266035	16009.609880080074\\
104.82345039654894	16098.511398705972\\
105.58221141043752	16191.210079855737\\
106.34097242432611	16290.63542310887\\
107.0997334382147	16390.77272314642\\
107.85849445210329	16491.621979968382\\
108.61725546599187	16593.183193574758\\
109.37601647988046	16699.9425829434\\
110.13477749376905	16811.857092296625\\
110.89353850765764	16924.545289039423\\
111.65229952154623	17038.007173171787\\
112.41106053543481	17152.24274469372\\
113.1698215493234	17268.305387411838\\
113.92858256321199	17392.671189115004\\
114.68734357710058	17517.868030755784\\
115.44610459098917	17643.89591233419\\
116.20486560487775	17770.754833850206\\
116.96362661876634	17898.444795303843\\
117.72238763265493	18027.68279935552\\
118.48114864654352	18165.280363230486\\
119.2399096604321	18303.761941534012\\
119.99867067432069	18443.127534266107\\
120.75743168820928	18583.377141426765\\
121.51619270209787	18724.510763015987\\
122.27495371598646	18866.52839903377\\
123.03371472987504	19011.422296284243\\
123.79247574376363	19163.112210597854\\
124.55123675765222	19315.73473577387\\
125.30999777154081	19469.289871812292\\
126.0687587854294	19623.777618713128\\
126.82751979931798	19779.197976476367\\
127.58628081320657	19935.55094510202\\
128.34504182709514	20092.83652459007\\
129.10380284098372	20254.266437461898\\
129.8625638548723	20420.963140583364\\
130.62132486876087	20588.636672943983\\
131.38008588264944	20757.28703454374\\
132.138846896538	20926.91422538265\\
132.8976079104266	21097.518245460713\\
133.65636892431516	21269.09909477792\\
134.41512993820373	21441.656773334278\\
135.1738909520923	21615.19128112979\\
135.93265196598088	21792.16241842252\\
136.69141297986945	21974.807930480798\\
137.45017399375803	22158.47011209788\\
138.2089350076466	22343.148963273732\\
138.96769602153518	22528.844484008383\\
139.72645703542375	22715.556674301813\\
140.48521804931246	22903.285534154067\\
};

\addplot [
color=black,
dashdotted
]
table[row sep=crcr]{
70.51572560201885	16855.16058315071\\
71.19743626696633	16703.35479609952\\
71.87914693191382	16558.025615107294\\
72.56085759686131	16418.564089615713\\
73.2425682618088	16288.470466583685\\
73.92427892675629	16164.866469394248\\
74.60598959170377	16045.74598938186\\
75.28770025665126	15935.77459114802\\
75.96941092159875	15830.953248425822\\
76.65112158654624	15730.573461970676\\
77.33283225149373	15639.195168044134\\
78.01454291644121	15549.940630774121\\
78.6962535813887	15469.629206146687\\
79.37796424633619	15392.004228292832\\
80.05967491128368	15321.339935395517\\
80.74138557623117	15254.339621082216\\
81.42309624117865	15193.339043204784\\
82.10480690612614	15135.903832620532\\
82.78651757107363	15084.565331740778\\
83.46822823602112	15035.581001138169\\
84.1499389009686	14993.884717921926\\
84.8316495659161	14952.182379617652\\
85.51336023086358	14920.090233418781\\
86.19507089581107	14887.741225473856\\
86.87678156075856	14861.902024654033\\
87.55849222570605	14839.180114475437\\
88.24020289065353	14817.967352802509\\
88.92191355560102	14804.79498023484\\
89.60362422054851	14791.521234449892\\
90.285334885496	14783.141977367048\\
90.96704555044349	14779.395176662068\\
91.64875621539097	14775.620191676206\\
92.33046688033846	14778.367479949507\\
93.01217754528595	14784.072552430029\\
93.69388821023344	14789.819592680746\\
94.37559887518093	14801.877139204444\\
95.05730954012841	14817.033054225329\\
95.7390202050759	14832.29805218216\\
96.42073087002339	14851.7402419787\\
97.10244153497088	14876.318636926868\\
97.78415219991837	14901.07019309139\\
98.46586286486585	14925.994910472265\\
99.14757352981334	14959.807263605846\\
99.82928419476083	14993.986646511696\\
100.51099485970832	15028.400232028993\\
101.1927055246558	15065.21290552576\\
101.8744161896033	15108.734051738627\\
102.55612685455078	15152.547405072695\\
103.23783751949827	15196.652965527976\\
103.91954818444576	15242.835056260015\\
104.60125884939325	15295.931745123271\\
105.28296951434073	15349.375608732164\\
105.96468017928822	15403.166647086704\\
106.64639084423571	15457.304860186883\\
107.3281015091832	15518.519941514542\\
108.00981217413069	15581.554412620928\\
108.69152283907817	15644.987989212059\\
109.37323350402566	15708.82067128794\\
110.05494416897315	15773.326697675726\\
110.73665483392064	15845.875430878334\\
111.41836549886813	15918.872163419468\\
112.10007616381561	15992.31689529913\\
112.7817868287631	16066.209626517315\\
113.46349749371059	16140.550357074024\\
114.14520815865808	16221.282800232873\\
114.82691882360557	16304.220720120455\\
115.50862948855305	16387.652496315015\\
116.19034015350054	16471.57812881655\\
116.87205081844803	16555.99761762506\\
117.55376148339552	16640.91096274055\\
118.235472148343	16733.48027252628\\
118.9171828132905	16826.829428782192\\
119.59889347823798	16920.71526142821\\
120.28060414318547	17015.137770464316\\
120.96231480813296	17110.09695589052\\
121.64402547308045	17205.592817706827\\
122.32573613802793	17305.226796423965\\
123.00744680297542	17408.95457479566\\
123.68915746792291	17513.258812755248\\
124.3708681328704	17618.13951030273\\
125.05257879781789	17723.5966674381\\
125.73428946276537	17829.63028416137\\
126.41600012771286	17936.240360472533\\
127.09771079266035	18045.19320886215\\
127.77942145760784	18159.82553706154\\
128.46113212255534	18275.071071161292\\
129.14284278750284	18390.929811161404\\
129.82455345245035	18507.401757061878\\
130.50626411739785	18624.486908862713\\
131.18797478234535	18742.185266563898\\
131.86968544729285	18860.496830165448\\
132.55139611224035	18979.76420863871\\
133.23310677718786	19105.87347872322\\
133.91481744213536	19232.62966413524\\
134.59652810708286	19360.032764874748\\
135.27823877203036	19488.08278094176\\
135.95994943697787	19616.779712336272\\
136.64166010192537	19746.123559058284\\
137.32337076687287	19876.11432110779\\
138.00508143182054	20006.751998484833\\
};

\addplot [
color=black,
dashed
]
table[row sep=crcr]{
76.27942608819963	16855.160583150708\\
76.87741928233584	16731.862737019113\\
77.47541247647204	16610.930864989128\\
78.07340567060825	16497.253066874022\\
78.67139886474446	16386.978173035182\\
79.26939205888067	16281.336355077514\\
79.86738525301688	16181.002525107957\\
80.46537844715309	16083.42532622795\\
81.0633716412893	15992.28069982577\\
81.6613648354255	15902.784776950308\\
82.25935802956171	15820.041547833524\\
82.85735122369792	15738.631575896148\\
83.45534441783413	15663.465991802763\\
84.05333761197033	15590.134663743664\\
84.65133080610654	15521.687026431628\\
85.24932400024275	15456.415053197652\\
85.84731719437896	15393.78971844486\\
86.44531038851517	15336.545828989496\\
87.04330358265138	15278.904575389417\\
87.64129677678758	15229.552147877215\\
88.23928997092379	15179.955834682529\\
88.83728316506	15134.41123864543\\
89.43527635919621	15092.802633824036\\
90.03326955333242	15050.914887192283\\
90.63126274746863	15016.362291631816\\
91.22925594160483	14982.449155016773\\
91.82724913574104	14949.504198950364\\
92.42524232987725	14923.482479334338\\
93.02323552401346	14897.291852246763\\
93.62122871814967	14872.824341022733\\
94.21922191228587	14854.48207759421\\
94.81721510642208	14836.023028365202\\
95.41520830055829	14818.633239213574\\
96.0132014946945	14807.963524312527\\
96.61119468883071	14797.227148283166\\
97.20918788296692	14786.424111125494\\
97.80718107710312	14782.421419450255\\
98.40517427123933	14779.380838971594\\
99.00316746537554	14776.3217250379\\
99.60116065951175	14776.242525028218\\
100.19915385364796	14780.852889461294\\
100.79714704778416	14785.490851113722\\
101.39514024192037	14790.15640998551\\
101.99313343605658	14799.904250842941\\
102.59112663019279	14812.17446745361\\
103.189119824329	14824.51641495914\\
103.7871130184652	14836.930093359522\\
104.38510621260141	14854.50771421809\\
104.98309940673762	14874.441259740566\\
105.58109260087383	14894.488672834505\\
106.17908579501004	14914.649953499902\\
106.77707898914625	14937.94027356016\\
107.37507218328246	14965.516660741947\\
107.97306537741866	14993.24705517291\\
108.57105857155487	15021.13145685305\\
109.16905176569108	15049.16986578236\\
109.76704495982729	15083.072352983982\\
110.3650381539635	15118.439280513889\\
110.9630313480997	15153.998357971795\\
111.56102454223591	15189.749585357704\\
112.15901773637212	15225.692962671608\\
112.75701093050833	15267.521355503404\\
113.35500412464454	15310.68269951541\\
113.95299731878075	15354.072339135353\\
114.55099051291695	15397.690274363227\\
115.14898370705316	15441.536505199037\\
115.74697690118937	15488.424812249594\\
116.34497009532558	15539.354493894316\\
116.94296328946179	15590.546619828016\\
117.540956483598	15642.001190050687\\
118.1389496777342	15693.718204562332\\
118.73694287187041	15745.697663362955\\
119.33493606600662	15801.26268996471\\
119.93292926014283	15860.199271380514\\
120.53092245427904	15919.43044876744\\
121.12891564841524	15978.956222125495\\
121.72690884255145	16038.776591454669\\
122.32490203668766	16098.89155675497\\
122.92289523082387	16159.508815289888\\
123.52088842496008	16226.42661702716\\
124.11888161909629	16293.669169418821\\
124.7168748132325	16361.23647246486\\
125.3148680073687	16429.128526165285\\
125.91286120150491	16497.345330520093\\
126.51085439564112	16565.886885529282\\
127.10884758977733	16634.753191192856\\
127.70684078391353	16709.166413106752\\
128.30483397804974	16784.709626413343\\
128.90282717218594	16860.605748058686\\
129.50082036632213	16936.854778042776\\
130.09881356045832	17013.456716365617\\
130.69680675459452	17090.411563027214\\
131.2947999487307	17167.719318027557\\
131.8927931428669	17245.37998136665\\
132.4907863370031	17328.608644738855\\
133.0887795311393	17412.78434094697\\
133.6867727252755	17497.339106179315\\
134.28476591941168	17582.272940435883\\
134.88275911354788	17667.58584371668\\
135.48075230768399	17753.277816021688\\
};

\addplot [
color=black,
densely dashdotted
]
table[row sep=crcr]{
82.75992925800008	16855.160583150704\\
83.26649271816429	16758.61806354922\\
83.77305617832849	16663.121024854\\
84.27961963849269	16572.11510041693\\
84.78618309865689	16483.19971020875\\
85.2927465588211	16397.09177011237\\
85.7993100189853	16314.737971688091\\
86.3058734791495	16232.86749219245\\
86.8124369393137	16157.047924543533\\
87.3190003994779	16080.784643893441\\
87.8255638596421	16009.412466805006\\
88.3321273198063	15939.691481802935\\
88.8386907799705	15871.085279280805\\
89.34525424013471	15807.863402923185\\
89.85181770029891	15744.28205655336\\
90.35838116046311	15684.517566535498\\
90.86494462062731	15627.425132919281\\
91.37150808079151	15570.013524708982\\
91.87807154095572	15518.17938083836\\
92.38463500111992	15467.23675041696\\
92.89119846128412	15416.014023435368\\
93.39776192144832	15371.155033522537\\
93.90432538161252	15326.371610291266\\
94.41088884177672	15281.345951149473\\
94.91745230194093	15242.46309717259\\
95.42401576210513	15203.83732866866\\
95.93057922226933	15165.005967519639\\
96.43714268243353	15131.056405624444\\
96.94370614259773	15098.575782926971\\
97.45026960276194	15065.924993465604\\
97.95683306292614	15035.82205396543\\
98.46339652309034	15009.46311169543\\
98.96995998325454	14982.968211158495\\
99.47652344341874	14956.337352354623\\
99.98308690358294	14935.309714854642\\
100.48965036374715	14914.935064020812\\
100.99621382391135	14894.457446032779\\
101.50277728407555	14874.86025353662\\
102.00934074423975	14860.55925672647\\
102.51590420440395	14846.187066490613\\
103.02246766456815	14831.74368282904\\
103.52903112473236	14818.508755200763\\
104.03559458489656	14810.183223195316\\
104.54215804506076	14801.81705410842\\
105.04872150522496	14793.410247940079\\
105.55528496538916	14785.037186865475\\
106.06184842555336	14782.677288989156\\
106.56841188571757	14780.306092991417\\
107.07497534588177	14777.923598872258\\
107.58153880604597	14775.529806631675\\
108.08810226621017	14776.420259949555\\
108.59466572637437	14780.01838037036\\
109.10122918653857	14783.633324245546\\
109.60779264670278	14787.265091575104\\
110.11435610686698	14790.913682359034\\
110.62091956703118	14799.201244589603\\
111.12748302719538	14808.772143793483\\
111.63404648735958	14818.386770643292\\
112.14060994752379	14828.045125139048\\
112.64717340768799	14837.747207280729\\
113.15373686785219	14851.455908363183\\
113.66030032801639	14866.996086072573\\
114.16686378818059	14882.605678235228\\
114.6734272483448	14898.284684851138\\
115.179990708509	14914.033105920314\\
115.6865541686732	14931.077411212837\\
116.1931176288374	14952.565106386677\\
116.6996810890016	14974.14668543687\\
117.2062445491658	14995.82214836342\\
117.71280800933	15017.591495166325\\
118.2193714694942	15039.454725845584\\
118.72593492965841	15063.1714962798\\
119.23249838982261	15090.683823028736\\
119.73906184998681	15118.31328569289\\
120.24562531015101	15146.059884272257\\
120.75218877031521	15173.923618766847\\
121.25875223047942	15201.90448917665\\
121.76531569064362	15230.002495501665\\
122.27187915080782	15263.231259221531\\
122.77844261097202	15296.893174856596\\
123.28500607113622	15330.694261061504\\
123.79156953130042	15364.634517836255\\
124.29813299146463	15398.713945180849\\
124.80469645162883	15432.932543095285\\
125.31125991179303	15467.363660902773\\
125.81782337195723	15507.0206859495\\
126.32438683212143	15546.837698836462\\
126.83095029228564	15586.814699563658\\
127.33751375244984	15626.95168813109\\
127.84407721261404	15667.24866453876\\
128.35064067277824	15707.705628786665\\
128.85720413294243	15748.322580874805\\
129.36376759310662	15791.339662708\\
129.8703310532708	15837.291716143722\\
130.376894513435	15883.423357305837\\
130.88345797359918	15929.734586194352\\
131.39002143376337	15976.225402809258\\
131.89658489392755	16022.89580715056\\
132.40314835409174	16069.745799218259\\
132.90971181425576	16116.775379012337\\
};

\addplot [
color=black,
densely dotted
]
table[row sep=crcr]{
60.75200237992029	19449.11031398821\\
61.58201713961672	19415.862459243886\\
62.41203189931314	19365.740929582204\\
63.24204665900957	19300.548798439682\\
64.072061418706	19222.089139252865\\
64.90207617840242	19132.165025458286\\
65.73209093809885	19032.57953049248\\
66.56210569779527	18925.135727791974\\
67.3921204574917	18811.636690793308\\
68.22213521718813	18693.885492933023\\
69.05214997688455	18573.685207647646\\
69.88216473658098	18452.838908373706\\
70.7121794962774	18333.149668547754\\
71.54219425597383	18216.42056160631\\
72.37220901567025	18104.45466098591\\
73.20222377536668	17999.055040123094\\
74.0322385350631	17902.024772454395\\
74.86225329475953	17815.16693141635\\
75.69226805445595	17740.284590445484\\
76.52228281415238	17679.18082297834\\
77.3522975738488	17633.65870245145\\
78.18231233354523	17605.52130230135\\
79.01232709324165	17596.501955688433\\
79.84234185293808	17586.44676759315\\
80.6723566126345	17559.548049949837\\
81.50237137233093	17517.40647981154\\
82.33238613202735	17461.622734231318\\
83.16240089172378	17393.797490262223\\
83.9924156514202	17315.53142495731\\
84.82243041111663	17228.42521536963\\
85.65244517081305	17134.07953855223\\
86.48245993050948	17034.09507155817\\
87.3124746902059	16930.072491440504\\
88.14248944990233	16823.612475252277\\
88.97250420959875	16716.315700046543\\
89.80251896929518	16609.782842876364\\
90.6325337289916	16505.614580794783\\
91.46254848868803	16405.41159085486\\
92.29256324838445	16310.77455010964\\
93.12257800808088	16223.30413561218\\
93.9525927677773	16144.601024415535\\
94.78260752747373	16076.26589357275\\
95.61262228717015	16019.899420136888\\
96.44263704686658	15977.102281160998\\
97.272651806563	15949.47515369813\\
98.10266656625943	15938.618714801336\\
98.93268132595585	15931.949016746325\\
99.76269608565228	15909.943293506178\\
100.5927108453487	15873.859870285181\\
101.42272560504513	15825.151970050465\\
102.25274036474156	15765.272815769162\\
103.08275512443798	15695.675630408405\\
103.9127698841344	15617.813636935327\\
104.74278464383083	15533.14005831706\\
105.57279940352726	15443.108117520742\\
106.40281416322368	15349.1710375135\\
107.2328289229201	15252.782041262468\\
108.06284368261653	15155.394351734782\\
108.89285844231296	15058.461191897575\\
109.72287320200938	14963.435784717974\\
110.5528879617058	14871.771353163123\\
111.38290272140223	14784.921120200144\\
112.21291748109866	14704.338308796176\\
113.04293224079508	14631.47614191835\\
113.87294700049151	14567.787842533799\\
114.70296176018793	14514.726633609656\\
115.53297651988436	14473.745738113057\\
116.36299127958078	14446.29837901113\\
117.19300603927721	14433.837779271013\\
118.02302079897363	14429.40206003895\\
118.85303555867006	14412.374579253703\\
119.68305031836648	14382.878283708478\\
120.51306507806291	14342.178824517803\\
121.34307983775933	14291.541852796203\\
122.17309459745576	14232.233019658206\\
123.00310935715218	14165.517976218342\\
123.83312411684861	14092.662373591133\\
124.66313887654503	14014.93186289111\\
125.49315363624146	13933.592095232803\\
126.32316839593788	13849.908721730733\\
127.15318315563431	13765.147393499432\\
127.98319791533073	13680.573761653428\\
128.81321267502716	13597.453477307243\\
129.6432274347236	13517.05219157541\\
130.47324219442004	13440.635555572453\\
131.30325695411648	13369.469220412904\\
132.13327171381292	13304.818837211285\\
132.96328647350936	13247.950057082126\\
133.7933012332058	13200.128531139952\\
134.62331599290223	13162.619910499296\\
135.45333075259867	13136.68984627468\\
136.2833455122951	13123.603989580633\\
137.11336027199155	13120.051634318468\\
137.943375031688	13105.973398798555\\
138.77338979138443	13079.881575757307\\
139.60340455108087	13042.975584123562\\
140.4334193107773	12996.454842826171\\
141.26343407047375	12941.518770793973\\
142.0934488301702	12879.366786955814\\
142.9234635898666	12811.198310240563\\
};

\addplot [
color=black,
dashdotdotted
]
table[row sep=crcr]{
65.36787767434237	19129.995605025688\\
66.12663868823095	19049.11122782283\\
66.88539970211954	18968.687092557026\\
67.64416071600813	18888.714304176865\\
68.40292172989672	18809.183967630895\\
69.1616827437853	18730.087187867703\\
69.9204437576739	18651.415069835846\\
70.67920477156248	18573.158718483883\\
71.43796578545107	18495.309238760405\\
72.19672679933966	18417.857735613958\\
72.95548781322825	18340.795313993116\\
73.71424882711683	18264.113078846447\\
74.47300984100542	18187.802135122532\\
75.23177085489401	18111.85358776991\\
75.9905318687826	18036.258541737177\\
76.74929288267118	17961.008101972882\\
77.50805389655977	17886.093373425607\\
78.26681491044836	17811.505461043907\\
79.02557592433695	17737.23546977636\\
79.78433693822554	17663.27711662436\\
80.54309795211412	17589.694038425005\\
81.30185896600271	17516.511971603948\\
82.0606199798913	17443.72441315512\\
82.81938099377989	17371.32486007244\\
83.57814200766848	17299.306809349844\\
84.33690302155706	17227.663757981263\\
85.09566403544565	17156.38920296062\\
85.85442504933424	17085.47664128185\\
86.61318606322283	17014.919569938873\\
87.37194707711141	16944.711485925633\\
88.130708091	16874.845886236042\\
88.88946910488859	16805.316267864047\\
89.64823011877718	16736.11612780356\\
90.40699113266577	16667.238963048523\\
91.16575214655435	16598.678270592856\\
91.92451316044294	16530.427547430496\\
92.68327417433153	16462.480290555366\\
93.44203518822012	16394.829996961398\\
94.2007962021087	16327.47016364252\\
94.9595572159973	16260.394287592664\\
95.71831822988588	16193.595865805753\\
96.47707924377447	16127.068395275724\\
97.23584025766306	16060.80257074928\\
97.99460127155164	15994.776880376161\\
98.75336228544023	15928.995655604633\\
99.51212329932882	15863.468148221911\\
100.27088431321741	15798.20361001522\\
101.029645327106	15733.211292771783\\
101.78840634099458	15668.50044827882\\
102.54716735488317	15604.08032832355\\
103.30592836877176	15539.960184693198\\
104.06468938266035	15476.149269174983\\
104.82345039654894	15412.656833556131\\
105.58221141043752	15349.492129623855\\
106.34097242432611	15286.664409165385\\
107.0997334382147	15224.182923967941\\
107.85849445210329	15162.056925818739\\
108.61725546599187	15100.295666505008\\
109.37601647988046	15038.908397813966\\
110.13477749376905	14977.904371532832\\
110.89353850765764	14917.292839448832\\
111.65229952154623	14857.083053349188\\
112.41106053543481	14797.284265021117\\
113.1698215493234	14737.905726251844\\
113.92858256321199	14678.956688828588\\
114.68734357710058	14620.469813825815\\
115.44610459098917	14562.510473882923\\
116.20486560487775	14505.05974307673\\
116.96362661876634	14448.093053363558\\
117.72238763265493	14391.585836699722\\
118.48114864654352	14335.51352504154\\
119.2399096604321	14279.851550345329\\
119.99867067432069	14224.575344567407\\
120.75743168820928	14169.66033966409\\
121.51619270209787	14115.081967591696\\
122.27495371598646	14060.815660306538\\
123.03371472987504	14006.836849764939\\
123.79247574376363	13953.12096792321\\
124.55123675765222	13899.643446737673\\
125.30999777154081	13846.37971816464\\
126.0687587854294	13793.305214160437\\
126.82751979931798	13740.39536668137\\
127.58628081320657	13687.625607683762\\
128.34504182709514	13634.971369123929\\
129.10380284098372	13582.408082958189\\
129.8625638548723	13529.911181142856\\
130.62132486876087	13477.456095634248\\
131.38008588264944	13425.018258388685\\
132.138846896538	13372.689194228366\\
132.8976079104266	13320.612994588479\\
133.65636892431516	13268.778094280271\\
134.41512993820373	13217.171890680247\\
135.1738909520923	13165.781781164911\\
135.93265196598088	13114.595163110762\\
136.69141297986945	13063.599433894306\\
137.45017399375803	13012.781990892048\\
138.2089350076466	12962.13023148049\\
138.96769602153518	12911.63155303614\\
139.72645703542375	12861.2733529355\\
140.48521804931246	12811.043028555086\\
};

\addplot [
color=black,
densely dashdotdetted
]
table[row sep=crcr]{
70.51572560201885	18807.874046035733\\
71.19743626696633	18734.217486363876\\
71.87914693191382	18660.72645190637\\
72.56085759686131	18587.414465360358\\
73.2425682618088	18514.295049423028\\
73.92427892675629	18441.381726791522\\
74.60598959170377	18368.688020163016\\
75.28770025665126	18296.227452234667\\
75.96941092159875	18224.013545703645\\
76.65112158654624	18152.059823267115\\
77.33283225149373	18080.379807622237\\
78.01454291644121	18008.987021466175\\
78.6962535813887	17937.894987496093\\
79.37796424633619	17867.11722840916\\
80.05967491128368	17796.667266902536\\
80.74138557623117	17726.558625673384\\
81.42309624117865	17656.789115118776\\
82.10480690612614	17587.24759573026\\
82.78651757107363	17517.916670503957\\
83.46822823602112	17448.80481985767\\
84.1499389009686	17379.92052420918\\
84.8316495659161	17311.2722639763\\
85.51336023086358	17242.86851957682\\
86.19507089581107	17174.71777142854\\
86.87678156075856	17106.828499949253\\
87.55849222570605	17039.209185556763\\
88.24020289065353	16971.86830866886\\
88.92191355560102	16904.814349703352\\
89.60362422054851	16838.05578907803\\
90.285334885496	16771.60110721069\\
90.96704555044349	16705.458784519127\\
91.64875621539097	16639.637301421146\\
92.33046688033846	16574.145138334537\\
93.01217754528595	16508.990775677103\\
93.69388821023344	16444.18269386664\\
94.37559887518093	16379.729373320946\\
95.05730954012841	16315.639294457817\\
95.7390202050759	16251.920937695051\\
96.42073087002339	16188.582755158513\\
97.10244153497088	16125.623649905177\\
97.78415219991837	16063.033807775228\\
98.46586286486585	16000.806276928703\\
99.14757352981334	15938.934105525648\\
99.82928419476083	15877.410341726096\\
100.51099485970832	15816.228033690086\\
101.1927055246558	15755.380229577659\\
101.8744161896033	15694.859977548851\\
102.55612685455078	15634.6603257637\\
103.23783751949827	15574.774322382249\\
103.91954818444576	15515.195015564532\\
104.60125884939325	15455.91545347059\\
105.28296951434073	15396.928684260462\\
105.96468017928822	15338.227756094184\\
106.64639084423571	15279.805717131796\\
107.3281015091832	15221.655615533338\\
108.00981217413069	15163.770499458846\\
108.69152283907817	15106.143417068357\\
109.37323350402566	15048.767416521916\\
110.05494416897315	14991.635545979558\\
110.73665483392064	14934.74085360132\\
111.41836549886813	14878.07638754724\\
112.10007616381561	14821.663723554366\\
112.7817868287631	14765.57719481102\\
113.46349749371059	14709.813337442218\\
114.14520815865808	14654.363524620581\\
114.82691882360557	14599.21912951873\\
115.50862948855305	14544.371525309287\\
116.19034015350054	14489.812085164882\\
116.87205081844803	14435.532182258128\\
117.55376148339552	14381.52318976165\\
118.235472148343	14327.776480848072\\
118.9171828132905	14274.283428690016\\
119.59889347823798	14221.035406460103\\
120.28060414318547	14168.023787330962\\
120.96231480813296	14115.239944475203\\
121.64402547308045	14062.675251065459\\
122.32573613802793	14010.321080274347\\
123.00744680297542	13958.168805274488\\
123.68915746792291	13906.209799238513\\
124.3708681328704	13854.435435339035\\
125.05257879781789	13802.837086748683\\
125.73428946276537	13751.406126640073\\
126.41600012771286	13700.133928185833\\
127.09771079266035	13649.018940453683\\
127.77942145760784	13598.14390532199\\
128.46113212255534	13547.528439081068\\
129.14284278750284	13497.16423368398\\
129.82455345245035	13447.04298108379\\
130.50626411739785	13397.156373233556\\
131.18797478234535	13347.496102086336\\
131.86968544729285	13298.053859595195\\
132.55139611224035	13248.82133771319\\
133.23310677718786	13199.790228393382\\
133.91481744213536	13150.952223588833\\
134.59652810708286	13102.2990152526\\
135.27823877203036	13053.822295337748\\
135.95994943697787	13005.513755797334\\
136.64166010192537	12957.365088584414\\
137.32337076687287	12909.367985652061\\
138.00508143182054	12861.514138953338\\
};

\addplot [
color=black,
loosely dashed
]
table[row sep=crcr]{
76.27942608819963	16092.737134752198\\
76.87741928233584	16037.106700363607\\
77.47541247647204	15982.082165578555\\
78.07340567060825	15927.620244515023\\
78.67139886474446	15873.67765129099\\
79.26939205888067	15820.211100024428\\
79.86738525301688	15767.177304833325\\
80.46537844715309	15714.532979835652\\
81.0633716412893	15662.234839149392\\
81.6613648354255	15610.239596892518\\
82.25935802956171	15558.50396718301\\
82.85735122369792	15506.984664138845\\
83.45534441783413	15455.638401878005\\
84.05333761197033	15404.55060967628\\
84.65133080610654	15354.047216291789\\
85.24932400024275	15304.123531084193\\
85.84731719437896	15254.753582714537\\
86.44531038851517	15205.911399843848\\
87.04330358265138	15157.571011133166\\
87.64129677678758	15109.706445243517\\
88.23928997092379	15062.291730835947\\
88.83728316506	15015.300896571487\\
89.43527635919621	14968.707971111166\\
90.03326955333242	14922.486983116023\\
90.63126274746863	14876.61196124709\\
91.22925594160483	14831.056934165405\\
91.82724913574104	14785.795930531998\\
92.42524232987725	14740.802979007905\\
93.02323552401346	14696.052108254165\\
93.62122871814967	14651.517346931807\\
94.21922191228587	14607.172723701868\\
94.81721510642208	14562.99226722538\\
95.41520830055829	14518.950006163383\\
96.0132014946945	14475.019969176907\\
96.61119468883071	14431.176184926984\\
97.20918788296692	14387.438087750985\\
97.80718107710312	14343.905976104177\\
98.40517427123933	14300.58956090141\\
99.00316746537554	14257.493911853113\\
99.60116065951175	14214.624098669716\\
100.19915385364796	14171.985191061654\\
100.79714704778416	14129.582258739361\\
101.39514024192037	14087.420371413267\\
101.99313343605658	14045.504598793807\\
102.59112663019279	14003.840010591408\\
103.189119824329	13962.431676516508\\
103.7871130184652	13921.284666279533\\
104.38510621260141	13880.404049590923\\
104.98309940673762	13839.794896161102\\
105.58109260087383	13799.462275700507\\
106.17908579501004	13759.41125791957\\
106.77707898914625	13719.646912528722\\
107.37507218328246	13680.174309238395\\
107.97306537741866	13640.998517759026\\
108.57105857155487	13602.124607801035\\
109.16905176569108	13563.557649074866\\
109.76704495982729	13525.302711290948\\
110.3650381539635	13487.37990115625\\
110.9630313480997	13449.816740082442\\
111.56102454223591	13412.6021489606\\
112.15901773637212	13375.723905845278\\
112.75701093050833	13339.169788791036\\
113.35500412464454	13302.92757585243\\
113.95299731878075	13266.985045084028\\
114.55099051291695	13231.329974540384\\
115.14898370705316	13195.950142276057\\
115.74697690118937	13160.833326345612\\
116.34497009532558	13125.9673048036\\
116.94296328946179	13091.339855704588\\
117.540956483598	13056.938757103131\\
118.1389496777342	13022.751787053792\\
118.73694287187041	12988.766723611127\\
119.33493606600662	12954.971344829699\\
119.93292926014283	12921.353428764067\\
120.53092245427904	12887.900753468788\\
121.12891564841524	12854.601096998425\\
121.72690884255145	12821.442237407535\\
122.32490203668766	12788.411952750677\\
122.92289523082387	12755.498021082414\\
123.52088842496008	12722.742841776537\\
124.11888161909629	12690.235828322831\\
124.7168748132325	12657.970039409256\\
125.3148680073687	12625.93642161454\\
125.91286120150491	12594.125921517421\\
126.51085439564112	12562.529485696623\\
127.10884758977733	12531.138060730875\\
127.70684078391353	12499.942593198912\\
128.30483397804974	12468.934029679456\\
128.90282717218594	12438.103316751245\\
129.50082036632213	12407.441400993008\\
130.09881356045832	12376.939228983469\\
130.69680675459452	12346.587747301364\\
131.2947999487307	12316.377902525424\\
131.8927931428669	12286.300641234373\\
132.4907863370031	12256.346910006945\\
133.0887795311393	12226.507655421869\\
133.6867727252755	12196.773824057875\\
134.28476591941168	12167.136362493693\\
134.88275911354788	12137.586217308053\\
135.48075230768399	12108.114335079697\\
};

\addplot [
color=black,
loosely dashdotted
]
table[row sep=crcr]{
82.75992925800008	13746.901940585758\\
83.26649271816429	13693.983063243022\\
83.77305617832849	13641.508899272809\\
84.27961963849269	13589.485575231483\\
84.78618309865689	13537.919217675399\\
85.2927465588211	13486.815953160929\\
85.7993100189853	13436.181908244425\\
86.3058734791495	13386.023209482253\\
86.8124369393137	13336.345983430774\\
87.3190003994779	13287.156329943751\\
87.8255638596421	13238.443507616872\\
88.3321273198063	13190.193614978944\\
88.8386907799705	13142.404458642619\\
89.34525424013471	13095.073845220546\\
89.85181770029891	13048.199581325378\\
90.35838116046311	13001.77947356976\\
90.86494462062731	12955.811328566351\\
91.37150808079151	12910.292952927794\\
91.87807154095572	12865.222153266743\\
92.38463500111992	12820.596736195841\\
92.89119846128412	12776.414508327747\\
93.39776192144832	12732.673276275103\\
93.90432538161252	12689.370846650569\\
94.41088884177672	12646.505026066787\\
94.91745230194093	12604.07362113641\\
95.42401576210513	12562.074438472086\\
95.93057922226933	12520.50528468647\\
96.43714268243353	12479.363966392208\\
96.94370614259773	12438.64829020195\\
97.45026960276194	12398.356062728346\\
97.95683306292614	12358.48509058405\\
98.46339652309034	12319.058421084714\\
98.96995998325454	12280.215094993286\\
99.47652344341874	12241.954689595696\\
99.98308690358294	12204.250930291855\\
100.48965036374715	12167.07754248166\\
100.99621382391135	12130.40825156502\\
101.50277728407555	12094.216782941836\\
102.00934074423975	12058.476862012007\\
102.51590420440395	12023.162214175443\\
103.02246766456815	11988.246564832043\\
103.52903112473236	11953.70363938171\\
104.03559458489656	11919.507163224347\\
104.54215804506076	11885.630861759859\\
105.04872150522496	11852.048460388145\\
105.55528496538916	11818.733684509116\\
106.06184842555336	11785.660259522667\\
106.56841188571757	11752.8019108287\\
107.07497534588177	11720.13236382713\\
107.58153880604597	11687.625343917845\\
108.08810226621017	11655.254576500762\\
108.59466572637437	11622.993786975774\\
109.10122918653857	11590.816700742786\\
109.60779264670278	11558.824747051522\\
110.11435610686698	11527.149998052202\\
110.62091956703118	11495.781032836647\\
111.12748302719538	11464.706217497776\\
111.63404648735958	11433.91391812853\\
112.14060994752379	11403.39250082183\\
112.64717340768799	11373.13033167061\\
113.15373686785219	11343.115776767796\\
113.66030032801639	11313.337202206318\\
114.16686378818059	11283.782974079106\\
114.6734272483448	11254.441458479085\\
115.179990708509	11225.301021499186\\
115.6865541686732	11196.350029232339\\
116.1931176288374	11167.576847771474\\
116.6996810890016	11138.96984320952\\
117.2062445491658	11110.5173816394\\
117.71280800933	11082.207829154053\\
118.2193714694942	11054.029551846397\\
118.72593492965841	11025.970915809368\\
119.23249838982261	10998.020287135892\\
119.73906184998681	10970.166031918903\\
120.24562531015101	10942.408747170892\\
120.75218877031521	10914.841729710522\\
121.25875223047942	10887.480585787594\\
121.76531569064362	10860.317616607392\\
122.27187915080782	10833.345123375198\\
122.77844261097202	10806.555407296302\\
123.28500607113622	10779.940769575986\\
123.79156953130042	10753.493511419532\\
124.29813299146463	10727.205934032228\\
124.80469645162883	10701.070338619358\\
125.31125991179303	10675.079026386207\\
125.81782337195723	10649.224298538064\\
126.32438683212143	10623.498456280204\\
126.83095029228564	10597.893800817921\\
127.33751375244984	10572.402633356494\\
127.84407721261404	10547.017255101213\\
128.35064067277824	10521.729967257357\\
128.85720413294243	10496.533071030217\\
129.36376759310662	10471.418867625072\\
129.8703310532708	10446.379658247211\\
130.376894513435	10421.40774410192\\
130.88345797359918	10396.495426394476\\
131.39002143376337	10371.683880148923\\
131.89658489392755	10347.041137352715\\
132.40314835409174	10322.558078372856\\
132.90971181425576	10298.224624404718\\
};
\end{axis}
\end{tikzpicture}%
