%Drag_and_Thrust_curves_CLIMB_AOE
\begin{tikzpicture}

\begin{axis}[
width=\figurewidth,
height=\figureheight,
scaled ticks=false, tick label style={/pgf/number format/fixed},
xmin=60.75200237992029,
xmax=142.9234635898666,
xlabel={Speed ((m/s))},
xmajorgrids,
ymin=14774.794925587763,
ymax=41525.99033692851,
ylabel={Forces ((N))},
ymajorgrids,
legend style={at={(1.03,0.5)},anchor=west,draw=black,fill=white,legend cell align=left}
]

\addplot [
color=black,
solid
]
table[row sep=crcr]{
60.75200237992029	16855.160583150704\\
61.58201713961672	16640.874417739244\\
62.41203189931314	16441.74611231489\\
63.24204665900957	16257.10981082795\\
64.072061418706	16086.263265569054\\
64.90207617840242	15928.467837169175\\
65.73209093809885	15782.94849459963\\
66.56210569779527	15648.89381517206\\
67.3921204574917	15525.455984538476\\
68.22213521718813	15411.750796691205\\
69.05214997688455	15311.94980768504\\
69.88216473658098	15221.129351253901\\
70.7121794962774	15138.015388445168\\
71.54219425597383	15065.363401534649\\
72.37220901567025	15002.872155932731\\
73.20222377536668	14945.836839554759\\
74.0322385350631	14900.336429279954\\
74.86225329475953	14861.340356239147\\
75.69226805445595	14829.171114702538\\
76.52228281415238	14806.760623732269\\
77.3522975738488	14787.993551777552\\
78.18231233354523	14780.605806632211\\
79.01232709324165	14775.275513443412\\
79.84234185293808	14781.238502898408\\
80.6723566126345	14789.343205999907\\
81.50237137233093	14806.875743851662\\
82.33238613202735	14828.377269108181\\
83.16240089172378	14855.588994174137\\
83.9924156514202	14890.412775790724\\
84.82243041111663	14925.582395515097\\
85.65244517081305	14973.339232431406\\
86.48245993050948	15021.842063121101\\
87.3124746902059	15074.90057877544\\
88.14248944990233	15136.583206039591\\
88.97250420959875	15198.849430254644\\
89.80251896929518	15267.36780571747\\
90.6325337289916	15342.733801963082\\
91.46254848868803	15418.793176666237\\
92.29256324838445	15499.845782252394\\
93.12257800808088	15588.876382229331\\
93.9525927677773	15678.704076893839\\
94.78260752747373	15769.328866245918\\
95.61262228717015	15871.768783928826\\
96.44263704686658	15975.28538053846\\
97.272651806563	16079.69672278909\\
98.10266656625943	16187.84131921514\\
98.93268132595585	16304.912812264176\\
99.76269608565228	16422.970636631017\\
100.5927108453487	16542.01479231567\\
101.42272560504513	16663.63457179811\\
102.25274036474156	16795.14422000934\\
103.08275512443798	16927.725719938586\\
103.9127698841344	17061.379071585827\\
104.74278464383083	17196.10427495108\\
105.57279940352726	17337.747093360667\\
106.40281416322368	17484.761933338174\\
107.2328289229201	17632.92808015728\\
108.06284368261653	17782.245533817986\\
108.89285844231296	17932.714294320285\\
109.72287320200938	18088.70831315224\\
110.5528879617058	18251.218071033152\\
111.38290272140223	18414.95252560263\\
112.21291748109866	18579.911676860695\\
113.04293224079508	18746.09552480734\\
113.87294700049151	18913.504069442566\\
114.70296176018793	19088.12645343428\\
115.53297651988436	19267.321897465503\\
116.36299127958078	19447.809362755674\\
117.19300603927721	19629.5888493048\\
118.02302079897363	19812.66035711288\\
118.85303555867006	19997.02388617991\\
119.68305031836648	20182.67943650589\\
120.51306507806291	20378.460662053127\\
121.34307983775933	20575.625359213725\\
122.17309459745576	20774.143336927038\\
123.00310935715218	20974.01459519306\\
123.83312411684861	21175.2391340118\\
124.66313887654503	21377.81695338325\\
125.49315363624146	21581.748053307416\\
126.32316839593788	21789.383329645432\\
127.15318315563431	22004.448779417075\\
127.98319791533073	22220.922703758577\\
128.81321267502716	22438.80510266995\\
129.6432274347236	22658.095976151188\\
130.47324219442004	22878.795324202285\\
131.30325695411648	23100.90314682325\\
132.13327171381292	23324.41944401408\\
132.96328647350936	23549.344215774785\\
133.7933012332058	23777.066982138313\\
134.62331599290223	24012.75251981467\\
135.45333075259867	24249.89566080143\\
136.2833455122951	24488.49640509859\\
137.11336027199155	24728.55475270616\\
137.943375031688	24970.070703624137\\
138.77338979138443	25213.04425785252\\
139.60340455108087	25457.47541539131\\
140.4334193107773	25703.364176240502\\
141.26343407047375	25950.710540400105\\
142.0934488301702	26199.514507870103\\
142.9234635898666	26451.329715285505\\
};

\addplot [
color=black,
densely dashed
]
table[row sep=crcr]{
65.36787767434237	16855.160583150708\\
66.12663868823095	16673.042696898978\\
66.88539970211954	16501.669131986066\\
67.64416071600813	16340.389079554947\\
68.40292172989672	16188.525462405983\\
69.1616827437853	16045.374934996924\\
69.9204437576739	15913.210127660612\\
70.67920477156248	15790.43303044264\\
71.43796578545107	15674.772101742721\\
72.19672679933966	15566.127936096073\\
72.95548781322825	15469.082396751568\\
73.71424882711683	15377.39411659045\\
74.47300984100542	15292.325741928104\\
75.23177085489401	15217.262773260269\\
75.9905318687826	15145.636166328346\\
76.74929288267118	15084.041121889219\\
77.50805389655977	15026.817711561971\\
78.26681491044836	14976.627184167175\\
79.02557592433695	14932.565992377666\\
79.78433693822554	14893.813908413516\\
80.54309795211412	14861.595152066953\\
81.30185896600271	14834.289169577174\\
82.0606199798913	14812.514260550905\\
82.81938099377989	14796.63576923659\\
83.57814200766848	14783.827314380107\\
84.33690302155706	14779.331435599735\\
85.09566403544565	14774.794925587763\\
85.85442504933424	14780.748823504107\\
86.61318606322283	14787.62491216102\\
87.37194707711141	14799.15551441674\\
88.130708091	14817.342408358672\\
88.88946910488859	14835.686559250065\\
89.64823011877718	14862.083653934646\\
90.40699113266577	14891.702925389453\\
91.16575214655435	14921.571830798588\\
91.92451316044294	14960.615499164436\\
92.68327417433153	15001.688815958547\\
93.44203518822012	15043.099765654773\\
94.2007962021087	15092.41247889855\\
94.9595572159973	15144.922106344497\\
95.71831822988588	15197.852987583223\\
96.47707924377447	15254.899606845898\\
97.23584025766306	15318.78840774227\\
97.99460127155164	15383.177705264976\\
98.75336228544023	15448.067499414023\\
99.51212329932882	15520.436916263261\\
100.27088431321741	15596.183712297516\\
101.029645327106	15672.505869734561\\
101.78840634099458	15749.403388574416\\
102.54716735488317	15833.744387194745\\
103.30592836877176	15921.354209576328\\
104.06468938266035	16009.609880080074\\
104.82345039654894	16098.511398705972\\
105.58221141043752	16191.210079855737\\
106.34097242432611	16290.63542310887\\
107.0997334382147	16390.77272314642\\
107.85849445210329	16491.621979968382\\
108.61725546599187	16593.183193574758\\
109.37601647988046	16699.9425829434\\
110.13477749376905	16811.857092296625\\
110.89353850765764	16924.545289039423\\
111.65229952154623	17038.007173171787\\
112.41106053543481	17152.24274469372\\
113.1698215493234	17268.305387411838\\
113.92858256321199	17392.671189115004\\
114.68734357710058	17517.868030755784\\
115.44610459098917	17643.89591233419\\
116.20486560487775	17770.754833850206\\
116.96362661876634	17898.444795303843\\
117.72238763265493	18027.68279935552\\
118.48114864654352	18165.280363230486\\
119.2399096604321	18303.761941534012\\
119.99867067432069	18443.127534266107\\
120.75743168820928	18583.377141426765\\
121.51619270209787	18724.510763015987\\
122.27495371598646	18866.52839903377\\
123.03371472987504	19011.422296284243\\
123.79247574376363	19163.112210597854\\
124.55123675765222	19315.73473577387\\
125.30999777154081	19469.289871812292\\
126.0687587854294	19623.777618713128\\
126.82751979931798	19779.197976476367\\
127.58628081320657	19935.55094510202\\
128.34504182709514	20092.83652459007\\
129.10380284098372	20254.266437461898\\
129.8625638548723	20420.963140583364\\
130.62132486876087	20588.636672943983\\
131.38008588264944	20757.28703454374\\
132.138846896538	20926.91422538265\\
132.8976079104266	21097.518245460713\\
133.65636892431516	21269.09909477792\\
134.41512993820373	21441.656773334278\\
135.1738909520923	21615.19128112979\\
135.93265196598088	21792.16241842252\\
136.69141297986945	21974.807930480798\\
137.45017399375803	22158.47011209788\\
138.2089350076466	22343.148963273732\\
138.96769602153518	22528.844484008383\\
139.72645703542375	22715.556674301813\\
140.48521804931246	22903.285534154067\\
};

\addplot [
color=black,
dashdotted
]
table[row sep=crcr]{
70.51572560201885	16855.16058315071\\
71.19743626696633	16703.35479609952\\
71.87914693191382	16558.025615107294\\
72.56085759686131	16418.564089615713\\
73.2425682618088	16288.470466583685\\
73.92427892675629	16164.866469394248\\
74.60598959170377	16045.74598938186\\
75.28770025665126	15935.77459114802\\
75.96941092159875	15830.953248425822\\
76.65112158654624	15730.573461970676\\
77.33283225149373	15639.195168044134\\
78.01454291644121	15549.940630774121\\
78.6962535813887	15469.629206146687\\
79.37796424633619	15392.004228292832\\
80.05967491128368	15321.339935395517\\
80.74138557623117	15254.339621082216\\
81.42309624117865	15193.339043204784\\
82.10480690612614	15135.903832620532\\
82.78651757107363	15084.565331740778\\
83.46822823602112	15035.581001138169\\
84.1499389009686	14993.884717921926\\
84.8316495659161	14952.182379617652\\
85.51336023086358	14920.090233418781\\
86.19507089581107	14887.741225473856\\
86.87678156075856	14861.902024654033\\
87.55849222570605	14839.180114475437\\
88.24020289065353	14817.967352802509\\
88.92191355560102	14804.79498023484\\
89.60362422054851	14791.521234449892\\
90.285334885496	14783.141977367048\\
90.96704555044349	14779.395176662068\\
91.64875621539097	14775.620191676206\\
92.33046688033846	14778.367479949507\\
93.01217754528595	14784.072552430029\\
93.69388821023344	14789.819592680746\\
94.37559887518093	14801.877139204444\\
95.05730954012841	14817.033054225329\\
95.7390202050759	14832.29805218216\\
96.42073087002339	14851.7402419787\\
97.10244153497088	14876.318636926868\\
97.78415219991837	14901.07019309139\\
98.46586286486585	14925.994910472265\\
99.14757352981334	14959.807263605846\\
99.82928419476083	14993.986646511696\\
100.51099485970832	15028.400232028993\\
101.1927055246558	15065.21290552576\\
101.8744161896033	15108.734051738627\\
102.55612685455078	15152.547405072695\\
103.23783751949827	15196.652965527976\\
103.91954818444576	15242.835056260015\\
104.60125884939325	15295.931745123271\\
105.28296951434073	15349.375608732164\\
105.96468017928822	15403.166647086704\\
106.64639084423571	15457.304860186883\\
107.3281015091832	15518.519941514542\\
108.00981217413069	15581.554412620928\\
108.69152283907817	15644.987989212059\\
109.37323350402566	15708.82067128794\\
110.05494416897315	15773.326697675726\\
110.73665483392064	15845.875430878334\\
111.41836549886813	15918.872163419468\\
112.10007616381561	15992.31689529913\\
112.7817868287631	16066.209626517315\\
113.46349749371059	16140.550357074024\\
114.14520815865808	16221.282800232873\\
114.82691882360557	16304.220720120455\\
115.50862948855305	16387.652496315015\\
116.19034015350054	16471.57812881655\\
116.87205081844803	16555.99761762506\\
117.55376148339552	16640.91096274055\\
118.235472148343	16733.48027252628\\
118.9171828132905	16826.829428782192\\
119.59889347823798	16920.71526142821\\
120.28060414318547	17015.137770464316\\
120.96231480813296	17110.09695589052\\
121.64402547308045	17205.592817706827\\
122.32573613802793	17305.226796423965\\
123.00744680297542	17408.95457479566\\
123.68915746792291	17513.258812755248\\
124.3708681328704	17618.13951030273\\
125.05257879781789	17723.5966674381\\
125.73428946276537	17829.63028416137\\
126.41600012771286	17936.240360472533\\
127.09771079266035	18045.19320886215\\
127.77942145760784	18159.82553706154\\
128.46113212255534	18275.071071161292\\
129.14284278750284	18390.929811161404\\
129.82455345245035	18507.401757061878\\
130.50626411739785	18624.486908862713\\
131.18797478234535	18742.185266563898\\
131.86968544729285	18860.496830165448\\
132.55139611224035	18979.76420863871\\
133.23310677718786	19105.87347872322\\
133.91481744213536	19232.62966413524\\
134.59652810708286	19360.032764874748\\
135.27823877203036	19488.08278094176\\
135.95994943697787	19616.779712336272\\
136.64166010192537	19746.123559058284\\
137.32337076687287	19876.11432110779\\
138.00508143182054	20006.751998484833\\
};

\addplot [
color=black,
dashed
]
table[row sep=crcr]{
76.27942608819963	16855.160583150708\\
76.87741928233584	16731.862737019113\\
77.47541247647204	16610.930864989128\\
78.07340567060825	16497.253066874022\\
78.67139886474446	16386.978173035182\\
79.26939205888067	16281.336355077514\\
79.86738525301688	16181.002525107957\\
80.46537844715309	16083.42532622795\\
81.0633716412893	15992.28069982577\\
81.6613648354255	15902.784776950308\\
82.25935802956171	15820.041547833524\\
82.85735122369792	15738.631575896148\\
83.45534441783413	15663.465991802763\\
84.05333761197033	15590.134663743664\\
84.65133080610654	15521.687026431628\\
85.24932400024275	15456.415053197652\\
85.84731719437896	15393.78971844486\\
86.44531038851517	15336.545828989496\\
87.04330358265138	15278.904575389417\\
87.64129677678758	15229.552147877215\\
88.23928997092379	15179.955834682529\\
88.83728316506	15134.41123864543\\
89.43527635919621	15092.802633824036\\
90.03326955333242	15050.914887192283\\
90.63126274746863	15016.362291631816\\
91.22925594160483	14982.449155016773\\
91.82724913574104	14949.504198950364\\
92.42524232987725	14923.482479334338\\
93.02323552401346	14897.291852246763\\
93.62122871814967	14872.824341022733\\
94.21922191228587	14854.48207759421\\
94.81721510642208	14836.023028365202\\
95.41520830055829	14818.633239213574\\
96.0132014946945	14807.963524312527\\
96.61119468883071	14797.227148283166\\
97.20918788296692	14786.424111125494\\
97.80718107710312	14782.421419450255\\
98.40517427123933	14779.380838971594\\
99.00316746537554	14776.3217250379\\
99.60116065951175	14776.242525028218\\
100.19915385364796	14780.852889461294\\
100.79714704778416	14785.490851113722\\
101.39514024192037	14790.15640998551\\
101.99313343605658	14799.904250842941\\
102.59112663019279	14812.17446745361\\
103.189119824329	14824.51641495914\\
103.7871130184652	14836.930093359522\\
104.38510621260141	14854.50771421809\\
104.98309940673762	14874.441259740566\\
105.58109260087383	14894.488672834505\\
106.17908579501004	14914.649953499902\\
106.77707898914625	14937.94027356016\\
107.37507218328246	14965.516660741947\\
107.97306537741866	14993.24705517291\\
108.57105857155487	15021.13145685305\\
109.16905176569108	15049.16986578236\\
109.76704495982729	15083.072352983982\\
110.3650381539635	15118.439280513889\\
110.9630313480997	15153.998357971795\\
111.56102454223591	15189.749585357704\\
112.15901773637212	15225.692962671608\\
112.75701093050833	15267.521355503404\\
113.35500412464454	15310.68269951541\\
113.95299731878075	15354.072339135353\\
114.55099051291695	15397.690274363227\\
115.14898370705316	15441.536505199037\\
115.74697690118937	15488.424812249594\\
116.34497009532558	15539.354493894316\\
116.94296328946179	15590.546619828016\\
117.540956483598	15642.001190050687\\
118.1389496777342	15693.718204562332\\
118.73694287187041	15745.697663362955\\
119.33493606600662	15801.26268996471\\
119.93292926014283	15860.199271380514\\
120.53092245427904	15919.43044876744\\
121.12891564841524	15978.956222125495\\
121.72690884255145	16038.776591454669\\
122.32490203668766	16098.89155675497\\
122.92289523082387	16159.508815289888\\
123.52088842496008	16226.42661702716\\
124.11888161909629	16293.669169418821\\
124.7168748132325	16361.23647246486\\
125.3148680073687	16429.128526165285\\
125.91286120150491	16497.345330520093\\
126.51085439564112	16565.886885529282\\
127.10884758977733	16634.753191192856\\
127.70684078391353	16709.166413106752\\
128.30483397804974	16784.709626413343\\
128.90282717218594	16860.605748058686\\
129.50082036632213	16936.854778042776\\
130.09881356045832	17013.456716365617\\
130.69680675459452	17090.411563027214\\
131.2947999487307	17167.719318027557\\
131.8927931428669	17245.37998136665\\
132.4907863370031	17328.608644738855\\
133.0887795311393	17412.78434094697\\
133.6867727252755	17497.339106179315\\
134.28476591941168	17582.272940435883\\
134.88275911354788	17667.58584371668\\
135.48075230768399	17753.277816021688\\
};

\addplot [
color=black,
densely dashdotted
]
table[row sep=crcr]{
82.75992925800008	16855.160583150704\\
83.26649271816429	16758.61806354922\\
83.77305617832849	16663.121024854\\
84.27961963849269	16572.11510041693\\
84.78618309865689	16483.19971020875\\
85.2927465588211	16397.09177011237\\
85.7993100189853	16314.737971688091\\
86.3058734791495	16232.86749219245\\
86.8124369393137	16157.047924543533\\
87.3190003994779	16080.784643893441\\
87.8255638596421	16009.412466805006\\
88.3321273198063	15939.691481802935\\
88.8386907799705	15871.085279280805\\
89.34525424013471	15807.863402923185\\
89.85181770029891	15744.28205655336\\
90.35838116046311	15684.517566535498\\
90.86494462062731	15627.425132919281\\
91.37150808079151	15570.013524708982\\
91.87807154095572	15518.17938083836\\
92.38463500111992	15467.23675041696\\
92.89119846128412	15416.014023435368\\
93.39776192144832	15371.155033522537\\
93.90432538161252	15326.371610291266\\
94.41088884177672	15281.345951149473\\
94.91745230194093	15242.46309717259\\
95.42401576210513	15203.83732866866\\
95.93057922226933	15165.005967519639\\
96.43714268243353	15131.056405624444\\
96.94370614259773	15098.575782926971\\
97.45026960276194	15065.924993465604\\
97.95683306292614	15035.82205396543\\
98.46339652309034	15009.46311169543\\
98.96995998325454	14982.968211158495\\
99.47652344341874	14956.337352354623\\
99.98308690358294	14935.309714854642\\
100.48965036374715	14914.935064020812\\
100.99621382391135	14894.457446032779\\
101.50277728407555	14874.86025353662\\
102.00934074423975	14860.55925672647\\
102.51590420440395	14846.187066490613\\
103.02246766456815	14831.74368282904\\
103.52903112473236	14818.508755200763\\
104.03559458489656	14810.183223195316\\
104.54215804506076	14801.81705410842\\
105.04872150522496	14793.410247940079\\
105.55528496538916	14785.037186865475\\
106.06184842555336	14782.677288989156\\
106.56841188571757	14780.306092991417\\
107.07497534588177	14777.923598872258\\
107.58153880604597	14775.529806631675\\
108.08810226621017	14776.420259949555\\
108.59466572637437	14780.01838037036\\
109.10122918653857	14783.633324245546\\
109.60779264670278	14787.265091575104\\
110.11435610686698	14790.913682359034\\
110.62091956703118	14799.201244589603\\
111.12748302719538	14808.772143793483\\
111.63404648735958	14818.386770643292\\
112.14060994752379	14828.045125139048\\
112.64717340768799	14837.747207280729\\
113.15373686785219	14851.455908363183\\
113.66030032801639	14866.996086072573\\
114.16686378818059	14882.605678235228\\
114.6734272483448	14898.284684851138\\
115.179990708509	14914.033105920314\\
115.6865541686732	14931.077411212837\\
116.1931176288374	14952.565106386677\\
116.6996810890016	14974.14668543687\\
117.2062445491658	14995.82214836342\\
117.71280800933	15017.591495166325\\
118.2193714694942	15039.454725845584\\
118.72593492965841	15063.1714962798\\
119.23249838982261	15090.683823028736\\
119.73906184998681	15118.31328569289\\
120.24562531015101	15146.059884272257\\
120.75218877031521	15173.923618766847\\
121.25875223047942	15201.90448917665\\
121.76531569064362	15230.002495501665\\
122.27187915080782	15263.231259221531\\
122.77844261097202	15296.893174856596\\
123.28500607113622	15330.694261061504\\
123.79156953130042	15364.634517836255\\
124.29813299146463	15398.713945180849\\
124.80469645162883	15432.932543095285\\
125.31125991179303	15467.363660902773\\
125.81782337195723	15507.0206859495\\
126.32438683212143	15546.837698836462\\
126.83095029228564	15586.814699563658\\
127.33751375244984	15626.95168813109\\
127.84407721261404	15667.24866453876\\
128.35064067277824	15707.705628786665\\
128.85720413294243	15748.322580874805\\
129.36376759310662	15791.339662708\\
129.8703310532708	15837.291716143722\\
130.376894513435	15883.423357305837\\
130.88345797359918	15929.734586194352\\
131.39002143376337	15976.225402809258\\
131.89658489392755	16022.89580715056\\
132.40314835409174	16069.745799218259\\
132.90971181425576	16116.775379012337\\
};

\addplot [
color=black,
densely dotted
]
table[row sep=crcr]{
60.75200237992029	41525.99033692851\\
61.58201713961672	41231.228992000346\\
62.41203189931314	40873.566748576945\\
63.24204665900957	40470.6625864907\\
64.072061418706	40040.17548557396\\
64.90207617840242	39599.764425659116\\
65.73209093809885	39167.08838657854\\
66.56210569779527	38759.8063481646\\
67.3921204574917	38395.57729024968\\
68.22213521718813	38092.06019266615\\
69.05214997688455	37866.91403524638\\
69.88216473658098	37737.79779782275\\
70.7121794962774	37706.315720701765\\
71.54219425597383	37616.93690283927\\
72.37220901567025	37438.58454056398\\
73.20222377536668	37186.869656649076\\
74.0322385350631	36877.40327386775\\
74.86225329475953	36525.79641499318\\
75.69226805445595	36147.66010279857\\
76.52228281415238	35758.605360057074\\
77.3522975738488	35374.243209541906\\
78.18231233354523	35010.18467402625\\
79.01232709324165	34682.04077628327\\
79.84234185293808	34405.42253908616\\
80.6723566126345	34195.940985208115\\
81.50237137233093	34069.20713742232\\
82.33238613202735	34035.21682861873\\
83.16240089172378	33967.521348088405\\
83.9924156514202	33818.59046951768\\
84.82243041111663	33602.34191283623\\
85.65244517081305	33332.69339797371\\
86.48245993050948	33023.56264485978\\
87.3124746902059	32688.867373424113\\
88.14248944990233	32342.525303596376\\
88.97250420959875	31998.454155306223\\
89.80251896929518	31670.57164848333\\
90.6325337289916	31372.795503057343\\
91.46254848868803	31119.043438957946\\
92.29256324838445	30923.23317611479\\
93.12257800808088	30799.28243445755\\
93.9525927677773	30760.280907204902\\
94.78260752747373	30711.138636755004\\
95.61262228717015	30588.29814415077\\
96.44263704686658	30404.095388682323\\
97.272651806563	30170.866329639783\\
98.10266656625943	29900.946926313292\\
98.93268132595585	29606.673137992962\\
99.76269608565228	29300.380923968936\\
100.5927108453487	28994.406243531328\\
101.42272560504513	28701.08505597027\\
102.25274036474156	28432.75332057589\\
103.08275512443798	28201.746996638307\\
103.9127698841344	28020.402043447662\\
104.74278464383083	27901.054420294073\\
105.57279940352726	27856.040086467663\\
106.40281416322368	27822.328976949007\\
107.2328289229201	27722.27370401663\\
108.06284368261653	27566.6028481005\\
108.89285844231296	27366.196487214413\\
109.72287320200938	27131.93469937215\\
110.5528879617058	26874.697562587477\\
111.38290272140223	26605.365154874173\\
112.21291748109866	26334.817554246016\\
113.04293224079508	26073.93483871677\\
113.87294700049151	25833.597086300233\\
114.70296176018793	25624.684375010165\\
115.53297651988436	25458.076782860342\\
116.36299127958078	25344.65438786455\\
117.19300603927721	25295.29726803656\\
118.02302079897363	25272.321102570575\\
118.85303555867006	25192.17987292351\\
119.68305031836648	25062.050940990437\\
120.51306507806291	24891.457370238677\\
121.34307983775933	24689.922224135564\\
122.17309459745576	24466.968566148407\\
123.00310935715218	24232.119459744532\\
123.83312411684861	23994.89796839126\\
124.66313887654503	23764.827155555908\\
125.49315363624146	23551.4300847058\\
126.32316839593788	23364.22981930826\\
127.15318315563431	23212.74942283061\\
127.98319791533073	23106.511958740168\\
128.81321267502716	23055.040490504252\\
129.6432274347236	23037.96751857107\\
130.47324219442004	22972.306044803394\\
131.30325695411648	22860.204247174122\\
132.13327171381292	22710.28365943139\\
132.96328647350936	22531.16581532333\\
133.7933012332058	22331.47224859808\\
134.62331599290223	22119.82449300377\\
135.45333075259867	21904.84408228854\\
136.2833455122951	21695.15255020052\\
137.11336027199155	21499.371430487834\\
137.943375031688	21326.122256898638\\
138.77338979138443	21184.026563181054\\
139.60340455108087	21081.705883083217\\
140.4334193107773	21027.781750353264\\
141.26343407047375	21013.37692371023\\
142.0934488301702	20958.663939089387\\
142.9234635898666	20859.488568966448\\
};

\addplot [
color=black,
dashdotdotted
]
table[row sep=crcr]{
65.36787767434237	37568.7173549209\\
66.12663868823095	37324.8690142818\\
66.88539970211954	37085.05945389623\\
67.64416071600813	36850.628739776395\\
68.40292172989672	36622.91693793445\\
69.1616827437853	36403.26411438262\\
69.9204437576739	36190.43890117842\\
70.67920477156248	35981.54464992868\\
71.43796578545107	35776.26066873837\\
72.19672679933966	35574.274603796795\\
72.95548781322825	35375.27410129324\\
73.71424882711683	35178.94680741703\\
74.47300984100542	34984.98036835745\\
75.23177085489401	34793.06243030378\\
75.9905318687826	34602.88063944534\\
76.74929288267118	34414.12264197143\\
77.50805389655977	34226.47608407135\\
78.26681491044836	34039.62861193438\\
79.02557592433695	33853.26787174984\\
79.78433693822554	33667.08150970701\\
80.54309795211412	33480.7571719952\\
81.30185896600271	33294.51862054312\\
82.0606199798913	33109.52207073433\\
82.81938099377989	32925.76091909136\\
83.57814200766848	32743.166647681584\\
84.33690302155706	32561.67073857243\\
85.09566403544565	32381.204673831275\\
85.85442504933424	32201.69993552554\\
86.61318606322283	32023.088005722606\\
87.37194707711141	31845.300366489893\\
88.130708091	31668.26849989479\\
88.88946910488859	31491.92388800469\\
89.64823011877718	31316.19801288701\\
90.40699113266577	31141.022356609137\\
91.16575214655435	30966.32840123848\\
91.92451316044294	30792.047628842432\\
92.68327417433153	30618.1892223541\\
93.44203518822012	30445.091923210988\\
94.2007962021087	30272.767628334077\\
94.9595572159973	30101.173232875502\\
95.71831822988588	29930.265631987386\\
96.47707924377447	29760.00172082187\\
97.23584025766306	29590.33839453106\\
97.99460127155164	29421.232548267086\\
98.75336228544023	29252.64107718208\\
99.51212329932882	29084.520876428163\\
100.27088431321741	28916.828841157472\\
101.029645327106	28749.52186652212\\
101.78840634099458	28582.55684767423\\
102.54716735488317	28415.890679765944\\
103.30592836877176	28249.480257949373\\
104.06468938266035	28083.236439951652\\
104.82345039654894	27916.611165236576\\
105.58221141043752	27749.612130675738\\
106.34097242432611	27582.438286784694\\
107.0997334382147	27415.288584078993\\
107.85849445210329	27248.361973074167\\
108.61725546599187	27081.85740428577\\
109.37601647988046	26915.973828229355\\
110.13477749376905	26750.91019542045\\
110.89353850765764	26586.865456374624\\
111.65229952154623	26424.038561607395\\
112.41106053543481	26262.628461634326\\
113.1698215493234	26102.83410697096\\
113.92858256321199	25944.85444813284\\
114.68734357710058	25788.88843563552\\
115.44610459098917	25635.127888831288\\
116.20486560487775	25483.256031640205\\
116.96362661876634	25332.96883258161\\
117.72238763265493	25184.205350736607\\
118.48114864654352	25036.90464518631\\
119.2399096604321	24891.00577501182\\
119.99867067432069	24746.447799294245\\
120.75743168820928	24603.169777114683\\
121.51619270209787	24461.110767554244\\
122.27495371598646	24320.20982969404\\
123.03371472987504	24180.406022615167\\
123.79247574376363	24041.63840539873\\
124.55123675765222	23903.84603712584\\
125.30999777154081	23766.967976877608\\
126.0687587854294	23630.943283735127\\
126.82751979931798	23495.71101677951\\
127.58628081320657	23361.437460979843\\
128.34504182709514	23228.36020671681\\
129.10380284098372	23096.434715910662\\
129.8625638548723	22965.61544847225\\
130.62132486876087	22835.856864312413\\
131.38008588264944	22707.113423342\\
132.138846896538	22579.339585471855\\
132.8976079104266	22452.48981061282\\
133.65636892431516	22326.51855867574\\
134.41512993820373	22201.380289571473\\
135.1738909520923	22077.02946321085\\
135.93265196598088	21953.420539504717\\
136.69141297986945	21830.50797836392\\
137.45017399375803	21708.246239699307\\
138.2089350076466	21586.589783421725\\
138.96769602153518	21465.675554581387\\
139.72645703542375	21345.900784546964\\
140.48521804931246	21227.194805292314\\
};

\addplot [
color=black,
densely dashdotdetted
]
table[row sep=crcr]{
70.51572560201885	32039.054097610297\\
71.19743626696633	31871.64261026585\\
71.87914693191382	31705.030204230632\\
72.56085759686131	31539.29574542064\\
73.2425682618088	31374.518099751876\\
73.92427892675629	31210.77613314036\\
74.60598959170377	31048.148711502086\\
75.28770025665126	30886.714700753062\\
75.96941092159875	30726.5529668093\\
76.65112158654624	30567.7423755868\\
77.33283225149373	30410.36179300157\\
78.01454291644121	30254.490084969624\\
78.6962535813887	30100.20611740695\\
79.37796424633619	29947.58782054967\\
80.05967491128368	29796.5681781246\\
80.74138557623117	29647.036548702734\\
81.42309624117865	29498.950874254482\\
82.10480690612614	29352.269096750264\\
82.78651757107363	29206.94915816051\\
83.46822823602112	29062.949000455636\\
84.1499389009686	28920.226565606063\\
84.8316495659161	28778.73979558221\\
85.51336023086358	28638.44663235449\\
86.19507089581107	28499.305017893337\\
86.87678156075856	28361.27289416917\\
87.55849222570605	28224.308203152395\\
88.24020289065353	28088.36888681345\\
88.92191355560102	27953.412887122744\\
89.60362422054851	27819.398146050706\\
90.285334885496	27686.282605567747\\
90.96704555044349	27554.071645189215\\
91.64875621539097	27423.042251409523\\
92.33046688033846	27293.21849556625\\
93.01217754528595	27164.5665367423\\
93.69388821023344	27037.052534020586\\
94.37559887518093	26910.642646484015\\
95.05730954012841	26785.303033215478\\
95.7390202050759	26660.9998532979\\
96.42073087002339	26537.699265814183\\
97.10244153497088	26415.367429847236\\
97.78415219991837	26293.97050447996\\
98.46586286486585	26173.474648795258\\
99.14757352981334	26053.846021876052\\
99.82928419476083	25935.050782805236\\
100.51099485970832	25817.055090665723\\
101.1927055246558	25699.82510454041\\
101.8744161896033	25583.326983512216\\
102.55612685455078	25467.59979337258\\
103.23783751949827	25352.75379914455\\
103.91954818444576	25238.790456709987\\
104.60125884939325	25125.70919741036\\
105.28296951434073	25013.50945258714\\
105.96468017928822	24902.190653581816\\
106.64639084423571	24791.752231735874\\
107.3281015091832	24682.19361839077\\
108.00981217413069	24573.514244888\\
108.69152283907817	24465.71354256904\\
109.37323350402566	24358.790942775366\\
110.05494416897315	24252.745876848454\\
110.73665483392064	24147.577776129794\\
111.41836549886813	24043.286071960843\\
112.10007616381561	23939.870195683103\\
112.7817868287631	23837.32957863804\\
113.46349749371059	23735.667421312046\\
114.14520815865808	23634.97125664076\\
114.82691882360557	23535.25947589429\\
115.50862948855305	23436.507242297423\\
116.19034015350054	23338.68971907495\\
116.87205081844803	23241.78206945168\\
117.55376148339552	23145.7594566524\\
118.235472148343	23050.5970439019\\
118.9171828132905	22956.26999442499\\
119.59889347823798	22862.75347144646\\
120.28060414318547	22770.022638191094\\
120.96231480813296	22678.052657883705\\
121.64402547308045	22586.818693749083\\
122.32573613802793	22496.295909012013\\
123.00744680297542	22406.459466897297\\
123.68915746792291	22317.284530629735\\
124.3708681328704	22228.746263434117\\
125.05257879781789	22140.87144845156\\
125.73428946276537	22053.838254416078\\
126.41600012771286	21967.64250854135\\
127.09771079266035	21882.259351489083\\
127.77942145760784	21797.663923920954\\
128.46113212255534	21713.831366498678\\
129.14284278750284	21630.736819883943\\
129.82455345245035	21548.355424738453\\
130.50626411739785	21466.662321723896\\
131.18797478234535	21385.632651501983\\
131.86968544729285	21305.24155473441\\
132.55139611224035	21225.46417208286\\
133.23310677718786	21146.27564420904\\
133.91481744213536	21067.65111177465\\
134.59652810708286	20989.56571544139\\
135.27823877203036	20911.994595870947\\
135.95994943697787	20834.912893725028\\
136.64166010192537	20758.383976510228\\
137.32337076687287	20682.486356402176\\
138.00508143182054	20607.213614394157\\
};

\addplot [
color=black,
loosely dashed
]
table[row sep=crcr]{
76.27942608819963	27000.15888038819\\
76.87741928233584	26878.23136679107\\
77.47541247647204	26758.60472894491\\
78.07340567060825	26641.439166606353\\
78.67139886474446	26526.273963798416\\
79.26939205888067	26412.876081251583\\
79.86738525301688	26301.158602558797\\
80.46537844715309	26191.034611312985\\
81.0633716412893	26082.41719110709\\
81.6613648354255	25975.219425534055\\
82.25935802956171	25869.354398186828\\
82.85735122369792	25764.735192658325\\
83.45534441783413	25661.2748925415\\
84.05333761197033	25558.886581429288\\
84.65133080610654	25457.48334291462\\
85.24932400024275	25356.97826059045\\
85.84731719437896	25257.284418049705\\
86.44531038851517	25158.314898885328\\
87.04330358265138	25059.982786690256\\
87.64129677678758	24962.20116505743\\
88.23928997092379	24864.883117579782\\
88.83728316506	24767.941727850262\\
89.43527635919621	24671.54473100408\\
90.03326955333242	24576.239125388904\\
90.63126274746863	24481.995145268673\\
91.22925594160483	24388.75556941027\\
91.82724913574104	24296.463176580575\\
92.42524232987725	24205.060745546485\\
93.02323552401346	24114.49105507488\\
93.62122871814967	24024.69688393264\\
94.21922191228587	23935.62101088666\\
94.81721510642208	23847.206214703827\\
95.41520830055829	23759.395274151015\\
96.0132014946945	23672.130967995112\\
96.61119468883071	23585.35607500302\\
97.20918788296692	23499.013373941605\\
97.80718107710312	23413.04564357776\\
98.40517427123933	23327.395662678373\\
99.00316746537554	23242.00621001033\\
99.60116065951175	23156.820064340518\\
100.19915385364796	23071.784124039328\\
100.79714704778416	22987.08096908756\\
101.39514024192037	22902.83358427483\\
101.99313343605658	22819.041279653087\\
102.59112663019279	22735.703365274283\\
103.189119824329	22652.819151190368\\
103.7871130184652	22570.387947453306\\
104.38510621260141	22488.409064115043\\
104.98309940673762	22406.881811227537\\
105.58109260087383	22325.805498842743\\
106.17908579501004	22245.179437012615\\
106.77707898914625	22165.002935789104\\
107.37507218328246	22085.275305224168\\
107.97306537741866	22005.99585536975\\
108.57105857155487	21927.16389627782\\
109.16905176569108	21848.77873800032\\
109.76704495982729	21770.83969058922\\
110.3650381539635	21693.34606409646\\
110.9630313480997	21616.297168573987\\
111.56102454223591	21539.69025441366\\
112.15901773637212	21463.51592701952\\
112.75701093050833	21387.775678431644\\
113.35500412464454	21312.47250421798\\
113.95299731878075	21237.609399946465\\
114.55099051291695	21163.189361185032\\
115.14898370705316	21089.215383501603\\
115.74697690118937	21015.69046246415\\
116.34497009532558	20942.617593640585\\
116.94296328946179	20869.999772598858\\
117.540956483598	20797.8399949069\\
118.1389496777342	20726.14125613265\\
118.73694287187041	20654.906551844055\\
119.33493606600662	20584.138877609043\\
119.93292926014283	20513.841228995552\\
120.53092245427904	20444.016601571526\\
121.12891564841524	20374.667990904894\\
121.72690884255145	20305.798392563604\\
122.32490203668766	20237.410802115588\\
122.92289523082387	20169.520689572724\\
123.52088842496008	20102.139260714062\\
124.11888161909629	20035.2585309568\\
124.7168748132325	19968.87047503148\\
125.3148680073687	19902.96706766865\\
125.91286120150491	19837.540283598846\\
126.51085439564112	19772.58209755261\\
127.10884758977733	19708.084484260493\\
127.70684078391353	19644.039418453034\\
128.30483397804974	19580.438874860774\\
128.90282717218594	19517.27482821426\\
129.50082036632213	19454.539253244035\\
130.09881356045832	19392.22412468064\\
130.69680675459452	19330.321417254625\\
131.2947999487307	19268.823105696523\\
131.8927931428669	19207.721164736886\\
132.4907863370031	19147.00756910625\\
133.0887795311393	19086.674293535158\\
133.6867727252755	19026.724784679074\\
134.28476591941168	18967.28414842249\\
134.88275911354788	18908.37086424565\\
135.48075230768399	18849.962152799904\\
};

\addplot [
color=black,
loosely dashdotted
]
table[row sep=crcr]{
82.75992925800008	22001.150998149416\\
83.26649271816429	21917.961912868373\\
83.77305617832849	21835.35869671907\\
84.27961963849269	21753.37436771773\\
84.78618309865689	21672.04194388054\\
85.2927465588211	21591.394443223726\\
85.7993100189853	21511.464883763496\\
86.3058734791495	21432.286283516063\\
86.8124369393137	21353.891660497637\\
87.3190003994779	21276.31373197249\\
87.8255638596421	21199.40861681376\\
88.3321273198063	21123.044873917217\\
88.8386907799705	21047.233929380014\\
89.34525424013471	20971.98720929931\\
89.85181770029891	20897.31613977227\\
90.35838116046311	20823.23214689602\\
90.86494462062731	20749.746656767755\\
91.37150808079151	20676.87109548461\\
91.87807154095572	20604.616889143752\\
92.38463500111992	20532.99546384233\\
92.89119846128412	20462.0182456775\\
93.39776192144832	20391.696660746424\\
93.90432538161252	20322.042135146257\\
94.41088884177672	20253.066094974158\\
94.91745230194093	20184.77996632728\\
95.42401576210513	20117.19517530277\\
95.93057922226933	20050.323147997817\\
96.43714268243353	19984.175310509545\\
96.94370614259773	19918.763088935124\\
97.45026960276194	19854.097909371707\\
97.95683306292614	19790.19119791645\\
98.46339652309034	19727.09047962263\\
98.96995998325454	19664.99796052185\\
99.47652344341874	19603.899011184094\\
99.98308690358294	19543.74079609596\\
100.48965036374715	19484.47047974406\\
100.99621382391135	19426.035226615004\\
101.50277728407555	19368.3822011954\\
102.00934074423975	19311.45856797185\\
102.51590420440395	19255.211491430968\\
103.02246766456815	19199.588136059367\\
103.52903112473236	19144.535666343636\\
104.03559458489656	19090.0012467704\\
104.54215804506076	19035.932041826265\\
105.04872150522496	18982.27521599783\\
105.55528496538916	18928.977933771712\\
106.06184842555336	18875.987359634513\\
106.56841188571757	18823.250658072837\\
107.07497534588177	18770.714993573307\\
107.58153880604597	18718.32753062252\\
108.08810226621017	18666.035433707082\\
108.59466572637437	18613.785867313607\\
109.10122918653857	18561.525995928703\\
109.60779264670278	18509.394897967686\\
110.11435610686698	18457.595602682883\\
110.62091956703118	18406.1255352727\\
111.12748302719538	18354.981808134235\\
111.63404648735958	18304.16153366458\\
112.14060994752379	18253.661824260842\\
112.64717340768799	18203.479792320104\\
113.15373686785219	18153.61255023947\\
113.66030032801639	18104.05721041603\\
114.16686378818059	18054.810885246894\\
114.6734272483448	18005.870687129143\\
115.179990708509	17957.233728459876\\
115.6865541686732	17908.897121636193\\
116.1931176288374	17860.857979055192\\
116.6996810890016	17813.11341311396\\
117.2062445491658	17765.660536209605\\
117.71280800933	17718.496460739214\\
118.2193714694942	17671.618299099886\\
118.72593492965841	17625.02316368872\\
119.23249838982261	17578.708166902805\\
119.73906184998681	17532.670421139246\\
120.24562531015101	17486.91240318503\\
120.75218877031521	17441.47573122883\\
121.25875223047942	17396.36520141164\\
121.76531569064362	17351.575134241426\\
122.27187915080782	17307.099850226143\\
122.77844261097202	17262.933669873746\\
123.28500607113622	17219.070913692198\\
123.79156953130042	17175.505902189452\\
124.29813299146463	17132.232955873475\\
124.80469645162883	17089.24639525222\\
125.31125991179303	17046.540540833645\\
125.81782337195723	17004.109713125705\\
126.32438683212143	16961.948232636365\\
126.83095029228564	16920.050419873583\\
127.33751375244984	16878.410595345315\\
127.84407721261404	16837.023079559516\\
128.35064067277824	16795.882193024147\\
128.85720413294243	16754.98225624717\\
129.36376759310662	16714.31758973654\\
129.8703310532708	16673.88251400021\\
130.376894513435	16633.671349546148\\
130.88345797359918	16593.67841688231\\
131.39002143376337	16553.92183827512\\
131.89658489392755	16514.435179601478\\
132.40314835409174	16475.21608360775\\
132.90971181425576	16436.261735991346\\
};
\end{axis}
\end{tikzpicture}%
