%Drag_and_Thrust_curves_CONTINOUS_OEI
\begin{tikzpicture}

\begin{axis}[
width=\figurewidth,
height=\figureheight,
scaled ticks=false, tick label style={/pgf/number format/fixed},
xmin=60.75200185424198,
xmax=142.9234635898666,
xlabel={Speed ((m/s))},
xmajorgrids,
ymin=10298.224624404718,
ymax=26451.330071003944,
ylabel={Forces ((N))},
ymajorgrids,
legend style={at={(1.03,0.5)},anchor=west,draw=black,fill=white,legend cell align=left}
]

\addplot [
color=black,
solid
]
table[row sep=crcr]{
60.75200185424198	16855.160421044082\\
61.58201661924829	16640.874256754712\\
62.412031384254604	16441.745952713\\
63.242046149260915	16257.109652877865\\
64.07206091426723	16086.263109547988\\
64.90207567927354	15928.467683361723\\
65.73209044427985	15782.948343297183\\
66.56210520928616	15648.893666672171\\
67.39211997429247	15525.455839144213\\
68.22213473929878	15411.750654710555\\
69.05214950430509	15311.949667078301\\
69.8821642693114	15221.129214433984\\
70.71217903431771	15138.01525573216\\
71.54219379932402	15065.363270328238\\
72.37220856433034	15002.872029227858\\
73.20222332933665	14945.836717679751\\
74.03223809434296	14900.336309071003\\
74.86225285934927	14861.340241270615\\
75.69226762435558	14829.17100149622\\
76.52228238936189	14806.760516185437\\
77.3522971543682	14787.993446096987\\
78.18231191937451	14780.605707036873\\
79.01232668438082	14775.275415825672\\
79.84234144938713	14781.238411796417\\
80.67235621439345	14789.3431169935\\
81.50237097939976	14806.875661794451\\
82.33238574440607	14828.377189270559\\
83.16240050941238	14855.588921720218\\
83.99241527441869	14890.412705685807\\
84.822430039425	14925.582327786298\\
85.65244480443131	14973.339172627077\\
86.48245956943762	15021.84200582918\\
87.31247433444393	15074.900529841058\\
88.14248909945024	15136.583159757949\\
88.97250386445656	15198.84938665692\\
89.80251862946287	15267.367771017898\\
90.63253339446918	15342.733770093078\\
91.46254815947549	15418.793147658866\\
92.2925629244818	15499.845762680461\\
93.12257768948811	15588.876365670161\\
93.95259245449442	15678.704063382269\\
94.78260721950073	15769.328855816784\\
95.61262198450704	15871.768783584343\\
96.44263674951335	15975.285383431868\\
97.27265151451967	16079.696728956886\\
98.10266627952598	16187.841335988218\\
98.93268104453229	16304.912832469821\\
99.7626958095386	16422.970660307303\\
100.59271057454491	16542.014819500662\\
101.42272533955122	16663.634610215762\\
102.25274010455753	16795.14426209723\\
103.08275486956384	16927.725765736242\\
103.91276963457015	17061.3791211328\\
104.74278439957646	17196.104328286896\\
105.57279916458278	17337.747158662372\\
106.40281392958909	17484.76200259392\\
107.2328286945954	17632.928153407964\\
108.06284345960171	17782.245611104503\\
108.89285822460802	17932.71437568354\\
109.72287298961433	18088.708407191054\\
110.55288775462064	18251.218169316304\\
111.38290251962695	18414.952628172294\\
112.21291728463326	18579.911783759017\\
113.04293204963957	18746.095636076465\\
113.87294681464589	18913.504185124657\\
114.7029615796522	19088.12658259532\\
115.53297634465851	19267.322031209453\\
116.36299110966482	19447.80950112585\\
117.19300587467113	19629.5889923445\\
118.02302063967744	19812.66050486541\\
118.85303540468375	19997.024038688578\\
119.68305016969006	20182.679593813995\\
120.51306493469637	20378.460833727444\\
121.34307969970268	20575.62553585937\\
122.173094464709	20774.143518588353\\
123.0031092297153	20974.014781914408\\
123.83312399472162	21175.239325837527\\
124.66313875972793	21377.81715035771\\
125.49315352473424	21581.748255474966\\
126.32316828974055	21789.383547007434\\
127.15318305474686	22004.449002144313\\
127.98319781975317	22220.92293189635\\
128.81321258475947	22438.805336263547\\
129.64322734976577	22658.096215245907\\
130.47324211477206	22878.795568843438\\
131.30325687977836	23100.903397056118\\
132.13327164478466	23324.419699883976\\
132.96328640979095	23549.344477326988\\
133.79330117479725	23777.067259888478\\
134.62331593980355	24012.752803419582\\
135.45333070480984	24249.895950307226\\
136.28334546981614	24488.496700551423\\
137.11336023482244	24728.55505415216\\
137.94337499982873	24970.071011109438\\
138.77338976483503	25213.04457142327\\
139.60340452984133	25457.47573509364\\
140.43341929484762	25703.36450212056\\
141.26343405985392	25950.71087250402\\
142.09344882486022	26199.51484624403\\
142.9234635898666	26451.330071003944\\
};

\addplot [
color=black,
densely dashed
]
table[row sep=crcr]{
65.36787710872356	16855.160421044075\\
66.12663812832547	16673.04253554509\\
66.88539914792737	16501.66897166916\\
67.64416016752928	16340.388920564976\\
68.40292118713118	16188.525305038102\\
69.16168220673309	16045.374779550952\\
69.920443226335	15913.209973065763\\
70.6792042459369	15790.432878120973\\
71.4379652655388	15674.771952005833\\
72.19672628514071	15566.127787301866\\
72.95548730474262	15469.082250914282\\
73.71424832434452	15377.39397403032\\
74.47300934394643	15292.32560042768\\
75.23177036354834	15217.262635425499\\
75.99053138315024	15145.636032484965\\
76.74929240275215	15084.040989245015\\
77.50805342235405	15026.81758330953\\
78.26681444195596	14976.627057194002\\
79.02557546155786	14932.565870203089\\
79.78433648115977	14893.813787605071\\
80.54309750076168	14861.595036468883\\
81.30185852036358	14834.289055438345\\
82.06061953996549	14812.514152037644\\
82.81938055956739	14796.635662281426\\
83.5781415791693	14783.827213467588\\
84.3369025987712	14779.331336349402\\
85.09566361837311	14774.794828014125\\
85.85442463797501	14780.74873248486\\
86.61318565757692	14787.624822929238\\
87.37194667717883	14799.15543215787\\
88.13070769678073	14817.342328002173\\
88.88946871638264	14835.686480814282\\
89.64822973598454	14862.083582987372\\
90.40699075558645	14891.702856483204\\
91.16575177518835	14921.571763953503\\
91.92451279479026	14960.61544032315\\
92.68327381439217	15001.688759303486\\
93.44203483399407	15043.09971120776\\
94.20079585359598	15092.412432967278\\
94.95955687319788	15144.922062750393\\
95.71831789279979	15197.852946349729\\
96.4770789124017	15254.899574633688\\
97.2358399320036	15318.788378023155\\
97.9946009516055	15383.17767806396\\
98.75336197120741	15448.067474756099\\
99.51212299080932	15520.436901232877\\
100.27088401041122	15596.183699946845\\
101.02964503001313	15672.505860090067\\
101.78840604961503	15749.403381662532\\
102.54716706921694	15833.744390506648\\
103.30592808881885	15921.354215760775\\
104.06468910842075	16009.609889164873\\
104.82345012802266	16098.511410718944\\
105.58221114762456	16191.210102673638\\
106.34097216722647	16290.635448997318\\
107.09973318682837	16390.77275213451\\
107.85849420643028	16491.62201208521\\
108.61725522603219	16593.18322884942\\
109.37601624563409	16699.942629698828\\
110.134777265236	16811.85714235506\\
110.8935382848379	16924.54534243116\\
111.65229930443981	17038.007229927116\\
112.41106032404171	17152.242804842925\\
113.16982134364362	17268.305459692587\\
113.92858236324552	17392.67126493659\\
114.68734338284743	17517.86811014962\\
115.44610440244934	17643.895995331666\\
116.20486542205124	17770.754920482726\\
116.96362644165315	17898.444885602818\\
117.72238746125505	18027.682902520435\\
118.48114848085696	18165.280470210597\\
119.23990950045886	18303.76205236175\\
119.99867052006077	18443.127648973903\\
120.75743153966268	18583.377260047044\\
121.51619255926458	18724.51088558118\\
122.27495357886649	18866.52852557631\\
123.03371459846839	19011.422436502085\\
123.7924756180703	19163.11235494333\\
124.5512366376722	19315.73488428035\\
125.30999765727411	19469.290024513153\\
126.06875867687602	19623.777775641727\\
126.82751969647792	19779.198137666088\\
127.58628071607983	19935.55111058623\\
128.34504173568175	20092.836694402155\\
129.10380275528365	20254.26662182092\\
129.86256377488556	20420.963329421582\\
130.62132479448746	20588.636866295616\\
131.38008581408937	20757.28723244303\\
132.13884683369128	20926.914427863823\\
132.89760785329318	21097.51845255799\\
133.6563688728951	21269.099306525535\\
134.415129892497	21441.656989766452\\
135.1738909120989	21615.191502280748\\
135.9326519317008	21792.16265503629\\
136.6914129513027	21974.80817196499\\
137.45017397090461	22158.470358487473\\
138.20893499050652	22343.149214603745\\
138.96769601010843	22528.8447403138\\
139.72645702971033	22715.556935617646\\
140.48521804931246	22903.285800515332\\
};

\addplot [
color=black,
dashdotted
]
table[row sep=crcr]{
70.51572499185646	16855.16042104407\\
71.19743566296721	16703.35463439706\\
71.87914633407796	16558.025454116098\\
72.56085700518871	16418.56392964592\\
73.24256767629946	16288.470307060816\\
73.92427834741021	16164.866311253336\\
74.60598901852096	16045.745832940951\\
75.28769968963171	15935.77443524089\\
75.96941036074246	15830.953094594359\\
76.65112103185321	15730.573308719559\\
77.33283170296396	15639.195017252967\\
78.01454237407471	15549.940482769225\\
78.69625304518546	15469.629058841138\\
79.37796371629621	15392.004084167236\\
80.05967438740696	15321.339792033752\\
80.74138505851771	15254.339481299365\\
81.42309572962846	15193.338904256165\\
82.10480640073921	15135.903697653845\\
82.78651707184996	15084.565197684256\\
83.4682277429607	15035.580871469423\\
84.14993841407146	14993.884589244384\\
84.8316490851822	14952.182255735344\\
85.51335975629296	14920.090110613424\\
86.1950704274037	14887.741103750297\\
86.87678109851446	14861.901908218739\\
87.5584917696252	14839.179999213762\\
88.24020244073596	14817.9672432382\\
88.9219131118467	14804.794871939788\\
89.60362378295746	14791.521127432443\\
90.2853344540682	14783.141876544372\\
90.96704512517896	14779.395077217683\\
91.6487557962897	14775.620093620098\\
92.33046646740046	14778.367388586248\\
93.0121771385112	14784.072462560236\\
93.69388780962196	14789.819504315974\\
94.3755984807327	14801.877058028816\\
95.05730915184346	14817.032974663887\\
95.7390198229542	14832.29797424795\\
96.42073049406495	14851.74017172571\\
97.1024411651757	14876.3185684137\\
97.78415183628645	14901.07012633253\\
98.4658625073972	14925.99484548221\\
99.14757317850795	14959.807206883357\\
99.8292838496187	14993.98659167483\\
100.51099452072945	15028.400179093609\\
101.1927051918402	15065.212861335163\\
101.87441586295095	15108.734009568598\\
102.5561265340617	15152.5473649404\\
103.23783720517245	15196.652927450563\\
103.9195478762832	15242.835027496205\\
104.60125854739395	15295.931718536382\\
105.2829692185047	15349.375584340587\\
105.96467988961545	15403.166624908827\\
106.6463905607262	15457.304840241088\\
107.32810123183695	15518.519931543637\\
108.0098119029477	15581.554405007577\\
108.69152257405845	15644.987983975816\\
109.3732332451692	15708.82066844836\\
110.05494391627995	15773.326705349282\\
110.7366545873907	15845.875441075543\\
111.41836525850145	15918.87217616098\\
112.1000759296122	15992.316910605581\\
112.78178660072295	16066.209644409359\\
113.4634972718337	16140.550377572308\\
114.14520794294445	16221.282831975723\\
114.8269186140552	16304.22075459943\\
115.50862928516595	16387.65253355179\\
116.1903399562767	16471.5781688328\\
116.87205062738745	16555.997660442463\\
117.5537612984982	16640.911008380768\\
118.23547196960895	16733.48033011641\\
118.9171826407197	16826.829489326978\\
119.59889331183045	16920.715324950277\\
120.2806039829412	17015.1378369863\\
120.96231465405195	17110.097025435065\\
121.6440253251627	17205.59289029656\\
122.32573599627345	17305.226881634295\\
123.0074466673842	17408.954663184002\\
123.68915733849495	17513.258904345123\\
124.3708680096057	17618.139605117663\\
125.05257868071645	17723.596765501617\\
125.7342893518272	17829.630385496992\\
126.41600002293795	17936.240465103787\\
127.0977106940487	18045.19332685081\\
127.77942136515945	18159.825658479516\\
128.4611320362702	18275.071196032928\\
129.14284270738094	18390.92993951105\\
129.8245533784917	18507.401888913875\\
130.50626404960244	18624.487044241414\\
131.18797472071319	18742.185405493656\\
131.86968539182394	18860.496972670604\\
132.55139606293469	18979.764365292656\\
133.23310673404544	19105.873639086785\\
133.91481740515619	19232.629828233516\\
134.59652807626694	19360.032932732844\\
135.27823874737769	19488.08295258478\\
135.95994941848843	19616.779887789315\\
136.64166008959918	19746.12373834645\\
137.32337076070993	19876.11450425619\\
138.00508143182054	20006.752185518504\\
};

\addplot [
color=black,
dashed
]
table[row sep=crcr]{
76.27942542816477	16855.16042104408\\
76.877418628968	16731.862574988394\\
77.47541182977123	16610.93070336332\\
78.07340503057446	16497.252905337606\\
78.6713982313777	16386.978012288375\\
79.26939143218092	16281.336194460802\\
79.86738463298416	16181.00236567171\\
80.46537783378739	16083.42516696833\\
81.06337103459062	15992.280542142653\\
81.66136423539385	15902.784619495833\\
82.25935743619708	15820.04139235586\\
82.85735063700031	15738.631420704309\\
83.45534383780354	15663.465838991335\\
84.05333703860677	15590.134511280095\\
84.65133023941	15521.686876754402\\
85.24932344021323	15456.41490393484\\
85.84731664101646	15393.789572375717\\
86.4453098418197	15336.545683405537\\
87.04330304262292	15278.90443028704\\
87.64129624342615	15229.552006454525\\
88.23928944422939	15179.955693817681\\
88.83728264503262	15134.411101869448\\
89.43527584583585	15092.802497685685\\
90.03326904663908	15050.914751691123\\
90.63126224744231	15016.36216071038\\
91.22925544824554	14982.449024817004\\
91.82724864904877	14949.50407373643\\
92.425241849852	14923.48235492938\\
93.02323505065523	14897.291728653252\\
93.62122825145846	14872.824222904575\\
94.21922145226169	14854.481960378722\\
94.81721465306492	14836.02291205625\\
95.41520785386815	14818.633128867536\\
96.01320105467138	14807.963414967706\\
96.61119425547462	14797.227039944766\\
97.20918745627785	14786.424003798718\\
97.80718065708108	14782.421318662618\\
98.40517385788431	14779.380739294596\\
99.00316705868754	14776.321626478022\\
99.60116025949077	14776.242433486745\\
100.199153460294	14780.852799138518\\
100.79714666109723	14785.490762017365\\
101.39513986190046	14790.156322123274\\
101.99313306270369	14799.904170566326\\
102.59112626350692	14812.174388516027\\
103.18911946431015	14824.516337369463\\
103.78711266511338	14836.930017126646\\
104.38510586591661	14854.507646130292\\
104.98309906671984	14874.441193117254\\
105.58109226752308	14894.488607685686\\
106.1790854683263	14914.649889835586\\
106.77707866912954	14937.940218589421\\
107.37507186993277	14965.516607365655\\
107.973065070736	14993.247003402137\\
108.57105827153923	15021.131406698874\\
109.16905147234246	15049.169817255864\\
109.76704467314569	15083.072313786004\\
110.36503787394892	15118.439243056268\\
110.96303107475215	15153.998322266627\\
111.56102427555538	15189.749551417077\\
112.15901747635861	15225.692930507617\\
112.75701067716184	15267.521333286853\\
113.35500387796507	15310.682679190282\\
113.9529970787683	15354.072320714698\\
114.55099027957154	15397.6902578601\\
115.14898348037477	15441.53649062649\\
115.746976681178	15488.424808222622\\
116.34496988198123	15539.35449191417\\
116.94296308278446	15590.54661990866\\
117.54095628358769	15642.001192206086\\
118.13894948439092	15693.718208806456\\
118.73694268519415	15745.69766970976\\
119.33493588599738	15801.262707532733\\
119.93292908680061	15860.199291169154\\
120.53092228760384	15919.43047079151\\
121.12891548840707	15978.956246399812\\
121.7269086892103	16038.776617994063\\
122.32490189001354	16098.891585574249\\
122.92289509081677	16159.508855975137\\
123.52088829162	16226.426660111167\\
124.11888149242323	16293.669214917198\\
124.71687469322646	16361.236520393237\\
125.31486789402969	16429.128576539282\\
125.91286109483292	16497.345383355332\\
126.51085429563615	16565.886940841385\\
127.10884749643938	16634.753248997447\\
127.70684069724261	16709.166483592086\\
128.30483389804584	16784.70969951172\\
128.90282709884906	16860.605823786478\\
129.50082029965228	16936.85485641636\\
130.0988135004555	17013.45679740136\\
130.6968067012587	17090.41164674148\\
131.29479990206192	17167.719404436728\\
131.89279310286514	17245.380070487096\\
132.49078630366836	17328.608747307997\\
133.08877950447157	17412.78444634868\\
133.6867727052748	17497.339214430656\\
134.284765906078	17582.27305155393\\
134.88275910688122	17667.585957718493\\
135.48075230768399	17753.277932924288\\
};

\addplot [
color=black,
densely dashdotted
]
table[row sep=crcr]{
82.75992854189037	16855.160421044075\\
83.266492009288	16758.61790121\\
83.77305547668563	16663.120862246313\\
84.27961894408325	16572.114937991035\\
84.78618241148088	16483.19954756551\\
85.2927458788785	16397.091608067105\\
85.79930934627613	16314.73780948051\\
86.30587281367376	16232.867331000123\\
86.81243628107138	16157.047763247589\\
87.31899974846901	16080.78448248354\\
87.82556321586664	16009.412306900438\\
88.33212668326426	15939.69132184794\\
88.83869015066189	15871.085121250208\\
89.34525361805952	15807.863244908818\\
89.85181708545714	15744.28189854765\\
90.35838055285477	15684.517410949109\\
90.8649440202524	15627.424977412438\\
91.37150748765002	15570.013369275446\\
91.87807095504765	15518.17922832102\\
92.38463442244527	15467.236598047715\\
92.8911978898429	15416.013871209267\\
93.39776135724053	15371.154884710035\\
93.90432482463815	15326.37146170028\\
94.41088829203578	15281.345802776304\\
94.9174517594334	15242.462952709493\\
95.42401522683103	15203.837184505011\\
95.93057869422866	15165.005823652938\\
96.43714216162628	15131.056266161939\\
96.94370562902391	15098.575643846001\\
97.45026909642154	15065.924854764822\\
97.95683256381916	15035.821920159166\\
98.46339603121679	15009.46297835656\\
98.96995949861441	14982.968078286816\\
99.47652296601204	14956.337219949919\\
99.98308643340967	14935.309587919259\\
100.4896499008073	14914.934937643004\\
100.99621336820492	14894.457320213405\\
101.50277683560255	14874.860133665867\\
102.00934030300017	14860.559137506702\\
102.5159037703978	14846.186947923736\\
103.02246723779542	14831.743564916982\\
103.52903070519305	14818.508643800467\\
104.03559417259068	14810.183112544999\\
104.5421576399883	14801.816944211012\\
105.04872110738593	14793.410138798485\\
105.55528457478356	14785.037084790509\\
106.06184804218118	14782.67718776741\\
106.56841150957881	14780.305992626778\\
107.07497497697643	14777.923499368604\\
107.58153844437406	14775.529707992893\\
108.08810191177169	14776.42016901692\\
108.59466537916931	14780.018290402753\\
109.10122884656694	14783.63323524777\\
109.60779231396457	14787.265003551964\\
110.11435578136219	14790.91359531534\\
110.62091924875982	14799.201165880388\\
111.12748271615744	14808.772066166144\\
111.63404618355507	14818.38669410352\\
112.1406096509527	14828.045049692524\\
112.64717311835032	14837.747132933157\\
113.15373658574795	14851.455842963629\\
113.66030005314558	14866.996021876184\\
114.1668635205432	14882.605615248545\\
114.67342698794083	14898.284623080695\\
115.17999045533846	14914.033045372647\\
115.68655392273608	14931.077360208325\\
116.19311739013371	14952.565056710473\\
116.69968085753133	14974.146637096312\\
117.20624432492896	14995.822101365853\\
117.71280779232659	15017.591449519086\\
118.21937125972421	15039.45468155602\\
118.72593472712184	15063.171462205542\\
119.23249819451947	15090.683790419276\\
119.73906166191709	15118.313254556337\\
120.24562512931472	15146.059854616711\\
120.75218859671234	15173.923590600414\\
121.25875206410997	15201.90446250743\\
121.7653155315076	15230.002470337771\\
122.27187899890522	15263.231245019459\\
122.77844246630285	15296.893162268734\\
123.28500593370048	15330.694250096683\\
123.7915694010981	15364.634508503303\\
124.29813286849573	15398.713937488597\\
124.80469633589335	15432.93253705256\\
125.31125980329098	15467.363666437326\\
125.8178232706886	15507.020693242906\\
126.32438673808623	15546.837707898232\\
126.83095020548386	15586.814710403314\\
127.33751367288149	15626.951700758136\\
127.84407714027911	15667.248678962716\\
128.35064060767675	15707.705645017042\\
128.85720407507438	15748.322598921119\\
129.363767542472	15791.339693110749\\
129.87033100986963	15837.291748472893\\
130.37689447726726	15883.423391571596\\
130.88345794466488	15929.734622406844\\
131.3900214120625	15976.225440978655\\
131.89658487946014	16022.895847287013\\
132.40314834685776	16069.745841331925\\
132.90971181425576	16116.775423113428\\
};

\addplot [
color=black,
densely dotted
]
table[row sep=crcr]{
60.75200185424198	19449.110348212947\\
61.58201661924829	19415.86251799725\\
62.412031384254604	19365.741009859106\\
63.242046149260915	19300.548897312292\\
64.07206091426723	19222.089253870578\\
64.90207567927354	19132.165153047736\\
65.73209044427985	19032.579668357546\\
66.56210520928616	18925.135873313782\\
67.39211997429247	18811.63684143022\\
68.22213473929878	18693.885646220628\\
69.05214950430509	18573.685361198794\\
69.8821642693114	18452.83905987848\\
70.71217903431771	18333.149815773468\\
71.54219379932402	18216.420702397532\\
72.37220856433034	18104.454793264445\\
73.20222332933665	17999.05516188798\\
74.03223809434296	17902.02488178192\\
74.86225285934927	17815.167026460033\\
75.69226762435558	17740.284669436096\\
76.52228238936189	17679.18088422388\\
77.3522971543682	17633.658744337168\\
78.18231191937451	17605.52132328973\\
79.01232668438082	17596.501956897737\\
79.84234144938713	17586.44678793451\\
80.67235621439345	17559.548087205116\\
81.50237097939976	17517.40653183116\\
82.33238574440607	17461.622798934277\\
83.16240050941238	17393.797565636087\\
83.99241527441869	17315.531509058215\\
84.822430039425	17228.42530632228\\
85.65244480443131	17134.079634549907\\
86.48245956943762	17034.095170862718\\
87.31247433444393	16930.072592382337\\
88.14248909945024	16823.61257623039\\
88.97250386445656	16716.315799528496\\
89.80251862946287	16609.78293939828\\
90.63253339446918	16505.614672961365\\
91.46254815947549	16405.411677339365\\
92.2925629244818	16310.774629653915\\
93.12257768948811	16223.304207026633\\
93.95259245449442	16144.601086579141\\
94.78260721950073	16076.265945433062\\
95.61262198450704	16019.899460710023\\
96.44263674951335	15977.102309531643\\
97.27265151451967	15949.475169019544\\
98.10266627952598	15938.618716295354\\
98.93268104453229	15931.94902770679\\
99.7626958095386	15909.943315252496\\
100.59271057454491	15873.859901336247\\
101.42272533955122	15825.152008987425\\
102.25274010455753	15765.272861235419\\
103.08275486956384	15695.675681109613\\
103.91276963457015	15617.813691639398\\
104.74278439957646	15533.140115854158\\
105.57279916458278	15443.108176783278\\
106.40281392958909	15349.171097456148\\
107.2328286945954	15252.782100902154\\
108.06284345960171	15155.394410150677\\
108.89285822460802	15058.461248231115\\
109.72287298961433	14963.43583817284\\
110.55288775462064	14871.771403005247\\
111.38290251962695	14784.921165757722\\
112.21291728463326	14704.33834945965\\
113.04293204963957	14631.476177140417\\
113.87294681464589	14567.787871829414\\
114.7029615796522	14514.726656556018\\
115.53297634465851	14473.745754349628\\
116.36299110966482	14446.298388239622\\
117.19300587467113	14433.837781255388\\
118.02302063967744	14429.402064481797\\
118.85303540468375	14412.374588973897\\
119.68305016969006	14382.878297825815\\
120.51306493469637	14342.178842206296\\
121.34307969970268	14291.54187328408\\
122.173094464709	14232.23304222792\\
123.0031092297153	14165.518000206555\\
123.83312399472162	14092.662398388735\\
124.66313875972793	14014.931887943201\\
125.49315352473424	13933.592120038704\\
126.32316828974055	13849.908745843988\\
127.15318305474686	13765.147416527801\\
127.98319781975317	13680.573783258884\\
128.81321258475947	13597.453497205981\\
129.64322734976577	13517.052209537842\\
130.47324211477206	13440.635571423216\\
131.30325687977836	13369.46923403084\\
132.13327164478466	13304.818848529463\\
132.96328640979095	13247.950066087833\\
133.79330117479725	13200.128537874694\\
134.62331593980355	13162.619915058793\\
135.45333070480984	13136.689848808875\\
136.28334546981614	13123.603990293685\\
137.11336023482244	13120.051635085301\\
137.94337499982873	13105.973400536523\\
138.77338976483503	13079.881578020546\\
139.60340452984133	13042.975586517598\\
140.43341929484762	12996.454845007906\\
141.26343405985392	12941.518772471693\\
142.09344882486022	12879.366787889187\\
142.9234635898666	12811.198310240563\\
};

\addplot [
color=black,
dashdotdotted
]
table[row sep=crcr]{
65.36787710872356	19129.9957196984\\
66.12663812832547	19049.111340686948\\
66.88539914792737	18968.687203638146\\
67.64416016752928	18888.7144135002\\
68.40292118713118	18809.184075221285\\
69.16168220673309	18730.08729374957\\
69.920443226335	18651.415174033278\\
70.6792042459369	18573.158821020563\\
71.4379652655388	18495.30933965963\\
72.19672628514071	18417.857834898663\\
72.95548730474262	18340.79541168584\\
73.71424832434452	18264.113174969352\\
74.47300934394643	18187.802229697394\\
75.23177036354834	18111.853680818138\\
75.99053138315024	18036.258633279787\\
76.74929240275215	17961.008192030513\\
77.50805342235405	17886.09346201851\\
78.26681444195596	17811.505548191963\\
79.02557546155786	17737.23555549906\\
79.78433648115977	17663.27720091378\\
80.54309750076168	17589.694121204775\\
81.30185852036358	17516.512052892853\\
82.06061953996549	17443.724492971665\\
82.81938055956739	17371.324938434864\\
83.5781415791693	17299.306886276092\\
84.3369025987712	17227.663833489012\\
85.09566361837311	17156.389277067265\\
85.85442463797501	17085.476714004504\\
86.61318565757692	17014.919641294386\\
87.37194667717883	16944.711555930553\\
88.13070769678073	16874.845954906657\\
88.88946871638264	16805.31633521635\\
89.64822973598454	16736.116193853286\\
90.40699075558645	16667.23902781111\\
91.16575177518835	16598.678334083477\\
91.92451279479026	16530.42760966403\\
92.68327381439217	16462.48035154643\\
93.44203483399407	16394.83005672432\\
94.20079585359598	16327.470222191358\\
94.95955687319788	16260.394344941182\\
95.71831789279979	16193.595921967455\\
96.4770789124017	16127.06845026382\\
97.2358399320036	16060.802624586377\\
97.9946009516055	15994.776933076962\\
98.75336197120741	15928.995707168722\\
99.51212299080932	15863.468198649269\\
100.27088401041122	15798.20365930622\\
101.02964503001313	15733.211340927199\\
101.78840604961503	15668.500495299819\\
102.54716706921694	15604.080374211697\\
103.30592808881885	15539.960229450458\\
104.06468910842075	15476.149312803711\\
104.82345012802266	15412.656876059078\\
105.58221114762456	15349.492171004178\\
106.34097216722647	15286.664449426631\\
107.09973318682837	15224.182963114046\\
107.85849420643028	15162.05696385405\\
108.61725522603219	15100.295703434254\\
109.37601624563409	15038.908433642282\\
110.134777265236	14977.90440626575\\
110.8935382848379	14917.292873092274\\
111.65229930443981	14857.083085909473\\
112.41106032404171	14797.284296504962\\
113.16982134364362	14737.905756666367\\
113.92858236324552	14678.956718181294\\
114.68734338284743	14620.469842092583\\
115.44610440244934	14562.510501072857\\
116.20486542205124	14505.059769215937\\
116.96362644165315	14448.093078477088\\
117.72238746125505	14391.585860811572\\
118.48114848085696	14335.513548174655\\
119.23990950045886	14279.851572521606\\
119.99867052006077	14224.57536580768\\
120.75743153966268	14169.660359988147\\
121.51619255926458	14115.081987018273\\
122.27495357886649	14060.81567885332\\
123.03371459846839	14006.836867448548\\
123.7924756180703	13953.120984759234\\
124.5512366376722	13899.64346274063\\
125.30999765727411	13846.379733348012\\
126.06875867687602	13793.305228536632\\
126.82751969647792	13740.395380261765\\
127.58628071607983	13687.625620478671\\
128.34504173568175	13634.971381142614\\
129.10380275528365	13582.408094208859\\
129.86256377488556	13529.911191632673\\
130.62132479448746	13477.456105369314\\
131.38008581408937	13425.018267374053\\
132.13884683369128	13372.689202427835\\
132.89760785329318	13320.613002007192\\
133.6563688728951	13268.778100926918\\
134.415129892497	13217.171896562979\\
135.1738909120989	13165.781786291333\\
135.9326519317008	13114.59516748795\\
136.6914129513027	13063.599437528796\\
137.45017397090461	13012.78199378983\\
138.20893499050652	12962.13023364701\\
138.96769601010843	12911.631554476315\\
139.72645702971033	12861.273353653696\\
140.48521804931246	12811.043028555086\\
};

\addplot [
color=black,
densely dashdotdetted
]
table[row sep=crcr]{
70.51572499185646	18807.87415027186\\
71.19743566296721	18734.21758932495\\
71.87914633407796	18660.726553578188\\
72.56085700518871	18587.41456572931\\
73.24256767629946	18514.295148476056\\
73.92427834741021	18441.381824516182\\
74.60598901852096	18368.688116547426\\
75.28769968963171	18296.227547267532\\
75.96941036074246	18224.01363937424\\
76.65112103185321	18152.059915565293\\
77.33283170296396	18080.37989853845\\
78.01454237407471	18008.98711099143\\
78.69625304518546	17937.895075621997\\
79.37796371629621	17867.117315127878\\
80.05967438740696	17796.667352206827\\
80.74138505851771	17726.558709556586\\
81.42309572962846	17656.78919766027\\
82.10480640073921	17587.247677035655\\
82.78651707184996	17517.916750569344\\
83.4682277429607	17448.804898679486\\
84.14993841407146	17379.920601784244\\
84.8316490851822	17311.27234030178\\
85.51335975629296	17242.868594650263\\
86.1950704274037	17174.71784524784\\
86.87678109851446	17106.82857251268\\
87.5584917696252	17039.20925686294\\
88.24020244073596	16971.868378716783\\
88.9219131118467	16904.81441849237\\
89.60362378295746	16838.055856607854\\
90.2853344540682	16771.60117348141\\
90.96704512517896	16705.458849531187\\
91.6487557962897	16639.63736517535\\
92.33046646740046	16574.145200832056\\
93.0121771385112	16508.99083691947\\
93.69388780962196	16444.182753855755\\
94.3755984807327	16379.729432059066\\
95.05730915184346	16315.639351947568\\
95.7390198229542	16251.920993939419\\
96.42073049406495	16188.582810161572\\
97.1024411651757	16125.623703687195\\
97.78415183628645	16063.033860352709\\
98.4658625073972	16000.806328317854\\
99.14757317850795	15938.93415574237\\
99.8292838496187	15877.410390786\\
100.51099452072945	15816.228081608484\\
101.1927051918402	15755.380276369562\\
101.87441586295095	15694.860023228975\\
102.5561265340617	15634.660370346463\\
103.23783720517245	15574.774365881767\\
103.9195478762832	15515.195057994633\\
104.60125854739395	15455.915494844794\\
105.2829692185047	15396.928724591993\\
105.96467988961545	15338.227795395973\\
106.6463905607262	15279.80575541647\\
107.32810123183695	15221.655652813233\\
108.0098119029477	15163.770535745994\\
108.69152257405845	15106.1434523745\\
109.3732332451692	15048.767450858488\\
110.05494391627995	14991.635579357699\\
110.7366545873907	14934.740886031877\\
111.41836525850145	14878.07641904076\\
112.1000759296122	14821.66375407707\\
112.78178660072295	14765.57722435774\\
113.4634972718337	14709.813366026723\\
114.14520794294445	14654.363552256278\\
114.8269186140552	14599.21915621865\\
115.50862928516595	14544.371551086098\\
116.1903399562767	14489.812110030873\\
116.87205062738745	14435.532206225225\\
117.5537612984982	14381.523212841414\\
118.23547196960895	14327.776503051688\\
118.9171826407197	14274.283450028299\\
119.59889331183045	14221.035426943503\\
120.2806039829412	14168.023806969548\\
120.96231465405195	14115.23996327869\\
121.6440253251627	14062.675269043182\\
122.32573599627345	14010.321097435279\\
123.0074466673842	13958.168821627227\\
123.68915733849495	13906.209814791286\\
124.3708680096057	13854.435450099705\\
125.05257868071645	13802.837100724733\\
125.7342893518272	13751.406139838633\\
126.41600002293795	13700.133940613649\\
127.0977106940487	13649.01895210748\\
127.77942136515945	13598.143916190938\\
128.4611320362702	13547.528449174366\\
129.14284270738094	13497.164243010464\\
129.8245533784917	13447.042989651936\\
130.50626404960244	13397.15638105149\\
131.18797472071319	13347.49610916183\\
131.86968539182394	13298.053865935657\\
132.55139606293469	13248.82134332568\\
133.23310673404544	13199.790233284602\\
133.91481740515619	13150.952227765123\\
134.59652807626694	13102.299018719956\\
135.27823874737769	13053.822298101797\\
135.95994941848843	13005.513757863355\\
136.64166008959918	12957.365089957335\\
137.32337076070993	12909.36798633644\\
138.00508143182054	12861.514138953338\\
};

\addplot [
color=black,
loosely dashed
]
table[row sep=crcr]{
76.27942542816477	16092.737213843518\\
76.877418628968	16037.106777777852\\
77.47541182977123	15982.082241393602\\
78.07340503057446	15927.620318806898\\
78.6713982313777	15873.677724133859\\
79.26939143218092	15820.21117149061\\
79.86738463298416	15767.177374993274\\
80.46537783378739	15714.533048757976\\
81.06337103459062	15662.234906900843\\
81.66136423539385	15610.239663537994\\
82.25935743619708	15558.504032785551\\
82.85735063700031	15506.984728759648\\
83.45534383780354	15455.638465576396\\
84.05333703860677	15404.55067206255\\
84.65133023941	15354.047277233252\\
85.24932344021323	15304.123590628935\\
85.84731664101646	15254.75364090952\\
86.4453098418197	15205.911456734924\\
87.04330304262292	15157.571066765075\\
87.64129624342615	15109.706499659895\\
88.23928944422939	15062.291784079303\\
88.83728264503262	15015.300948683223\\
89.43527584583585	14968.708022131575\\
90.03326904663908	14922.487033084282\\
90.63126224744231	14876.612010201268\\
91.22925544824554	14831.056982142447\\
91.82724864904877	14785.795977567752\\
92.425241849852	14740.803025137096\\
93.02323505065523	14696.052153510409\\
93.62122825145846	14651.517391347605\\
94.21922145226169	14607.17276730861\\
94.81721465306492	14562.992310053345\\
95.41520785386815	14518.950048241735\\
96.01320105467138	14475.020010533695\\
96.61119425547462	14431.176225589154\\
97.20918745627785	14387.438127631269\\
97.80718065708108	14343.906015169572\\
98.40517385788431	14300.589599153513\\
99.00316705868754	14257.49394929374\\
99.60116025949077	14214.624135300906\\
100.199153460294	14171.985226885658\\
100.79714666109723	14129.582293758642\\
101.39513986190046	14087.420405630513\\
101.99313306270369	14045.504632211916\\
102.59112626350692	14003.840043213504\\
103.18911946431015	13962.431708345928\\
103.78711266511338	13921.284697319828\\
104.38510586591661	13880.404079845865\\
104.98309906671984	13839.79492563468\\
105.58109226752308	13799.462304396928\\
106.1790854683263	13759.411285843253\\
106.77707866912954	13719.646939684308\\
107.37507186993277	13680.174335630742\\
107.973065070736	13640.998543393205\\
108.57105827153923	13602.124632682346\\
109.16905147234246	13563.55767320881\\
109.76704467314569	13525.302734683253\\
110.36503787394892	13487.379923791208\\
110.96303107475215	13449.816761970827\\
111.56102427555538	13412.602170119519\\
112.15901747635861	13375.723926291314\\
112.75701067716184	13339.169808540255\\
113.35500387796507	13302.927594920377\\
113.9529970787683	13266.98506348571\\
114.55099027957154	13231.329992290295\\
115.14898348037477	13195.950159388169\\
115.746976681178	13160.833342833366\\
116.34496988198123	13125.967320679923\\
116.94296308278446	13091.339870981874\\
117.54095628358769	13056.938771793255\\
118.13894948439092	13022.751801168106\\
118.73694268519415	12988.76673716046\\
119.33493588599738	12954.971357824352\\
119.93292908680061	12921.353441213821\\
120.53092228760384	12887.900765382903\\
121.12891548840707	12854.601108385627\\
121.7269086892103	12821.442248276036\\
122.32490189001354	12788.411963108165\\
122.92289509081677	12755.49803093605\\
123.52088829162	12722.742851095505\\
124.11888149242323	12690.235837109176\\
124.71687469322646	12657.970047672326\\
125.31486789402969	12625.936429363293\\
125.91286109483292	12594.125928760424\\
126.51085429563615	12562.52949244206\\
127.10884749643938	12531.138066986541\\
127.70684069724261	12499.942598972208\\
128.30483389804584	12468.934034977408\\
128.90282709884906	12438.10332158048\\
129.50082029965228	12407.441405359767\\
130.0988135004555	12376.939232893608\\
130.6968067012587	12346.587750760353\\
131.29479990206192	12316.377905538337\\
131.89279310286514	12286.300643805902\\
132.49078630366836	12256.346912141395\\
133.08877950447157	12226.507657123155\\
133.6867727052748	12196.773825329525\\
134.284765906078	12167.136363338848\\
134.88275910688122	12137.586217729466\\
135.48075230768399	12108.114335079697\\
};

\addplot [
color=black,
loosely dashdotted
]
table[row sep=crcr]{
82.75992854189037	13746.902015706633\\
83.266492009288	13693.983136987064\\
83.77305547668563	13641.508971644147\\
84.27961894408325	13589.485646234503\\
84.78618241148088	13537.919287314757\\
85.2927458788785	13486.816021441533\\
85.79930934627613	13436.181975171457\\
86.30587281367376	13386.02327506115\\
86.81243628107138	13336.346047667239\\
87.31899974846901	13287.156392845334\\
87.82556321586664	13238.443569229828\\
88.33212668326426	13190.193675319288\\
88.83869015066189	13142.404517726263\\
89.34525361805952	13095.073903063314\\
89.85181708545714	13048.19963794299\\
90.35838055285477	13001.779528977855\\
90.8649440202524	12955.811382780461\\
91.37150748765002	12910.293005963364\\
91.87807095504765	12865.222205139127\\
92.38463442244527	12820.596786920296\\
92.8911978898429	12776.414557919432\\
93.39776135724053	12732.673324749092\\
93.90432482463815	12689.370894021833\\
94.41088829203578	12646.505072350203\\
94.9174517594334	12604.073666346767\\
95.42401522683103	12562.074482624083\\
95.93057869422866	12520.505327794697\\
96.43714216162628	12479.364008471175\\
96.94370562902391	12438.648331266068\\
97.45026909642154	12398.356102791933\\
97.95683256381916	12358.485129661325\\
98.46339603121679	12319.05845909313\\
98.96995949861441	12280.215131872492\\
99.47652296601204	12241.954725387479\\
99.98308643340967	12204.250965036874\\
100.4896499008073	12167.077576219453\\
100.99621336820492	12130.408284333991\\
101.50277683560255	12094.216814779265\\
102.00934030300017	12058.476892954059\\
102.5159037703978	12023.162244257144\\
103.02246723779542	11988.246594087299\\
103.52903070519305	11953.703667843305\\
104.03559417259068	11919.507190923934\\
104.5421576399883	11885.630888727967\\
105.04872110738593	11852.04848665418\\
105.55528457478356	11818.733710101353\\
106.06184804218118	11785.66028446826\\
106.56841150957881	11752.801935153677\\
107.07497497697643	11720.13238755639\\
107.58153844437406	11687.62536707517\\
108.08810191177169	11655.254599108795\\
108.59466537916931	11622.993809056043\\
109.10122884656694	11590.816722315694\\
109.60779231396457	11558.824767960183\\
110.11435578136219	11527.1500183061\\
110.62091924875982	11495.781052451988\\
111.12748271615744	11464.70623649028\\
111.63404618355507	11433.913936513398\\
112.1406096509527	11403.392518613782\\
112.64717311835032	11373.130348883858\\
113.15373658574795	11343.115793416056\\
113.66030005314558	11313.337218302808\\
114.1668635205432	11283.782989636547\\
114.67342698794083	11254.4414735097\\
115.17999045533846	11225.301036014698\\
115.68655392273608	11196.350043243972\\
116.19311739013371	11167.576861289957\\
116.69968085753133	11138.969856245074\\
117.20624432492896	11110.517394201763\\
117.71280779232659	11082.207841252446\\
118.21937125972421	11054.029563489563\\
118.72593472712184	11025.970927005535\\
119.23249819451947	10998.020297892801\\
119.73906166191709	10970.166042243787\\
120.24562512931472	10942.408757049605\\
120.75218859671234	10914.841739122217\\
121.25875206410997	10887.480594740788\\
121.7653155315076	10860.31762511027\\
122.27187899890522	10833.34513143562\\
122.77844246630285	10806.555414921795\\
123.28500593370048	10779.940776773747\\
123.7915694010981	10753.493518196436\\
124.29813286849573	10727.20594039481\\
124.80469633589335	10701.070344573833\\
125.31125980329098	10675.079031938447\\
125.8178232706886	10649.22430369362\\
126.32438673808623	10623.498461044299\\
126.83095020548386	10597.893805195443\\
127.33751367288149	10572.402637352005\\
127.84407714027911	10547.01725871894\\
128.35064060767675	10521.729970501205\\
128.85720407507438	10496.533073903753\\
129.363767542472	10471.41887013154\\
129.87033100986963	10446.37966038952\\
130.37689447726726	10421.407745882652\\
130.88345794466488	10396.495427815882\\
131.3900214120625	10371.683881208168\\
131.89658487946014	10347.041138054183\\
132.40314834685776	10322.558078721397\\
132.90971181425576	10298.224624404718\\
};
\end{axis}
\end{tikzpicture}%
