%Power_Needed_and_Power_Available_curves_CONTINOUS_OEI
\begin{tikzpicture}

\begin{axis}[
width=\figurewidth,
height=\figureheight,
scaled ticks=false, tick label style={/pgf/number format/fixed},
xmin=60.75200185424198,
xmax=146.32640319914915,
xlabel={Speed ((m/s))},
xmajorgrids,
ymin=1015441.9388178862,
ymax=4022313.323195266,
ylabel={Power ((W))},
ymajorgrids,
legend style={at={(1.03,0.5)},anchor=west,draw=black,fill=white,legend cell align=left}
]

\addplot [
color=black,
solid
]
table[row sep=crcr]{
60.75200185424198	1015441.9388178862\\
61.61638974661478	1016420.9256520974\\
62.480777638987576	1018018.1525140719\\
63.34516553136037	1020226.2940992017\\
64.20955342373317	1023038.6667093365\\
65.07394131610597	1026449.1856399616\\
65.93832920847878	1030452.3259190528\\
66.80271710085158	1035043.0860940288\\
67.66710499322438	1040216.954794248\\
68.53149288559719	1045969.8798239784\\
69.39588077796999	1052298.239565227\\
70.2602686703428	1059198.8164914893\\
71.1246565627156	1066668.772612849\\
71.9890444550884	1074705.6266900913\\
72.85343234746121	1083307.2330709102\\
73.71782023983401	1092471.762015069\\
74.58220813220682	1102197.6813877164\\
75.44659602457962	1112483.7396111377\\
76.31098391695242	1123328.949775155\\
77.17537180932523	1134732.5748153366\\
78.03975970169803	1146694.1136762293\\
78.90414759407084	1159213.288384072\\
79.76853548644364	1172290.0319600028\\
80.63292337881644	1185924.4771106967\\
81.49731127118925	1200116.945638704\\
82.36169916356205	1214867.9385196236\\
83.22608705593485	1230178.1265976275\\
84.09047494830766	1246048.3418548447\\
84.95486284068046	1262479.5692137303\\
85.81925073305327	1279472.9388348467\\
86.68363862542607	1297029.718875469\\
87.54802651779887	1315151.3086771693\\
88.41241441017168	1333839.2323530267\\
89.27680230254448	1353095.1327473663\\
90.14119019491729	1372920.7657430316\\
91.00557808729009	1393317.9948930822\\
91.8699659796629	1414288.7863555434\\
92.7343538720357	1435835.204111443\\
93.5987417644085	1457959.4054478144\\
94.4631296567813	1480663.6366887004\\
95.32751754915411	1503950.2291584096\\
96.19190544152691	1527821.595362422\\
97.05629333389972	1552280.225372374\\
97.92068122627252	1577328.6834025073\\
98.78506911864532	1602969.6045658623\\
99.64945701101813	1629205.6917992947\\
100.51384490339093	1656039.7129471572\\
101.37823279576374	1683474.497994173\\
102.24262068813654	1711512.9364386771\\
103.10700858050934	1740157.9747979806\\
103.97139647288215	1769412.614238175\\
104.83578436525495	1799279.9083211941\\
105.70017225762776	1829762.9608624151\\
106.56456015000056	1860864.9238925325\\
107.42894804237336	1892588.995717819\\
108.29333593474617	1924938.4190732923\\
109.15772382711897	1957916.479363621\\
110.02211171949178	1991526.502986957\\
110.88649961186458	2025771.8557371623\\
111.75088750423738	2060655.9412801904\\
112.61527539661019	2096182.1997006338\\
113.47966328898299	2132354.106114698\\
114.3440511813558	2169175.1693460904\\
115.2084390737286	2206648.930661512\\
116.0728269661014	2244778.9625626514\\
116.9372148584742	2283568.867631756\\
117.80160275084701	2323022.277428029\\
118.66599064321981	2363142.8514322573\\
119.53037853559262	2403934.2760372316\\
120.39476642796542	2445400.263581659\\
121.25915432033823	2487544.551425393\\
122.12354221271103	2530370.9010639386\\
122.98793010508383	2573883.0972802965\\
123.85231799745664	2618084.947332324\\
124.71670588982944	2662980.2801738936\\
125.58109378220225	2708572.945708208\\
126.44548167457505	2754866.8140717526\\
127.30986956694785	2801865.774947407\\
128.17425745932064	2849573.7369053536\\
129.03864535169345	2897994.626770492\\
129.90303324406625	2947132.389015074\\
130.76742113643905	2996990.9851754657\\
131.63180902881186	3047574.3932918655\\
132.49619692118466	3098886.6073699575\\
133.36058481355747	3150931.636863508\\
134.22497270593027	3203713.5061769458\\
135.08936059830307	3257236.2541870484\\
135.95374849067588	3311503.9337828574\\
136.81813638304868	3366520.6114230617\\
137.68252427542149	3422290.366710026\\
138.5469121677943	3478817.2919797804\\
139.4113000601671	3536105.4919072613\\
140.2756879525399	3594159.083126143\\
141.1400758449127	3652982.193862644\\
142.0044637372855	3712578.9635827034\\
142.8688516296583	3772953.542651968\\
143.7332395220311	3834110.092008046\\
144.59762741440392	3896052.7828445192\\
145.46201530677672	3958785.7963062166\\
146.32640319914915	4022313.323195266\\
};

\addplot [
color=black,
densely dashed
]
table[row sep=crcr]{
65.36787710872356	1092594.1835949032\\
66.16042485705306	1093449.6998880652\\
66.95297260538256	1094789.138916405\\
67.74552035371205	1096607.5257507563\\
68.53806810204155	1098900.2569242774\\
69.33061585037105	1101663.079200726\\
70.12316359870054	1104892.0697825397\\
70.91571134703004	1108583.6178460643\\
71.70825909535954	1112734.4073012671\\
72.50080684368903	1117341.400682228\\
73.29335459201853	1122401.8240828193\\
74.08590234034803	1127913.1530593066\\
74.87845008867752	1133873.099428226\\
75.67099783700702	1140279.598893911\\
76.46354558533652	1147130.7994454578\\
77.25609333366602	1154425.0504678893\\
78.04864108199551	1162160.8925167443\\
78.84118883032501	1170337.0477094096\\
79.6337365786545	1178952.4106902278\\
80.426284326984	1188006.0401298031\\
81.2188320753135	1197497.1507220156\\
82.011379823643	1207425.105645073\\
82.8039275719725	1217789.4094555124\\
83.59647532030199	1228589.701386418\\
84.38902306863149	1239825.7490232799\\
85.18157081696098	1251497.4423329043\\
85.97411856529048	1263604.7880225843\\
86.76666631361998	1276147.9042084198\\
87.55921406194948	1289127.0153731988\\
88.35176181027897	1302542.4475956575\\
89.14430955860847	1316394.6240342252\\
89.93685730693797	1330684.060649566\\
90.72940505526746	1345411.3621513026\\
91.52195280359696	1360577.218155346\\
92.31450055192646	1376182.3995391645\\
93.10704830025595	1392227.7549832026\\
93.89959604858545	1408714.2076874482\\
94.69214379691495	1425642.7522528914\\
95.48469154524444	1443014.4517182903\\
96.27723929357394	1460830.4347432952\\
97.06978704190344	1479091.8929295659\\
97.86233479023294	1497800.0782720642\\
98.65488253856243	1516956.3007331912\\
99.44743028689193	1536561.9259329285\\
100.23997803522143	1556618.3729485518\\
101.03252578355092	1577127.1122179078\\
101.82507353188042	1598089.6635406092\\
102.61762128020992	1619507.5941718528\\
103.41016902853941	1641382.5170038936\\
104.20271677686891	1663716.0888305076\\
104.99526452519841	1686510.0086900576\\
105.7878122735279	1709766.0162830376\\
106.5803600218574	1733485.890460229\\
107.3729077701869	1757671.447777802\\
108.1654555185164	1782324.5411159478\\
108.95800326684589	1807447.0583577943\\
109.75055101517539	1833040.921125566\\
110.54309876350489	1859108.0835711006\\
111.33564651183438	1885650.5312180396\\
112.12819426016388	1912670.2798531076\\
112.92074200849338	1940169.374464091\\
113.71328975682287	1968149.888222219\\
114.50583750515237	1996613.9215068163\\
115.29838525348187	2025563.6009701726\\
116.09093300181136	2055001.0786407231\\
116.88348075014086	2084928.5310627108\\
117.67602849847036	2115348.158470619\\
118.46857624679986	2146262.1839967384\\
119.26112399512935	2177672.852910332\\
120.05367174345885	2209582.431886937\\
120.84621949178835	2241993.2083064206\\
121.63876724011784	2274907.489578474\\
122.43131498844734	2308327.6024943064\\
123.22386273677684	2342255.892603358\\
124.01641048510633	2376694.723613912\\
124.80895823343583	2411646.4768165452\\
125.60150598176533	2447113.550529402\\
126.39405373009483	2483098.35956434\\
127.18660147842432	2519603.3347130464\\
127.97914922675382	2556630.9222522266\\
128.7716969750833	2594183.5834670896\\
129.5642447234128	2632263.794192304\\
130.3567924717423	2670874.04436971\\
131.1493402200718	2710016.83762206\\
131.9418879684013	2749694.6908421344\\
132.7344357167308	2789910.133796561\\
133.52698346506028	2830665.708743758\\
134.31953121338978	2871963.970065395\\
135.11207896171928	2913807.4839108274\\
135.90462671004877	2956198.8278539707\\
136.69717445837827	2999140.5905621145\\
137.48972220670777	3042635.3714761827\\
138.28226995503726	3086685.7805020013\\
139.07481770336676	3131294.437712112\\
139.86736545169626	3176463.973057729\\
140.65991320002576	3222197.0260904324\\
141.45246094835525	3268496.245693217\\
142.24500869668475	3315364.28982053\\
143.03755644501425	3362803.825246962\\
143.83010419334371	3410817.527324226\\
};

\addplot [
color=black,
dashdotted
]
table[row sep=crcr]{
70.51572499185646	1178638.10767381\\
71.23062591824181	1179373.9043495525\\
71.94552684462717	1180475.3381243949\\
72.66042777101252	1181939.2121639096\\
73.37532869739788	1183762.5293345978\\
74.09022962378323	1185942.4825692533\\
74.80513055016858	1188476.4457848016\\
75.52003147655394	1191361.9653159764\\
76.2349324029393	1194596.7518309918\\
76.94983332932465	1198178.672697858\\
77.66473425571	1202105.7447723036\\
78.37963518209536	1206376.1275803833\\
79.09453610848071	1210988.1168708068\\
79.80943703486606	1215940.1385137988\\
80.52433796125142	1221230.7427249562\\
81.23923888763677	1226858.598594087\\
81.95413981402213	1232822.4889004026\\
82.66904074040748	1239121.30519673\\
83.38394166679284	1245754.0431466058\\
84.09884259317819	1252719.7980991905\\
84.81374351956354	1260017.7608879886\\
85.5286444459489	1267647.2138402595\\
86.24354537233425	1275607.526984912\\
86.95844629871961	1283898.15444745\\
87.67334722510496	1292518.631021294\\
88.38824815149032	1301468.5689054925\\
89.10314907787567	1310747.6545994836\\
89.81805000426102	1320355.6459461467\\
90.53295093064638	1330292.3693149576\\
91.24785185703173	1340557.7169175562\\
91.96275278341709	1351151.6442485233\\
92.67765370980244	1362074.1676446074\\
93.3925546361878	1373325.3619560543\\
94.10745556257315	1384905.3583240747\\
94.8223564889585	1396814.3420588502\\
95.53725741534386	1409052.5506128178\\
96.25215834172921	1421620.2716442638\\
96.96705926811457	1434517.8411665878\\
97.68196019449992	1447745.6417788237\\
98.39686112088528	1461304.100973309\\
99.11176204727063	1475193.6895165858\\
99.82666297365598	1489414.919899878\\
100.54156390004134	1503968.344855676\\
101.2564648264267	1518854.5559371577\\
101.97136575281205	1534074.1821573672\\
102.6862666791974	1549627.8886852427\\
103.40116760558276	1565516.3755957277\\
104.11606853196811	1581740.3766713836\\
104.83096945835347	1598300.6582530357\\
105.54587038473882	1615198.0181371241\\
106.26077131112417	1632433.2845175709\\
106.97567223750953	1650007.3149700742\\
107.69057316389488	1667920.9954768557\\
108.40547409028024	1686175.2394899994\\
109.12037501666559	1704770.98703161\\
109.83527594305095	1723709.2038291104\\
110.5501768694363	1742990.880484093\\
111.26507779582165	1762617.0316732128\\
111.97997872220701	1782588.695379685\\
112.69487964859236	1802906.9321540422\\
113.40978057497772	1823572.8244028424\\
114.12468150136307	1844587.4757041193\\
114.83958242774843	1865952.0101483944\\
115.55448335413378	1887667.5717041572\\
116.26938428051913	1909735.323606746\\
116.98428520690449	1932156.4477696465\\
117.69918613328984	1954932.1442172374\\
118.4140870596752	1978063.6305380827\\
119.12898798606055	2001552.1413579192\\
119.8438889124459	2025398.9278314954\\
120.55878983883126	2049605.2571524957\\
121.27369076521661	2074172.4120808\\
121.98859169160197	2099101.6904863594\\
122.70349261798732	2124394.404909026\\
123.41839354437268	2150051.882133672\\
124.13329447075803	2176075.462779996\\
124.84819539714339	2202466.500906422\\
125.56309632352874	2229226.3636275255\\
126.2779972499141	2256356.430744462\\
126.99289817629945	2283858.0943878717\\
127.7077991026848	2311732.758672777\\
128.42270002907017	2339981.8393650195\\
129.13760095545553	2368606.763558759\\
129.85250188184088	2397608.9693646394\\
130.56740280822623	2426989.90560819\\
131.2823037346116	2456751.031538088\\
131.99720466099694	2486893.8165438967\\
132.7121055873823	2517419.739882925\\
133.42700651376765	2548330.2904158784\\
134.141907440153	2579626.966350947\\
134.85680836653836	2611311.274996048\\
135.5717092929237	2643384.732518896\\
136.28661021930907	2675848.863714634\\
137.00151114569442	2708705.2017807337\\
137.71641207207978	2741955.2880989052\\
138.43131299846513	2775600.672023774\\
139.14621392485049	2809642.910678061\\
139.86111485123584	2844083.568754051\\
140.5760157776212	2878924.2183211166\\
141.29091670400675	2914166.438639097\\
};

\addplot [
color=black,
dashed
]
table[row sep=crcr]{
76.27942542816477	1274975.725648151\\
76.91000178248115	1275594.8589562788\\
77.54057813679752	1276477.4025184852\\
78.1711544911139	1277621.4483254917\\
78.80173084543027	1279025.1856188308\\
79.43230719974665	1280686.8970306972\\
80.06288355406302	1282604.9549062229\\
80.6934599083794	1284777.8177981782\\
81.32403626269577	1287204.0271247583\\
81.95461261701215	1289882.2039816622\\
82.58518897132852	1292811.0461002167\\
83.2157653256449	1295989.3249438037\\
83.84634167996127	1299415.882935308\\
84.47691803427765	1303089.6308087371\\
85.10749438859402	1307009.5450785744\\
85.7380707429104	1311174.6656208097\\
86.36864709722677	1315584.093359928\\
86.99922345154314	1320236.9880564944\\
87.62979980585952	1325132.566190254\\
88.2603761601759	1330270.0989339845\\
88.89095251449227	1335648.9102135801\\
89.52152886880864	1341268.37485013\\
90.15210522312502	1347127.9167799605\\
90.7826815774414	1353227.0073488683\\
91.41325793175777	1359565.1636769425\\
92.04383428607414	1366141.947090611\\
92.67441064039052	1372956.9616186896\\
93.3049869947069	1380009.8525494232\\
93.93556334902327	1387300.3050456394\\
94.56613970333964	1394828.0428153104\\
95.19671605765602	1402592.8268349536\\
95.8272924119724	1410594.4541234311\\
96.45786876628877	1418832.7565638463\\
97.08844512060514	1427307.5997713523\\
97.71902147492152	1436018.8820047951\\
98.3495978292379	1444966.5331202256\\
98.98017418355427	1454150.5135644122\\
99.61075053787064	1463570.8134065825\\
100.24132689218702	1473227.4514067105\\
100.8719032465034	1483120.4741187512\\
101.50247960081977	1493249.9550273006\\
102.13305595513614	1503615.9937162362\\
102.76363230945252	1514218.7150679687\\
103.3942086637689	1525058.2684919937\\
104.02478501808527	1536134.8271815025\\
104.65536137240164	1547448.5873968627\\
105.28593772671802	1558999.767774856\\
105.91651408103439	1570788.6086625825\\
106.54709043535077	1582815.3714750235\\
107.17766678966714	1595080.3380752762\\
107.80824314398352	1607583.8101765476\\
108.43881949829989	1620326.1087650084\\
109.06939585261627	1633307.5735426622\\
109.69997220693264	1646528.5623894392\\
110.33054856124902	1659989.4508437288\\
110.96112491556539	1673690.6316006305\\
111.59170126988177	1687632.5140272074\\
112.22227762419814	1701815.5236940929\\
112.85285397851452	1716240.1019227912\\
113.48343033283089	1730906.70534808\\
114.11400668714727	1745815.8054949103\\
114.74458304146364	1760967.8883692701\\
115.37515939578002	1776363.4540624514\\
116.00573575009639	1792003.0163682348\\
116.63631210441277	1807887.1024124864\\
117.26688845872914	1824016.252294706\\
117.89746481304552	1840391.0187410775\\
118.52804116736189	1857011.9667685973\\
119.15861752167827	1873879.673359866\\
119.78919387599464	1890994.727148146\\
120.41977023031102	1908357.7281123234\\
121.05034658462739	1925969.2872813996\\
121.68092293894377	1943830.026448167\\
122.31149929326014	1961940.5778917484\\
122.94207564757652	1980301.5841086737\\
123.57265200189289	1998913.6975521857\\
124.20322835620927	2017777.5803794924\\
124.83380471052564	2036893.9042066773\\
125.46438106484202	2056263.3498709996\\
126.09495741915839	2075886.6072003294\\
126.72553377347477	2095764.3747894631\\
127.35611012779114	2115897.3597830865\\
127.98668648210752	2136286.2776651536\\
128.6172628364239	2156931.8520544595\\
129.24783919074028	2177834.8145061983\\
129.87841554505667	2198995.904319302\\
130.50899189937306	2220415.8683493678\\
131.13956825368945	2242095.460826972\\
131.77014460800584	2264035.4431812153\\
132.40072096232223	2286236.5838683005\\
133.03129731663861	2308699.6582049867\\
133.661873670955	2331425.44820676\\
134.2924500252714	2354414.7424305626\\
134.92302637958778	2377668.3358219336\\
135.55360273390417	2401187.0295664123\\
136.18417908822056	2424971.630945073\\
136.81475544253695	2449022.9531940557\\
137.44533179685334	2473341.8153679585\\
138.07590815116973	2497929.04220698\\
138.70648450548597	2522785.464007673\\
};

\addplot [
color=black,
densely dashdotted
]
table[row sep=crcr]{
82.75992854189037	1383294.3726962793\\
83.29845682694415	1383799.11505119\\
83.83698511199792	1384481.213732822\\
84.37551339705169	1385339.6423254153\\
84.91404168210546	1386373.4156243682\\
85.45256996715923	1387581.5883376661\\
85.991098252213	1388963.2538360918\\
86.52962653726678	1390517.5429501154\\
87.06815482232055	1392243.622811426\\
87.60668310737432	1394140.6957371926\\
88.1452113924281	1396207.9981552267\\
88.68373967748187	1398444.799568305\\
89.22226796253564	1400850.4015559983\\
89.76079624758941	1403424.136812432\\
90.29932453264318	1406165.368218483\\
90.83785281769696	1409073.487946971\\
91.37638110275073	1412147.9165994972\\
91.9149093878045	1415388.1023736275\\
92.45343767285827	1418793.5202591745\\
92.99196595791204	1422363.6712624147\\
93.53049424296582	1426098.0816571026\\
94.06902252801959	1429996.3022612096\\
94.60755081307336	1434057.907738368\\
95.14607909812713	1438282.4959230386\\
95.6846073831809	1442669.6871684622\\
96.22313566823468	1447219.1237165125\\
96.76166395328845	1451930.4690885849\\
97.30019223834222	1456803.4074967215\\
97.83872052339599	1461837.643274176\\
98.37724880844976	1467032.9003246853\\
98.91577709350354	1472388.9215897305\\
99.45430537855731	1477905.4685331054\\
99.99283366361108	1483582.320642144\\
100.53136194866485	1489419.2749449727\\
101.06989023371862	1495416.1455432014\\
101.6084185187724	1501572.7631594725\\
102.14694680382617	1507888.974699324\\
102.68547508887994	1514364.6428268352\\
103.22400337393371	1520999.6455535616\\
103.76253165898748	1527793.8758402655\\
104.30105994404126	1534747.241210986\\
104.83958822909503	1541859.6633790073\\
105.3781165141488	1549131.0778842883\\
105.91664479920257	1556561.4337419588\\
106.45517308425634	1564150.6931014839\\
106.99370136931012	1571898.8309161197\\
107.53222965436389	1579805.8346223033\\
108.07075793941766	1587871.7038286258\\
108.60928622447143	1596096.4500140615\\
109.1478145095252	1604480.096235129\\
109.68634279457898	1613022.6768416797\\
110.22487107963275	1621724.237201017\\
110.76339936468652	1630584.8334300632\\
111.30192764974029	1639604.532135303\\
111.84045593479406	1648783.4101602386\\
112.37898421984784	1658121.554340109\\
112.91751250490161	1667619.0612636243\\
113.45604078995538	1677276.0370414867\\
113.99456907500915	1687092.5970814773\\
114.53309736006292	1697068.8658698797\\
115.0716256451167	1707204.976759049\\
115.61015393017047	1717501.0717609138\\
116.14868221522424	1727957.3013462238\\
116.68721050027801	1738573.8242493556\\
117.22573878533179	1749350.8072785013\\
117.76426707038556	1760288.425131062\\
118.30279535543933	1771386.8602140856\\
118.8413236404931	1782646.3024695842\\
119.37985192554687	1794066.9492045837\\
119.91838021060065	1805649.0049257486\\
120.45690849565442	1817392.6811784448\\
120.99543678070819	1829298.1963900982\\
121.53396506576196	1841365.7757177218\\
122.07249335081573	1853595.6508994764\\
122.6110216358695	1865988.0601101406\\
123.14954992092328	1878543.2478203783\\
123.68807820597705	1891261.4646596764\\
124.22660649103082	1904142.9672828543\\
124.7651347760846	1917188.018240025\\
125.30366306113837	1930396.885849912\\
125.84219134619214	1943769.8440764176\\
126.38071963124591	1957307.1724083512\\
126.91924791629968	1971009.1557422127\\
127.45777620135345	1984876.0842679513\\
127.99630448640723	1998908.2533576093\\
128.534832771461	2013105.9634567653\\
129.07336105651478	2027469.519978688\\
129.61188934156857	2041999.2332011405\\
130.15041762662236	2056695.4181657361\\
130.68894591167614	2071558.3945797884\\
131.22747419672993	2086588.4867205764\\
131.76600248178372	2101786.023341955\\
132.3045307668375	2117151.3375832536\\
132.8430590518913	2132684.766880378\\
133.38158733694507	2148386.6528790793\\
133.92011562199886	2164257.341350307\\
134.45864390705265	2180297.182107599\\
134.99717219210643	2196506.5289264475\\
135.53570047716022	2212885.7394655896\\
136.07422876221423	2229435.175190173\\
};

\addplot [
color=black,
densely dotted
]
table[row sep=crcr]{
60.75200185424198	1456999.268614075\\
61.61638974661478	1465973.6245518706\\
62.480777638987576	1472012.2553508033\\
63.34516553136037	1475788.5146594634\\
64.20955342373317	1478018.412889727\\
65.07394131610597	1479460.6172167528\\
65.93832920847878	1480916.4515789866\\
66.80271710085158	1483229.8966781572\\
67.66710499322438	1487287.5899792784\\
68.53149288559719	1494018.825710649\\
69.39588077796999	1504395.5548638513\\
70.2602686703428	1519432.3851937538\\
71.1246565627156	1536381.8658496456\\
71.9890444550884	1549002.7105889113\\
72.85343234746121	1557736.825395801\\
73.71782023983401	1563214.9509184905\\
74.58220813220682	1566103.657280357\\
75.44659602457962	1567105.3440799797\\
76.31098391695242	1566958.2403911394\\
77.17537180932523	1566436.404762819\\
78.03975970169803	1566349.7252192022\\
78.90414759407084	1567543.9192596748\\
79.76853548644364	1570900.533858826\\
80.63292337881644	1577336.9454664425\\
81.49731127118925	1587806.3600075175\\
82.36169916356205	1602941.9612202207\\
83.22608705593485	1616180.4966187929\\
84.09047494830766	1625177.8785940146\\
84.95486284068046	1630566.6880361515\\
85.81925073305327	1633010.480494013\\
86.68363862542607	1633203.7861749514\\
87.54802651779887	1631872.1099448614\\
88.41241441017168	1629771.9313281833\\
89.27680230254448	1627690.7045078985\\
90.14119019491729	1626446.858325533\\
91.00557808729009	1626889.796281156\\
91.8699659796629	1629899.896533379\\
92.7343538720357	1636388.511899358\\
93.5987417644085	1647297.969854791\\
94.4631296567813	1661079.7705714644\\
95.32751754915411	1670761.0831528278\\
96.19190544152691	1676435.9603364975\\
97.05629333389972	1678770.9773213516\\
97.92068122627252	1678460.2070355066\\
98.78506911864532	1676225.2201363193\\
99.64945701101813	1672815.0850103858\\
100.51384490339093	1669006.367773541\\
101.37823279576374	1665603.132270859\\
102.24262068813654	1663436.9400766536\\
103.10700858050934	1663366.8504944774\\
103.97139647288215	1666279.4205571236\\
104.83578436525495	1673088.7050266226\\
105.70017225762776	1684674.9750521276\\
106.56456015000056	1695459.7962115724\\
107.42894804237336	1701789.0750546847\\
108.29333593474617	1704338.346528723\\
109.15772382711897	1703808.11022425\\
110.02211171949178	1700923.8303751322\\
110.88649961186458	1696435.9358585405\\
111.75088750423738	1691119.8201949496\\
112.61527539661019	1685775.8415481392\\
113.47966328898299	1681229.3227251915\\
114.3440511813558	1678330.5511764945\\
115.2084390737286	1677954.7789957388\\
116.0728269661014	1681002.222919921\\
116.9372148584742	1688398.06432934\\
117.80160275084701	1699567.8093189471\\
118.66599064321981	1707244.969443388\\
119.53037853559262	1710901.0289558857\\
120.39476642796542	1711207.3542363448\\
121.25915432033823	1708857.0540464912\\
122.12354221271103	1704564.9795298704\\
122.98793010508383	1699067.7242118488\\
123.85231799745664	1693123.6239996136\\
124.71670588982944	1687512.7571821713\\
125.58109378220225	1683036.9444303496\\
126.44548167457505	1680519.7487967971\\
127.30986956694785	1680806.475715982\\
128.17425745932064	1684764.1730041932\\
129.03864535169345	1693281.6308595396\\
129.90303324406625	1702332.340775026\\
130.76742113643905	1706818.4703454522\\
131.63180902881186	1707423.7587992963\\
132.49619692118466	1704863.1195901884\\
133.36058481355747	1699872.070763351\\
134.22497270593027	1693206.7349556012\\
135.08936059830307	1685643.839395346\\
135.95374849067588	1677980.7159025865\\
136.81813638304868	1671035.3008889172\\
137.68252427542149	1665646.135357523\\
138.5469121677943	1662672.3649031834\\
139.4113000601671	1662993.7397122697\\
140.2756879525399	1667510.6145627461\\
141.1400758449127	1676320.8173749563\\
142.0044637372855	1681926.1073116087\\
142.8688516296583	1682902.8387998706\\
143.7332395220311	1680018.641369045\\
144.59762741440392	1674061.6062822975\\
145.46201530677672	1665840.2865366526\\
146.32640319914915	1656183.696863002\\
};

\addplot [
color=black,
dashdotdotted
]
table[row sep=crcr]{
65.36787710872356	1451034.3041307009\\
66.16042485705306	1458400.0006237812\\
66.95297260538256	1465618.1165830265\\
67.74552035371205	1472706.109129988\\
68.53806810204155	1479682.0903625435\\
69.33061585037105	1486564.0102630642\\
70.12316359870054	1493326.2461533917\\
70.91571134703004	1499949.5449485756\\
71.70825909535954	1506435.2897024578\\
72.50080684368903	1512784.7877483356\\
73.29335459201853	1518999.270698963\\
74.08590234034803	1525079.8944465471\\
74.87845008867752	1531027.739162751\\
75.67099783700702	1536843.8092986932\\
76.46354558533652	1542529.0335849468\\
77.25609333366602	1548084.2650315408\\
78.04864108199551	1553510.2809279587\\
78.84118883032501	1558807.78284314\\
79.6337365786545	1563977.3966254778\\
80.426284326984	1569019.672402822\\
81.2188320753135	1573938.827513344\\
82.011379823643	1578750.223102589\\
82.8039275719725	1583455.515572976\\
83.59647532030199	1588054.6640345422\\
84.38902306863149	1592547.5196010852\\
85.18157081696098	1596933.8253901696\\
85.97411856529048	1601213.216523122\\
86.76666631361998	1605385.2201250312\\
87.55921406194948	1609449.2553247514\\
88.35176181027897	1613404.6332548987\\
89.14430955860847	1617250.5570518542\\
89.93685730693797	1620986.1218557612\\
90.72940505526746	1624610.3148105263\\
91.52195280359696	1628122.0150638204\\
92.31450055192646	1631520.0273380629\\
93.10704830025595	1634816.5742844334\\
93.89959604858545	1638022.3162729344\\
94.69214379691495	1641137.2127787776\\
95.48469154524444	1644161.1443231425\\
96.27723929357394	1647093.9124731764\\
97.06978704190344	1649935.2398419923\\
97.86233479023294	1652684.7700886717\\
98.65488253856243	1655342.0679182634\\
99.44743028689193	1657906.619081783\\
100.23997803522143	1660377.8303762125\\
101.03252578355092	1662755.0296445035\\
101.82507353188042	1665037.4657755725\\
102.61762128020992	1667224.308704304\\
103.41016902853941	1669314.6494115507\\
104.20271677686891	1671306.6806573141\\
104.99526452519841	1673196.7289405104\\
105.7878122735279	1674988.8528169345\\
106.5803600218574	1676688.299658965\\
107.3729077701869	1678300.429166405\\
108.1654555185164	1679830.7133664775\\
108.95800326684589	1681284.7366138299\\
109.75055101517539	1682668.1955905322\\
110.54309876350489	1683986.8993060756\\
111.33564651183438	1685246.7690973764\\
112.12819426016388	1686453.83862877\\
112.92074200849338	1687614.2538920187\\
113.71328975682287	1688734.2732063036\\
114.50583750515237	1689820.2672182312\\
115.29838525348187	1690878.7189018284\\
116.09093300181136	1691927.874240645\\
116.88348075014086	1692979.5487622556\\
117.67602849847036	1694025.7036267756\\
118.46857624679986	1695057.9573610185\\
119.26112399512935	1696067.630207267\\
120.05367174345885	1697045.744123268\\
120.84621949178835	1697983.0227822396\\
121.63876724011784	1698869.8915728654\\
122.43131498844734	1699696.4775992965\\
123.22386273677684	1700452.6096811523\\
124.01641048510633	1701127.8183535188\\
124.80895823343583	1701711.3358669505\\
125.60150598176533	1702192.0961874695\\
126.39405373009483	1702558.7349965635\\
127.18660147842432	1702806.263118144\\
127.97914922675382	1702988.9073362986\\
128.7716969750833	1703117.393825\\
129.5642447234128	1703186.8539436725\\
130.3567924717423	1703192.2660412833\\
131.1493402200718	1703128.4554563372\\
131.9418879684013	1702990.0945168815\\
132.7344357167308	1702771.7025405029\\
133.52698346506028	1702467.6458343274\\
134.31953121338978	1702072.1376950243\\
135.11207896171928	1701579.2384087995\\
135.90462671004877	1700982.855251402\\
136.69717445837827	1700276.742488119\\
137.48972220670777	1699454.5013737804\\
138.28226995503726	1698509.580152755\\
139.07481770336676	1697455.7461097192\\
139.86736545169626	1696324.0990075206\\
140.65991320002576	1695110.4047533614\\
141.45246094835525	1693809.5654218278\\
142.24500869668475	1692416.3535278637\\
143.03755644501425	1690925.4120267732\\
143.83010419334371	1689331.254314221\\
};

\addplot [
color=black,
densely dashdotdetted
]
table[row sep=crcr]{
70.51572499185646	1453669.4584556744\\
71.23062591824181	1460565.6062065694\\
71.94552684462717	1467399.5332383679\\
72.66042777101252	1474161.9811891685\\
73.37532869739788	1480843.2156640224\\
74.09022962378323	1487433.0262349332\\
74.80513055016858	1493920.726440857\\
75.52003147655394	1500295.1537877023\\
76.2349324029393	1506544.6697483298\\
76.94983332932465	1512657.159762554\\
77.66473425571	1518620.0332371402\\
78.37963518209536	1524420.2235458065\\
79.09453610848071	1530044.1880292252\\
79.80943703486606	1535491.8622171788\\
80.52433796125142	1540798.643121367\\
81.23923888763677	1545970.3666162507\\
81.95413981402213	1551010.5421585336\\
82.66904074040748	1555922.7878988187\\
83.38394166679284	1560710.830681611\\
84.09884259317819	1565378.5060453152\\
84.81374351956354	1569929.7582222365\\
85.5286444459489	1574368.6401385805\\
86.24354537233425	1578699.3134144547\\
86.95844629871961	1582926.0483638647\\
87.67334722510496	1587053.2239947186\\
88.38824815149032	1591085.328008824\\
89.10314907787567	1595026.9568018902\\
89.81805000426102	1598882.815463525\\
90.53295093064638	1602657.7177772385\\
91.24785185703173	1606345.8110871078\\
91.96275278341709	1609931.9436228639\\
92.67765370980244	1613418.8609289827\\
93.3925546361878	1616809.7310680577\\
94.10745556257315	1620107.7902673152\\
94.8223564889585	1623316.3429186135\\
95.53725741534386	1626438.7615784442\\
96.25215834172921	1629478.486967932\\
96.96705926811457	1632439.0279728349\\
97.68196019449992	1635323.9616435426\\
98.39686112088528	1638136.9331950797\\
99.11176204727063	1640881.656007101\\
99.82666297365598	1643561.9116238973\\
100.54156390004134	1646181.5497543898\\
101.2564648264267	1648744.488272134\\
101.97136575281205	1651254.713215318\\
102.6862666791974	1653714.3889024344\\
103.40116760558276	1656122.6865443767\\
104.11606853196811	1658479.1390020007\\
104.83096945835347	1660783.2232761343\\
105.54587038473882	1663034.3604895067\\
106.26077131112417	1665231.9158867477\\
106.97567223750953	1667375.19883439\\
107.69057316389488	1669463.4628208678\\
108.40547409028024	1671495.9054565167\\
109.12037501666559	1673471.6684735746\\
109.83527594305095	1675389.8377261807\\
110.5501768694363	1677249.4431903758\\
111.26507779582165	1679049.4589641022\\
111.97997872220701	1680788.8032672054\\
112.69487964859236	1682466.3384414306\\
113.40978057497772	1684081.1542625818\\
114.12468150136307	1685648.3842467086\\
114.83958242774843	1687176.21588017\\
115.55448335413378	1688663.2285190253\\
116.26938428051913	1690107.9321778768\\
116.98428520690449	1691508.7675298706\\
117.69918613328984	1692864.1059066972\\
118.4140870596752	1694172.2492985895\\
119.12898798606055	1695431.4303543242\\
119.8438889124459	1696639.8123812221\\
120.55878983883126	1697795.4893451463\\
121.27369076521661	1698896.4858705052\\
121.98859169160197	1699940.7572402493\\
122.70349261798732	1700926.1893958729\\
123.41839354437268	1701850.5989374144\\
124.13329447075803	1702711.7331234554\\
124.84819539714339	1703508.6647622383\\
125.56309632352874	1704261.4600642535\\
126.2779972499141	1704975.995967353\\
126.99289817629945	1705650.397991973\\
127.7077991026848	1706282.7248794143\\
128.42270002907017	1706870.9685918419\\
129.13760095545553	1707413.0543122855\\
129.85250188184088	1707906.840444639\\
130.56740280822623	1708350.1186136617\\
131.2823037346116	1708740.6136649752\\
131.99720466099694	1709075.983665068\\
132.7121055873823	1709353.8199012906\\
133.42700651376765	1709571.64688186\\
134.141907440153	1709726.9223358561\\
134.85680836653836	1709817.0372132238\\
135.5717092929237	1709839.3156847735\\
136.28661021930907	1709797.2396684377\\
137.00151114569442	1709732.560650776\\
137.71641207207978	1709647.4121018446\\
138.43131299846513	1709534.1473486444\\
139.14621392485049	1709384.938015148\\
139.86111485123584	1709191.7740222984\\
140.5760157776212	1708946.463588011\\
141.29091670400675	1708640.6332271716\\
};

\addplot [
color=black,
loosely dashed
]
table[row sep=crcr]{
76.27942542816477	1287373.5640346804\\
76.91000178248115	1291584.3494253773\\
77.54057813679752	1295825.3341922308\\
78.1711544911139	1300107.192523258\\
78.80173084543027	1304417.9480590154\\
79.43230719974665	1308751.3865901737\\
80.06288355406302	1313103.7177564932\\
80.6934599083794	1317470.9405991703\\
81.32403626269577	1321848.8435608342\\
81.95461261701215	1326233.004485549\\
82.58518897132852	1330618.7906188134\\
83.2157653256449	1335001.35860756\\
83.84634167996127	1339375.6545001564\\
84.47691803427765	1343736.4137464042\\
85.10749438859402	1348078.1611975394\\
85.7380707429104	1352395.2111062328\\
86.36864709722677	1356681.6671265888\\
86.99922345154314	1360931.422314147\\
87.62979980585952	1365138.159125881\\
88.2603761601759	1369295.349420199\\
88.89095251449227	1373396.2544569431\\
89.52152886880864	1377459.6168058445\\
90.15210522312502	1381525.521862032\\
90.7826815774414	1385591.9574863992\\
91.41325793175777	1389655.9984047029\\
92.04383428607414	1393714.5929844857\\
92.67441064039052	1397764.563235076\\
93.3049869947069	1401802.604807589\\
93.93556334902327	1405825.2869949262\\
94.56613970333964	1409829.0527317745\\
95.19671605765602	1413810.2185946084\\
95.8272924119724	1417764.9748016873\\
96.45786876628877	1421689.3852130575\\
97.08844512060514	1425579.387330552\\
97.71902147492152	1429430.7922977891\\
98.3495978292379	1433239.284900174\\
98.98017418355427	1437000.4235648976\\
99.61075053787064	1440709.6403609377\\
100.24132689218702	1444362.7740797573\\
100.8719032465034	1447972.692462883\\
101.50247960081977	1451547.877400554\\
102.13305595513614	1455089.9562855966\\
102.76363230945252	1458600.581176471\\
103.3942086637689	1462081.4287972723\\
104.02478501808527	1465534.2005377295\\
104.65536137240164	1468960.6224532074\\
105.28593772671802	1472362.445264704\\
105.91651408103439	1475741.4443588527\\
106.54709043535077	1479099.4197879203\\
107.17766678966714	1482438.1962698095\\
107.80824314398352	1485759.6231880563\\
108.43881949829989	1489065.5745918318\\
109.06939585261627	1492357.9491959421\\
109.69997220693264	1495638.670380826\\
110.33054856124902	1498909.686192559\\
110.96112491556539	1502172.96934285\\
111.59170126988177	1505431.8737872895\\
112.22227762419814	1508693.1591402204\\
112.85285397851452	1511956.105853852\\
113.48343033283089	1515219.0545576722\\
114.11400668714727	1518480.286417808\\
114.74458304146364	1521738.0231370188\\
115.37515939578002	1524990.4269547018\\
116.00573575009639	1528235.6006468884\\
116.63631210441277	1531471.587526246\\
117.26688845872914	1534696.3714420777\\
117.89746481304552	1537907.8767803218\\
118.52804116736189	1541103.9684635529\\
119.15861752167827	1544282.4519509801\\
119.78919387599464	1547441.0732384482\\
120.41977023031102	1550577.5188584386\\
121.05034658462739	1553689.4158800666\\
121.68092293894377	1556774.331909085\\
122.31149929326014	1559829.7750878804\\
122.94207564757652	1562866.1363944972\\
123.57265200189289	1565898.4443433816\\
124.20322835620927	1568925.3263705447\\
124.83380471052564	1571945.294518553\\
125.46438106484202	1574956.8167824107\\
126.09495741915839	1577958.3171095613\\
126.72553377347477	1580948.1753998876\\
127.35611012779114	1583924.7275057102\\
127.98668648210752	1586886.2652317903\\
128.6172628364239	1589831.036335326\\
129.24783919074028	1592757.2445259558\\
129.87841554505667	1595663.0494657564\\
130.50899189937306	1598546.5667692435\\
131.13956825368945	1601405.8680033719\\
131.77014460800584	1604238.980687535\\
132.40072096232223	1607043.8882935653\\
133.03129731663861	1609818.5302457348\\
133.661873670955	1612562.1502061067\\
134.2924500252714	1615295.0468199602\\
134.92302637958778	1618022.75274266\\
135.55360273390417	1620742.6868939803\\
136.18417908822056	1623452.209577368\\
136.81475544253695	1626148.6224799454\\
137.44533179685334	1628829.1686725102\\
138.07590815116973	1631491.0326095342\\
138.70648450548597	1634131.340129164\\
};

\addplot [
color=black,
loosely dashdotted
]
table[row sep=crcr]{
82.75992854189037	1137692.6284922496\\
83.29845682694415	1140410.7458771518\\
83.83698511199792	1143110.459850507\\
84.37551339705169	1145793.2042175543\\
84.91404168210546	1148460.4286400904\\
85.45256996715923	1151113.59863647\\
85.991098252213	1153754.195581605\\
86.52962653726678	1156383.7167069667\\
87.06815482232055	1159003.6751005838\\
87.60668310737432	1161615.1096681654\\
88.1452113924281	1164216.971899658\\
88.68373967748187	1166809.6352518715\\
89.22226796253564	1169393.7073326122\\
89.76079624758941	1171969.7900728304\\
90.29932453264318	1174538.4797266212\\
90.83785281769696	1177100.366871224\\
91.37638110275073	1179656.0364070244\\
91.9149093878045	1182206.067557551\\
92.45343767285827	1184751.0338694786\\
92.99196595791204	1187291.5032126259\\
93.53049424296582	1189828.0377799564\\
94.06902252801959	1192361.1940875787\\
94.60755081307336	1194891.522974746\\
95.14607909812713	1197419.5696038562\\
95.6846073831809	1199945.8734604518\\
96.22313566823468	1202470.96835322\\
96.76166395328845	1204995.3824139934\\
97.30019223834222	1207519.6380977484\\
97.83872052339599	1210044.252182607\\
98.37724880844976	1212570.8286601969\\
98.91577709350354	1215115.189477825\\
99.45430537855731	1217680.8160856555\\
99.99283366361108	1220265.6213067924\\
100.53136194866485	1222867.4499612579\\
101.06989023371862	1225484.0788659898\\
101.6084185187724	1228113.2168348457\\
102.14694680382617	1230752.504678598\\
102.68547508887994	1233399.5152049372\\
103.22400337393371	1236051.7532184704\\
103.76253165898748	1238706.655520723\\
104.30105994404126	1241361.5909101365\\
104.83958822909503	1244013.8601820695\\
105.3781165141488	1246660.6961287986\\
105.91664479920257	1249299.2635395173\\
106.45517308425634	1251926.6592003354\\
106.99370136931012	1254539.9118942805\\
107.53222965436389	1257135.9824012977\\
108.07075793941766	1259711.7634982488\\
108.60928622447143	1262264.0799589125\\
109.1478145095252	1264789.7293642391\\
109.68634279457898	1267304.2252949297\\
110.22487107963275	1269821.4524816715\\
110.76339936468652	1272340.4389393257\\
111.30192764974029	1274860.182572247\\
111.84045593479406	1277379.6511742817\\
112.37898421984784	1279897.782428769\\
112.91751250490161	1282413.4839085403\\
113.45604078995538	1284925.6330759192\\
113.99456907500915	1287433.0772827223\\
114.53309736006292	1289934.6337702575\\
115.0716256451167	1292429.0896693256\\
115.61015393017047	1294915.2020002208\\
116.14868221522424	1297391.697672728\\
116.68721050027801	1299857.2734861253\\
117.22573878533179	1302310.5961291837\\
117.76426707038556	1304750.302180165\\
118.30279535543933	1307174.9981068256\\
118.8413236404931	1309583.2602664118\\
119.37985192554687	1311973.6349056647\\
119.91838021060065	1314344.638160816\\
120.45690849565442	1316700.6461476884\\
120.99543678070819	1319053.2781765761\\
121.53396506576196	1321402.2223444416\\
122.07249335081573	1323746.7186238663\\
122.6110216358695	1326085.9870616565\\
123.14954992092328	1328419.2277788427\\
123.68807820597705	1330745.6209706808\\
124.22660649103082	1333064.3269066515\\
124.7651347760846	1335374.4859304605\\
125.30366306113837	1337675.2184600371\\
125.84219134619214	1339965.6249875373\\
126.38071963124591	1342244.7860793401\\
126.91924791629968	1344511.7623760502\\
127.45777620135345	1346765.594592498\\
127.99630448640723	1349005.3035177358\\
128.534832771461	1351229.8900150447\\
129.07336105651478	1353438.3350219273\\
129.61188934156857	1355629.599550112\\
130.15041762662236	1357802.624685553\\
130.68894591167614	1359956.331588428\\
131.22747419672993	1362092.2071270207\\
131.76600248178372	1364223.2163154436\\
132.3045307668375	1366350.2197254198\\
132.8430590518913	1368471.9049807957\\
133.38158733694507	1370586.933619777\\
133.92011562199886	1372693.941094928\\
134.45864390705265	1374791.5367731717\\
134.99717219210643	1376878.3039357911\\
135.53570047716022	1378952.7997784265\\
136.07422876221423	1381013.55541108\\
};
\end{axis}
\end{tikzpicture}%
