%Power_Needed_and_Power_Available_curves_CLIMB_AOE
\begin{tikzpicture}

\begin{axis}[
width=\figurewidth,
height=\figureheight,
scaled ticks=false, tick label style={/pgf/number format/fixed},
xmin=60.75200185424198,
xmax=146.32640319914915,
xlabel={Speed ((m/s))},
xmajorgrids,
ymin=1023984.7371528161,
ymax=4027395.4099005125,
ylabel={Power ((W))},
ymajorgrids,
legend style={at={(1.03,0.5)},anchor=west,draw=black,fill=white,legend cell align=left}
]

\addplot [
color=black,
solid
]
table[row sep=crcr]{
60.75200185424198	1023984.7371528161\\
61.61638974661478	1024804.111567524\\
62.480777638987576	1026301.6296329626\\
63.34516553136037	1028400.193202734\\
64.20955342373317	1031084.0600993632\\
65.07394131610597	1034420.4826307135\\
65.93832920847878	1038373.7933551102\\
66.80271710085158	1042914.602693634\\
67.66710499322438	1048017.3445335039\\
68.53149288559719	1053650.767361882\\
69.39588077796999	1059777.763686603\\
70.2602686703428	1066672.921333111\\
71.1246565627156	1074125.7494620967\\
71.9890444550884	1082000.0432778357\\
72.85343234746121	1090507.6850879465\\
73.71782023983401	1099695.3639476476\\
74.58220813220682	1109195.103854624\\
75.44659602457962	1119531.634438043\\
76.31098391695242	1130280.577419505\\
77.17537180932523	1141578.9332913328\\
78.03975970169803	1153545.9178408359\\
78.90414759407084	1165885.57998623\\
79.76853548644364	1179020.576845272\\
80.63292337881644	1192476.7703036563\\
81.49731127118925	1206709.9272177392\\
82.36169916356205	1221353.2116925446\\
83.22608705593485	1236593.898167237\\
84.09047494830766	1252489.7586356432\\
84.95486284068046	1268625.6106926436\\
85.81925073305327	1285834.0480153197\\
86.68363862542607	1303173.092101058\\
87.54802651779887	1321305.1344793641\\
88.41241441017168	1340046.4925026763\\
89.27680230254448	1358955.7283211444\\
90.14119019491729	1378983.1436517972\\
91.00557808729009	1399377.519197092\\
91.8699659796629	1419977.202493854\\
92.7343538720357	1441753.495732755\\
93.5987417644085	1463913.465644808\\
94.4631296567813	1486316.1786675127\\
95.32751754915411	1509646.4137111774\\
96.19190544152691	1533676.1137301154\\
97.05629333389972	1557985.8441004122\\
97.92068122627252	1582623.8804017238\\
98.78506911864532	1608618.0840349372\\
99.64945701101813	1634929.303620394\\
100.51384490339093	1661560.3131071667\\
101.37823279576374	1688618.230198421\\
102.24262068813654	1717014.9739844438\\
103.10700858050934	1745768.2786282732\\
103.97139647288215	1774881.1585957592\\
104.83578436525495	1804356.62835275\\
105.70017225762776	1834979.6292738747\\
106.56456015000056	1866323.2243080297\\
107.42894804237336	1898066.0012654355\\
108.29333593474617	1930211.198070792\\
109.15772382711897	1962762.0526487979\\
110.02211171949178	1996588.3814699647\\
110.88649961186458	2031094.879510433\\
111.75088750423738	2066043.2268814943\\
112.61527539661019	2101436.86790877\\
113.47966328898299	2137279.246917881\\
114.3440511813558	2173799.332346408\\
115.2084390737286	2211668.2091282834\\
116.0728269661014	2250021.3931210805\\
116.9372148584742	2288862.517993412\\
117.80160275084701	2328195.2174138958\\
118.66599064321981	2368023.1250511464\\
119.53037853559262	2408349.874573779\\
120.39476642796542	2450090.07792907\\
121.25915432033823	2492558.079819566\\
122.12354221271103	2535559.9933127486\\
122.98793010508383	2579099.6243623\\
123.85231799745664	2623180.7789219045\\
124.71670588982944	2667807.2629452436\\
125.58109378220225	2712982.8823860004\\
126.44548167457505	2759165.3043030417\\
127.30986956694785	2806572.3189795422\\
128.17425745932064	2854562.749294215\\
129.03864535169345	2903140.556427886\\
129.90303324406625	2952309.701561375\\
130.76742113643905	3002074.1458755066\\
131.63180902881186	3052437.850551103\\
132.49619692118466	3103404.776768985\\
133.36058481355747	3154978.8857099777\\
134.22497270593027	3207904.361789941\\
135.08936059830307	3261830.7904455015\\
135.95374849067588	3316397.8789020367\\
136.81813638304868	3371609.7265095836\\
137.68252427542149	3427470.432618175\\
138.5469121677943	3483984.096577848\\
139.4113000601671	3541154.817738636\\
140.2756879525399	3598986.6954505746\\
141.1400758449127	3657483.8290636973\\
142.0044637372855	3716650.317928042\\
142.8688516296583	3776642.537207162\\
143.7332395220311	3838273.846797678\\
144.59762741440392	3900606.9484692016\\
145.46201530677672	3963646.0626830487\\
146.32640319914915	4027395.4099005125\\
};

\addplot [
color=black,
densely dashed
]
table[row sep=crcr]{
65.36787710872356	1101786.0550506304\\
66.16042485705306	1102560.6317530854\\
66.95297260538256	1103828.1041799823\\
67.74552035371205	1105572.144756375\\
68.53806810204155	1107772.3774397594\\
69.33061585037105	1110404.2641486686\\
70.12316359870054	1113438.991191281\\
70.91571134703004	1117123.4696243796\\
71.70825909535954	1121244.7671027526\\
72.50080684368903	1125715.6660702862\\
73.29335459201853	1130612.642372353\\
74.08590234034803	1136169.165990098\\
74.87845008867752	1141995.1393315953\\
75.67099783700702	1148284.8429281614\\
76.46354558533652	1155158.434035497\\
77.25609333366602	1162192.4681094082\\
78.04864108199551	1170035.6757621847\\
78.84118883032501	1178039.2954052512\\
79.6337365786545	1186664.8974856194\\
80.426284326984	1195599.1368597266\\
81.2188320753135	1205067.3204811122\\
82.011379823643	1214878.8173603537\\
82.8039275719725	1225246.4457541388\\
83.59647532030199	1235866.8055249893\\
84.38902306863149	1247187.1454691587\\
85.18157081696098	1258532.3051306445\\
85.97411856529048	1270854.7543784303\\
86.76666631361998	1283194.2290871511\\
87.55921406194948	1296194.161250828\\
88.35176181027897	1309609.0445374942\\
89.14430955860847	1323128.9003006597\\
89.93685730693797	1337659.7606959445\\
90.72940505526746	1352264.1069043134\\
91.52195280359696	1367242.8937694025\\
92.31450055192646	1383026.6870703073\\
93.10704830025595	1398912.498374435\\
93.89959604858545	1415225.121184122\\
94.69214379691495	1432348.1968294522\\
95.48469154524444	1449601.8354090767\\
96.27723929357394	1467087.5964894365\\
97.06978704190344	1485630.152852388\\
97.86233479023294	1504331.7276073839\\
98.65488253856243	1523193.6190952607\\
99.44743028689193	1542827.958013858\\
100.23997803522143	1563050.7112786854\\
101.03252578355092	1583462.2392536525\\
101.82507353188042	1604064.0344866877\\
102.61762128020992	1625653.1830147512\\
103.41016902853941	1647679.8047013273\\
104.20271677686891	1669925.0292142015\\
104.99526452519841	1692390.5319512521\\
105.7878122735279	1715675.310533982\\
106.5803600218574	1739620.807370068\\
107.3729077701869	1763814.6706609945\\
108.1654555185164	1788258.7472974497\\
108.95800326684589	1812954.8841701231\\
109.75055101517539	1838880.1909766379\\
110.54309876350489	1865127.7439225514\\
111.33564651183438	1891655.2332049147\\
112.12819426016388	1918464.6658500873\\
112.92074200849338	1945558.0488844297\\
113.71328975682287	1973755.5679144827\\
114.50583750515237	2002460.1906549486\\
115.29838525348187	2031476.280111565\\
116.09093300181136	2060805.9920892238\\
116.88348075014086	2090451.4823928152\\
117.67602849847036	2120440.200361058\\
118.46857624679986	2151743.9631626587\\
119.26112399512935	2183390.513201107\\
120.05367174345885	2215382.1437026844\\
120.84621949178835	2247721.1478936747\\
121.63876724011784	2280409.81900036\\
122.43131498844734	2313450.4502490237\\
123.22386273677684	2347334.3519106456\\
124.01641048510633	2382114.552424271\\
124.80895823343583	2417273.3190604076\\
125.60150598176533	2452813.0711095906\\
126.39405373009483	2488736.2278623506\\
127.18660147842432	2525045.208609225\\
127.97914922675382	2561742.4326407476\\
128.7716969750833	2598830.319247452\\
129.5642447234128	2637320.018890126\\
130.3567924717423	2676233.9074269873\\
131.1493402200718	2715564.5832249178\\
131.9418879684013	2755314.580281563\\
132.7344357167308	2795486.43259457\\
133.52698346506028	2836082.6741615855\\
134.31953121338978	2877105.8389802547\\
135.11207896171928	2918558.461048224\\
135.90462671004877	2960741.5499687437\\
136.69717445837827	3004084.301132123\\
137.48972220670777	3047881.937150386\\
138.28226995503726	3092137.0953711537\\
139.07481770336676	3136852.4131420427\\
139.86736545169626	3182030.5278106728\\
140.65991320002576	3227674.0767246615\\
141.45246094835525	3273785.6972316266\\
142.24500869668475	3320368.026679187\\
143.03755644501425	3367423.7024149615\\
143.83010419334371	3414991.1791002564\\
};

\addplot [
color=black,
dashdotted
]
table[row sep=crcr]{
70.51572499185646	1188553.8569439673\\
71.23062591824181	1189266.9522747186\\
71.94552684462717	1190293.5892144272\\
72.66042777101252	1191604.7342473597\\
73.37532869739788	1193302.4903948335\\
74.09022962378323	1195491.3593705131\\
74.80513055016858	1197908.7426486076\\
75.52003147655394	1200622.5100900827\\
76.2349324029393	1203899.1870101793\\
76.94983332932465	1207328.567852848\\
77.66473425571	1211191.3088764208\\
78.37963518209536	1215434.2792581546\\
79.09453610848071	1219826.3476473326\\
79.80943703486606	1224863.2771623807\\
80.52433796125142	1229900.8417720215\\
81.23923888763677	1235635.9243770966\\
81.95413981402213	1241375.1623497668\\
82.66904074040748	1247760.4061948212\\
83.38394166679284	1254153.9022391944\\
84.09884259317819	1261232.157359444\\
84.81374351956354	1268221.7485340692\\
85.5286444459489	1276033.2890366504\\
86.24354537233425	1283772.3486019091\\
86.95844629871961	1292132.0157843381\\
87.67334722510496	1300663.415479435\\
88.38824815149032	1309482.0825230435\\
89.10314907787567	1318840.2910797792\\
89.81805000426102	1328168.6987600494\\
90.53295093064638	1338238.5430246135\\
91.24785185703173	1348446.476206575\\
91.96275278341709	1358777.951330217\\
92.67765370980244	1369893.2066630994\\
93.3925546361878	1381021.2942762068\\
94.10745556257315	1392408.7880840423\\
94.8223564889585	1404489.5091130773\\
95.53725741534386	1416604.3557506255\\
96.25215834172921	1428929.6251547833\\
96.96705926811457	1442038.226219733\\
97.68196019449992	1455202.2244674228\\
98.39686112088528	1468422.0283200277\\
99.11176204727063	1482515.5400240314\\
99.82666297365598	1496786.4836650083\\
100.54156390004134	1511134.5622389216\\
101.2564648264267	1525861.1047878915\\
101.97136575281205	1541291.8020077762\\
102.6862666791974	1556820.8056400365\\
103.40116760558276	1572448.804891341\\
104.11606853196811	1588613.999611284\\
104.83096945835347	1605371.1417806123\\
105.54587038473882	1622248.358381953\\
106.26077131112417	1639246.4682699167\\
106.97567223750953	1656634.7845992588\\
107.69057316389488	1674802.3144329665\\
108.40547409028024	1693111.6449082294\\
109.12037501666559	1711563.7173647308\\
109.83527594305095	1730159.4731421524\\
110.5501768694363	1749565.5152344687\\
111.26507779582165	1769383.9207800468\\
111.97997872220701	1789366.7820740764\\
112.69487964859236	1809515.1557784434\\
113.40978057497772	1829830.098555034\\
114.12468150136307	1850964.609865668\\
114.83958242774843	1872547.3729678383\\
115.55448335413378	1894317.2495250558\\
116.26938428051913	1916275.4043585372\\
116.98428520690449	1938423.002289502\\
117.69918613328984	1960918.0970508612\\
118.4140870596752	1984369.8744985214\\
119.12898798606055	2008031.318264474\\
119.8438889124459	2031903.6941664012\\
120.55878983883126	2055988.2680219845\\
121.27369076521661	2080286.305648906\\
121.98859169160197	2104808.3244739748\\
122.70349261798732	2130455.8804648817\\
123.41839354437268	2156336.8030022085\\
124.13329447075803	2182452.45173723\\
124.84819539714339	2208804.1863212227\\
125.56309632352874	2235393.3664054605\\
126.2779972499141	2262221.35164122\\
126.99289817629945	2289380.1018177513\\
127.7077991026848	2317609.6281411494\\
128.42270002907017	2346097.5211731014\\
129.13760095545553	2374845.2272356064\\
129.85250188184088	2403854.1926506627\\
130.56740280822623	2433125.8637402696\\
131.2823037346116	2462661.6868264265\\
131.99720466099694	2492463.1082311324\\
132.7121055873823	2522782.231513367\\
133.42700651376765	2554041.241668422\\
134.141907440153	2585585.0282200766\\
134.85680836653836	2617415.1169981854\\
135.5717092929237	2649533.033832601\\
136.28661021930907	2681940.3045531763\\
137.00151114569442	2714638.454989765\\
137.71641207207978	2747629.010972219\\
138.43131299846513	2780913.4983303915\\
139.14621392485049	2814780.8360167476\\
139.86111485123584	2849579.855189186\\
140.5760157776212	2884691.5365868737\\
141.29091670400675	2920117.4783846587\\
};

\addplot [
color=black,
dashed
]
table[row sep=crcr]{
76.27942542816477	1285701.952416786\\
76.91000178248115	1286335.5935404373\\
77.54057813679752	1287063.8849446978\\
78.1711544911139	1288150.2275942361\\
78.80173084543027	1289513.2220822237\\
79.43230719974665	1290966.959692696\\
80.06288355406302	1292950.0797843183\\
80.6934599083794	1294913.1524179603\\
81.32403626269577	1297390.8253737672\\
81.95461261701215	1299906.8699521997\\
82.58518897132852	1302843.8111622888\\
83.2157653256449	1305879.8923015213\\
83.84634167996127	1309309.038396101\\
84.47691803427765	1312825.178606869\\
85.10749438859402	1316777.8212014893\\
85.7380707429104	1320726.7656511497\\
86.36864709722677	1325232.450530371\\
86.99922345154314	1329623.650321462\\
87.62979980585952	1334645.8581058648\\
88.2603761601759	1339633.6987641759\\
88.89095251449227	1344981.2803678554\\
89.52152886880864	1350591.427168283\\
90.15210522312502	1356191.9224185632\\
90.7826815774414	1362447.967151941\\
91.41325793175777	1368636.4715984345\\
92.04383428607414	1375143.982124879\\
92.67441064039052	1382015.48047025\\
93.3049869947069	1388834.76170794\\
93.93556334902327	1396182.7996403095\\
94.56613970333964	1403719.672840594\\
95.19671605765602	1411219.705176296\\
95.8272924119724	1419325.5913725083\\
96.45786876628877	1427575.1268016943\\
97.08844512060514	1435803.2128671652\\
97.71902147492152	1444567.3964030675\\
98.3495978292379	1453574.0207294654\\
98.98017418355427	1462574.5646446638\\
99.61075053787064	1471879.9423038047\\
100.24132689218702	1481684.9946533074\\
100.8719032465034	1491499.275189649\\
101.50247960081977	1501322.8419635016\\
102.13305595513614	1511852.0160723932\\
102.76363230945252	1522517.9598160095\\
103.3942086637689	1533208.4930696117\\
104.02478501808527	1543993.2457719562\\
104.65536137240164	1555545.2002869523\\
105.28593772671802	1567136.9074170045\\
105.91651408103439	1578768.6066821786\\
106.54709043535077	1590468.4106312906\\
107.17766678966714	1602991.6553696\\
107.80824314398352	1615569.9618082494\\
108.43881949829989	1628203.6539009819\\
109.06939585261627	1640893.0556015398\\
109.69997220693264	1654178.765398436\\
110.33054856124902	1667800.0677323642\\
110.96112491556539	1681492.0897249954\\
111.59170126988177	1695255.2355630675\\
112.22227762419814	1709089.9094333188\\
112.85285397851452	1723762.3018871667\\
113.48343033283089	1738564.0978430726\\
114.11400668714727	1753452.3177588484\\
114.74458304146364	1768427.4418535486\\
115.37515939578002	1783489.9503462266\\
116.00573575009639	1799298.902198478\\
116.63631210441277	1815358.179449698\\
117.26688845872914	1831519.568294556\\
117.89746481304552	1847783.62078374\\
118.52804116736189	1864150.888967939\\
119.15861752167827	1880792.6464500616\\
119.78919387599464	1898180.314214851\\
120.41977023031102	1915685.7015294377\\
121.05034658462739	1933309.4280754668\\
121.68092293894377	1951052.1135345816\\
122.31149929326014	1968914.3775884241\\
122.94207564757652	1986946.8208652567\\
123.57265200189289	2005860.2646228713\\
124.20322835620927	2024907.5763105496\\
124.83380471052564	2044089.4390402092\\
125.46438106484202	2063406.535923768\\
126.09495741915839	2082859.5500731436\\
126.72553377347477	2102449.164600254\\
127.35611012779114	2122392.584080283\\
127.98668648210752	2143069.8563862937\\
128.6172628364239	2163897.8001053124\\
129.24783919074028	2184877.1575788525\\
129.87841554505667	2206008.671148425\\
130.50899189937306	2227293.0831555417\\
131.13956825368945	2248731.1359417136\\
131.77014460800584	2270323.5718484526\\
132.40072096232223	2292646.073779743\\
133.03129731663861	2315366.704372855\\
133.661873670955	2338255.5544390935\\
134.2924500252714	2361313.4213488842\\
134.92302637958778	2384541.1024726527\\
135.55360273390417	2407939.395180824\\
136.18417908822056	2431509.0968438233\\
136.81475544253695	2455251.0048320754\\
137.44533179685334	2479356.48899877\\
138.07590815116973	2504256.573026493\\
138.70648450548597	2529342.3852363825\\
};

\addplot [
color=black,
densely dashdotted
]
table[row sep=crcr]{
82.75992854189037	1394931.8720077064\\
83.29845682694415	1395466.4803855312\\
83.83698511199792	1395971.963453259\\
84.37551339705169	1396863.9443499565\\
84.91404168210546	1397742.2410475954\\
85.45256996715923	1398957.7896755466\\
85.991098252213	1400230.0932571893\\
86.52962653726678	1401730.7875534967\\
87.06815482232055	1403417.171259523\\
87.60668310737432	1405159.8474073838\\
88.1452113924281	1407279.2111164776\\
88.68373967748187	1409278.7366873317\\
89.22226796253564	1411785.8559477208\\
89.76079624758941	1414247.128530847\\
90.29932453264318	1416900.4781040938\\
90.83785281769696	1419839.821285165\\
91.37638110275073	1422680.8616990144\\
91.9149093878045	1426012.3919630495\\
92.45343767285827	1429357.4926226619\\
92.99196595791204	1432713.737807234\\
93.53049424296582	1436576.377042518\\
94.06902252801959	1440362.1983969752\\
94.60755081307336	1444278.08782907\\
95.14607909812713	1448604.328843566\\
95.6846073831809	1452864.2461138756\\
96.22313566823468	1457273.1338674983\\
96.76166395328845	1462094.6418044153\\
97.30019223834222	1466860.3221833257\\
97.83872052339599	1471684.97718881\\
98.37724880844976	1477031.6091356294\\
98.91577709350354	1482332.891754667\\
99.45430537855731	1487588.5767985282\\
99.99283366361108	1493384.8226552985\\
100.53136194866485	1499249.5985518047\\
101.06989023371862	1505079.2773806767\\
101.6084185187724	1511108.5726242282\\
102.14694680382617	1517562.664708398\\
102.68547508887994	1523992.1000427003\\
103.22400337393371	1530396.7486344373\\
103.76253165898748	1537208.2906030426\\
104.30105994404126	1544261.0369975907\\
104.83958822909503	1551299.4125651715\\
105.3781165141488	1558323.3431061863\\
105.91664479920257	1565803.338505501\\
106.45517308425634	1573496.56498158\\
106.99370136931012	1581185.7134933628\\
107.53222965436389	1588870.7634115175\\
108.07075793941766	1596885.645789141\\
108.60928622447143	1605258.543315403\\
109.1478145095252	1613637.636005819\\
109.68634279457898	1622022.9545784914\\
110.22487107963275	1630418.6018868755\\
110.76339936468652	1639507.5132375357\\
111.30192764974029	1648612.8464725886\\
111.84045593479406	1657734.6814347373\\
112.37898421984784	1666873.0979666861\\
112.91751250490161	1676173.8399570028\\
113.45604078995538	1686038.6218423357\\
113.99456907500915	1695930.1059945687\\
114.53309736006292	1705848.419158173\\
115.0716256451167	1715793.6880776207\\
115.61015393017047	1725810.4270294495\\
116.14868221522424	1736501.364846087\\
116.68721050027801	1747229.2749138076\\
117.22573878533179	1757994.3286560182\\
117.76426707038556	1768796.697496128\\
118.30279535543933	1779636.5528575457\\
118.8413236404931	1790870.7853903773\\
119.37985192554687	1802481.622736914\\
119.91838021060065	1814139.8724574163\\
120.45690849565442	1825845.748431395\\
120.99543678070819	1837599.464538361\\
121.53396506576196	1849401.234657827\\
122.07249335081573	1861607.9569038465\\
122.6110216358695	1874201.7175999605\\
123.14954992092328	1886853.3341761602\\
123.68807820597705	1899563.0607452274\\
124.22660649103082	1912331.1514199448\\
124.7651347760846	1925157.860313096\\
125.30366306113837	1938043.4415374633\\
125.84219134619214	1951678.0405659091\\
126.38071963124591	1965381.38680139\\
126.91924791629968	1979153.2879185504\\
127.45777620135345	1992994.0360406095\\
127.99630448640723	2006903.9232907887\\
128.534832771461	2020883.2417923089\\
129.07336105651478	2034932.283668391\\
129.61188934156857	2049659.762774312\\
130.15041762662236	2064546.9778503992\\
130.68894591167614	2079513.4417462328\\
131.22747419672993	2094559.4823726395\\
131.76600248178372	2109685.4276404455\\
132.3045307668375	2124891.6054604775\\
132.8430590518913	2140178.343743561\\
133.38158733694507	2155593.4026992973\\
133.92011562199886	2171732.936010331\\
134.45864390705265	2187962.360336168\\
134.99717219210643	2204282.0371524086\\
135.53570047716022	2220692.3279346516\\
136.07422876221423	2237193.5941585037\\
};

\addplot [
color=black,
densely dotted
]
table[row sep=crcr]{
60.75200185424198	2522787.0518530942\\
61.61638974661478	2539676.273097504\\
62.480777638987576	2551819.4657634627\\
63.34516553136037	2560305.2043967657\\
64.20955342373317	2566291.0244329483\\
65.07394131610597	2571003.4221972898\\
65.93832920847878	2575737.8549048095\\
66.80271710085158	2581858.740660267\\
67.66710499322438	2590799.458458167\\
68.53149288559719	2604062.3481827546\\
69.39588077796999	2623218.710608015\\
70.2602686703428	2649908.807397676\\
71.1246565627156	2679550.1477337442\\
71.9890444550884	2701819.376713121\\
72.85343234746121	2717475.3925408623\\
73.71782023983401	2727591.391045433\\
74.58220813220682	2733301.5313742645\\
75.44659602457962	2735800.9359937604\\
76.31098391695242	2736345.6906892965\\
77.17537180932523	2736252.8445652155\\
78.03975970169803	2736900.410044835\\
78.90414759407084	2739727.3628704394\\
79.76853548644364	2746233.6421032855\\
80.63292337881644	2757980.150123602\\
81.49731127118925	2776588.752630585\\
82.36169916356205	2803128.143350778\\
83.22608705593485	2826257.589623786\\
84.09047494830766	2841945.153644502\\
84.95486284068046	2851300.814711124\\
85.81925073305327	2855488.9028464505\\
86.68363862542607	2855728.0987978727\\
87.54802651779887	2853291.4340373804\\
88.41241441017168	2849506.29076156\\
89.27680230254448	2845754.401891595\\
90.14119019491729	2843471.851073263\\
91.00557808729009	2844149.0726769404\\
91.8699659796629	2849330.8517975984\\
92.7343538720357	2860616.3242548076\\
93.5987417644085	2879658.976592731\\
94.4631296567813	2903744.8473231886\\
95.32751754915411	2920647.7934439755\\
96.19190544152691	2930531.800273566\\
97.05629333389972	2934564.6517369514\\
97.92068122627252	2933962.3054779065\\
98.78506911864532	2929988.892858991\\
99.64945701101813	2923956.718961549\\
100.51384490339093	2917226.262585709\\
101.37823279576374	2911206.176250383\\
102.24262068813654	2907353.286193269\\
103.10700858050934	2907172.592370848\\
103.97139647288215	2912217.268458387\\
104.83578436525495	2924088.6618499346\\
105.70017225762776	2944330.383330985\\
106.56456015000056	2963316.129171795\\
107.42894804237336	2974718.8155327025\\
108.29333593474617	2979688.161420311\\
109.15772382711897	2979416.374131453\\
110.02211171949178	2975138.149253195\\
110.88649961186458	2968130.67066283\\
111.75088750423738	2959713.6105278833\\
112.61527539661019	2951249.129306109\\
113.47966328898299	2944141.875745493\\
114.3440511813558	2939838.9868842503\\
115.2084390737286	2939830.088050828\\
116.0728269661014	2945647.292863901\\
116.9372148584742	2958865.2032323754\\
117.80160275084701	2978500.2027863543\\
118.66599064321981	2992156.1238904526\\
119.53037853559262	2998934.2101046187\\
120.39476642796542	2999982.7905947324\\
121.25915432033823	2996487.3834773414\\
122.12354221271103	2989670.6958196554\\
122.98793010508383	2980792.623639551\\
123.85231799745664	2971150.2519055665\\
124.71670588982944	2962077.854536907\\
125.58109378220225	2954946.8944034404\\
126.44548167457505	2951166.0233257017\\
127.30986956694785	2952181.0820748876\\
128.17425745932064	2959475.100372862\\
129.03864535169345	2974568.296892151\\
129.90303324406625	2990748.314627616\\
130.76742113643905	2999470.12373238\\
131.63180902881186	3001850.5550018647\\
132.49619692118466	2999057.7923922813\\
133.36058481355747	2992293.6882055695\\
134.22497270593027	2982793.763089397\\
135.08936059830307	2971827.206037159\\
135.95374849067588	2960696.8743879814\\
136.81813638304868	2950739.293826717\\
137.68252427542149	2943324.6583839464\\
138.5469121677943	2939856.8304359815\\
139.4113000601671	2941773.3407048606\\
140.2756879525399	2950545.3882583496\\
141.1400758449127	2966372.2114979364\\
142.0044637372855	2977379.147427756\\
142.8688516296583	2981275.8934493028\\
143.7332395220311	2979241.6486141584\\
144.59762741440392	2972487.04439833\\
145.46201530677672	2962254.1447022418\\
146.32640319914915	2949816.4458507476\\
};

\addplot [
color=black,
dashdotdotted
]
table[row sep=crcr]{
65.36787710872356	2455787.311147843\\
66.16042485705306	2468716.372715052\\
66.95297260538256	2481541.218392121\\
67.74552035371205	2494375.938939229\\
68.53806810204155	2507339.4665381764\\
69.33061585037105	2520550.4556892146\\
70.12316359870054	2533848.4203913063\\
70.91571134703004	2547092.709367201\\
71.70825909535954	2560267.75615394\\
72.50080684368903	2573356.8658094597\\
73.29335459201853	2586342.2149125934\\
74.08590234034803	2599204.8515630728\\
74.87845008867752	2611924.695381527\\
75.67099783700702	2624480.53750948\\
76.46354558533652	2636850.040609353\\
77.25609333366602	2649009.7388644665\\
78.04864108199551	2660935.0379790366\\
78.84118883032501	2672600.2151781744\\
79.6337365786545	2683978.4192078933\\
80.426284326984	2695041.6703350977\\
81.2188320753135	2705792.3671291624\\
82.011379823643	2716339.0382591146\\
82.8039275719725	2726691.241186986\\
83.59647532030199	2736845.6646004887\\
84.38902306863149	2746798.7496441547\\
85.18157081696098	2756546.689919341\\
85.97411856529048	2766085.431484223\\
86.76666631361998	2775410.6728537977\\
87.55921406194948	2784517.8649998866\\
88.35176181027897	2793402.211351129\\
89.14430955860847	2802058.667792989\\
89.93685730693797	2810481.9426677492\\
90.72940505526746	2818666.4967745156\\
91.52195280359696	2826606.5433692145\\
92.31450055192646	2834296.1218709936\\
93.10704830025595	2841758.8730058237\\
93.89959604858545	2849015.5553083685\\
94.69214379691495	2856063.571810648\\
95.48469154524444	2862900.1698144865\\
96.27723929357394	2869522.44089151\\
97.06978704190344	2875927.320883153\\
97.86233479023294	2882111.5899006524\\
98.65488253856243	2888071.8723250483\\
99.44743028689193	2893804.636807187\\
100.23997803522143	2899306.1962677175\\
101.03252578355092	2904572.707897094\\
101.82507353188042	2909600.1731555765\\
102.61762128020992	2914384.437773224\\
103.41016902853941	2918921.1917499076\\
104.20271677686891	2923194.8707638388\\
104.99526452519841	2927144.2330701086\\
105.7878122735279	2930779.626483591\\
106.5803600218574	2934124.3631160012\\
107.3729077701869	2937202.473852099\\
108.1654555185164	2940038.708349685\\
108.95800326684589	2942658.535039608\\
109.75055101517539	2945088.141125758\\
110.54309876350489	2947354.4325850694\\
111.33564651183438	2949485.0341675226\\
112.12819426016388	2951508.289396139\\
112.92074200849338	2953453.260566985\\
113.71328975682287	2955349.7287491728\\
114.50583750515237	2957228.193784855\\
115.29838525348187	2959119.8742892332\\
116.09093300181136	2961010.452020575\\
116.88348075014086	2962852.4970029416\\
117.67602849847036	2964641.839927338\\
118.46857624679986	2966374.222569133\\
119.26112399512935	2968045.1665349337\\
120.05367174345885	2969649.9732625755\\
120.84621949178835	2971183.7240211265\\
121.63876724011784	2972641.279910892\\
122.43131498844734	2974017.281863404\\
123.22386273677684	2975306.1506414306\\
124.01641048510633	2976502.0868389714\\
124.80895823343583	2977599.0708812596\\
125.60150598176533	2978590.863024761\\
126.39405373009483	2979471.0033571715\\
127.18660147842432	2980238.3294559433\\
127.97914922675382	2980939.8237524144\\
128.7716969750833	2981584.896545911\\
129.5642447234128	2982169.868404172\\
130.3567924717423	2982690.8953666454\\
131.1493402200718	2983143.9689444876\\
131.9418879684013	2983524.916120564\\
132.7344357167308	2983829.3993494445\\
133.52698346506028	2984052.91655741\\
134.31953121338978	2984190.80114245\\
135.11207896171928	2984238.221974259\\
135.90462671004877	2984190.1833942425\\
136.69717445837827	2984041.5252155126\\
137.48972220670777	2983786.9227228896\\
138.28226995503726	2983420.8866729024\\
139.07481770336676	2982973.685541457\\
139.86736545169626	2982500.66224646\\
140.65991320002576	2981990.9545828938\\
141.45246094835525	2981432.029215255\\
142.24500869668475	2980811.0107989917\\
143.03755644501425	2980114.681980498\\
143.83010419334371	2979329.4833971215\\
};

\addplot [
color=black,
densely dashdotdetted
]
table[row sep=crcr]{
70.51572499185646	2259257.138336003\\
71.23062591824181	2269657.889695714\\
71.94552684462717	2279871.1785749607\\
72.66042777101252	2289905.5075926995\\
73.37532869739788	2299769.6394631974\\
74.09022962378323	2309472.5969960284\\
74.80513055016858	2319023.663096075\\
75.52003147655394	2328432.3807635265\\
76.2349324029393	2337708.5530938813\\
76.94983332932465	2346862.243277945\\
77.66473425571	2355903.7746018316\\
78.37963518209536	2364843.730446962\\
79.09453610848071	2373692.954290066\\
79.80943703486606	2382457.61870218\\
80.52433796125142	2391128.868797406\\
81.23923888763677	2399705.532578293\\
81.95413981402213	2408187.076909112\\
82.66904074040748	2416572.8299491424\\
83.38394166679284	2424861.9811526733\\
84.09884259317819	2433053.5812690016\\
84.81374351956354	2441146.542342435\\
85.5286444459489	2449139.637712289\\
86.24354537233425	2457031.5020128894\\
86.95844629871961	2464820.631173571\\
87.67334722510496	2472505.382418677\\
88.38824815149032	2480083.974267561\\
89.10314907787567	2487554.4865345852\\
89.81805000426102	2494914.860329121\\
90.53295093064638	2502162.8980555497\\
91.24785185703173	2509311.416549488\\
91.96275278341709	2516385.778700672\\
92.67765370980244	2523385.760162987\\
93.3925546361878	2530310.522867405\\
94.10745556257315	2537159.1171394777\\
94.8223564889585	2543930.481699337\\
95.53725741534386	2550623.443661692\\
96.25215834172921	2557236.718535832\\
96.96705926811457	2563768.9102256265\\
97.68196019449992	2570218.511029522\\
98.39686112088528	2576583.9016405446\\
99.11176204727063	2582863.3511463013\\
99.82666297365598	2589055.0170289753\\
100.54156390004134	2595156.945165331\\
101.2564648264267	2601167.0698267114\\
101.97136575281205	2607083.21367904\\
102.6862666791974	2612914.415797725\\
103.40116760558276	2618672.7352405563\\
104.11606853196811	2624360.186821372\\
104.83096945835347	2629978.783311347\\
105.54587038473882	2635530.5356062544\\
106.26077131112417	2641017.4527264605\\
106.97567223750953	2646441.541816931\\
107.69057316389488	2651804.808147228\\
108.40547409028024	2657109.255111507\\
109.12037501666559	2662356.884228523\\
109.83527594305095	2667549.6951416284\\
110.5501768694363	2672689.685618767\\
111.26507779582165	2677778.851552486\\
111.97997872220701	2682819.1869599237\\
112.69487964859236	2687812.683982818\\
113.40978057497772	2692761.520963444\\
114.12468150136307	2697677.939857149\\
114.83958242774843	2702567.7082462953\\
115.55448335413378	2707429.8397521246\\
116.26938428051913	2712263.266085604\\
116.98428520690449	2717066.8370474307\\
117.69918613328984	2721839.320528028\\
118.4140870596752	2726579.402507545\\
119.12898798606055	2731285.6870558592\\
119.8438889124459	2735956.6963325767\\
120.55878983883126	2740590.8705870295\\
121.27369076521661	2745186.568158275\\
121.98859169160197	2749742.0654751016\\
122.70349261798732	2754255.5570560205\\
123.41839354437268	2758725.155509275\\
124.13329447075803	2763148.891532832\\
124.84819539714339	2767526.3928107433\\
125.56309632352874	2771882.5173719474\\
126.2779972499141	2776224.956791205\\
126.99289817629945	2780552.060138317\\
127.7077991026848	2784862.094498405\\
128.42270002907017	2789153.244971901\\
129.13760095545553	2793423.6146745584\\
129.85250188184088	2797671.224737439\\
130.56740280822623	2801894.014306924\\
131.2823037346116	2806089.8405447104\\
131.99720466099694	2810256.478627808\\
132.7121055873823	2814391.6217485457\\
133.42700651376765	2818492.8811145634\\
134.141907440153	2822557.7859488204\\
134.85680836653836	2826583.783489588\\
135.5717092929237	2830568.2389904563\\
136.28661021930907	2834511.098294728\\
137.00151114569442	2838430.467301309\\
137.71641207207978	2842330.6644901303\\
138.43131299846513	2846212.1451164884\\
139.14621392485049	2850075.3432465172\\
139.86111485123584	2853920.671757188\\
140.5760157776212	2857748.52233631\\
141.29091670400675	2861559.2654825314\\
};

\addplot [
color=black,
loosely dashed
]
table[row sep=crcr]{
76.27942542816477	2059556.6162216363\\
76.91000178248115	2066698.8166351616\\
77.54057813679752	2073878.3188593078\\
78.1711544911139	2081110.749578524\\
78.80173084543027	2088357.0886202895\\
79.43230719974665	2095605.153650894\\
80.06288355406302	2102850.4629923827\\
80.6934599083794	2110088.277913158\\
81.32403626269577	2117313.6026279856\\
81.95461261701215	2124521.1842979896\\
82.58518897132852	2131705.5130306548\\
83.2157653256449	2138860.821879824\\
83.84634167996127	2145981.086845703\\
84.47691803427765	2153060.0268748556\\
85.10749438859402	2160091.1038602055\\
85.7380707429104	2167067.5226410367\\
86.36864709722677	2173982.231002995\\
86.99922345154314	2180827.919678082\\
87.62979980585952	2187597.0223446647\\
88.2603761601759	2194281.715627466\\
88.89095251449227	2200873.9190975693\\
89.52152886880864	2207397.730087259\\
90.15210522312502	2213903.8214489347\\
90.7826815774414	2220389.4340949226\\
91.41325793175777	2226850.643980743\\
92.04383428607414	2233283.3578311983\\
92.67441064039052	2239683.3131403686\\
93.3049869947069	2246046.0781716118\\
93.93556334902327	2252367.051957566\\
94.56613970333964	2258641.4643001477\\
95.19671605765602	2264864.37577055\\
95.8272924119724	2271030.677709249\\
96.45786876628877	2277135.092225995\\
97.08844512060514	2283172.1721998197\\
97.71902147492152	2289136.301279033\\
98.3495978292379	2295021.6938812234\\
98.98017418355427	2300822.3951932574\\
99.61075053787064	2306532.281171282\\
100.24132689218702	2312145.9510146445\\
100.8719032465034	2317685.7199951345\\
101.50247960081977	2323164.3348955577\\
102.13305595513614	2328582.6716212705\\
102.76363230945252	2333941.60403712\\
103.3942086637689	2339242.0039674453\\
104.02478501808527	2344484.7411960773\\
104.65536137240164	2349670.6834663376\\
105.28593772671802	2354800.696481041\\
105.91651408103439	2359875.643902493\\
106.54709043535077	2364896.387352491\\
107.17766678966714	2369863.7864123234\\
107.80824314398352	2374778.69862277\\
108.43881949829989	2379641.9794841055\\
109.06939585261627	2384454.4824560904\\
109.69997220693264	2389217.058957982\\
110.33054856124902	2393930.5583685264\\
110.96112491556539	2398595.8280259627\\
111.59170126988177	2403213.4397807913\\
112.22227762419814	2407783.1711726594\\
112.85285397851452	2412306.1564410096\\
113.48343033283089	2416783.7079344853\\
114.11400668714727	2421217.146861066\\
114.74458304146364	2425607.803288067\\
115.37515939578002	2429957.0161421387\\
116.00573575009639	2434266.1332092686\\
116.63631210441277	2438536.5111347786\\
117.26688845872914	2442769.5154233286\\
117.89746481304552	2446966.520438912\\
118.52804116736189	2451128.9094048585\\
119.15861752167827	2455258.074403835\\
119.78919387599464	2459355.416377844\\
120.41977023031102	2463422.3451282224\\
121.05034658462739	2467460.2793156444\\
121.68092293894377	2471470.6464601196\\
122.31149929326014	2475454.882940994\\
122.94207564757652	2479416.0660710013\\
123.57265200189289	2483356.8233739105\\
124.20322835620927	2487277.0660184915\\
124.83380471052564	2491176.6710916003\\
125.46438106484202	2495055.4919455093\\
126.09495741915839	2498913.3581979065\\
126.72553377347477	2502750.0757318987\\
127.35611012779114	2506565.4266960067\\
127.98668648210752	2510359.1695041684\\
128.6172628364239	2514131.0388357397\\
129.24783919074028	2517880.7456354904\\
129.87841554505667	2521607.977113609\\
130.50899189937306	2525312.396745699\\
131.13956825368945	2528993.644272781\\
131.77014460800584	2532651.3357012914\\
132.40072096232223	2536285.0633030855\\
133.03129731663861	2539894.39561543\\
133.661873670955	2543480.067253118\\
134.2924500252714	2547060.953238304\\
134.92302637958778	2550641.853510846\\
135.55360273390417	2554220.2561705206\\
136.18417908822056	2557793.5819476084\\
136.81475544253695	2561359.1842028936\\
137.44533179685334	2564914.3489276655\\
138.07590815116973	2568456.2947437176\\
138.70648450548597	2571982.1729033478\\
};

\addplot [
color=black,
loosely dashdotted
]
table[row sep=crcr]{
82.75992854189037	1820813.6942118432\\
83.29845682694415	1825296.7599380142\\
83.83698511199792	1829740.302510769\\
84.37551339705169	1834148.742752801\\
84.91404168210546	1838526.5869429784\\
85.45256996715923	1842878.4268163487\\
85.991098252213	1847208.9395641352\\
86.52962653726678	1851522.887833742\\
87.06815482232055	1855825.119728748\\
87.60668310737432	1860115.2729564765\\
88.1452113924281	1864373.332197682\\
88.68373967748187	1868598.6874606516\\
89.22226796253564	1872793.5652911186\\
89.76079624758941	1876960.2218074729\\
90.29932453264318	1881100.942700766\\
90.83785281769696	1885218.043234713\\
91.37638110275073	1889313.868245686\\
91.9149093878045	1893390.7921427204\\
92.45343767285827	1897451.2189075092\\
92.99196595791204	1901497.5820944093\\
93.53049424296582	1905532.344830436\\
94.06902252801959	1909557.999815267\\
94.60755081307336	1913577.0693212384\\
95.14607909812713	1917592.1051933484\\
95.6846073831809	1921605.6888492554\\
96.22313566823468	1925620.4312792788\\
96.76166395328845	1929638.9730463983\\
97.30019223834222	1933663.9842862543\\
97.83872052339599	1937698.164707148\\
98.37724880844976	1941745.815786392\\
98.91577709350354	1945830.7200822425\\
99.45430537855731	1949956.678669047\\
99.99283366361108	1954119.1682985686\\
100.53136194866485	1958313.5289753776\\
101.06989023371862	1962534.963956853\\
101.6084185187724	1966778.53975318\\
102.14694680382617	1971039.186127352\\
102.68547508887994	1975311.6960951705\\
103.22400337393371	1979590.7259252437\\
103.76253165898748	1983870.7951389884\\
104.30105994404126	1988146.286510628\\
104.83958822909503	1992411.4460671942\\
105.3781165141488	1996660.3830885265\\
105.91664479920257	2000887.0701072707\\
106.45517308425634	2005085.3429088818\\
106.99370136931012	2009248.9005316214\\
107.53222965436389	2013371.305266559\\
108.07075793941766	2017445.9826575723\\
108.60928622447143	2021466.2215013455\\
109.1478145095252	2025425.233910229\\
109.68634279457898	2029344.4275766702\\
110.22487107963275	2033245.2941691787\\
110.76339936468652	2037128.054993965\\
111.30192764974029	2040992.923883639\\
111.84045593479406	2044840.1071972093\\
112.37898421984784	2048669.8038200808\\
112.91751250490161	2052482.205164058\\
113.45604078995538	2056277.4951673432\\
113.99456907500915	2060055.8502945371\\
114.53309736006292	2063817.4395366379\\
115.0716256451167	2067562.4244110424\\
115.61015393017047	2071290.9589615462\\
116.14868221522424	2075003.1897583413\\
116.68721050027801	2078699.2558980188\\
117.22573878533179	2082379.2890035692\\
117.76426707038556	2086043.4132243802\\
118.30279535543933	2089691.745236237\\
118.8413236404931	2093324.3942413232\\
119.37985192554687	2096941.4619682205\\
119.91838021060065	2100543.0426719114\\
120.45690849565442	2104131.7800411955\\
120.99543678070819	2107713.1196933524\\
121.53396506576196	2111287.0246539195\\
122.07249335081573	2114853.2524369447\\
122.6110216358695	2118411.5458569964\\
123.14954992092328	2121961.633029162\\
123.68807820597705	2125503.2273690486\\
124.22660649103082	2129036.0275927833\\
124.7651347760846	2132559.717717013\\
125.30366306113837	2136073.9670589026\\
125.84219134619214	2139578.4302361384\\
126.38071963124591	2143072.7471669265\\
126.91924791629968	2146556.5430699913\\
127.45777620135345	2150029.4284645785\\
127.99630448640723	2153490.999170451\\
128.534832771461	2156940.8363078935\\
129.07336105651478	2160378.5062977104\\
129.61188934156857	2163803.560861224\\
130.15041762662236	2167215.537020278\\
130.68894591167614	2170613.9570972347\\
131.22747419672993	2173999.5791807924\\
131.76600248178372	2177378.953344807\\
132.3045307668375	2180753.1419554227\\
132.8430590518913	2184122.1856886693\\
133.38158733694507	2187486.117936689\\
133.92011562199886	2190844.964807736\\
134.45864390705265	2194198.745126175\\
134.99717219210643	2197547.470432483\\
135.53570047716022	2200891.1449832493\\
136.07422876221423	2204229.765751174\\
};
\end{axis}
\end{tikzpicture}%
