%Power_Needed_and_Power_Available_curves_CONTINOUS_OEI
\begin{tikzpicture}

\begin{axis}[
width=\figurewidth,
height=\figureheight,
scaled ticks=false, tick label style={/pgf/number format/fixed},
xmin=60.75200185424198,
xmax=146.32640319914915,
xlabel={Speed ((m/s))},
xmajorgrids,
ymin=1023984.7371528161,
ymax=4027395.4099005125,
ylabel={Power ((W))},
ymajorgrids,
legend style={at={(1.03,0.5)},anchor=west,draw=black,fill=white,legend cell align=left}
]

\addplot [
color=black,
solid
]
table[row sep=crcr]{
60.75200185424198	1023984.7371528161\\
61.61638974661478	1024804.111567524\\
62.480777638987576	1026301.6296329626\\
63.34516553136037	1028400.193202734\\
64.20955342373317	1031084.0600993632\\
65.07394131610597	1034420.4826307135\\
65.93832920847878	1038373.7933551102\\
66.80271710085158	1042914.602693634\\
67.66710499322438	1048017.3445335039\\
68.53149288559719	1053650.767361882\\
69.39588077796999	1059777.763686603\\
70.2602686703428	1066672.921333111\\
71.1246565627156	1074125.7494620967\\
71.9890444550884	1082000.0432778357\\
72.85343234746121	1090507.6850879465\\
73.71782023983401	1099695.3639476476\\
74.58220813220682	1109195.103854624\\
75.44659602457962	1119531.634438043\\
76.31098391695242	1130280.577419505\\
77.17537180932523	1141578.9332913328\\
78.03975970169803	1153545.9178408359\\
78.90414759407084	1165885.57998623\\
79.76853548644364	1179020.576845272\\
80.63292337881644	1192476.7703036563\\
81.49731127118925	1206709.9272177392\\
82.36169916356205	1221353.2116925446\\
83.22608705593485	1236593.898167237\\
84.09047494830766	1252489.7586356432\\
84.95486284068046	1268625.6106926436\\
85.81925073305327	1285834.0480153197\\
86.68363862542607	1303173.092101058\\
87.54802651779887	1321305.1344793641\\
88.41241441017168	1340046.4925026763\\
89.27680230254448	1358955.7283211444\\
90.14119019491729	1378983.1436517972\\
91.00557808729009	1399377.519197092\\
91.8699659796629	1419977.202493854\\
92.7343538720357	1441753.495732755\\
93.5987417644085	1463913.465644808\\
94.4631296567813	1486316.1786675127\\
95.32751754915411	1509646.4137111774\\
96.19190544152691	1533676.1137301154\\
97.05629333389972	1557985.8441004122\\
97.92068122627252	1582623.8804017238\\
98.78506911864532	1608618.0840349372\\
99.64945701101813	1634929.303620394\\
100.51384490339093	1661560.3131071667\\
101.37823279576374	1688618.230198421\\
102.24262068813654	1717014.9739844438\\
103.10700858050934	1745768.2786282732\\
103.97139647288215	1774881.1585957592\\
104.83578436525495	1804356.62835275\\
105.70017225762776	1834979.6292738747\\
106.56456015000056	1866323.2243080297\\
107.42894804237336	1898066.0012654355\\
108.29333593474617	1930211.198070792\\
109.15772382711897	1962762.0526487979\\
110.02211171949178	1996588.3814699647\\
110.88649961186458	2031094.879510433\\
111.75088750423738	2066043.2268814943\\
112.61527539661019	2101436.86790877\\
113.47966328898299	2137279.246917881\\
114.3440511813558	2173799.332346408\\
115.2084390737286	2211668.2091282834\\
116.0728269661014	2250021.3931210805\\
116.9372148584742	2288862.517993412\\
117.80160275084701	2328195.2174138958\\
118.66599064321981	2368023.1250511464\\
119.53037853559262	2408349.874573779\\
120.39476642796542	2450090.07792907\\
121.25915432033823	2492558.079819566\\
122.12354221271103	2535559.9933127486\\
122.98793010508383	2579099.6243623\\
123.85231799745664	2623180.7789219045\\
124.71670588982944	2667807.2629452436\\
125.58109378220225	2712982.8823860004\\
126.44548167457505	2759165.3043030417\\
127.30986956694785	2806572.3189795422\\
128.17425745932064	2854562.749294215\\
129.03864535169345	2903140.556427886\\
129.90303324406625	2952309.701561375\\
130.76742113643905	3002074.1458755066\\
131.63180902881186	3052437.850551103\\
132.49619692118466	3103404.776768985\\
133.36058481355747	3154978.8857099777\\
134.22497270593027	3207904.361789941\\
135.08936059830307	3261830.7904455015\\
135.95374849067588	3316397.8789020367\\
136.81813638304868	3371609.7265095836\\
137.68252427542149	3427470.432618175\\
138.5469121677943	3483984.096577848\\
139.4113000601671	3541154.817738636\\
140.2756879525399	3598986.6954505746\\
141.1400758449127	3657483.8290636973\\
142.0044637372855	3716650.317928042\\
142.8688516296583	3776642.537207162\\
143.7332395220311	3838273.846797678\\
144.59762741440392	3900606.9484692016\\
145.46201530677672	3963646.0626830487\\
146.32640319914915	4027395.4099005125\\
};

\addplot [
color=black,
densely dashed
]
table[row sep=crcr]{
65.36787710872356	1101786.0550506304\\
66.16042485705306	1102560.6317530854\\
66.95297260538256	1103828.1041799823\\
67.74552035371205	1105572.144756375\\
68.53806810204155	1107772.3774397594\\
69.33061585037105	1110404.2641486686\\
70.12316359870054	1113438.991191281\\
70.91571134703004	1117123.4696243796\\
71.70825909535954	1121244.7671027526\\
72.50080684368903	1125715.6660702862\\
73.29335459201853	1130612.642372353\\
74.08590234034803	1136169.165990098\\
74.87845008867752	1141995.1393315953\\
75.67099783700702	1148284.8429281614\\
76.46354558533652	1155158.434035497\\
77.25609333366602	1162192.4681094082\\
78.04864108199551	1170035.6757621847\\
78.84118883032501	1178039.2954052512\\
79.6337365786545	1186664.8974856194\\
80.426284326984	1195599.1368597266\\
81.2188320753135	1205067.3204811122\\
82.011379823643	1214878.8173603537\\
82.8039275719725	1225246.4457541388\\
83.59647532030199	1235866.8055249893\\
84.38902306863149	1247187.1454691587\\
85.18157081696098	1258532.3051306445\\
85.97411856529048	1270854.7543784303\\
86.76666631361998	1283194.2290871511\\
87.55921406194948	1296194.161250828\\
88.35176181027897	1309609.0445374942\\
89.14430955860847	1323128.9003006597\\
89.93685730693797	1337659.7606959445\\
90.72940505526746	1352264.1069043134\\
91.52195280359696	1367242.8937694025\\
92.31450055192646	1383026.6870703073\\
93.10704830025595	1398912.498374435\\
93.89959604858545	1415225.121184122\\
94.69214379691495	1432348.1968294522\\
95.48469154524444	1449601.8354090767\\
96.27723929357394	1467087.5964894365\\
97.06978704190344	1485630.152852388\\
97.86233479023294	1504331.7276073839\\
98.65488253856243	1523193.6190952607\\
99.44743028689193	1542827.958013858\\
100.23997803522143	1563050.7112786854\\
101.03252578355092	1583462.2392536525\\
101.82507353188042	1604064.0344866877\\
102.61762128020992	1625653.1830147512\\
103.41016902853941	1647679.8047013273\\
104.20271677686891	1669925.0292142015\\
104.99526452519841	1692390.5319512521\\
105.7878122735279	1715675.310533982\\
106.5803600218574	1739620.807370068\\
107.3729077701869	1763814.6706609945\\
108.1654555185164	1788258.7472974497\\
108.95800326684589	1812954.8841701231\\
109.75055101517539	1838880.1909766379\\
110.54309876350489	1865127.7439225514\\
111.33564651183438	1891655.2332049147\\
112.12819426016388	1918464.6658500873\\
112.92074200849338	1945558.0488844297\\
113.71328975682287	1973755.5679144827\\
114.50583750515237	2002460.1906549486\\
115.29838525348187	2031476.280111565\\
116.09093300181136	2060805.9920892238\\
116.88348075014086	2090451.4823928152\\
117.67602849847036	2120440.200361058\\
118.46857624679986	2151743.9631626587\\
119.26112399512935	2183390.513201107\\
120.05367174345885	2215382.1437026844\\
120.84621949178835	2247721.1478936747\\
121.63876724011784	2280409.81900036\\
122.43131498844734	2313450.4502490237\\
123.22386273677684	2347334.3519106456\\
124.01641048510633	2382114.552424271\\
124.80895823343583	2417273.3190604076\\
125.60150598176533	2452813.0711095906\\
126.39405373009483	2488736.2278623506\\
127.18660147842432	2525045.208609225\\
127.97914922675382	2561742.4326407476\\
128.7716969750833	2598830.319247452\\
129.5642447234128	2637320.018890126\\
130.3567924717423	2676233.9074269873\\
131.1493402200718	2715564.5832249178\\
131.9418879684013	2755314.580281563\\
132.7344357167308	2795486.43259457\\
133.52698346506028	2836082.6741615855\\
134.31953121338978	2877105.8389802547\\
135.11207896171928	2918558.461048224\\
135.90462671004877	2960741.5499687437\\
136.69717445837827	3004084.301132123\\
137.48972220670777	3047881.937150386\\
138.28226995503726	3092137.0953711537\\
139.07481770336676	3136852.4131420427\\
139.86736545169626	3182030.5278106728\\
140.65991320002576	3227674.0767246615\\
141.45246094835525	3273785.6972316266\\
142.24500869668475	3320368.026679187\\
143.03755644501425	3367423.7024149615\\
143.83010419334371	3414991.1791002564\\
};

\addplot [
color=black,
dashdotted
]
table[row sep=crcr]{
70.51572499185646	1188553.8569439673\\
71.23062591824181	1189266.9522747186\\
71.94552684462717	1190293.5892144272\\
72.66042777101252	1191604.7342473597\\
73.37532869739788	1193302.4903948335\\
74.09022962378323	1195491.3593705131\\
74.80513055016858	1197908.7426486076\\
75.52003147655394	1200622.5100900827\\
76.2349324029393	1203899.1870101793\\
76.94983332932465	1207328.567852848\\
77.66473425571	1211191.3088764208\\
78.37963518209536	1215434.2792581546\\
79.09453610848071	1219826.3476473326\\
79.80943703486606	1224863.2771623807\\
80.52433796125142	1229900.8417720215\\
81.23923888763677	1235635.9243770966\\
81.95413981402213	1241375.1623497668\\
82.66904074040748	1247760.4061948212\\
83.38394166679284	1254153.9022391944\\
84.09884259317819	1261232.157359444\\
84.81374351956354	1268221.7485340692\\
85.5286444459489	1276033.2890366504\\
86.24354537233425	1283772.3486019091\\
86.95844629871961	1292132.0157843381\\
87.67334722510496	1300663.415479435\\
88.38824815149032	1309482.0825230435\\
89.10314907787567	1318840.2910797792\\
89.81805000426102	1328168.6987600494\\
90.53295093064638	1338238.5430246135\\
91.24785185703173	1348446.476206575\\
91.96275278341709	1358777.951330217\\
92.67765370980244	1369893.2066630994\\
93.3925546361878	1381021.2942762068\\
94.10745556257315	1392408.7880840423\\
94.8223564889585	1404489.5091130773\\
95.53725741534386	1416604.3557506255\\
96.25215834172921	1428929.6251547833\\
96.96705926811457	1442038.226219733\\
97.68196019449992	1455202.2244674228\\
98.39686112088528	1468422.0283200277\\
99.11176204727063	1482515.5400240314\\
99.82666297365598	1496786.4836650083\\
100.54156390004134	1511134.5622389216\\
101.2564648264267	1525861.1047878915\\
101.97136575281205	1541291.8020077762\\
102.6862666791974	1556820.8056400365\\
103.40116760558276	1572448.804891341\\
104.11606853196811	1588613.999611284\\
104.83096945835347	1605371.1417806123\\
105.54587038473882	1622248.358381953\\
106.26077131112417	1639246.4682699167\\
106.97567223750953	1656634.7845992588\\
107.69057316389488	1674802.3144329665\\
108.40547409028024	1693111.6449082294\\
109.12037501666559	1711563.7173647308\\
109.83527594305095	1730159.4731421524\\
110.5501768694363	1749565.5152344687\\
111.26507779582165	1769383.9207800468\\
111.97997872220701	1789366.7820740764\\
112.69487964859236	1809515.1557784434\\
113.40978057497772	1829830.098555034\\
114.12468150136307	1850964.609865668\\
114.83958242774843	1872547.3729678383\\
115.55448335413378	1894317.2495250558\\
116.26938428051913	1916275.4043585372\\
116.98428520690449	1938423.002289502\\
117.69918613328984	1960918.0970508612\\
118.4140870596752	1984369.8744985214\\
119.12898798606055	2008031.318264474\\
119.8438889124459	2031903.6941664012\\
120.55878983883126	2055988.2680219845\\
121.27369076521661	2080286.305648906\\
121.98859169160197	2104808.3244739748\\
122.70349261798732	2130455.8804648817\\
123.41839354437268	2156336.8030022085\\
124.13329447075803	2182452.45173723\\
124.84819539714339	2208804.1863212227\\
125.56309632352874	2235393.3664054605\\
126.2779972499141	2262221.35164122\\
126.99289817629945	2289380.1018177513\\
127.7077991026848	2317609.6281411494\\
128.42270002907017	2346097.5211731014\\
129.13760095545553	2374845.2272356064\\
129.85250188184088	2403854.1926506627\\
130.56740280822623	2433125.8637402696\\
131.2823037346116	2462661.6868264265\\
131.99720466099694	2492463.1082311324\\
132.7121055873823	2522782.231513367\\
133.42700651376765	2554041.241668422\\
134.141907440153	2585585.0282200766\\
134.85680836653836	2617415.1169981854\\
135.5717092929237	2649533.033832601\\
136.28661021930907	2681940.3045531763\\
137.00151114569442	2714638.454989765\\
137.71641207207978	2747629.010972219\\
138.43131299846513	2780913.4983303915\\
139.14621392485049	2814780.8360167476\\
139.86111485123584	2849579.855189186\\
140.5760157776212	2884691.5365868737\\
141.29091670400675	2920117.4783846587\\
};

\addplot [
color=black,
dashed
]
table[row sep=crcr]{
76.27942542816477	1285701.952416786\\
76.91000178248115	1286335.5935404373\\
77.54057813679752	1287063.8849446978\\
78.1711544911139	1288150.2275942361\\
78.80173084543027	1289513.2220822237\\
79.43230719974665	1290966.959692696\\
80.06288355406302	1292950.0797843183\\
80.6934599083794	1294913.1524179603\\
81.32403626269577	1297390.8253737672\\
81.95461261701215	1299906.8699521997\\
82.58518897132852	1302843.8111622888\\
83.2157653256449	1305879.8923015213\\
83.84634167996127	1309309.038396101\\
84.47691803427765	1312825.178606869\\
85.10749438859402	1316777.8212014893\\
85.7380707429104	1320726.7656511497\\
86.36864709722677	1325232.450530371\\
86.99922345154314	1329623.650321462\\
87.62979980585952	1334645.8581058648\\
88.2603761601759	1339633.6987641759\\
88.89095251449227	1344981.2803678554\\
89.52152886880864	1350591.427168283\\
90.15210522312502	1356191.9224185632\\
90.7826815774414	1362447.967151941\\
91.41325793175777	1368636.4715984345\\
92.04383428607414	1375143.982124879\\
92.67441064039052	1382015.48047025\\
93.3049869947069	1388834.76170794\\
93.93556334902327	1396182.7996403095\\
94.56613970333964	1403719.672840594\\
95.19671605765602	1411219.705176296\\
95.8272924119724	1419325.5913725083\\
96.45786876628877	1427575.1268016943\\
97.08844512060514	1435803.2128671652\\
97.71902147492152	1444567.3964030675\\
98.3495978292379	1453574.0207294654\\
98.98017418355427	1462574.5646446638\\
99.61075053787064	1471879.9423038047\\
100.24132689218702	1481684.9946533074\\
100.8719032465034	1491499.275189649\\
101.50247960081977	1501322.8419635016\\
102.13305595513614	1511852.0160723932\\
102.76363230945252	1522517.9598160095\\
103.3942086637689	1533208.4930696117\\
104.02478501808527	1543993.2457719562\\
104.65536137240164	1555545.2002869523\\
105.28593772671802	1567136.9074170045\\
105.91651408103439	1578768.6066821786\\
106.54709043535077	1590468.4106312906\\
107.17766678966714	1602991.6553696\\
107.80824314398352	1615569.9618082494\\
108.43881949829989	1628203.6539009819\\
109.06939585261627	1640893.0556015398\\
109.69997220693264	1654178.765398436\\
110.33054856124902	1667800.0677323642\\
110.96112491556539	1681492.0897249954\\
111.59170126988177	1695255.2355630675\\
112.22227762419814	1709089.9094333188\\
112.85285397851452	1723762.3018871667\\
113.48343033283089	1738564.0978430726\\
114.11400668714727	1753452.3177588484\\
114.74458304146364	1768427.4418535486\\
115.37515939578002	1783489.9503462266\\
116.00573575009639	1799298.902198478\\
116.63631210441277	1815358.179449698\\
117.26688845872914	1831519.568294556\\
117.89746481304552	1847783.62078374\\
118.52804116736189	1864150.888967939\\
119.15861752167827	1880792.6464500616\\
119.78919387599464	1898180.314214851\\
120.41977023031102	1915685.7015294377\\
121.05034658462739	1933309.4280754668\\
121.68092293894377	1951052.1135345816\\
122.31149929326014	1968914.3775884241\\
122.94207564757652	1986946.8208652567\\
123.57265200189289	2005860.2646228713\\
124.20322835620927	2024907.5763105496\\
124.83380471052564	2044089.4390402092\\
125.46438106484202	2063406.535923768\\
126.09495741915839	2082859.5500731436\\
126.72553377347477	2102449.164600254\\
127.35611012779114	2122392.584080283\\
127.98668648210752	2143069.8563862937\\
128.6172628364239	2163897.8001053124\\
129.24783919074028	2184877.1575788525\\
129.87841554505667	2206008.671148425\\
130.50899189937306	2227293.0831555417\\
131.13956825368945	2248731.1359417136\\
131.77014460800584	2270323.5718484526\\
132.40072096232223	2292646.073779743\\
133.03129731663861	2315366.704372855\\
133.661873670955	2338255.5544390935\\
134.2924500252714	2361313.4213488842\\
134.92302637958778	2384541.1024726527\\
135.55360273390417	2407939.395180824\\
136.18417908822056	2431509.0968438233\\
136.81475544253695	2455251.0048320754\\
137.44533179685334	2479356.48899877\\
138.07590815116973	2504256.573026493\\
138.70648450548597	2529342.3852363825\\
};

\addplot [
color=black,
densely dashdotted
]
table[row sep=crcr]{
82.75992854189037	1394931.8720077064\\
83.29845682694415	1395466.4803855312\\
83.83698511199792	1395971.963453259\\
84.37551339705169	1396863.9443499565\\
84.91404168210546	1397742.2410475954\\
85.45256996715923	1398957.7896755466\\
85.991098252213	1400230.0932571893\\
86.52962653726678	1401730.7875534967\\
87.06815482232055	1403417.171259523\\
87.60668310737432	1405159.8474073838\\
88.1452113924281	1407279.2111164776\\
88.68373967748187	1409278.7366873317\\
89.22226796253564	1411785.8559477208\\
89.76079624758941	1414247.128530847\\
90.29932453264318	1416900.4781040938\\
90.83785281769696	1419839.821285165\\
91.37638110275073	1422680.8616990144\\
91.9149093878045	1426012.3919630495\\
92.45343767285827	1429357.4926226619\\
92.99196595791204	1432713.737807234\\
93.53049424296582	1436576.377042518\\
94.06902252801959	1440362.1983969752\\
94.60755081307336	1444278.08782907\\
95.14607909812713	1448604.328843566\\
95.6846073831809	1452864.2461138756\\
96.22313566823468	1457273.1338674983\\
96.76166395328845	1462094.6418044153\\
97.30019223834222	1466860.3221833257\\
97.83872052339599	1471684.97718881\\
98.37724880844976	1477031.6091356294\\
98.91577709350354	1482332.891754667\\
99.45430537855731	1487588.5767985282\\
99.99283366361108	1493384.8226552985\\
100.53136194866485	1499249.5985518047\\
101.06989023371862	1505079.2773806767\\
101.6084185187724	1511108.5726242282\\
102.14694680382617	1517562.664708398\\
102.68547508887994	1523992.1000427003\\
103.22400337393371	1530396.7486344373\\
103.76253165898748	1537208.2906030426\\
104.30105994404126	1544261.0369975907\\
104.83958822909503	1551299.4125651715\\
105.3781165141488	1558323.3431061863\\
105.91664479920257	1565803.338505501\\
106.45517308425634	1573496.56498158\\
106.99370136931012	1581185.7134933628\\
107.53222965436389	1588870.7634115175\\
108.07075793941766	1596885.645789141\\
108.60928622447143	1605258.543315403\\
109.1478145095252	1613637.636005819\\
109.68634279457898	1622022.9545784914\\
110.22487107963275	1630418.6018868755\\
110.76339936468652	1639507.5132375357\\
111.30192764974029	1648612.8464725886\\
111.84045593479406	1657734.6814347373\\
112.37898421984784	1666873.0979666861\\
112.91751250490161	1676173.8399570028\\
113.45604078995538	1686038.6218423357\\
113.99456907500915	1695930.1059945687\\
114.53309736006292	1705848.419158173\\
115.0716256451167	1715793.6880776207\\
115.61015393017047	1725810.4270294495\\
116.14868221522424	1736501.364846087\\
116.68721050027801	1747229.2749138076\\
117.22573878533179	1757994.3286560182\\
117.76426707038556	1768796.697496128\\
118.30279535543933	1779636.5528575457\\
118.8413236404931	1790870.7853903773\\
119.37985192554687	1802481.622736914\\
119.91838021060065	1814139.8724574163\\
120.45690849565442	1825845.748431395\\
120.99543678070819	1837599.464538361\\
121.53396506576196	1849401.234657827\\
122.07249335081573	1861607.9569038465\\
122.6110216358695	1874201.7175999605\\
123.14954992092328	1886853.3341761602\\
123.68807820597705	1899563.0607452274\\
124.22660649103082	1912331.1514199448\\
124.7651347760846	1925157.860313096\\
125.30366306113837	1938043.4415374633\\
125.84219134619214	1951678.0405659091\\
126.38071963124591	1965381.38680139\\
126.91924791629968	1979153.2879185504\\
127.45777620135345	1992994.0360406095\\
127.99630448640723	2006903.9232907887\\
128.534832771461	2020883.2417923089\\
129.07336105651478	2034932.283668391\\
129.61188934156857	2049659.762774312\\
130.15041762662236	2064546.9778503992\\
130.68894591167614	2079513.4417462328\\
131.22747419672993	2094559.4823726395\\
131.76600248178372	2109685.4276404455\\
132.3045307668375	2124891.6054604775\\
132.8430590518913	2140178.343743561\\
133.38158733694507	2155593.4026992973\\
133.92011562199886	2171732.936010331\\
134.45864390705265	2187962.360336168\\
134.99717219210643	2204282.0371524086\\
135.53570047716022	2220692.3279346516\\
136.07422876221423	2237193.5941585037\\
};

\addplot [
color=black,
densely dotted
]
table[row sep=crcr]{
60.75200185424198	1609606.9826214442\\
61.61638974661478	1617087.9094497731\\
62.480777638987576	1622942.1152524485\\
63.34516553136037	1627321.7885618198\\
64.20955342373317	1630383.7845674586\\
65.07394131610597	1632289.6251161585\\
65.93832920847878	1633205.4987119334\\
66.80271710085158	1633302.26051602\\
67.66710499322438	1632755.4323468755\\
68.53149288559719	1631745.2026801792\\
69.39588077796999	1630456.4266488322\\
70.2602686703428	1629078.626042956\\
71.1246565627156	1627805.9893098949\\
71.9890444550884	1626837.3715542145\\
72.85343234746121	1626376.294537701\\
73.71782023983401	1626630.9466793628\\
74.58220813220682	1627814.1830554302\\
75.44659602457962	1630143.5253993543\\
76.31098391695242	1633841.1621018082\\
77.17537180932523	1639133.948210686\\
78.03975970169803	1646253.4054311046\\
78.90414759407084	1655161.2603020717\\
79.76853548644364	1663003.6007342252\\
80.63292337881644	1669082.9433839219\\
81.49731127118925	1673553.6901831564\\
82.36169916356205	1676574.385885276\\
83.22608705593485	1678307.7180649773\\
84.09047494830766	1678920.5171183078\\
84.95486284068046	1678583.756262664\\
85.81925073305327	1677472.551536794\\
86.68363862542607	1675766.1618007957\\
87.54802651779887	1673647.9887361166\\
88.41241441017168	1671305.5768455556\\
89.27680230254448	1668930.6134532616\\
90.14119019491729	1666718.928704733\\
91.00557808729009	1664870.4955668189\\
91.8699659796629	1663589.4298277188\\
92.7343538720357	1663083.9900969823\\
93.5987417644085	1663566.5778055098\\
94.4631296567813	1665253.7372055512\\
95.32751754915411	1668366.1553707067\\
96.19190544152691	1673128.662195927\\
97.05629333389972	1679770.2303975138\\
97.92068122627252	1687830.094475221\\
98.78506911864532	1694354.9812689773\\
99.64945701101813	1699117.463405944\\
100.51384490339093	1702278.9995846916\\
101.37823279576374	1704004.8096891744\\
102.24262068813654	1704463.87478873\\
103.10700858050934	1703828.937138078\\
103.97139647288215	1702276.5001773213\\
104.83578436525495	1699986.8285319475\\
105.70017225762776	1697143.9480128249\\
106.56456015000056	1693935.6456162056\\
107.42894804237336	1690553.469523726\\
108.29333593474617	1687192.7291024043\\
109.15772382711897	1684052.4949046413\\
110.02211171949178	1681335.5986682228\\
110.88649961186458	1679248.6333163155\\
111.75088750423738	1678001.9529574702\\
112.61527539661019	1677809.6728856214\\
113.47966328898299	1678889.6695800854\\
114.3440511813558	1681463.5807055617\\
115.2084390737286	1685756.8051121337\\
116.0728269661014	1691998.5028352672\\
116.9372148584742	1699135.5674752584\\
117.80160275084701	1704546.9918685725\\
118.66599064321981	1708290.2192605857\\
119.53037853559262	1710524.4019307494\\
120.39476642796542	1711411.9678764048\\
121.25915432033823	1711118.6208127833\\
122.12354221271103	1709813.340173007\\
122.98793010508383	1707668.381108087\\
123.85231799745664	1704859.274486927\\
124.71670588982944	1701564.826896319\\
125.58109378220225	1697967.1206409456\\
126.44548167457505	1694251.5137433806\\
127.30986956694785	1690606.6399440872\\
128.17425745932064	1687224.4087014191\\
129.03864535169345	1684300.0051916204\\
129.90303324406625	1682031.8903088255\\
130.76742113643905	1680621.800665059\\
131.63180902881186	1680274.7485902358\\
132.49619692118466	1681199.0221321613\\
133.36058481355747	1683606.18505653\\
134.22497270593027	1687711.0768469286\\
135.08936059830307	1693731.8127048335\\
135.95374849067588	1699825.2494432807\\
136.81813638304868	1704053.5582179346\\
137.68252427542149	1706581.9261356182\\
138.5469121677943	1707578.7406237796\\
139.4113000601671	1707215.493407725\\
140.2756879525399	1705666.7805106174\\
141.1400758449127	1703110.3022534791\\
142.0044637372855	1699726.8632551879\\
142.8688516296583	1695700.372432479\\
143.7332395220311	1691217.842999947\\
144.59762741440392	1686469.392470042\\
145.46201530677672	1681648.2426530735\\
146.32640319914915	1676950.7196572039\\
};

\addplot [
color=black,
dashdotdotted
]
table[row sep=crcr]{
65.36787710872356	1583197.0787689083\\
66.16042485705306	1586337.7244224364\\
66.95297260538256	1589429.3278706244\\
67.74552035371205	1592471.8266928105\\
68.53806810204155	1595465.1354464437\\
69.33061585037105	1598409.145667084\\
70.12316359870054	1601303.7258684032\\
70.91571134703004	1604148.7215421847\\
71.70825909535954	1606943.955158322\\
72.50080684368903	1609689.2261648206\\
73.29335459201853	1612384.3109877987\\
74.08590234034803	1615028.9630314824\\
74.87845008867752	1617622.9126782126\\
75.67099783700702	1620165.86728844\\
76.46354558533652	1622657.5112007256\\
77.25609333366602	1625097.5057317428\\
78.04864108199551	1627485.4891762768\\
78.84118883032501	1629821.076807223\\
79.6337365786545	1632104.4912106302\\
80.426284326984	1634343.532767681\\
81.2188320753135	1636540.6503896606\\
82.011379823643	1638695.838929141\\
82.8039275719725	1640809.0764078232\\
83.59647532030199	1642880.3240165324\\
84.38902306863149	1644909.5261152228\\
85.18157081696098	1646896.6102329746\\
85.97411856529048	1648841.487067995\\
86.76666631361998	1650744.050487618\\
87.55921406194948	1652604.1775283047\\
88.35176181027897	1654421.728395643\\
89.14430955860847	1656196.5464643477\\
89.93685730693797	1657928.45827826\\
90.72940505526746	1659617.2735503484\\
91.52195280359696	1661262.785162708\\
92.31450055192646	1662864.769166562\\
93.10704830025595	1664422.9847822592\\
93.89959604858545	1665937.174399275\\
94.69214379691495	1667407.0635762129\\
95.48469154524444	1668832.3610408017\\
96.27723929357394	1670212.7586898995\\
97.06978704190344	1671546.704175323\\
97.86233479023294	1672833.3674803658\\
98.65488253856243	1674074.3463112242\\
99.44743028689193	1675271.274330865\\
100.23997803522143	1676425.809147435\\
101.03252578355092	1677539.632314262\\
101.82507353188042	1678614.4493298556\\
102.61762128020992	1679651.9896379057\\
103.41016902853941	1680654.0066272835\\
104.20271677686891	1681622.2776320402\\
104.99526452519841	1682558.6039314093\\
105.7878122735279	1683464.8107498037\\
106.5803600218574	1684342.7472568185\\
107.3729077701869	1685194.286567229\\
108.1654555185164	1686021.325740992\\
108.95800326684589	1686825.7857832445\\
109.75055101517539	1687609.6116443048\\
110.54309876350489	1688374.7722196723\\
111.33564651183438	1689123.2603500271\\
112.12819426016388	1689857.09282123\\
112.92074200849338	1690578.3103643227\\
113.71328975682287	1691290.6476072278\\
114.50583750515237	1692004.514114827\\
115.29838525348187	1692719.3031140415\\
116.09093300181136	1693432.4868836908\\
116.88348075014086	1694141.4741163657\\
117.67602849847036	1694843.6099184293\\
118.46857624679986	1695536.1758100167\\
119.26112399512935	1696216.3897250355\\
120.05367174345885	1696881.4060111651\\
120.84621949178835	1697528.3154298565\\
121.63876724011784	1698154.1451563332\\
122.43131498844734	1698755.8587795917\\
123.22386273677684	1699330.356302399\\
124.01641048510633	1699874.4741412953\\
124.80895823343583	1700384.9851265925\\
125.60150598176533	1700858.598502374\\
126.39405373009483	1701291.9599264972\\
127.18660147842432	1701681.6514705892\\
127.97914922675382	1702024.1916200507\\
128.7716969750833	1702316.0352740537\\
129.5642447234128	1702553.5737455434\\
130.3567924717423	1702733.2680770664\\
131.1493402200718	1702874.5544571215\\
131.9418879684013	1702992.2792546449\\
132.7344357167308	1703084.9543263554\\
133.52698346506028	1703151.058911264\\
134.31953121338978	1703189.0396306724\\
135.11207896171928	1703197.3104881737\\
135.90462671004877	1703174.2528696533\\
136.69717445837827	1703118.2155432864\\
137.48972220670777	1703027.5146595403\\
138.28226995503726	1702900.4337511752\\
139.07481770336676	1702735.2237332403\\
139.86736545169626	1702530.1029030774\\
140.65991320002576	1702283.2569403194\\
141.45246094835525	1701992.8389068916\\
142.24500869668475	1701656.9692470087\\
143.03755644501425	1701273.7357871786\\
143.83010419334371	1700841.1937362\\
};

\addplot [
color=black,
densely dashdotdetted
]
table[row sep=crcr]{
70.51572499185646	1556538.320701366\\
71.23062591824181	1560144.709040601\\
71.94552684462717	1563682.5295244937\\
72.66042777101252	1567153.4568385421\\
73.37532869739788	1570559.2006672584\\
74.09022962378323	1573901.505694166\\
74.80513055016858	1577182.1516018063\\
75.52003147655394	1580402.9530717311\\
76.2349324029393	1583565.7597845087\\
76.94983332932465	1586672.4564197192\\
77.66473425571	1589724.9626559578\\
78.37963518209536	1592725.2331708346\\
79.09453610848071	1595675.2576409723\\
79.80943703486606	1598577.0607420069\\
80.52433796125142	1601432.7021485898\\
81.23923888763677	1604243.1780485676\\
81.95413981402213	1606998.0027171173\\
82.66904074040748	1609695.0809742527\\
83.38394166679284	1612335.7395237111\\
84.09884259317819	1614921.327017975\\
84.81374351956354	1617453.2140582744\\
85.5286444459489	1619932.7931945885\\
86.24354537233425	1622361.478925642\\
86.95844629871961	1624740.7076989065\\
87.67334722510496	1627071.9379106006\\
88.38824815149032	1629356.6499056919\\
89.10314907787567	1631596.3459778929\\
89.81805000426102	1633792.5503696648\\
90.53295093064638	1635946.8092722152\\
91.24785185703173	1638060.690825499\\
91.96275278341709	1640135.7851182178\\
92.67765370980244	1642173.704187822\\
93.3925546361878	1644176.0820205074\\
94.10745556257315	1646144.5745512173\\
94.8223564889585	1648080.859663643\\
95.53725741534386	1649986.6371902216\\
96.25215834172921	1651863.5507936715\\
96.96705926811457	1653711.6937027655\\
97.68196019449992	1655530.683701986\\
98.39686112088528	1657320.324092011\\
99.11176204727063	1659080.400180987\\
99.82666297365598	1660810.6792845312\\
100.54156390004134	1662510.9107257284\\
101.2564648264267	1664180.8258351341\\
101.97136575281205	1665820.1379507722\\
102.6862666791974	1667428.5424181365\\
103.40116760558276	1669005.7165901896\\
104.11606853196811	1670551.3198273643\\
104.83096945835347	1672064.9934975612\\
105.54587038473882	1673546.3609761514\\
106.26077131112417	1674995.0276459751\\
106.97567223750953	1676410.5808973415\\
107.69057316389488	1677792.5901280295\\
108.40547409028024	1679140.6067432864\\
109.12037501666559	1680454.1641558302\\
109.83527594305095	1681732.7777858467\\
110.5501768694363	1682975.9450609928\\
111.26507779582165	1684183.7329519456\\
111.97997872220701	1685366.0395723325\\
112.69487964859236	1686526.1336201753\\
113.40978057497772	1687663.4168882957\\
114.12468150136307	1688777.2688418357\\
114.83958242774843	1689867.0466182574\\
115.55448335413378	1690932.0850273431\\
116.26938428051913	1691971.6965511953\\
116.98428520690449	1692985.171344237\\
117.69918613328984	1693971.777233211\\
118.4140870596752	1694930.7597171813\\
119.12898798606055	1695861.3419675303\\
119.8438889124459	1696762.7248279625\\
120.55878983883126	1697634.086814502\\
121.27369076521661	1698474.5841154924\\
121.98859169160197	1699283.350591599\\
122.70349261798732	1700059.4977758059\\
123.41839354437268	1700802.1148734184\\
124.13329447075803	1701510.2687620616\\
124.84819539714339	1702183.0039916807\\
125.56309632352874	1702819.3427845417\\
126.2779972499141	1703418.8039378833\\
126.99289817629945	1703992.6016128873\\
127.7077991026848	1704545.0670998641\\
128.42270002907017	1705075.4130275515\\
129.13760095545553	1705582.8305220641\\
129.85250188184088	1706066.4892068964\\
130.56740280822623	1706525.537202919\\
131.2823037346116	1706959.1011283803\\
131.99720466099694	1707366.2860989063\\
132.7121055873823	1707746.1757275008\\
133.42700651376765	1708097.8321245457\\
134.141907440153	1708420.295897799\\
134.85680836653836	1708712.586152398\\
135.5717092929237	1708973.7004908565\\
136.28661021930907	1709202.6150130667\\
137.00151114569442	1709398.2843162972\\
137.71641207207978	1709559.6414951961\\
138.43131299846513	1709685.5981417873\\
139.14621392485049	1709775.0443454732\\
139.86111485123584	1709826.8486930337\\
140.5760157776212	1709839.8582686256\\
141.29091670400675	1709813.6165628852\\
};

\addplot [
color=black,
loosely dashed
]
table[row sep=crcr]{
76.27942542816477	1331833.7818611097\\
76.91000178248115	1335575.570171964\\
77.54057813679752	1339310.833834491\\
78.1711544911139	1343036.2859763023\\
78.80173084543027	1346748.5276938681\\
79.43230719974665	1350444.0480525177\\
80.06288355406302	1354119.2240864392\\
80.6934599083794	1357770.3207986818\\
81.32403626269577	1361393.4911611516\\
81.95461261701215	1364984.776114616\\
82.58518897132852	1368540.1045687\\
83.2157653256449	1372055.2934018893\\
83.84634167996127	1375531.0050908953\\
84.47691803427765	1379002.1501665686\\
85.10749438859402	1382474.9619624629\\
85.7380707429104	1385947.6729368346\\
86.36864709722677	1389418.448329748\\
86.99922345154314	1392885.3861630748\\
87.62979980585952	1396346.5172404957\\
88.2603761601759	1399799.805147498\\
88.89095251449227	1403243.1462513783\\
89.52152886880864	1406674.369701241\\
90.15210522312502	1410091.237427997\\
90.7826815774414	1413491.4441443668\\
91.41325793175777	1416872.617344878\\
92.04383428607414	1420232.3173058666\\
92.67441064039052	1423568.0370854756\\
93.3049869947069	1426877.2025236576\\
93.93556334902327	1430157.1722421718\\
94.56613970333964	1433405.237644586\\
95.19671605765602	1436618.622916275\\
95.8272924119724	1439794.485024423\\
96.45786876628877	1442929.913718021\\
97.08844512060514	1446027.5809981884\\
97.71902147492152	1449098.8856682885\\
98.3495978292379	1452145.227502344\\
98.98017418355427	1455167.623892348\\
99.61075053787064	1458167.1053515556\\
100.24132689218702	1461144.7155144857\\
100.8719032465034	1464101.5111369202\\
101.50247960081977	1467038.5620959033\\
102.13305595513614	1469956.9513897423\\
102.76363230945252	1472857.7751380089\\
103.3942086637689	1475742.142581536\\
104.02478501808527	1478611.1760824206\\
104.65536137240164	1481466.0111240225\\
105.28593772671802	1484307.7963109636\\
105.91651408103439	1487137.6933691308\\
106.54709043535077	1489956.8771456724\\
107.17766678966714	1492766.5356090004\\
107.80824314398352	1495567.869848789\\
108.43881949829989	1498362.0940759762\\
109.06939585261627	1501150.4356227631\\
109.69997220693264	1503934.1893880444\\
110.33054856124902	1506718.1089906623\\
110.96112491556539	1509503.9530573622\\
111.59170126988177	1512290.713111202\\
112.22227762419814	1515077.349042791\\
112.85285397851452	1517862.789110288\\
113.48343033283089	1520645.929939401\\
114.11400668714727	1523425.636523391\\
114.74458304146364	1526200.7422230665\\
115.37515939578002	1528970.0487667879\\
116.00573575009639	1531732.326250464\\
116.63631210441277	1534486.3131375564\\
117.26688845872914	1537230.7162590746\\
117.89746481304552	1539964.2108135796\\
118.52804116736189	1542685.4403671813\\
119.15861752167827	1545393.0168535423\\
119.78919387599464	1548085.5205738724\\
120.41977023031102	1550761.5001969337\\
121.05034658462739	1553419.4727590377\\
121.68092293894377	1556057.9236640462\\
122.31149929326014	1558675.306683371\\
122.94207564757652	1561272.4840503433\\
123.57265200189289	1563864.3454285224\\
124.20322835620927	1566452.9602550613\\
124.83380471052564	1569037.4221057268\\
125.46438106484202	1571616.8011245101\\
126.09495741915839	1574190.1440236263\\
126.72553377347477	1576756.474083514\\
127.35611012779114	1579314.791152834\\
127.98668648210752	1581864.0716484722\\
128.6172628364239	1584403.2685555378\\
129.24783919074028	1586931.3114273623\\
129.87841554505667	1589447.106385502\\
130.50899189937306	1591949.5361197358\\
131.13956825368945	1594437.4598880673\\
131.77014460800584	1596909.7135167227\\
132.40072096232223	1599365.109400151\\
133.03129731663861	1601802.4365010273\\
133.661873670955	1604220.4603502469\\
134.2924500252714	1606617.923046931\\
134.92302637958778	1608993.5432584232\\
135.55360273390417	1611346.0162202914\\
136.18417908822056	1613681.8266780537\\
136.81475544253695	1616014.56564342\\
137.44533179685334	1618343.0276832418\\
138.07590815116973	1620665.5981061154\\
138.70648450548597	1622980.6310387834\\
};

\addplot [
color=black,
loosely dashdotted
]
table[row sep=crcr]{
82.75992854189037	1137692.6284922496\\
83.29845682694415	1140410.7458771518\\
83.83698511199792	1143110.459850507\\
84.37551339705169	1145793.2042175543\\
84.91404168210546	1148460.4286400904\\
85.45256996715923	1151113.59863647\\
85.991098252213	1153754.195581605\\
86.52962653726678	1156383.7167069667\\
87.06815482232055	1159003.6751005838\\
87.60668310737432	1161615.1096681654\\
88.1452113924281	1164216.971899658\\
88.68373967748187	1166809.6352518715\\
89.22226796253564	1169393.7073326122\\
89.76079624758941	1171969.7900728304\\
90.29932453264318	1174538.4797266212\\
90.83785281769696	1177100.366871224\\
91.37638110275073	1179656.0364070244\\
91.9149093878045	1182206.067557551\\
92.45343767285827	1184751.0338694786\\
92.99196595791204	1187291.5032126259\\
93.53049424296582	1189828.0377799564\\
94.06902252801959	1192361.1940875787\\
94.60755081307336	1194891.522974746\\
95.14607909812713	1197419.5696038562\\
95.6846073831809	1199945.8734604518\\
96.22313566823468	1202470.96835322\\
96.76166395328845	1204995.3824139934\\
97.30019223834222	1207519.6380977484\\
97.83872052339599	1210044.252182607\\
98.37724880844976	1212570.8286601969\\
98.91577709350354	1215115.189477825\\
99.45430537855731	1217680.8160856555\\
99.99283366361108	1220265.6213067924\\
100.53136194866485	1222867.4499612579\\
101.06989023371862	1225484.0788659898\\
101.6084185187724	1228113.2168348457\\
102.14694680382617	1230752.504678598\\
102.68547508887994	1233399.5152049372\\
103.22400337393371	1236051.7532184704\\
103.76253165898748	1238706.655520723\\
104.30105994404126	1241361.5909101365\\
104.83958822909503	1244013.8601820695\\
105.3781165141488	1246660.6961287986\\
105.91664479920257	1249299.2635395173\\
106.45517308425634	1251926.6592003354\\
106.99370136931012	1254539.9118942805\\
107.53222965436389	1257135.9824012977\\
108.07075793941766	1259711.7634982488\\
108.60928622447143	1262264.0799589125\\
109.1478145095252	1264789.7293642391\\
109.68634279457898	1267304.2252949297\\
110.22487107963275	1269821.4524816715\\
110.76339936468652	1272340.4389393257\\
111.30192764974029	1274860.182572247\\
111.84045593479406	1277379.6511742817\\
112.37898421984784	1279897.782428769\\
112.91751250490161	1282413.4839085403\\
113.45604078995538	1284925.6330759192\\
113.99456907500915	1287433.0772827223\\
114.53309736006292	1289934.6337702575\\
115.0716256451167	1292429.0896693256\\
115.61015393017047	1294915.2020002208\\
116.14868221522424	1297391.697672728\\
116.68721050027801	1299857.2734861253\\
117.22573878533179	1302310.5961291837\\
117.76426707038556	1304750.302180165\\
118.30279535543933	1307174.9981068256\\
118.8413236404931	1309583.2602664118\\
119.37985192554687	1311973.6349056647\\
119.91838021060065	1314344.638160816\\
120.45690849565442	1316700.6461476884\\
120.99543678070819	1319053.2781765761\\
121.53396506576196	1321402.2223444416\\
122.07249335081573	1323746.7186238663\\
122.6110216358695	1326085.9870616565\\
123.14954992092328	1328419.2277788427\\
123.68807820597705	1330745.6209706808\\
124.22660649103082	1333064.3269066515\\
124.7651347760846	1335374.4859304605\\
125.30366306113837	1337675.2184600371\\
125.84219134619214	1339965.6249875373\\
126.38071963124591	1342244.7860793401\\
126.91924791629968	1344511.7623760502\\
127.45777620135345	1346765.594592498\\
127.99630448640723	1349005.3035177358\\
128.534832771461	1351229.8900150447\\
129.07336105651478	1353438.3350219273\\
129.61188934156857	1355629.599550112\\
130.15041762662236	1357802.624685553\\
130.68894591167614	1359956.331588428\\
131.22747419672993	1362092.2071270207\\
131.76600248178372	1364223.2163154436\\
132.3045307668375	1366350.2197254198\\
132.8430590518913	1368471.9049807957\\
133.38158733694507	1370586.933619777\\
133.92011562199886	1372693.941094928\\
134.45864390705265	1374791.5367731717\\
134.99717219210643	1376878.3039357911\\
135.53570047716022	1378952.7997784265\\
136.07422876221423	1381013.55541108\\
};
\end{axis}
\end{tikzpicture}%
