%Power_Needed_and_Power_Available_curves_CLIMB_AOE
\begin{tikzpicture}

\begin{axis}[
width=\figurewidth,
height=\figureheight,
scaled ticks=false, tick label style={/pgf/number format/fixed},
xmin=60.75200185424198,
xmax=142.9234635898666,
xlabel={Speed ((m/s))},
xmajorgrids,
ymin=1023984.7371528161,
ymax=3780515.7103066756,
ylabel={Power ((W))},
ymajorgrids,
legend style={at={(1.03,0.5)},anchor=west,draw=black,fill=white,legend cell align=left}
]

\addplot [
color=black,
solid
]
table[row sep=crcr]{
60.75200185424198	1023984.7371528161\\
61.58201661924829	1024778.5950382898\\
62.412031384254604	1026162.7644126649\\
63.242046149260915	1028132.878920897\\
64.07206091426723	1030680.0298378884\\
64.90207567927354	1033790.6150404054\\
65.73209044427985	1037446.1879790073\\
66.56210520928616	1041623.3066499649\\
67.39211997429247	1046293.3825671864\\
68.22213473929878	1051422.5297341398\\
69.05214950430509	1057323.0376134855\\
69.8821642693114	1063685.4521274904\\
70.71217903431771	1070442.0449875654\\
71.54219379932402	1077809.1387430409\\
72.37220856433034	1085790.9835632364\\
73.20222332933665	1094068.477251393\\
74.03223809434296	1103105.2453189278\\
74.86225285934927	1112553.4109708234\\
75.69226762435558	1122453.580092585\\
76.52228238936189	1133047.1094911958\\
77.3522971543682	1143885.2633593436\\
78.18231191937451	1155581.925744844\\
79.01232668438082	1167428.8880069188\\
79.84234144938713	1180168.6843194463\\
80.67235621439345	1193091.1561109875\\
81.50237097939976	1206795.4732334167\\
82.33238574440607	1220855.6707105755\\
83.16240050941238	1235426.4357112865\\
83.99241527441869	1250681.7275834428\\
84.822430039425	1266024.1627963313\\
85.65244480443131	1282503.1070214699\\
86.48245956943762	1299125.8439276018\\
87.31247433444393	1316226.8656060426\\
88.14248909945024	1334176.116161887\\
88.97250386445656	1352279.685789626\\
89.80251862946287	1371048.0786796957\\
90.63253339446918	1390550.830780411\\
91.46254815947549	1410242.1108287396\\
92.2925629244818	1430520.490371949\\
93.12257768948811	1451676.3504539446\\
93.95259245449442	1473054.89308158\\
94.78260721950073	1494658.1030560213\\
95.61262198450704	1517541.428930349\\
96.44263674951335	1540698.6452041299\\
97.27265151451967	1564114.736374985\\
98.10266627952598	1588070.396370368\\
98.93268104453229	1613088.7407136383\\
99.7626958095386	1638399.8262732148\\
100.59271057454491	1664006.1090578628\\
101.42272533955122	1690071.236230553\\
102.25274010455753	1717349.5212507788\\
103.08275486956384	1744956.605608589\\
103.91276963457015	1772895.1582623376\\
104.74278439957646	1801167.848170378\\
105.57279916458278	1830394.4987477784\\
106.40281392958909	1860427.8779651504\\
107.2328286945954	1890828.7640585045\\
108.06284345960171	1921600.0238329754\\
108.89285822460802	1952744.5240936978\\
109.72287298961433	1984745.0551083928\\
110.55288775462064	2017724.873657518\\
111.38290251962695	2051110.8734872628\\
112.21291728463326	2084906.1041467334\\
113.04293204963957	2119113.615185037\\
113.87294681464589	2153736.4561512824\\
114.7029615796522	2189464.6500309687\\
115.53297634465851	2226011.0604566396\\
116.36299110966482	2263005.284081962\\
117.19300587467113	2300450.538097209\\
118.02302063967744	2338350.0396926524\\
118.85303540468375	2376707.006058566\\
119.68305016969006	2415524.6543852203\\
120.51306493469637	2455870.7737241625\\
121.34307969970268	2496709.769269021\\
122.173094464709	2538041.398519917\\
123.0031092297153	2579869.0312054814\\
123.83312399472162	2622196.037054344\\
124.66313875972793	2665025.785795135\\
125.49315352473424	2708361.6471564854\\
126.32316828974055	2752503.964738324\\
127.15318305474686	2797935.7319884975\\
127.98319781975317	2843904.7753303805\\
128.81321258475947	2890414.6019281517\\
129.64322734976577	2937468.718945992\\
130.47324211477206	2985070.633548084\\
131.30325687977836	3033223.852898604\\
132.13327164478466	3081931.884161736\\
132.96328640979095	3131198.234501657\\
133.79330117479725	3181212.3209556704\\
134.62331593980355	3232676.4072391577\\
135.45333070480984	3284729.1757141934\\
136.28334546981614	3337374.255877702\\
137.11336023482244	3390615.277226604\\
137.94337499982873	3444455.8692578217\\
138.77338976483503	3498899.6614682795\\
139.60340452984133	3553950.2833548975\\
140.43341929484762	3609611.364414599\\
141.26343405985392	3665886.5341443056\\
142.09344882486022	3722779.4220409417\\
142.9234635898666	3780515.7103066756\\
};

\addplot [
color=black,
densely dashed
]
table[row sep=crcr]{
65.36787710872356	1101786.0550506304\\
66.12663812832547	1102532.2502461683\\
66.88539914792737	1103720.71577706\\
67.64416016752928	1105331.885342418\\
68.40292118713118	1107342.4205764001\\
69.16168220673309	1109725.1113912328\\
69.920443226335	1112658.6944704924\\
70.6792042459369	1116055.2305244696\\
71.4379652655388	1119773.8142526345\\
72.19672628514071	1123823.467179356\\
72.95548730474262	1128554.4337725963\\
73.71424832434452	1133533.03798295\\
74.47300934394643	1138865.5073313217\\
75.23177036354834	1144821.6081501355\\
75.99053138315024	1150924.9302443198\\
76.74929240275215	1157689.4724986644\\
77.50805342235405	1164699.3800151243\\
78.26681444195596	1172172.8908517798\\
79.02557546155786	1180054.6110104176\\
79.78433648115977	1188293.0507180197\\
80.54309750076168	1196998.8980391491\\
81.30185852036358	1206055.2700354261\\
82.06061953996549	1215524.0882607156\\
82.81938055956739	1225448.1999157518\\
83.5781415791693	1235604.80392917\\
84.3369025987712	1246443.0273886665\\
85.09566361837311	1257270.9707151686\\
85.85442463797501	1268992.6781459663\\
86.61318565757692	1280803.294222963\\
87.37194667717883	1293031.0192857787\\
88.13070769678073	1305862.865552296\\
88.88946871638264	1318736.2893224019\\
89.64822973598454	1332359.4834030562\\
90.40699075558645	1346314.0424810173\\
91.16575177518835	1360336.3075282446\\
91.92451279479026	1375247.2854619222\\
92.68327381439217	1390405.6269568142\\
93.44203483399407	1405657.8472259217\\
94.20079585359598	1421717.2625362242\\
94.95955687319788	1438155.0879578954\\
95.71831789279979	1454712.9196067273\\
96.4770789124017	1471748.1500626972\\
97.2358399320036	1489535.2546776966\\
97.9946009516055	1507468.357929523\\
98.75336197120741	1525548.599090225\\
99.51212299080932	1544471.6257865815\\
100.27088401041122	1563843.1267824362\\
101.02964503001313	1583387.7037757\\
101.78840604961503	1603106.666451846\\
102.54716706921694	1623705.631344562\\
103.30592808881885	1644770.2736899955\\
104.06468910842075	1666035.0758630408\\
104.82345012802266	1687501.507996901\\
105.58221114762456	1709503.76379604\\
106.34097216722647	1732362.0108682567\\
107.09973318682837	1755447.3884795427\\
107.85849420643028	1778761.5172451306\\
108.61725522603219	1802306.0177802541\\
109.37601624563409	1826573.1963670964\\
110.134777265236	1851570.1417882415\\
110.8935382848379	1876822.7168843648\\
111.65229930443981	1902332.6827870316\\
112.41106032404171	1928101.8006278086\\
113.16982134364362	1954251.0437808756\\
113.92858236324552	1981522.3807241821\\
114.68734338284743	2009077.7552841618\\
115.44610440244934	2036919.0591430173\\
116.20486542205124	2065048.1839829502\\
116.96362644165315	2093467.0214861652\\
117.72238746125505	2122261.8716791538\\
118.48114848085696	2152243.292587433\\
119.23990950045886	2182538.9306415482\\
119.99867052006077	2213150.7981086425\\
120.75743153966268	2244080.907255855\\
121.51619255926458	2275331.2703503286\\
122.27495357886649	2306903.8996592034\\
123.03371459846839	2339045.9221635163\\
123.7924756180703	2372249.118965664\\
124.5512366376722	2405798.666402542\\
125.30999765727411	2439696.6873605335\\
126.06875867687602	2473945.3047260195\\
126.82751969647792	2508546.6413853853\\
127.58628071607983	2543502.820225012\\
128.34504173568175	2578815.964131282\\
129.10380275528365	2614902.842896493\\
129.86256377488556	2651918.6527116094\\
130.62132479448746	2689315.0231881584\\
131.38008581408937	2727094.177866067\\
132.13884683369128	2765258.3402852616\\
132.89760785329318	2803809.7339856685\\
133.6563688728951	2842750.582507214\\
134.415129892497	2882083.109389824\\
135.1738909120989	2921809.538173425\\
135.9326519317008	2962266.4610260567\\
136.6914129513027	3003767.5783597277\\
137.45017397090461	3045685.6057032365\\
138.20893499050652	3088022.857284356\\
138.96769601010843	3130781.6473308583\\
139.72645702971033	3173964.2900705175\\
140.48521804931246	3217573.0997311184\\
};

\addplot [
color=black,
dashdotted
]
table[row sep=crcr]{
70.51572499185646	1188553.8569439673\\
71.19743566296721	1189236.0169382098\\
71.87914633407796	1190176.7346197986\\
72.56085700518871	1191345.0695295867\\
73.24256767629946	1193009.388808296\\
73.92427834741021	1194976.0766417657\\
74.60598901852096	1197108.737406371\\
75.28769968963171	1199767.8000021265\\
75.96941036074246	1202668.1720449047\\
76.65112103185321	1205766.0785871025\\
77.33283170296396	1209423.236239056\\
78.01454237407471	1213121.4907073395\\
78.69625304518546	1217401.8429297162\\
79.37796371629621	1221785.9417141099\\
80.05967438740696	1226621.4749290436\\
80.74138505851771	1231656.4978729412\\
81.42309572962846	1237088.688053938\\
82.10480640073921	1242730.4427961016\\
82.78651707184996	1248798.6142595215\\
83.4682277429607	1254993.2884275133\\
84.14993841407146	1261734.46477261\\
84.8316490851822	1268418.2781762287\\
85.51335975629296	1275867.0332251946\\
86.1950704274037	1283249.8929427098\\
86.87678109851446	1291154.1987879137\\
87.5584917696252	1299296.2198291451\\
88.24020244073596	1307540.4293035327\\
88.9219131118467	1316470.6832413436\\
89.60362378295746	1325373.8942801233\\
90.2853344540682	1334700.9086057502\\
90.96704512517896	1344437.8989121087\\
91.6487557962897	1354167.1976989396\\
92.33046646740046	1364493.554614787\\
93.0121771385112	1375098.7667162383\\
93.69388780962196	1385715.6893619394\\
94.3755984807327	1396936.0059896966\\
95.05730915184346	1408467.2841856838\\
95.7390198229542	1420029.6697764879\\
96.42073049406495	1432015.6364658428\\
97.1024411651757	1444526.8485438023\\
97.78415183628645	1457088.5037564524\\
98.4658625073972	1469700.9562413706\\
99.14757317850795	1483228.5797808385\\
99.8292838496187	1496838.9434976834\\
100.51099452072945	1510519.4480562073\\
101.1927051918402	1524489.6437294085\\
101.87441586295095	1539193.4516535017\\
102.5561265340617	1553986.5648721908\\
103.23783720517245	1568869.5809876486\\
103.9195478762832	1584028.5244101784\\
104.60125854739395	1599973.708413908\\
105.2829692185047	1616027.8371693976\\
105.96467988961545	1632191.6206948722\\
106.6463905607262	1648465.7690085545\\
107.32810123183695	1665573.2781809948\\
108.0098119029477	1682960.7604404145\\
108.69152257405845	1700477.5646311806\\
109.3732332451692	1718124.5069767372\\
110.05494391627995	1735932.585930376\\
110.7366545873907	1754719.2353531998\\
111.41836525850145	1773654.7146269\\
112.1000759296122	1792739.9399693068\\
112.78178660072295	1811975.8275982533\\
113.4634972718337	1831363.29373157\\
114.14520794294445	1851581.7019571837\\
114.8269186140552	1872163.4296539784\\
115.50862928516595	1892915.2813521444\\
116.1903399562767	1913838.2670530686\\
116.87205062738745	1934933.3967581398\\
117.5537612984982	1956201.680468744\\
118.23547196960895	1978490.9445254817\\
118.9171826407197	2000999.1556465444\\
119.59889331183045	2023698.8269085828\\
120.2806039829412	2046591.055885708\\
120.96231465405195	2069676.9401520346\\
121.6440253251627	2092957.5772816741\\
122.32573599627345	2116874.6148784114\\
123.0074466673842	2141431.0622665156\\
123.68915733849495	2166200.2361293416\\
124.3708680096057	2191183.3154028957\\
125.05257868071645	2216381.4790231828\\
125.7342893518272	2241795.905926209\\
126.41600002293795	2267427.7750479807\\
127.0977106940487	2293502.7608742625\\
127.77942136515945	2320452.014732688\\
128.4611320362702	2347636.3338858243\\
129.14284270738094	2375056.9724207385\\
129.8245533784917	2402715.184424497\\
130.50626404960244	2430612.22398417\\
131.18797472071319	2458749.345186821\\
131.86968539182394	2487127.8021195205\\
132.55139606293469	2515794.263565081\\
133.23310673404544	2545534.9018036346\\
133.91481740515619	2575534.1116688517\\
134.59652807626694	2605793.2161880285\\
135.27823874737769	2636313.538388465\\
135.95994941848843	2667096.4012974566\\
136.64166008959918	2698143.1279423013\\
137.32337076070993	2729455.041350297\\
138.00508143182054	2761033.464548735\\
};

\addplot [
color=black,
dashed
]
table[row sep=crcr]{
76.27942542816477	1285701.952416786\\
76.877418628968	1286302.4036197453\\
77.47541182977123	1286938.6971188646\\
78.07340503057446	1287996.707970244\\
78.6713982313777	1289186.473013569\\
79.26939143218092	1290611.6118376483\\
79.86738463298416	1292334.339686329\\
80.46537783378739	1294158.8829215518\\
81.06337103459062	1296388.1712769738\\
81.66136423539385	1298643.0871696684\\
82.25935743619708	1301346.4395492338\\
82.85735063700031	1304061.3021718073\\
83.45534383780354	1307199.9272847117\\
84.05333703860677	1310402.8305538408\\
84.65133023941	1313931.4416768532\\
85.24932344021323	1317648.9133716736\\
85.84731664101646	1321515.5277249156\\
86.4453098418197	1325772.443505214\\
87.04330304262292	1329926.308484749\\
87.64129624342615	1334737.6790523462\\
88.23928944422939	1339468.5042173562\\
88.83728264503262	1344499.9567228956\\
89.43527584583585	1349828.9546672394\\
90.03326904663908	1355083.0572370358\\
90.63126224744231	1360951.8569899118\\
91.22925544824554	1366837.6693253478\\
91.82724864904877	1372771.8277589628\\
92.425241849852	1379306.4658963468\\
93.02323505065523	1385794.2700926934\\
93.62122825145846	1392412.0713163696\\
94.21922145226169	1399577.7253835492\\
94.81721465306492	1406710.3690502269\\
95.41520785386815	1413922.9601011125\\
96.01320105467138	1421759.9685715125\\
96.61119425547462	1429577.7759984655\\
97.20918745627785	1437376.262793276\\
97.80718065708108	1445826.9524635214\\
98.40517385788431	1454367.5311621514\\
99.00316705868754	1462902.6384991012\\
99.60116025949077	1471730.8906508011\\
100.199153460294	1481028.9378948966\\
100.79714666109723	1490335.2807953625\\
101.39513986190046	1499649.9688610607\\
101.99313306270369	1509488.5953838346\\
102.59112626350692	1519597.6529293312\\
103.18911946431015	1529728.7873374352\\
103.78711266511338	1539882.127291926\\
104.38510586591661	1550589.3532273783\\
104.98309906671984	1561564.9333391273\\
105.58109226752308	1572576.3759656337\\
106.1790854683263	1583623.8853830162\\
106.77707866912954	1595029.6178750768\\
107.37507186993277	1606923.4212865597\\
107.973065070736	1618866.8343199564\\
108.57105827153923	1630860.1332611516\\
109.16905147234246	1642903.594396028\\
109.76704467314569	1655624.2724756352\\
110.36503787394892	1668547.1196549006\\
110.96303107475215	1681533.5867404137\\
111.56102427555538	1694584.018445247\\
112.15901747635861	1707698.7594824736\\
112.75701067716184	1721520.065991222\\
113.35500387796507	1735542.4944739072\\
113.9529970787683	1749642.5583095993\\
114.55099027957154	1763820.6670559857\\
115.14898348037477	1778077.2302707538\\
115.746976681178	1792738.3451055225\\
116.34496988198123	1807925.7303471838\\
116.94296308278446	1823204.7178124085\\
117.54095628358769	1838575.778320922\\
118.13894948439092	1854039.3826924518\\
118.73694268519415	1869596.001746723\\
119.33493588599738	1885642.67212122\\
119.93292908680061	1902160.1568903155\\
120.53092228760384	1918783.6369378841\\
121.12891548840707	1935513.6407631172\\
121.7269086892103	1952350.6968652045\\
122.32490189001354	1969295.3337433345\\
122.92289509081677	1986373.6118221562\\
123.52088829162	2004302.634855756\\
124.11888149242323	2022351.9983630523\\
124.71687469322646	2040522.2849401238\\
125.31486789402969	2058814.0771830482\\
125.91286109483292	2077227.9576879032\\
126.51085429563615	2095764.509050766\\
127.10884749643938	2114424.313867716\\
127.70684069724261	2133874.8623038\\
128.30483389804584	2153559.3900227705\\
128.90282709884906	2173379.757285396\\
129.50082029965228	2193336.597202068\\
130.0988135004555	2213430.5428831764\\
130.6968067012587	2233662.2274391116\\
131.29479990206192	2254032.2839802657\\
131.89279310286514	2274541.3456170284\\
132.49078630366836	2295880.998479462\\
133.08877950447157	2317446.2297389917\\
133.6867727052748	2339162.8105066824\\
134.284765906078	2361031.4208246632\\
134.88275910688122	2383052.740735061\\
135.48075230768399	2405227.4502799874\\
};

\addplot [
color=black,
densely dashdotted
]
table[row sep=crcr]{
82.75992854189037	1394931.8720077064\\
83.266492009288	1395431.3235578134\\
83.77305547668563	1395920.548407678\\
84.27961894408325	1396691.5320714342\\
84.78618241148088	1397547.5635647285\\
85.2927458788785	1398552.9676795588\\
85.79930934627613	1399793.2362190057\\
86.30587281367376	1400991.7832705365\\
86.81243628107138	1402632.6794371582\\
87.31899974846901	1404158.0161811647\\
87.82556321586664	1406035.6526085578\\
88.33212668326426	1407986.8331336002\\
88.83869015066189	1409966.4134415272\\
89.34525361805952	1412357.5507759796\\
89.85181708545714	1414652.3372901774\\
90.35838055285477	1417227.593006416\\
90.8649440202524	1419985.0957532753\\
91.37150748765002	1422655.5931535624\\
91.87807095504765	1425780.3722328253\\
92.38463442244527	1428934.9986361042\\
92.8911978898429	1432011.9951830632\\
93.39776135724053	1435631.4557073298\\
93.90432482463815	1439212.5641225674\\
94.41088829203578	1442725.4315378836\\
94.9174517594334	1446775.742008754\\
95.42401522683103	1450811.191000466\\
95.93057869422866	1454787.784564374\\
96.43714216162628	1459195.824195425\\
96.94370562902391	1463711.8726345568\\
97.45026909642154	1468178.4312832975\\
97.95683256381916	1472861.4902924334\\
98.46339603121679	1477882.6974538085\\
98.96995949861441	1482863.7438770789\\
99.47652296601204	1487804.4229477688\\
99.98308643340967	1493278.3494386633\\
100.4896499008073	1498796.5901770645\\
100.99621336820492	1504283.7895158948\\
101.50277683560255	1509839.6086082875\\
102.00934030300017	1515915.8341507798\\
102.5159037703978	1521970.2725106855\\
103.02246723779542	1528002.8154960428\\
103.52903070519305	1534145.8363891873\\
104.03559417259068	1540786.1999184873\\
104.5421576399883	1547413.8803399575\\
105.04872110738593	1554028.8158978175\\
105.55528457478356	1560638.7969337904\\
106.06184804218118	1567878.0615456053\\
106.56841150957881	1575113.7312597441\\
107.07497497697643	1582345.7889065654\\
107.58153844437406	1589574.2173164284\\
108.08810191177169	1597155.2091198594\\
108.59466537916931	1605031.140544289\\
109.10122884656694	1612912.5527824797\\
109.60779231396457	1620799.47140088\\
110.11435578136219	1628691.9219659404\\
110.62091924875982	1637101.2371170064\\
111.12748271615744	1645661.5618303933\\
111.63404618355507	1654236.4645753303\\
112.1406096509527	1662826.0118043108\\
112.64717311835032	1671430.2699698275\\
113.15373658574795	1680497.7223695738\\
113.66030005314558	1689787.2287353687\\
114.1668635205432	1699100.4041061506\\
114.67342698794083	1708437.3539704056\\
115.17999045533846	1717798.1838166239\\
115.68655392273608	1727324.8861562843\\
116.19311739013371	1737385.1469179713\\
116.69968085753133	1747478.1336630157\\
117.20624432492896	1757603.9890658557\\
117.71280779232659	1767762.8558009274\\
118.21937125972421	1777954.8765426686\\
118.72593472712184	1788389.1118052597\\
119.23249819451947	1799299.9277952304\\
119.73906166191709	1810252.6430114997\\
120.24562512931472	1821247.435464404\\
120.75218859671234	1832284.4831642837\\
121.25875206410997	1843363.9641214754\\
121.7653155315076	1854486.056346319\\
122.27187899890522	1866263.9639233288\\
122.77844246630285	1878128.7170367932\\
123.28500593370048	1890044.7315909173\\
123.7915694010981	1902012.2190818933\\
124.29813286849573	1914031.3910059147\\
124.80469633589335	1926102.4588591729\\
125.31125980329098	1938234.826876911\\
125.8178232706886	1951059.5890373471\\
126.32438673808623	1963944.7391667983\\
126.83095020548386	1976890.5203972661\\
127.33751367288149	1989897.1758607477\\
127.84407714027911	2002964.9486892456\\
128.35064060767675	2016094.0820147577\\
128.85720407507438	2029284.8189692842\\
129.363767542472	2042827.1972437901\\
129.87033100986963	2056794.3216740517\\
130.37689447726726	2070831.4154606883\\
130.88345794466488	2084938.7515214584\\
131.3900214120625	2099116.602774123\\
131.89658487946014	2113365.2421364407\\
132.40314834685776	2127684.9425261714\\
132.90971181425576	2142075.9768610857\\
};

\addplot [
color=black,
densely dotted
]
table[row sep=crcr]{
60.75200185424198	2522787.0518530942\\
61.58201661924829	2539102.2417254616\\
62.412031384254604	2551002.345540679\\
63.242046149260915	2559447.5272846683\\
64.07206091426723	2565456.579800457\\
64.90207567927354	2570106.9247881817\\
65.73209044427985	2574534.61280509\\
66.56210520928616	2579934.323265535\\
67.39211997429247	2587559.3644409776\\
68.22213473929878	2598721.673459992\\
69.05214950430509	2614791.8163082562\\
69.8821642693114	2637198.987828558\\
70.71217903431771	2666295.749528752\\
71.54219379932402	2691198.1954112854\\
72.37220856433034	2709513.057287852\\
73.20222332933665	2722161.548664933\\
74.03223809434296	2730116.712567599\\
74.86225285934927	2734403.4215395064\\
75.69226762435558	2736098.377642904\\
76.52228238936189	2736330.1124586286\\
77.3522971543682	2736278.987086105\\
78.18231191937451	2737177.19214335\\
79.01232668438082	2740308.747766965\\
79.84234144938713	2747009.5036121453\\
80.67235621439345	2758667.1388526713\\
81.50237097939976	2776721.1621809155\\
82.33238574440607	2802200.6016910914\\
83.16240050941238	2824820.618899561\\
83.99241527441869	2840505.1017655637\\
84.822430039425	2850232.305378804\\
85.65244480443131	2855026.6924820216\\
86.48245956943762	2855958.9334709872\\
87.31247433444393	2854145.9063945087\\
88.14248909945024	2850750.6969544264\\
88.97250386445656	2846982.598505618\\
89.80251862946287	2844097.112055989\\
90.63253339446918	2843395.946266485\\
91.46254815947549	2846227.0174510833\\
92.2925629244818	2853984.449576797\\
93.12257768948811	2868108.5742636705\\
93.95259245449442	2890008.136150506\\
94.78260721950073	2910881.793767688\\
95.61262198450704	2924627.3930302896\\
96.44263674951335	2932251.1345505435\\
97.27265151451967	2934800.175054876\\
98.10266627952598	2933362.6273839017\\
98.93268104453229	2929067.560492429\\
99.7626958095386	2923084.9994494575\\
100.59271057454491	2916625.9254381764\\
101.42272533955122	2910942.2757559675\\
102.25274010455753	2907326.943814404\\
103.08275486956384	2907113.77913925\\
103.91276963457015	2911677.58737046\\
104.74278439957646	2922434.130262183\\
105.57279916458278	2940840.1256827544\\
106.40281392958909	2960374.095277349\\
107.2328286945954	2972737.8309527165\\
108.06284345960171	2978925.493509326\\
108.89285822460802	2979983.360488197\\
109.72287298961433	2976993.831932622\\
110.55288775462064	2971075.4303881726\\
111.38290251962695	2963382.8009026973\\
112.21291728463326	2955106.7110263184\\
113.04293204963957	2947474.050811439\\
113.87294681464589	2941747.832812735\\
114.7029615796522	2939227.1920871614\\
115.53297634465851	2941247.3861939493\\
116.36299110966482	2949179.7951946063\\
117.19300587467113	2964431.9216529164\\
118.02302063967744	2982715.676278481\\
118.85303540468375	2994167.048710954\\
119.68305016969006	2999502.703383392\\
120.51306493469637	2999745.822284945\\
121.34307969970268	2995951.204538513\\
122.173094464709	2989205.2664007493\\
123.0031092297153	2980626.0412620534\\
123.83312399472162	2971363.1796465805\\
124.66313875972793	2962597.9492122335\\
125.49315352473424	2955543.2347506653\\
126.32316828974055	2951443.5381872826\\
127.15318305474686	2951574.9785812385\\
127.98319781975317	2957245.2921254416\\
128.81321258475947	2969793.8321465473\\
129.64322734976577	2986716.461211684\\
130.47324211477206	2997271.249649079\\
131.30325687977836	3001619.2721484713\\
132.13327164478466	3000784.0817254335\\
132.96328640979095	2995817.8553973148\\
133.79330117479725	2987801.3941832483\\
134.62331593980355	2977844.1231041476\\
135.45333070480984	2967084.091182708\\
136.28334546981614	2956687.971443405\\
137.11336023482244	2947851.060912495\\
137.94337499982873	2941797.2806180175\\
138.77338976483503	2939779.1755897915\\
139.60340452984133	2943077.914859417\\
140.43341929484762	2953003.291460276\\
141.26343405985392	2968421.7854912556\\
142.09344882486022	2978088.8419376053\\
142.9234635898666	2981310.3549899147\\
};

\addplot [
color=black,
dashdotdotted
]
table[row sep=crcr]{
65.36787710872356	2455787.311147843\\
66.12663812832547	2468168.118305797\\
66.88539914792737	2480449.0155932875\\
67.64416016752928	2492729.844057282\\
68.40292118713118	2505114.5119042555\\
69.16168220673309	2517710.994500189\\
69.920443226335	2530451.5388476294\\
70.6792042459369	2543146.9535336485\\
71.4379652655388	2555783.276949613\\
72.19672628514071	2568346.176169627\\
72.95548730474262	2580820.37026019\\
73.71424832434452	2593189.6302802004\\
74.47300934394643	2605436.7792809475\\
75.23177036354834	2617543.692306117\\
75.99053138315024	2629491.2963917893\\
76.74929240275215	2641259.5705664405\\
77.50805342235405	2652827.545850942\\
78.26681444195596	2664173.30525856\\
79.02557546155786	2675273.983794955\\
79.78433648115977	2686105.7684581825\\
80.54309750076168	2696643.8982386948\\
81.30185852036358	2706906.2512552887\\
82.06061953996549	2716987.9025685154\\
82.81938055956739	2726891.1324526602\\
83.5781415791693	2736613.02642217\\
84.3369025987712	2746150.462036542\\
85.09566361837311	2755500.108900325\\
85.85442463797501	2764658.4286631136\\
86.61318565757692	2773621.6750195553\\
87.37194667717883	2782385.8937093457\\
88.13070769678073	2790946.922517231\\
88.88946871638264	2799300.391273007\\
89.64822973598454	2807441.7218515184\\
90.40699075558645	2815366.12817266\\
91.16575177518835	2823068.6162013765\\
91.92451279479026	2830543.9839476617\\
92.68327381439217	2837794.023024491\\
93.44203483399407	2844851.3475467213\\
94.20079585359598	2851718.810720097\\
94.95955687319788	2858394.0789038613\\
95.71831789279979	2864874.687632139\\
96.4770789124017	2871158.0416139397\\
97.2358399320036	2877241.414733158\\
97.9946009516055	2883121.9500485705\\
98.75336197120741	2888796.6597938384\\
99.51212299080932	2894262.4253775054\\
100.27088401041122	2899515.9973830013\\
101.02964503001313	2904553.9955686377\\
101.78840604961503	2909372.9088676097\\
102.54716706921694	2913969.0953879994\\
103.30592808881885	2918338.782412769\\
104.06468910842075	2922473.2755394587\\
104.82345012802266	2926315.504412058\\
105.58221114762456	2929865.41335736\\
106.34097216722647	2933143.3081837017\\
107.09973318682837	2936170.0985230166\\
107.85849420643028	2938967.2978308382\\
108.61725522603219	2941557.0233862926\\
109.37601624563409	2943961.99629211\\
110.134777265236	2946205.5414746134\\
110.8935382848379	2948311.587683727\\
111.65229930443981	2950304.6674929694\\
112.41106032404171	2952209.9172994597\\
113.16982134364362	2954053.0773239136\\
113.92858236324552	2955860.491610644\\
114.68734338284743	2957659.1080275634\\
115.44610440244934	2959475.65500414\\
116.20486542205124	2961278.3419023724\\
116.96362644165315	2963035.907274202\\
117.72238746125505	2964744.7841395508\\
118.48114848085696	2966401.220559957\\
119.23990950045886	2968001.279638585\\
119.99867052006077	2969540.8395202165\\
120.75743153966268	2971015.5933912555\\
121.51619255926458	2972421.0494797253\\
122.27495357886649	2973752.531055272\\
123.03371459846839	2975005.176429162\\
123.7924756180703	2976173.9389542807\\
124.5512366376722	2977253.5870251367\\
125.30999765727411	2978238.704077856\\
126.06875867687602	2979123.688590192\\
126.82751969647792	2979902.754081511\\
127.58628071607983	2980598.92001078\\
128.34504173568175	2981244.8622312234\\
129.10380275528365	2981837.5538287694\\
129.86256377488556	2982373.70259025\\
130.62132479448746	2982849.878086313\\
131.38008581408937	2983262.511671431\\
132.13884683369128	2983607.8964838875\\
132.89760785329318	2983882.187445793\\
133.6563688728951	2984081.4012630703\\
134.415129892497	2984201.4164254656\\
135.1738909120989	2984237.9732065406\\
135.9326519317008	2984186.6736636804\\
136.6914129513027	2984042.9816380846\\
137.45017397090461	2983802.222754774\\
138.20893499050652	2983459.584422589\\
138.96769601010843	2983035.4753725333\\
139.72645702971033	2982587.0888579017\\
140.48521804931246	2982107.0907967235\\
};

\addplot [
color=black,
densely dashdotdetted
]
table[row sep=crcr]{
70.51572499185646	2259257.138336003\\
71.19743566296721	2269179.2347536455\\
71.87914633407796	2278930.5160518996\\
72.56085700518871	2288518.3390360246\\
73.24256767629946	2297950.2755662384\\
73.92427834741021	2307234.112557704\\
74.60598901852096	2316377.8519805423\\
75.28769968963171	2325389.710859822\\
75.96941036074246	2334278.1212755665\\
76.65112103185321	2343051.7303627487\\
77.33283170296396	2351719.4003112963\\
78.01454237407471	2360290.208366086\\
78.69625304518546	2368773.4468269483\\
79.37796371629621	2377178.5487775276\\
80.05967438740696	2385503.5554479174\\
80.74138505851771	2393742.8029469233\\
81.42309572962846	2401895.9099626346\\
82.10480640073921	2409962.3804975054\\
82.78651707184996	2417941.603868359\\
83.4682277429607	2425832.854706383\\
84.14993841407146	2433635.2929571327\\
84.8316490851822	2441347.9638805296\\
85.51335975629296	2448969.798050863\\
86.1950704274037	2456499.6113567874\\
86.87678109851446	2463936.1050013234\\
87.5584917696252	2471277.86550186\\
88.24020244073596	2478523.364690152\\
88.9219131118467	2485670.9597123205\\
89.60362378295746	2492718.8930288535\\
90.2853344540682	2499665.2924146056\\
90.96704512517896	2506512.486200719\\
91.6487557962897	2513287.7098391657\\
92.33046646740046	2519995.6023200215\\
93.0121771385112	2526635.481714653\\
93.69388780962196	2533206.5738155674\\
94.3755984807327	2539708.0121364123\\
95.05730915184346	2546138.837911975\\
95.7390198229542	2552498.000098184\\
96.42073049406495	2558784.3553721067\\
97.1024411651757	2564996.668131953\\
97.78415183628645	2571133.6104970705\\
98.4658625073972	2577193.762307949\\
99.14757317850795	2583175.611126217\\
99.8292838496187	2589077.5522346455\\
100.51099452072945	2594897.888637143\\
101.1927051918402	2600634.831058761\\
101.87441586295095	2606286.4979456896\\
102.5561265340617	2611858.3924864545\\
103.23783720517245	2617363.47486471\\
103.9195478762832	2622803.6985383844\\
104.60125854739395	2628180.809164552\\
105.2829692185047	2633496.5508496435\\
105.96467988961545	2638752.666149449\\
106.6463905607262	2643950.896069115\\
107.32810123183695	2649092.9800631455\\
108.0098119029477	2654180.6560354033\\
108.69152257405845	2659215.6603391077\\
109.3732332451692	2664199.7277768366\\
110.05494391627995	2669134.5916005243\\
110.7366545873907	2674021.983511464\\
111.41836525850145	2678863.633660306\\
112.1000759296122	2683661.2706470573\\
112.78178660072295	2688416.6215210855\\
113.4634972718337	2693131.839440287\\
114.14520794294445	2697818.7124338886\\
114.8269186140552	2702481.3279015846\\
115.50862928516595	2707118.8301765695\\
116.1903399562767	2711730.295866054\\
116.87205062738745	2716314.7338512717\\
117.5537612984982	2720871.085287473\\
118.23547196960895	2725398.2236039275\\
118.9171826407197	2729894.9545039264\\
119.59889331183045	2734360.0159647786\\
120.2806039829412	2738792.0782378125\\
120.96231465405195	2743189.7438483764\\
121.6440253251627	2747551.547595837\\
122.32573599627345	2751875.956553583\\
123.0074466673842	2756161.37006902\\
123.68915733849495	2760406.119763572\\
124.3708680096057	2764608.469532686\\
125.05257868071645	2768773.07074585\\
125.7342893518272	2772923.682171312\\
126.41600002293795	2777061.4975304133\\
127.0977106940487	2781185.069950161\\
127.77942136515945	2785292.8847700586\\
128.4611320362702	2789383.3595421016\\
129.14284270738094	2793454.84403078\\
129.8245533784917	2797505.620213075\\
130.50626404960244	2801533.9022784634\\
131.18797472071319	2805537.836628914\\
131.86968539182394	2809515.5018788893\\
132.55139606293469	2813464.9088553456\\
133.23310673404544	2817384.000597732\\
133.91481740515619	2821270.652357992\\
134.59652807626694	2825122.6716005597\\
135.27823874737769	2828937.798002367\\
135.95994941848843	2832713.703452836\\
136.64166008959918	2836460.0475159865\\
137.32337076070993	2840188.7422673753\\
138.00508143182054	2843900.1929373867\\
};

\addplot [
color=black,
loosely dashed
]
table[row sep=crcr]{
76.27942542816477	2059556.6162216363\\
76.877418628968	2066329.054938823\\
77.47541182977123	2073133.9312858512\\
78.07340503057446	2079987.8803515853\\
78.6713982313777	2086859.072121926\\
79.26939143218092	2093732.6222839132\\
79.86738463298416	2100604.759587936\\
80.46537783378739	2107471.504882696\\
81.06337103459062	2114328.6711152038\\
81.66136423539385	2121171.863330782\\
82.25935743619708	2127996.478673066\\
82.85735063700031	2134797.7063840004\\
83.45534383780354	2141570.5278038415\\
84.05333703860677	2148309.716371157\\
84.65133023941	2155009.8376228274\\
85.24932344021323	2161665.249194041\\
85.84731664101646	2168270.1008183\\
86.4453098418197	2174818.3343274165\\
87.04330304262292	2181303.683651515\\
87.64129624342615	2187719.6748190294\\
88.23928944422939	2194059.6259567067\\
88.83728264503262	2200316.647289604\\
89.43527584583585	2206506.41591979\\
90.03326904663908	2212679.1565600582\\
90.63126224744231	2218834.1294548116\\
91.22925544824554	2224968.0188879957\\
91.82724864904877	2231077.3722719164\\
92.425241849852	2237158.600147244\\
93.02323505065523	2243207.9761830103\\
93.62122825145846	2249221.6371766087\\
94.21922145226169	2255195.583053794\\
94.81721465306492	2261125.6768686846\\
95.41520785386815	2267007.6448037596\\
96.01320105467138	2272837.0761698605\\
96.61119425547462	2278609.423406192\\
97.20918745627785	2284320.0020803194\\
97.80718065708108	2289963.990888171\\
98.40517385788431	2295536.431654036\\
99.00316705868754	2301032.229330566\\
99.60116025949077	2306446.151998775\\
100.199153460294	2311773.243645211\\
100.79714666109723	2317032.1772576906\\
101.39513986190046	2322236.0199252567\\
101.99313306270369	2327385.518920296\\
102.59112626350692	2332481.4198648585\\
103.18911946431015	2337524.4667306575\\
103.78711266511338	2342515.401839068\\
104.38510586591661	2347454.965861128\\
104.98309906671984	2352343.8978175395\\
105.58109226752308	2357182.935078667\\
106.1790854683263	2361972.8133645384\\
106.77707866912954	2366714.266744844\\
107.37507186993277	2371408.0276389373\\
107.973065070736	2376054.8268158347\\
108.57105827153923	2380655.393394215\\
109.16905147234246	2385210.454842422\\
109.76704467314569	2389720.73697846\\
110.36503787394892	2394186.963969998\\
110.96303107475215	2398609.858334367\\
111.56102427555538	2402989.9111611336\\
112.15901747635861	2407326.8616669835\\
112.75701067716184	2411621.6541414135\\
113.35500387796507	2415875.406875588\\
113.9529970787683	2420089.2453259914\\
114.55099027957154	2424264.3021144234\\
115.14898348037477	2428401.7170280013\\
115.746976681178	2432502.637019161\\
116.34496988198123	2436568.216205654\\
116.94296308278446	2440599.6158705517\\
117.54095628358769	2444598.0044622375\\
118.13894948439092	2448564.5575944195\\
118.73694268519415	2452500.458046115\\
119.33493588599738	2456406.895761666\\
119.93292908680061	2460285.067850727\\
120.53092228760384	2464136.178588271\\
121.12891548840707	2467961.4394145906\\
121.7269086892103	2471762.0689352904\\
122.32490189001354	2475539.292921297\\
122.92289509081677	2479295.877702907\\
123.52088829162	2483034.099894178\\
124.11888149242323	2486753.881025814\\
124.71687469322646	2490455.1184552554\\
125.31486789402969	2494137.6903437143\\
125.91286109483292	2497801.455656176\\
126.51085429563615	2501446.254161399\\
127.10884749643938	2505071.9064319157\\
127.70684069724261	2508678.21384403\\
128.30483389804584	2512264.9585778215\\
128.90282709884906	2515831.903617138\\
129.50082029965228	2519378.792749606\\
130.0988135004555	2522905.350566623\\
130.6968067012587	2526411.2824633573\\
131.29479990206192	2529896.274638754\\
131.89279310286514	2533359.9940955276\\
132.49078630366836	2536802.0886401692\\
133.08877950447157	2540222.1868829406\\
133.6867727052748	2543621.431882201\\
134.284765906078	2547017.311922154\\
134.88275910688122	2550413.2324738223\\
135.48075230768399	2553807.0534327016\\
};

\addplot [
color=black,
loosely dashdotted
]
table[row sep=crcr]{
82.75992854189037	1820813.6942118432\\
83.266492009288	1825031.810137576\\
83.77305547668563	1829214.7250031207\\
84.27961894408325	1833366.1118940734\\
84.78618241148088	1837489.710798915\\
85.2927458788785	1841589.3286090135\\
85.79930934627613	1845668.8391186215\\
86.30587281367376	1849732.183024879\\
86.81243628107138	1853783.36792781\\
87.31899974846901	1857826.442070526\\
87.82556321586664	1861850.010168708\\
88.33212668326426	1865843.484184823\\
88.83869015066189	1869808.7019166504\\
89.34525361805952	1873747.5243141463\\
89.85181708545714	1877661.83547944\\
90.35838055285477	1881553.5426668355\\
90.8649440202524	1885424.5762828127\\
91.37150748765002	1889276.8898860249\\
91.87807095504765	1893112.460187301\\
92.38463442244527	1896933.287049642\\
92.8911978898429	1900741.393488226\\
93.39776135724053	1904538.8256704048\\
93.90432482463815	1908327.652915706\\
94.41088829203578	1912109.967695828\\
94.9174517594334	1915887.8856346488\\
95.42401522683103	1919663.545508217\\
95.93057869422866	1923439.109244758\\
96.43714216162628	1927216.7619246708\\
96.94370562902391	1930998.71178053\\
97.45026909642154	1934787.190197083\\
97.95683256381916	1938584.451711252\\
98.46339603121679	1942396.3284244537\\
98.96995949861441	1946244.0575246448\\
99.47652296601204	1950127.715892591\\
99.98308643340967	1954043.5307889173\\
100.4896499008073	1957987.6224160797\\
100.99621336820492	1961956.0039183658\\
101.50277683560255	1965944.581381896\\
102.00934030300017	1969949.1538346226\\
102.5159037703978	1973965.4132463292\\
103.02246723779542	1977988.9445286319\\
103.52903070519305	1982015.2255349776\\
104.03559417259068	1986039.6270606471\\
104.5421576399883	1990057.4128427517\\
105.04872110738593	1994063.7395602353\\
105.55528457478356	1998053.6568338738\\
106.06184804218118	2002022.1072262742\\
106.56841150957881	2005963.9262418759\\
107.07497497697643	2009873.842326951\\
107.58153844437406	2013746.476869603\\
108.08810191177169	2017576.3441997657\\
108.59466537916931	2021357.8515892087\\
109.10122884656694	2025085.29925153\\
109.60779231396457	2028773.9155748768\\
110.11435578136219	2032446.2527157934\\
110.62091924875982	2036102.5300858656\\
111.12748271615744	2039742.9271174956\\
111.63404618355507	2043367.6173920685\\
112.1406096509527	2046976.7686399547\\
112.64717311835032	2050570.5427405057\\
113.15373658574795	2054149.095722057\\
113.66030005314558	2057712.5777619276\\
114.1668635205432	2061261.1331864193\\
114.67342698794083	2064794.9004708175\\
115.17999045533846	2068314.0122393903\\
115.68655392273608	2071818.595265389\\
116.19311739013371	2075308.7704710488\\
116.69968085753133	2078784.6529275873\\
117.20624432492896	2082246.3518552054\\
117.71280779232659	2085693.970623087\\
118.21937125972421	2089127.6067494003\\
118.72593472712184	2092547.3519012958\\
119.23249819451947	2095953.2918949076\\
119.73906166191709	2099345.506695352\\
120.24562512931472	2102724.71546005\\
120.75218859671234	2106096.3687758264\\
121.25875206410997	2109461.5365647804\\
121.7653155315076	2112820.0228968374\\
122.27187899890522	2116171.6203338294\\
122.77844246630285	2119516.109929496\\
123.28500593370048	2122853.261229482\\
123.7915694010981	2126182.8322713403\\
124.29813286849573	2129504.5695845303\\
124.80469633589335	2132818.2081904183\\
125.31125980329098	2136123.4716022764\\
125.8178232706886	2139420.071825285\\
126.32438673808623	2142707.7093565296\\
126.83095020548386	2145986.0731850048\\
127.33751367288149	2149254.8407916087\\
127.84407714027911	2152513.6781491498\\
128.35064060767675	2155762.2397223404\\
128.85720407507438	2159000.168467802\\
129.363767542472	2162227.0958340596\\
129.87033100986963	2165442.6417615493\\
130.37689447726726	2168646.4146826104\\
130.88345794466488	2171838.0115214908\\
131.3900214120625	2175020.1450075926\\
131.89658487946014	2178197.6015508873\\
132.40314834685776	2181370.479238358\\
132.90971181425576	2184538.810634289\\
};
\end{axis}
\end{tikzpicture}%
