%Power_Needed_and_Power_Available_curves_CONTINOUS_OEI
\begin{tikzpicture}

\begin{axis}[
width=\figurewidth,
height=\figureheight,
scaled ticks=false, tick label style={/pgf/number format/fixed},
xmin=60.75200237992029,
xmax=142.9234635898666,
xlabel={Speed ((m/s))},
xmajorgrids,
ymin=1023984.7558615103,
ymax=3780515.659466164,
ylabel={Power ((W))},
ymajorgrids,
legend style={at={(1.03,0.5)},anchor=west,draw=black,fill=white,legend cell align=left}
]

\addplot [
color=black,
solid
]
table[row sep=crcr]{
60.75200237992029	1023984.7558615103\\
61.58201713961672	1024778.6136114275\\
62.41203189931314	1026162.7828422047\\
63.24204665900957	1028132.8971970234\\
64.072061418706	1030680.0479490146\\
64.90207617840242	1033790.6329731867\\
65.73209093809885	1037446.2057183533\\
66.56210569779527	1041623.3241790574\\
67.3921204574917	1046293.3998675024\\
68.22213521718813	1051422.5467854743\\
69.05214997688455	1057323.0545587959\\
69.88216473658098	1063685.468801133\\
70.7121794962774	1070442.061365144\\
71.54219425597383	1077809.1550094304\\
72.37220901567025	1085790.999504543\\
73.20222377536668	1094068.4928392065\\
74.0322385350631	1103105.260785144\\
74.86225329475953	1112553.4260484069\\
75.69226805445595	1122453.5950394599\\
76.52228281415238	1133047.1240106958\\
77.3522975738488	1143885.2777372545\\
78.18231233354523	1155581.9396531316\\
79.01232709324165	1167428.9017609549\\
79.84234185293808	1180168.6975582254\\
80.6723566126345	1193091.1691810677\\
81.50237137233093	1206795.4857393568\\
82.33238613202735	1220855.683031592\\
83.16240089172378	1235426.4474161891\\
83.9924156514202	1250681.7390854321\\
84.82243041111663	1266024.1740889668\\
85.65244517081305	1282503.1176298151\\
86.48245993050948	1299125.8543063125\\
87.3124746902059	1316226.8752417008\\
88.14248944990233	1334176.1255459134\\
88.97250420959875	1352279.694914389\\
89.80251896929518	1371048.0869841496\\
90.6325337289916	1390550.8388013586\\
91.46254848868803	1410242.1185578879\\
92.29256324838445	1430520.4971987342\\
93.12257800808088	1451676.3569624806\\
93.9525927677773	1473054.8992628965\\
94.78260752747373	1494658.108901049\\
95.61262228717015	1517541.433767085\\
96.44263704686658	1540698.6496753846\\
97.272651806563	1564114.7404709954\\
98.10266656625943	1588070.39936648\\
98.93268132595585	1613088.7433032263\\
99.76269608565228	1638399.8284458115\\
100.5927108453487	1664006.1108028912\\
101.42272560504513	1690071.2367582233\\
102.25274036474156	1717349.521317005\\
103.08275512443798	1744956.6052020798\\
103.9127698841344	1772895.1573716847\\
104.74278464383083	1801167.84678406\\
105.57279940352726	1830394.4959964536\\
106.40281416322368	1860427.8746811892\\
107.2328289229201	1890828.7602296595\\
108.06284368261653	1921600.019446879\\
108.89285844231296	1952744.519137861\\
109.72287320200938	1984745.0486321363\\
110.5528879617058	2017724.8665715884\\
111.38290272140223	2051110.8657784383\\
112.21291748109866	2084906.0958016706\\
113.04293224079508	2119113.606190268\\
113.87294700049151	2153736.446493214\\
114.70296176018793	2189464.638661904\\
115.53297651988436	2226011.0483809356\\
116.36299127958078	2263005.271285288\\
117.19300603927721	2300450.524565106\\
118.02302079897363	2338350.025410534\\
118.85303555867006	2376706.9910117155\\
119.68305031836648	2415524.6385587947\\
120.51306507806291	2455870.7559567536\\
121.34307983775933	2496709.750674897\\
122.17309459745576	2538041.3790834923\\
123.00310935715218	2579869.010911038\\
123.83312411684861	2622196.0158860334\\
124.66313887654503	2665025.763736975\\
125.49315363624146	2708361.6241923627\\
126.32316839593788	2752503.9395944416\\
127.15318315563431	2797935.7058879933\\
127.98319791533073	2843904.7482564\\
128.81321267502716	2890414.573863709\\
129.6432274347236	2937468.689873964\\
130.47324219442004	2985070.6034512096\\
131.30325695411648	3033223.821759491\\
132.13327171381292	3081931.8519628537\\
132.96328647350936	3131198.201225343\\
133.7933012332058	3181212.2851833426\\
134.62331599290223	3232676.3703343696\\
135.45333075259867	3284729.1376585434\\
136.2833455122951	3337374.216652648\\
137.11336027199155	3390615.236813469\\
137.943375031688	3444455.8276377893\\
138.77338979138443	3498899.618622395\\
139.60340455108087	3553950.2392640687\\
140.4334193107773	3609611.3190595945\\
141.26343407047375	3665886.4875057586\\
142.0934488301702	3722779.3740993417\\
142.9234635898666	3780515.659466164\\
};

\addplot [
color=black,
densely dashed
]
table[row sep=crcr]{
65.36787767434237	1101786.0751807927\\
66.12663868823095	1102532.2702512864\\
66.88539970211954	1103720.735645016\\
67.64416071600813	1105331.905059519\\
68.40292172989672	1107342.4401273965\\
69.1616827437853	1109725.130759342\\
69.9204437576739	1112658.7137351404\\
70.67920477156248	1116055.2495902993\\
71.43796578545107	1119773.8330990395\\
72.19672679933966	1123823.485925897\\
72.95548781322825	1128554.4522780327\\
73.71424882711683	1133533.0562229909\\
74.47300984100542	1138865.5254704722\\
75.23177085489401	1144821.6259966255\\
75.9905318687826	1150924.9477703604\\
76.74929288267118	1157689.4899181316\\
77.50805389655977	1164699.3970815241\\
78.26681491044836	1172172.9078060016\\
79.02557592433695	1180054.627575813\\
79.78433693822554	1188293.0671640937\\
80.54309795211412	1196998.914057593\\
81.30185896600271	1206055.285925865\\
82.0606199798913	1215524.1036817883\\
82.81938099377989	1225448.2151985965\\
83.57814200766848	1235604.8186981087\\
84.33690302155706	1246443.0420076246\\
85.09566403544565	1257270.9851804236\\
85.85442504933424	1268992.6920405687\\
86.61318606322283	1280803.3079501516\\
87.37194707711141	1293031.032391561\\
88.130708091	1305862.878475453\\
88.88946910488859	1318736.3020582695\\
89.64823011877718	1332359.49545245\\
90.40699113266577	1346314.054325977\\
91.16575214655435	1360336.3191635914\\
91.92451316044294	1375247.2963412679\\
92.68327417433153	1390405.637607489\\
93.44203518822012	1405657.8576422192\\
94.2007962021087	1421717.2721228846\\
94.9595572159973	1438155.0972892425\\
95.71831822988588	1454712.9286765128\\
96.47707924377447	1471748.1582254956\\
97.23584025766306	1489535.262556168\\
97.99460127155164	1507468.3655168642\\
98.75336228544023	1525548.6063795676\\
99.51212329932882	1544471.6320706445\\
100.27088431321741	1563843.13274347\\
101.029645327106	1583387.7094062697\\
101.78840634099458	1603106.6717444495\\
102.54716735488317	1623705.6355281016\\
103.30592836877176	1644770.2775083347\\
104.06468938266035	1666035.079308103\\
104.82345039654894	1687501.511060533\\
105.58221141043752	1709503.7656421354\\
106.34097242432611	1732362.0123035705\\
107.0997334382147	1755447.389495342\\
107.85849445210329	1778761.5178326045\\
108.61725546599187	1802306.0179305123\\
109.37601647988046	1826573.195165075\\
110.13477749376905	1851570.1401171319\\
110.89353850765764	1876822.7147346889\\
111.65229952154623	1902332.6801492295\\
112.41106053543481	1928101.7974922385\\
113.1698215493234	1954251.0391526176\\
113.92858256321199	1981522.3755638872\\
114.68734357710058	2009077.749581595\\
115.44610459098917	2036919.0528878588\\
116.20486560487775	2065048.1771647949\\
116.96362661876634	2093467.0140945206\\
117.72238763265493	2122261.8626242764\\
118.48114864654352	2152243.282922049\\
119.2399096604321	2182538.920354571\\
119.99867067432069	2213150.7871888946\\
120.75743168820928	2244080.8956920723\\
121.51619270209787	2275331.258131156\\
122.27495371598646	2306903.8867731984\\
123.03371472987504	2339045.9074102216\\
123.79247574376363	2372249.1035054554\\
124.55123675765222	2405798.650223378\\
125.30999777154081	2439696.6704502804\\
126.0687587854294	2473945.287072453\\
126.82751979931798	2508546.6229761867\\
127.58628081320657	2543502.8010477717\\
128.34504182709514	2578815.9441734976\\
129.10380284098372	2614902.8208308346\\
129.8625638548723	2651918.6298220004\\
130.62132486876087	2689314.9994615\\
131.38008588264944	2727094.153289162\\
132.138846896538	2765258.3148448216\\
132.8976079104266	2803809.707668309\\
133.65636892431516	2842750.5552994553\\
134.41512993820373	2882083.081278093\\
135.1738909520923	2921809.5091440547\\
135.93265196598088	2962266.429609556\\
136.69141297986945	3003767.545978661\\
137.45017399375803	3045685.5723433406\\
138.2089350076466	3088022.822931266\\
138.96769602153518	3130781.6119701164\\
139.72645703542375	3173964.2536875657\\
140.48521804931246	3217573.062311298\\
};

\addplot [
color=black,
dashdotted
]
table[row sep=crcr]{
70.51572560201885	1188553.8786594195\\
71.19743626696633	1189236.038539822\\
71.87914693191382	1190176.75609069\\
72.56085759686131	1191345.0908515465\\
73.2425682618088	1193009.4100292122\\
73.92427892675629	1194976.0976972706\\
74.60598959170377	1197108.7582749457\\
75.28770025665126	1199767.8207759114\\
75.96941092159875	1202668.19261028\\
76.65112158654624	1205766.099059612\\
77.33283225149373	1209423.2564787283\\
78.01454291644121	1213121.5106876406\\
78.6962535813887	1217401.8628169764\\
79.37796424633619	1221785.9613128838\\
80.05967491128368	1226621.4944330333\\
80.74138557623117	1231656.5170565792\\
81.42309624117865	1237088.7071397202\\
82.10480690612614	1242730.4615270034\\
82.78651757107363	1248798.632888166\\
83.46822823602112	1254993.3066641835\\
84.1499389009686	1261734.482901297\\
84.8316495659161	1268418.29587339\\
85.51336023086358	1275867.0508073298\\
86.19507089581107	1283249.9104082081\\
86.87678156075856	1291154.2157732637\\
87.55849222570605	1299296.2366891494\\
88.24020289065353	1307540.4456383737\\
88.92191355560102	1316470.6994408383\\
89.60362422054851	1325373.910341912\\
90.285334885496	1334700.9240864173\\
90.96704555044349	1344437.9142434231\\
91.64875621539097	1354167.212878141\\
92.33046688033846	1364493.569152949\\
93.01217754528595	1375098.7810890106\\
93.69388821023344	1385715.70356615\\
94.37559887518093	1396936.0194892692\\
95.05730954012841	1408467.2975018113\\
95.7390202050759	1420029.6829055757\\
96.42073087002339	1432015.6488233244\\
97.10244153497088	1444526.860697789\\
97.78415219991837	1457088.5157029154\\
98.46586286486585	1469700.967976248\\
99.14757352981334	1483228.5906601963\\
99.82928419476083	1496838.954147065\\
100.51099485970832	1510519.4584711054\\
101.1927055246558	1524489.6532151124\\
101.8744161896033	1539193.460884852\\
102.55612685455078	1553986.5738442296\\
103.23783751949827	1568869.5896953787\\
103.91954818444576	1584028.5320965718\\
104.60125884939325	1599973.7158142906\\
105.28296951434073	1616027.8442783137\\
105.96468017928822	1632191.6275068219\\
106.64639084423571	1648465.7755179945\\
107.3281015091832	1665573.2835551566\\
108.00981217413069	1682960.7654881836\\
108.69152283907817	1700477.5693465462\\
109.37323350402566	1718124.511353641\\
110.05494416897315	1735932.5890716757\\
110.73665483392064	1754719.2381304775\\
111.41836549886813	1773654.717033628\\
112.10007616381561	1792739.9419989076\\
112.7817868287631	1811975.8292440975\\
113.46349749371059	1831363.2949869782\\
114.14520815865808	1851581.7018330414\\
114.82691882360557	1872163.4291114192\\
115.50862948855305	1892915.2803840127\\
116.19034015350054	1913838.2656521548\\
116.87205081844803	1934933.3949171805\\
117.55376148339552	1956201.6781804243\\
118.235472148343	1978490.9407071283\\
118.9171828132905	2000999.1513505485\\
119.59889347823798	2023698.8221271483\\
120.28060414318547	2046591.0506109819\\
120.96231480813296	2069676.9343761066\\
121.64402547308045	2092957.5709965792\\
122.32573613802793	2116874.6069080885\\
123.00744680297542	2141431.053754593\\
123.68915746792291	2166200.2270673723\\
124.3708681328704	2191183.305782375\\
125.05257879781789	2216381.4688355457\\
125.73428946276537	2241795.8951628334\\
126.41600012771286	2267427.7637001844\\
127.09771079266035	2293502.7476576404\\
127.77942145760784	2320452.000896816\\
128.46113212255534	2347636.3194215395\\
129.14284278750284	2375056.957318817\\
129.82455345245035	2402715.168675653\\
130.50626411739785	2430612.207579056\\
131.18797478234535	2458749.328116029\\
131.86968544729285	2487127.7843735814\\
132.55139611224035	2515794.2437361917\\
133.23310677718786	2545534.8812621725\\
133.91481744213536	2575534.0904048677\\
134.59652810708286	2605793.194191509\\
135.27823877203036	2636313.515649333\\
135.95994943697787	2667096.377805573\\
136.64166010192537	2698143.103687463\\
137.32337076687287	2729455.016322237\\
138.00508143182054	2761033.4387371377\\
};

\addplot [
color=black,
dashed
]
table[row sep=crcr]{
76.27942608819963	1285701.9759071802\\
76.87741928233584	1286302.4270083096\\
77.47541247647204	1286938.7203831933\\
78.07340567060825	1287996.7311407416\\
78.67139886474446	1289186.4960387123\\
79.26939205888067	1290611.6347731466\\
79.86738525301688	1292334.362452836\\
80.46537844715309	1294158.9056014586\\
81.0633716412893	1296388.1937617944\\
81.6613648354255	1298643.1095697898\\
82.25935802956171	1301346.4617257793\\
82.85735122369792	1304061.3242644095\\
83.45534441783413	1307199.9491229313\\
84.05333761197033	1310402.8523077278\\
84.65133080610654	1313931.4631433159\\
85.24932400024275	1317648.934752276\\
85.84731719437896	1321515.5487829053\\
86.44531038851517	1325772.4644746846\\
87.04330358265138	1329926.3293659822\\
87.64129677678758	1334737.6995696698\\
88.23928997092379	1339468.524642368\\
88.83728316506	1344499.9767440106\\
89.43527635919621	1349828.974590857\\
90.03326955333242	1355083.0770628466\\
90.63126274746863	1360951.8763640632\\
91.22925594160483	1366837.6885951064\\
91.82724913574104	1372771.846532822\\
92.42524232987725	1379306.4845581534\\
93.02323552401346	1385794.2886415173\\
93.62122871814967	1392412.089315753\\
94.21922191228587	1399577.7432609221\\
94.81721510642208	1406710.3868043348\\
95.41520830055829	1413922.97724914\\
96.0132014946945	1421759.9855859051\\
96.61119468883071	1429577.7928776362\\
97.20918788296692	1437376.2795356303\\
97.80718107710312	1445826.9685302188\\
98.40517427123933	1454367.547080015\\
99.00316746537554	1462902.654266194\\
99.60116065951175	1471730.905679245\\
100.19915385364796	1481028.9527592692\\
100.79714704778416	1490335.2954933774\\
101.39514024192037	1499649.9833904183\\
101.99313343605658	1509488.6090970852\\
102.59112663019279	1519597.6664590416\\
103.189119824329	1529728.8006809507\\
103.7871130184652	1539882.1404465723\\
104.38510621260141	1550589.3654845625\\
104.98309940673762	1561564.9453910235\\
105.58109260087383	1572576.3878092063\\
106.17908579501004	1583623.8970152086\\
106.77707898914625	1595029.628525082\\
107.37507218328246	1606923.4317072828\\
107.97306537741866	1618866.8445079743\\
108.57105857155487	1630860.1432130178\\
109.16905176569108	1642903.6041082728\\
109.76704495982729	1655624.2811023206\\
110.3650381539635	1668547.1280222957\\
110.9630313480997	1681533.5948446759\\
111.56102454223591	1694584.0262825086\\
112.15901773637212	1707698.767048841\\
112.75701093050833	1721520.0723642667\\
113.35500412464454	1735542.500554693\\
113.95299731878075	1749642.5640938566\\
114.55099051291695	1763820.6725394158\\
115.14898370705316	1778077.2354490305\\
115.74697690118937	1792738.348979262\\
116.34497009532558	1807925.7338927973\\
116.94296328946179	1823204.72102519\\
117.540956483598	1838575.7811961358\\
118.1389496777342	1854039.3852253305\\
118.73694287187041	1869596.0039324707\\
119.33493606600662	1885642.6728691144\\
119.93292926014283	1902160.157266248\\
120.53092245427904	1918783.636936677\\
121.12891564841524	1935513.640379559\\
121.72690884255145	1952350.6960940505\\
122.32490203668766	1969295.3325793098\\
122.92289523082387	1986373.6090834537\\
123.52088842496008	2004302.6316976142\\
124.11888161909629	2022351.9947798136\\
124.7168748132325	2040522.2809260935\\
125.3148680073687	2058814.0727324986\\
125.91286120150491	2077227.9527950715\\
126.51085439564112	2095764.5037098557\\
127.10884758977733	2114424.308072895\\
127.70684078391353	2133874.8547505396\\
128.30483397804974	2153559.3819867373\\
128.90282717218594	2173379.748760374\\
129.50082036632213	2193336.588181802\\
130.09881356045832	2213430.533361378\\
130.69680675459452	2233662.217409455\\
131.2947999487307	2254032.273436388\\
131.8927931428669	2274541.3345525293\\
132.4907863370031	2295880.9854676407\\
133.0887795311393	2317446.216175566\\
133.6867727252755	2339162.796384869\\
134.28476591941168	2361031.4061376387\\
134.88275911354788	2383052.7254759655\\
135.48075230768399	2405227.4344419353\\
};

\addplot [
color=black,
densely dashdotted
]
table[row sep=crcr]{
82.75992925800008	1394931.8974937836\\
83.26649271816429	1395431.3489550175\\
83.77305617832849	1395920.573721381\\
84.27961963849269	1396691.5572684598\\
84.78618309865689	1397547.5886814874\\
85.2927465588211	1398552.9926499254\\
85.7993100189853	1399793.261111378\\
86.3058734791495	1400991.8079849605\\
86.8124369393137	1402632.7040749048\\
87.3190003994779	1404158.0407440495\\
87.8255638596421	1406035.6769587335\\
88.3321273198063	1407986.8574090488\\
88.8386907799705	1409966.4374685693\\
89.34525424013471	1412357.5747274929\\
89.85181770029891	1414652.3611675198\\
90.35838116046311	1417227.616594994\\
90.86494462062731	1419985.11926571\\
91.37150808079151	1422655.61659098\\
91.87807154095572	1425780.3953380508\\
92.38463500111992	1428935.021663179\\
92.89119846128412	1432012.0181328738\\
93.39776192144832	1435631.47827861\\
93.90432538161252	1439212.5866122998\\
94.41088884177672	1442725.4539467078\\
94.91745230194093	1446775.763989974\\
95.42401576210513	1450811.2128953605\\
95.93057922226933	1454787.8063733298\\
96.43714268243353	1459195.8455251544\\
96.94370614259773	1463711.8938718147\\
97.45026960276194	1468178.4524282124\\
97.95683306292614	1472861.5109041547\\
98.46339652309034	1477882.7179655645\\
98.96995998325454	1482863.7642887312\\
99.47652344341874	1487804.443259184\\
99.98308690358294	1493278.3691522384\\
100.48965036374715	1498796.609781444\\
100.99621382391135	1504283.809010675\\
101.50277728407555	1509839.6274464752\\
102.00934074423975	1515915.8528693768\\
102.51590420440395	1521970.2911090127\\
103.02246766456815	1528002.8339734178\\
103.52903112473236	1534145.8541392987\\
104.03559458489656	1540786.2175363845\\
104.54215804506076	1547413.897824678\\
105.04872150522496	1554028.8332483983\\
105.55528496538916	1560638.813483461\\
106.06184842555336	1567878.077948638\\
106.56841188571757	1575113.7475148903\\
107.07497534588177	1582345.8050125714\\
107.58153880604597	1589574.2332720344\\
108.08810226621017	1597155.2241859273\\
108.59466572637437	1605031.1554459885\\
109.10122918653857	1612912.5675182624\\
109.60779264670278	1620799.4859691903\\
110.11435610686698	1628691.936365214\\
110.62091956703118	1637101.2505340544\\
111.12748302719538	1645661.5750630142\\
111.63404648735958	1654236.4776216676\\
112.14060994752379	1662826.0246624995\\
112.64717340768799	1671430.2826379903\\
113.15373686785219	1680497.7339594364\\
113.66030032801639	1689787.2401184528\\
114.16686378818059	1699100.4152802844\\
114.6734272483448	1708437.3649334065\\
115.179990708509	1717798.1945662973\\
115.6865541686732	1727324.8957289266\\
116.1931176288374	1737385.1562592369\\
116.6996810890016	1747478.142770413\\
117.2062445491658	1757603.99793688\\
117.71280800933	1767762.8644330609\\
118.2193714694942	1777954.8849333792\\
118.72593492965841	1788389.1189016008\\
119.23249838982261	1799299.9346305958\\
119.73906184998681	1810252.6495830582\\
120.24562531015101	1821247.441769311\\
120.75218877031521	1832284.4891996789\\
121.25875223047942	1843363.969884484\\
121.76531569064362	1854486.0618340503\\
122.27187915080782	1866263.9679783673\\
122.77844261097202	1878128.7207953\\
123.28500607113622	1890044.7350497008\\
123.79156953130042	1902012.2222377453\\
124.29813299146463	1914031.3938556102\\
124.80469645162883	1926102.4613994712\\
125.31125991179303	1938234.8278616099\\
125.81782337195723	1951059.589690081\\
126.32438683212143	1963944.7394840259\\
126.83095029228564	1976890.5203754255\\
127.33751375244984	1989897.1754962618\\
127.84407721261404	2002964.9479785175\\
128.35064067277824	2016094.0809541736\\
128.85720413294243	2029284.8175552115\\
129.36376759310662	2042827.1941103644\\
129.8703310532708	2056794.3181628084\\
130.376894513435	2070831.4115676926\\
130.88345797359918	2084938.7472427578\\
131.39002143376337	2099116.598105743\\
131.89658489392755	2113365.2370743896\\
132.40314835409174	2127684.9370664377\\
132.90971181425576	2142075.9709996223\\
};

\addplot [
color=black,
densely dotted
]
table[row sep=crcr]{
60.75200237992029	1443545.9344376256\\
61.58201713961672	1456011.2884188814\\
62.41203189931314	1465061.8390423625\\
63.24204665900957	1471270.7921418739\\
64.072061418706	1475249.2676531123\\
64.90207617840242	1477646.2996136642\\
65.73209093809885	1479148.8361630088\\
66.56210569779527	1480481.7395425155\\
67.3921204574917	1482407.7860954453\\
68.22213521718813	1485727.6662669487\\
69.05214997688455	1491279.9846040697\\
69.88216473658098	1499941.259755742\\
70.7121794962774	1512625.9244727907\\
71.54219425597383	1529447.1401641276\\
72.37220901567025	1543607.3944254972\\
73.20222377536668	1553836.062649946\\
74.0322385350631	1560694.6719467714\\
74.86225329475953	1564776.5953101667\\
75.69226805445595	1566707.0516192163\\
76.52228281415238	1567143.1056379\\
77.3522975738488	1566773.6680150903\\
78.18231233354523	1566319.4952845534\\
79.01232709324165	1566533.18986495\\
79.84234185293808	1568199.2000598349\\
80.6723566126345	1572133.8200576552\\
81.50237137233093	1579185.1899317522\\
82.33238613202735	1590233.2956403624\\
83.16240089172378	1605277.8491911388\\
83.9924156514202	1617521.5115898962\\
84.82243041111663	1625839.383641481\\
85.65244517081305	1630813.6529508145\\
86.48245993050948	1633054.037958954\\
87.3124746902059	1633197.7879430912\\
88.14248944990233	1631909.683016555\\
88.97250420959875	1629882.0341288073\\
89.80251896929518	1627834.6830654463\\
90.6325337289916	1626515.0024482065\\
91.46254848868803	1626697.8957349565\\
92.29256324838445	1629185.7972197002\\
93.12257800808088	1634808.6720325775\\
93.9525927677773	1644424.0161398635\\
94.78260752747373	1657922.0302934134\\
95.61262228717015	1668466.63847006\\
96.44263704686658	1675061.573380754\\
97.272651806563	1678309.5579949205\\
98.10266656625943	1678837.7557605354\\
98.93268132595585	1677297.7706041296\\
99.76269608565228	1674365.6469307838\\
100.5927108453487	1670741.8696241307\\
101.42272560504513	1667151.3640463545\\
102.25274036474156	1664343.4960381938\\
103.08275512443798	1663092.0719189362\\
103.9127698841344	1664195.338486422\\
104.74278464383083	1668475.9830170448\\
105.57279940352726	1676781.133265749\\
106.40281416322368	1688891.3407372758\\
107.2328289229201	1697879.531501583\\
108.06284368261653	1702863.0531761204\\
108.89285844231296	1704467.0804818126\\
109.72287320200938	1703338.9771655912\\
110.5528879617058	1700148.2960003964\\
111.38290272140223	1695586.778785174\\
112.21291748109866	1690368.356344878\\
113.04293224079508	1685229.1485304686\\
113.87294700049151	1680927.4642189152\\
114.70296176018793	1678243.8013131928\\
115.53297651988436	1677980.846742284\\
116.36299127958078	1680963.4764611786\\
117.19300603927721	1688038.755450874\\
118.02302079897363	1698906.3949611161\\
118.85303555867006	1706700.1471939562\\
119.68305031836648	1710643.8944233782\\
120.51306507806291	1711350.02827514\\
121.34307983775933	1709450.2653967845\\
122.17309459745576	1705595.6474576376\\
123.00310935715218	1700456.5411488074\\
123.83312411684861	1694722.6381831882\\
124.66313887654503	1689102.9552954568\\
125.49315363624146	1684325.834242073\\
126.32316839593788	1681138.9418012816\\
127.15318315563431	1680309.2697731096\\
127.98319791533073	1682623.1349793684\\
128.81321267502716	1688886.179263653\\
129.6432274347236	1698664.989108811\\
130.47324219442004	1705098.6653619364\\
131.30325695411648	1707542.947293643\\
132.13327171381292	1706642.5360684993\\
132.96328647350936	1703060.446584347\\
133.7933012332058	1697478.0074723002\\
134.62331599290223	1690594.8610967458\\
135.45333075259867	1683128.9635553432\\
136.2833455122951	1675816.5846790243\\
137.11336027199155	1669412.308031994\\
137.943375031688	1664689.0309117304\\
138.77338979138443	1662437.9643489816\\
139.60340455108087	1663468.6331077714\\
140.4334193107773	1668608.8756853947\\
141.26343407047375	1677272.1721417957\\
142.0934488301702	1682198.3613325662\\
142.9234635898666	1682826.7146303225\\
};

\addplot [
color=black,
dashdotdotted
]
table[row sep=crcr]{
65.36787767434237	1441620.227180285\\
66.12663868823095	1448968.397546914\\
66.88539970211954	1456157.6454110409\\
67.64416071600813	1463203.1294805927\\
68.40292172989672	1470120.5882168312\\
69.1616827437853	1476926.3398343557\\
69.9204437576739	1483637.2823011004\\
70.67920477156248	1490254.1541864877\\
71.43796578545107	1496741.9153230644\\
72.19672679933966	1503099.6378735849\\
72.95548781322825	1509328.549545759\\
73.71424882711683	1515429.811023137\\
74.47300984100542	1521404.5159651088\\
75.23177085489401	1527253.6910069035\\
75.9905318687826	1532978.2957595908\\
76.74929288267118	1538579.222810078\\
77.50805389655977	1544057.2977211145\\
78.26681491044836	1549413.279031287\\
79.02557592433695	1554647.858255024\\
79.78433693822554	1559761.6598825927\\
80.54309795211412	1564755.2413800997\\
81.30185896600271	1569629.0931894912\\
82.0606199798913	1574388.610803513\\
82.81938099377989	1579047.4974468255\\
83.57814200766848	1583606.5607021474\\
84.33690302155706	1588065.758573628\\
85.09566403544565	1592424.9534723766\\
85.85442504933424	1596683.9122164615\\
86.61318606322283	1600842.306030914\\
87.37194707711141	1604899.7105477208\\
88.130708091	1608855.6058058308\\
88.88946910488859	1612709.376251154\\
89.64823011877718	1616460.310736558\\
90.40699113266577	1620107.6025218714\\
91.16575214655435	1623650.349273882\\
91.92451316044294	1627087.5530663396\\
92.68327417433153	1630418.1203799513\\
93.44203518822012	1633646.7681539608\\
94.2007962021087	1636789.0710093228\\
94.9595572159973	1639845.928149741\\
95.71831822988588	1642817.259585443\\
96.47707924377447	1645702.9154403722\\
97.23584025766306	1648502.6759521824\\
97.99460127155164	1651216.2514722403\\
98.75336228544023	1653843.2824656263\\
99.51212329932882	1656383.3395111326\\
100.27088431321741	1658835.923301264\\
101.029645327106	1661200.4646422388\\
101.78840634099458	1663476.3244539874\\
102.54716735488317	1665662.793770153\\
103.30592836877176	1667759.0937380912\\
104.06468938266035	1669764.3756188706\\
104.82345039654894	1671676.2470621646\\
105.58221141043752	1673492.3908053357\\
106.34097242432611	1675217.1937502772\\
107.0997334382147	1676855.4594596021\\
107.85849445210329	1678412.090922721\\
108.61725546599187	1679892.0905558385\\
109.37601647988046	1681300.5602019574\\
110.13477749376905	1682642.7011308772\\
110.89353850765764	1683923.8140391917\\
111.65229952154623	1685149.2990502925\\
112.41106053543481	1686324.655714367\\
113.1698215493234	1687455.4830083994\\
113.92858256321199	1688547.4793361693\\
114.68734357710058	1689606.4425282537\\
115.44610459098917	1690638.2698420251\\
116.20486560487775	1691655.3961328906\\
116.96362661876634	1692675.5850069914\\
117.72238763265493	1693692.8105809414\\
118.48114864654352	1694699.5070415575\\
119.2399096604321	1695687.844548629\\
119.99867067432069	1696649.729234917\\
120.75743168820928	1697576.8032061574\\
121.51619270209787	1698460.4445410583\\
122.27495371598646	1699291.7672913002\\
123.03371472987504	1700061.6214815374\\
123.79247574376363	1700760.5931093965\\
124.55123675765222	1701379.004145478\\
125.30999777154081	1701906.9125333533\\
126.0687587854294	1702334.1121895695\\
126.82751979931798	1702650.1330036446\\
127.58628081320657	1702864.5714432446\\
128.34504182709514	1703027.745780923\\
129.10380284098372	1703138.7898995567\\
129.8625638548723	1703193.2266194192\\
130.62132486876087	1703186.443323332\\
131.38008588264944	1703113.6919566668\\
132.138846896538	1702970.089027343\\
132.8976079104266	1702750.615605829\\
133.65636892431516	1702450.1173251437\\
134.41512993820373	1702063.3043808527\\
135.1738909520923	1701584.7515310715\\
135.93265196598088	1701008.898096465\\
136.69141297986945	1700330.0479602462\\
137.45017399375803	1699542.3695681773\\
138.2089350076466	1698639.8959285691\\
138.96769602153518	1697629.9019151854\\
139.72645703542375	1696545.715555625\\
140.48521804931246	1695385.237105417\\
};

\addplot [
color=black,
densely dashdotdetted
]
table[row sep=crcr]{
70.51572560201885	1443291.8574610103\\
71.19743626696633	1450046.59127614\\
71.87914693191382	1456755.3142170801\\
72.56085759686131	1463410.2774420273\\
73.2425682618088	1470003.3130521532\\
73.92427892675629	1476525.8340916033\\
74.60598959170377	1482968.8345474952\\
75.28770025665126	1489322.8893499225\\
75.96941092159875	1495578.154371953\\
76.65112158654624	1501724.3664296286\\
77.33283225149373	1507750.8432819634\\
78.01454291644121	1513646.4836309475\\
78.6962535813887	1519399.7671215443\\
79.37796424633619	1524998.7543416922\\
80.05967491128368	1530431.0868223023\\
80.74138557623117	1535699.6012067734\\
81.42309624117865	1540836.8689889964\\
82.10480690612614	1545847.4424555793\\
82.78651757107363	1550734.5102362398\\
83.46822823602112	1555501.3566451077\\
84.1499389009686	1560151.361680725\\
84.8316495659161	1564688.001026046\\
85.51336023086358	1569114.8460484412\\
86.19507089581107	1573435.56379969\\
86.87678156075856	1577653.9170159874\\
87.55849222570605	1581773.7641179408\\
88.24020289065353	1585799.0592105698\\
88.92191355560102	1589733.8520833072\\
89.60362422054851	1593582.2882100001\\
90.285334885496	1597348.6087489051\\
90.96704555044349	1601037.1505426953\\
91.64875621539097	1604650.168741852\\
92.33046688033846	1608170.8964926002\\
93.01217754528595	1611597.0888677756\\
93.69388821023344	1614931.5934496461\\
94.37559887518093	1618177.317826543\\
95.05730954012841	1621337.2295928576\\
95.7390202050759	1624414.356349044\\
96.42073087002339	1627411.7857016167\\
97.10244153497088	1630332.665263152\\
97.78415219991837	1633180.202652288\\
98.46586286486585	1635957.6654937249\\
99.14757352981334	1638668.3814182233\\
99.82928419476083	1641315.7380626062\\
100.51099485970832	1643903.183069758\\
101.1927055246558	1646434.2240886241\\
101.8744161896033	1648912.4287742118\\
102.55612685455078	1651341.4236570545\\
103.23783751949827	1653722.993802655\\
103.91954818444576	1656056.3573554473\\
104.60125884939325	1658341.0904042309\\
105.28296951434073	1660576.7198477122\\
105.96468017928822	1662762.7233945066\\
106.64639084423571	1664898.529563135\\
107.3281015091832	1666983.5176820268\\
108.00981217413069	1669017.0178895185\\
108.69152283907817	1670998.3111338539\\
109.37323350402566	1672926.6291731847\\
110.05494416897315	1674801.1545755703\\
110.73665483392064	1676621.0207189757\\
111.41836549886813	1678385.3117912754\\
112.10007616381561	1680093.06279025\\
112.7817868287631	1681743.2595235885\\
113.46349749371059	1683334.8386088866\\
114.14520815865808	1684872.2005718702\\
114.82691882360557	1686371.895597106\\
115.50862948855305	1687834.00675285\\
116.19034015350054	1689257.2142835106\\
116.87205081844803	1690640.1373914646\\
117.55376148339552	1691981.334237056\\
118.235472148343	1693279.3019385983\\
118.9171828132905	1694532.4765723716\\
119.59889347823798	1695739.2331726246\\
120.28060414318547	1696897.885731574\\
120.96231480813296	1698006.6871994042\\
121.64402547308045	1699063.8294842676\\
122.32573613802793	1700067.4434522851\\
123.00744680297542	1701015.598927546\\
123.68915746792291	1701906.3046921054\\
124.3708681328704	1702737.5084859896\\
125.05257879781789	1703508.4897733089\\
125.73428946276537	1704238.2515341325\\
126.41600012771286	1704932.171327747\\
127.09771079266035	1705588.5484623227\\
127.77942145760784	1706205.6234596376\\
128.46113212255534	1706781.578055076\\
129.14284278750284	1707314.5351976298\\
129.82455345245035	1707802.5590498967\\
130.50626411739785	1708243.6549880812\\
131.18797478234535	1708635.769601995\\
131.86968544729285	1708976.7906950559\\
132.55139611224035	1709264.5472842886\\
133.23310677718786	1709496.8096003248\\
133.91481744213536	1709671.2890874024\\
134.59652810708286	1709785.638403367\\
135.27823877203036	1709837.4514196692\\
135.95994943697787	1709824.2632213677\\
136.64166010192537	1709769.1334745963\\
137.32337076687287	1709698.4687187518\\
138.00508143182054	1709605.4982541206\\
};

\addplot [
color=black,
loosely dashed
]
table[row sep=crcr]{
76.27942608819963	1279708.7613118151\\
76.87741928233584	1283759.732846072\\
77.47541247647204	1287815.7692620521\\
78.07340567060825	1291888.7623227711\\
78.67139886474446	1295990.8993688002\\
79.26939205888067	1300131.4660196253\\
79.86738525301688	1304298.83681467\\
80.46537844715309	1308487.505193502\\
81.0633716412893	1312694.0543672743\\
81.6613648354255	1316914.8835569092\\
82.25935802956171	1321146.2079930955\\
82.85735122369792	1325384.0589162924\\
83.45534441783413	1329624.2835767257\\
84.05333761197033	1333862.5452343905\\
84.65133080610654	1338094.3231590507\\
85.24932400024275	1342314.9126302367\\
85.84731719437896	1346519.4249372499\\
86.44531038851517	1350702.7873791575\\
87.04330358265138	1354859.7432647971\\
87.64129677678758	1358984.8519127732\\
88.23928997092379	1363072.4886514593\\
88.83728316506	1367116.8448189974\\
89.43527635919621	1371111.9277632977\\
90.03326955333242	1375053.8944426244\\
90.63126274746863	1378983.1576498428\\
91.22925594160483	1382914.5669372939\\
91.82724913574104	1386845.552142239\\
92.42524232987725	1390773.4327086082\\
93.02323552401346	1394695.4176870023\\
93.62122871814967	1398608.6057346915\\
94.21922191228587	1402509.9851156157\\
94.81721510642208	1406396.4337003834\\
95.41520830055829	1410264.7189662748\\
96.0132014946945	1414111.4979972374\\
96.61119468883071	1417933.3174838908\\
97.20918788296692	1421726.6137235228\\
97.80718107710312	1425487.7126200907\\
98.40517427123933	1429212.8296842228\\
99.00316746537554	1432898.0700332157\\
99.60116065951175	1436539.4283910366\\
100.19915385364796	1440132.7890883216\\
100.79714704778416	1443673.930946931\\
101.39514024192037	1447171.102500773\\
101.99313343605658	1450635.4728531912\\
102.59112663019279	1454068.5072737916\\
103.189119824329	1457471.6925814052\\
103.7871130184652	1460846.5371440868\\
104.38510621260141	1464194.5708791162\\
104.98309940673762	1467517.3452529989\\
105.58109260087383	1470816.4332814636\\
106.17908579501004	1474093.4295294648\\
106.77707898914625	1477349.9501111808\\
107.37507218328246	1480587.6326900148\\
107.97306537741866	1483808.1364785954\\
108.57105857155487	1487013.142238775\\
109.16905176569108	1490204.352281631\\
109.76704495982729	1493383.4904674652\\
110.3650381539635	1496552.3022058047\\
110.9630313480997	1499712.554455401\\
111.56102454223591	1502866.0357242292\\
112.15901773637212	1506016.8404995424\\
112.75701093050833	1509170.2107977394\\
113.35500412464454	1512324.9109405861\\
113.95299731878075	1515479.434458087\\
114.55099051291695	1518632.2229298523\\
115.14898370705316	1521781.665985101\\
115.74697690118937	1524926.1013026582\\
116.34497009532558	1528063.8146109562\\
116.94296328946179	1531193.0396880356\\
117.540956483598	1534311.9583615432\\
118.1389496777342	1537418.7005087335\\
118.73694287187041	1540511.3440564678\\
119.33493606600662	1543587.9149812153\\
119.93292926014283	1546646.3873090514\\
120.53092245427904	1549684.6831156602\\
121.12891564841524	1552700.6725263316\\
121.72690884255145	1555692.1737159635\\
122.32490203668766	1558656.9529090608\\
122.92289523082387	1561596.6242745984\\
123.52088842496008	1564530.094284558\\
124.11888161909629	1567459.1073203834\\
124.7168748132325	1570382.3374064467\\
125.3148680073687	1573298.420084805\\
125.91286120150491	1576205.9524151958\\
126.51085439564112	1579103.4929750385\\
127.10884758977733	1581989.561859435\\
127.70684078391353	1584862.6406811695\\
128.30483397804974	1587721.1725707077\\
128.90282717218594	1590563.5621761973\\
129.50082036632213	1593388.1756634682\\
130.09881356045832	1596193.3407160323\\
130.69680675459452	1598977.3465350831\\
131.2947999487307	1601738.4438394972\\
131.8927931428669	1604474.844865832\\
132.4907863370031	1607184.7233683276\\
133.0887795311393	1609866.2146189054\\
133.6867727252755	1612518.6201332726\\
134.28476591941168	1615160.9021910967\\
134.88275911354788	1617798.4499325438\\
135.48075230768399	1620428.9344229004\\
};

\addplot [
color=black,
loosely dashdotted
]
table[row sep=crcr]{
82.75992925800008	1131300.3281558503\\
83.26649271816429	1133967.7255531175\\
83.77305617832849	1136614.9318856292\\
84.27961963849269	1139243.1982688706\\
84.78618309865689	1141853.7895179316\\
85.2927465588211	1144447.9841475035\\
85.7993100189853	1147027.0743718806\\
86.3058734791495	1149592.3661049611\\
86.8124369393137	1152145.1789602458\\
87.3190003994779	1154686.8462508384\\
87.8255638596421	1157218.7149894456\\
88.3321273198063	1159742.1458883765\\
88.8386907799705	1162257.4871612291\\
89.34525424013471	1164763.8769506598\\
89.85181770029891	1167261.8358214854\\
90.35838116046311	1169751.9072930426\\
90.86494462062731	1172234.629980031\\
91.37150808079151	1174710.5375925126\\
91.87807154095572	1177180.1589359131\\
92.38463500111992	1179644.0179110195\\
92.89119846128412	1182102.633513984\\
93.39776192144832	1184556.5198363194\\
93.90432538161252	1187006.1860649027\\
94.41088884177672	1189452.1364819733\\
94.91745230194093	1191894.8704651336\\
95.42401576210513	1194334.8824873487\\
95.93057922226933	1196772.6621169467\\
96.43714268243353	1199208.6940176184\\
96.94370614259773	1201643.4579484179\\
97.45026960276194	1204077.4287637614\\
97.95683306292614	1206511.0764134289\\
98.46339652309034	1208944.8659425625\\
98.96995998325454	1211379.2574916673\\
99.47652344341874	1213821.8408889435\\
99.98308690358294	1216284.8620091155\\
100.48965036374715	1218766.7715370718\\
100.99621382391135	1221265.6723281762\\
101.50277728407555	1223779.608485114\\
102.00934074423975	1226306.565357894\\
102.51590420440395	1228844.4695438473\\
103.02246766456815	1231391.1888876278\\
103.52903112473236	1233944.5324812115\\
104.03559458489656	1236502.2506638973\\
104.54215804506076	1239062.0350223067\\
105.04872150522496	1241621.5183903845\\
105.55528496538916	1244178.274849396\\
106.06184842555336	1246729.819727931\\
106.56841188571757	1249273.6096019011\\
107.07497534588177	1251807.042294541\\
107.58153880604597	1254327.4568764074\\
108.08810226621017	1256832.1336653798\\
108.59466572637437	1259318.2942266604\\
109.10122918653857	1261783.101372774\\
109.60779264670278	1264223.6591635677\\
110.11435610686698	1266647.6407324795\\
110.62091956703118	1269073.8756509146\\
111.12748302719538	1271502.0171294715\\
111.63404648735958	1273931.1756487857\\
112.14060994752379	1276360.4356748941\\
112.64717340768799	1278788.8556592346\\
113.15373686785219	1281215.4680386456\\
113.66030032801639	1283639.2792353663\\
114.16686378818059	1286059.2696570368\\
114.6734272483448	1288474.3936966986\\
115.179990708509	1290883.5797327934\\
115.6865541686732	1293285.7301291635\\
116.1931176288374	1295679.721235053\\
116.6996810890016	1298064.4033851065\\
117.2062445491658	1300438.6008993692\\
117.71280800933	1302801.1120832867\\
118.2193714694942	1305150.709227707\\
118.72593492965841	1307486.1386088775\\
119.23249838982261	1309806.120488447\\
119.73906184998681	1312109.3491134646\\
120.24562531015101	1314394.4927163813\\
120.75218877031521	1316665.863158628\\
121.25875223047942	1318934.1559818736\\
121.76531569064362	1321199.0563476558\\
122.27187915080782	1323459.8843926783\\
122.77844261097202	1325715.943038355\\
123.28500607113622	1327966.517990812\\
123.79156953130042	1330210.8777408882\\
124.29813299146463	1332448.2735641347\\
124.80469645162883	1334677.939520815\\
125.31125991179303	1336899.0924559038\\
125.81782337195723	1339110.9319990894\\
126.32438683212143	1341312.6405647711\\
126.83095029228564	1343503.3833520608\\
127.33751375244984	1345682.308344783\\
127.84407721261404	1347848.5463114737\\
128.35064067277824	1350001.210805382\\
128.85720413294243	1352139.3981644688\\
129.36376759310662	1354262.1875114064\\
129.8703310532708	1356368.6407535807\\
130.376894513435	1358457.8025830882\\
130.88345797359918	1360528.7004767393\\
131.39002143376337	1362585.7186710315\\
131.89658489392755	1364639.5214031222\\
132.40314835409174	1366689.364262271\\
132.90971181425576	1368734.0670281034\\
};
\end{axis}
\end{tikzpicture}%
