%Rate_of_Climb_curves_OEI
\begin{tikzpicture}

\begin{axis}[
width=\figurewidth,
height=\figureheight,
scaled ticks=false, tick label style={/pgf/number format/fixed},
xmin=60.75200185424198,
xmax=146.32640319914915,
xlabel={Speed ((m/s))},
xmajorgrids,
ymin=-10.652384703773274,
ymax=2.7160695354369877,
ylabel={Rate of Climb ((m/s))},
ymajorgrids,
legend style={at={(1.03,0.5)},anchor=west,draw=black,fill=white,legend cell align=left}
]

\addplot [
color=black,
solid
]
table[row sep=crcr]{
60.75200185424198	2.654082215044001\\
61.61638974661478	2.684272850598542\\
62.480777638987576	2.7040176733565082\\
63.34516553136037	2.71435582706785\\
64.20955342373317	2.7160695354369877\\
65.07394131610597	2.709586034807198\\
65.93832920847878	2.6958201508696122\\
66.80271710085158	2.6756794072157892\\
67.66710499322438	2.6500751488400303\\
68.53149288559719	2.6199656370061692\\
69.39588077796999	2.58635682232512\\
70.2602686703428	2.5488631793951395\\
71.1246565627156	2.5093187439035907\\
71.9890444550884	2.4692420314622288\\
72.85343234746121	2.428595151474899\\
73.71782023983401	2.3881100306955667\\
74.58220813220682	2.3504190374255396\\
75.44659602457962	2.3141298833447435\\
76.31098391695242	2.28217285518751\\
77.17537180932523	2.254955180274398\\
78.03975970169803	2.2329858371174156\\
78.90414759407084	2.2174326392616432\\
79.76853548644364	2.193445938958443\\
80.63292337881644	2.1600135195347177\\
81.49731127118925	2.1157695734376043\\
82.36169916356205	2.0630951636230126\\
83.22608705593485	2.001878860649505\\
84.09047494830766	1.9326149250544373\\
84.95486284068046	1.857959856356069\\
85.81925073305327	1.7749339185211597\\
86.68363862542607	1.6886186400712795\\
87.54802651779887	1.5968432045001324\\
88.41241441017168	1.50129004000292\\
89.27680230254448	1.4048285154897375\\
90.14119019491729	1.3040393114329376\\
91.00557808729009	1.2032332997154516\\
91.8699659796629	1.1040681684089186\\
92.7343538720357	1.0030857490205454\\
93.5987417644085	0.904842290852304\\
94.4631296567813	0.8109579091196668\\
95.32751754915411	0.7193293061772904\\
96.19190544152691	0.6320089982741266\\
97.05629333389972	0.5519356141987627\\
97.92068122627252	0.47680214309676316\\
98.78506911864532	0.38856579626654747\\
99.64945701101813	0.2909053653979692\\
100.51384490339093	0.18454002121021024\\
101.37823279576374	0.06973308697331056\\
102.24262068813654	-0.05688248595806079\\
103.10700858050934	-0.19007211768519952\\
103.97139647288215	-0.3290495436755805\\
104.83578436525495	-0.47301145343348155\\
105.70017225762776	-0.6246812395944469\\
106.56456015000056	-0.7812729284802734\\
107.42894804237336	-0.9404617467249695\\
108.29333593474617	-1.1013772127117267\\
109.15772382711897	-1.263131798860554\\
110.02211171949178	-1.4287483280415367\\
110.88649961186458	-1.5945925409758461\\
111.75088750423738	-1.758631014777497\\
112.61527539661019	-1.919908973437634\\
113.47966328898299	-2.077454594984223\\
114.3440511813558	-2.231301103008204\\
115.2084390737286	-2.383468378956682\\
116.0728269661014	-2.5289999486099894\\
116.9372148584742	-2.6726850341039725\\
117.80160275084701	-2.8264186968154754\\
118.66599064321981	-2.9899570678652223\\
119.53037853559262	-3.162595325702591\\
120.39476642796542	-3.3477424221893224\\
121.25915432033823	-3.5415399369329683\\
122.12354221271103	-3.7423433334171397\\
122.98793010508383	-3.9493891877414855\\
123.85231799745664	-4.16189923021613\\
124.71670588982944	-4.379080345361679\\
125.58109378220225	-4.6001245719092205\\
126.44548167457505	-4.8262660340331935\\
127.30986956694785	-5.057636871286118\\
128.17425745932064	-5.290461475258778\\
129.03864535169345	-5.523873205024779\\
129.90303324406625	-5.756990573868185\\
130.76742113643905	-5.988917249283555\\
131.63180902881186	-6.218742052975922\\
132.49619692118466	-6.445538960860796\\
133.36058481355747	-6.668367103064182\\
134.22497270593027	-6.889625508962514\\
135.08936059830307	-7.1067375606945555\\
135.95374849067588	-7.326423643179798\\
136.81813638304868	-7.55748471492598\\
137.68252427542149	-7.799190714611717\\
138.5469121677943	-8.050797076831962\\
139.4113000601671	-8.311545167280078\\
140.2756879525399	-8.580662282747852\\
141.1400758449127	-8.857361651125483\\
142.0044637372855	-9.140842431401614\\
142.8688516296583	-9.430979838622811\\
143.7332395220311	-9.7306125210851\\
144.59762741440392	-10.034630949402976\\
145.46201530677672	-10.342178555843798\\
146.32640319914915	-10.652384703773274\\
};

\addplot [
color=black,
densely dashed
]
table[row sep=crcr]{
65.36787710872356	2.181789448852578\\
66.16042485705306	2.19251264383228\\
66.95297260538256	2.20077973706342\\
67.74552035371205	2.2066644433972438\\
68.53806810204155	2.210258721294833\\
69.33061585037105	2.2116732875408944\\
70.12316359870054	2.2110381319574977\\
70.91571134703004	2.2072335356010924\\
71.70825909535954	2.201223718624355\\
72.50080684368903	2.193403048360198\\
73.29335459201853	2.1834239175137773\\
74.08590234034803	2.1702271057174225\\
74.87845008867752	2.1555793414406095\\
75.67099783700702	2.1385988050524842\\
76.46354558533652	2.11873950461157\\
77.25609333366602	2.097918986367345\\
78.04864108199551	2.0731955171647916\\
78.84118883032501	2.047507587660627\\
79.6337365786545	2.018764336105311\\
80.426284326984	1.9884212171579916\\
81.2188320753135	1.9554682221125392\\
82.011379823643	1.920769281020928\\
82.8039275719725	1.8833597866014258\\
83.59647532030199	1.8446145942534153\\
84.38902306863149	1.80250648803987\\
85.18157081696098	1.7600950153544574\\
85.97411856529048	1.713063109396015\\
86.76666631361998	1.6657622753742134\\
87.55921406194948	1.6152758758483128\\
88.35176181027897	1.562715929647054\\
89.14430955860847	1.509486572495594\\
89.93685730693797	1.4514808152622762\\
90.72940505526746	1.3929466983958618\\
91.52195280359696	1.3325193341856147\\
92.31450055192646	1.268246352543109\\
93.10704830025595	1.2033126564698418\\
93.89959604858545	1.1362450908998967\\
94.69214379691495	1.0653037218928458\\
95.48469154524444	0.9935685394059707\\
96.27723929357394	0.9205778718203715\\
97.06978704190344	0.8425872073108439\\
97.86233479023294	0.7636615737415461\\
98.65488253856243	0.6838023278578581\\
99.44743028689193	0.6002426531067387\\
100.23997803522143	0.5138241130876595\\
101.03252578355092	0.4263655243493366\\
101.82507353188042	0.33786785199914976\\
102.61762128020992	0.2447264826448473\\
103.41016902853941	0.14944145917291357\\
104.20271677686891	0.05301277270622469\\
104.99526452519841	-0.044559006251847624\\
105.7878122735279	-0.14598030603577206\\
106.5803600218574	-0.2505241516419962\\
107.3729077701869	-0.3563132459153983\\
108.1654555185164	-0.4633473614852401\\
108.95800326684589	-0.571626162459504\\
109.75055101517539	-0.6855691657410843\\
110.54309876350489	-0.8010572041664658\\
111.33564651183438	-0.917889494962376\\
112.12819426016388	-1.0360659938980519\\
112.92074200849338	-1.1555865482214487\\
113.71328975682287	-1.2801513725992282\\
114.50583750515237	-1.407007496795527\\
115.29838525348187	-1.5352710297945154\\
116.09093300181136	-1.6649631976738375\\
116.88348075014086	-1.7961055146885005\\
117.67602849847036	-1.9288344153887818\\
118.46857624679986	-2.0675665655567834\\
119.26112399512935	-2.207908232230494\\
120.05367174345885	-2.3498827051780373\\
120.84621949178835	-2.493513562344909\\
121.63876724011784	-2.638824669853969\\
122.43131498844734	-2.7858401820054404\\
123.22386273677684	-2.9368008017609224\\
124.01641048510633	-3.0919611954154735\\
124.80895823343583	-3.2489895866979848\\
125.60150598176533	-3.407911853950428\\
126.39405373009483	-3.5687541636921143\\
127.18660147842432	-3.7315429706197607\\
127.97914922675382	-3.896305017607427\\
128.7716969750833	-4.063067335706546\\
129.5642447234128	-4.236428886496331\\
130.3567924717423	-4.411975045731082\\
131.1493402200718	-4.589584182469363\\
131.9418879684013	-4.769200496157283\\
132.7344357167308	-4.950842215427354\\
133.52698346506028	-5.134527716737891\\
134.31953121338978	-5.320275524373008\\
135.11207896171928	-5.508104310442633\\
135.90462671004877	-5.699385607834551\\
136.69717445837827	-5.89607204448608\\
137.48972220670777	-6.0949771498177086\\
138.28226995503726	-6.296120655632109\\
139.07481770336676	-6.499522441557754\\
139.86736545169626	-6.70520253504893\\
140.65991320002576	-6.913181111385721\\
141.45246094835525	-7.1234784936740105\\
142.24500869668475	-7.336115152845507\\
143.03755644501425	-7.55111170765771\\
143.83010419334371	-7.768651251340477\\
};

\addplot [
color=black,
dashdotted
]
table[row sep=crcr]{
70.51572499185646	1.6677321058551486\\
71.23062591824181	1.6808447182535777\\
71.94552684462717	1.6922255830258794\\
72.66042777101252	1.7020138719527964\\
73.37532869739788	1.7097545951978161\\
74.09022962378323	1.7149820504959075\\
74.80513055016858	1.7188944189377109\\
75.52003147655394	1.721192333690341\\
76.2349324029393	1.720676265705548\\
76.94983332932465	1.719213837625472\\
77.66473425571	1.7155417951856344\\
78.37963518209536	1.70990978984297\\
79.09453610848071	1.7033743428915402\\
79.80943703486606	1.6936977961309756\\
80.52433796125142	1.6838091629503942\\
81.23923888763677	1.6705546346225204\\
81.95413981402213	1.6570290584783482\\
82.66904074040748	1.6403140262732443\\
83.38394166679284	1.6233058963255291\\
84.09884259317819	1.6029448029133566\\
84.81374351956354	1.5827421665647758\\
85.5286444459489	1.5585773334440889\\
86.24354537233425	1.5345103365742545\\
86.95844629871961	1.5074065587674057\\
87.67334722510496	1.4793069438987978\\
88.38824815149032	1.4496945887972774\\
89.10314907787567	1.4174329772738739\\
89.81805000426102	1.3851093180403795\\
90.53295093064638	1.349235314801019\\
91.24785185703173	1.3125524895812712\\
91.96275278341709	1.2751339767198826\\
92.67765370980244	1.2339948346829177\\
93.3925546361878	1.1926364603805728\\
94.10745556257315	1.1499488678812624\\
94.8223564889585	1.1039735533226749\\
95.53725741534386	1.057705316469929\\
96.25215834172921	1.0103526150968456\\
96.96705926811457	0.9593194073320204\\
97.68196019449992	0.9079030124549871\\
98.39686112088528	0.8561006880115172\\
99.11176204727063	0.8002046690854594\\
99.82666297365598	0.7433694737506256\\
100.54156390004134	0.6860485191706388\\
101.2564648264267	0.6268749427842566\\
101.97136575281205	0.5643713917166004\\
102.6862666791974	0.5012822332152165\\
103.40116760558276	0.43760288148619664\\
104.11606853196811	0.37134583943245053\\
104.83096945835347	0.30226134178541625\\
105.54587038473882	0.23248624417194613\\
106.26077131112417	0.1620150470505373\\
106.97567223750953	0.08962533382090584\\
107.69057316389488	0.013552144922353446\\
108.40547409028024	-0.06331775168411455\\
109.12037501666559	-0.14099073682495777\\
109.83527594305095	-0.21947327287007945\\
110.5501768694363	-0.3017887303161105\\
111.26507779582165	-0.3861333905647981\\
111.97997872220701	-0.471338859070093\\
112.69487964859236	-0.5573951107248343\\
113.40978057497772	-0.6443096455148672\\
114.12468150136307	-0.7350447163634761\\
114.83958242774843	-0.8279204025367409\\
115.55448335413378	-0.9217562209666691\\
116.26938428051913	-1.0165605665876019\\
116.98428520690449	-1.1123419355245452\\
117.69918613328984	-1.2098199569459962\\
118.4140870596752	-1.3117589245000538\\
119.12898798606055	-1.414776826821907\\
119.8438889124459	-1.5188830225224212\\
120.55878983883126	-1.6240869714031128\\
121.27369076521661	-1.7303982344561593\\
121.98859169160197	-1.837868402823598\\
122.70349261798732	-1.9505874197115716\\
123.41839354437268	-2.0645160313723183\\
124.13329447075803	-2.1796646288212305\\
124.84819539714339	-2.296043704264361\\
125.56309632352874	-2.4136638510984056\\
126.2779972499141	-2.5325334122065097\\
126.99289817629945	-2.6530183325934233\\
127.7077991026848	-2.778452766648869\\
128.42270002907017	-2.90515838468137\\
129.13760095545553	-3.033145407401179\\
129.85250188184088	-3.16242415296997\\
130.56740280822623	-3.2930050370008597\\
131.2823037346116	-3.424898572558401\\
131.99720466099694	-3.5581153701585775\\
132.7121055873823	-3.693802134428583\\
133.42700651376765	-3.8338764887720806\\
134.141907440153	-3.975373773339872\\
134.85680836653836	-4.1183053487890025\\
135.5717092929237	-4.262682673227949\\
136.28661021930907	-4.408517302216625\\
137.00151114569442	-4.555820888766378\\
137.71641207207978	-4.704605183339981\\
138.43131299846513	-4.854882033851652\\
139.14621392485049	-5.007965872007599\\
139.86111485123584	-5.165442753397621\\
140.5760157776212	-5.324512463224211\\
141.29091670400675	-5.485184313464271\\
};

\addplot [
color=black,
dashed
]
table[row sep=crcr]{
76.27942542816477	0.20907277519426412\\
76.91000178248115	0.22315912221254225\\
77.54057813679752	0.23678693716244995\\
78.1711544911139	0.24874757154953794\\
78.80173084543027	0.2593945292752907\\
79.43230719974665	0.2695544502276929\\
80.06288355406302	0.2772229696838185\\
80.6934599083794	0.2848732164431346\\
81.32403626269577	0.2900646932320161\\
81.95461261701215	0.29493776009098743\\
82.58518897132852	0.29774033564032265\\
83.2157653256449	0.29991168623272313\\
83.84634167996127	0.3001227248620721\\
84.47691803427765	0.29991880366757767\\
85.10749438859402	0.29774417591225716\\
85.7380707429104	0.29558585148597\\
86.36864709722677	0.2908955671208459\\
86.99922345154314	0.2867067453280866\\
87.62979980585952	0.27963183320447893\\
88.2603761601759	0.272677129559237\\
88.89095251449227	0.2640469743989953\\
89.52152886880864	0.2541719367660743\\
90.15210522312502	0.24427557948232992\\
90.7826815774414	0.23133271580418846\\
91.41325793175777	0.2186096883076209\\
92.04383428607414	0.2043435840010497\\
92.67441064039052	0.1883191807610176\\
93.3049869947069	0.17241108302684716\\
93.93556334902327	0.1539743047460983\\
94.56613970333964	0.13453711876461127\\
95.19671605765602	0.11510972538466357\\
95.8272924119724	0.09276650097146001\\
96.45786876628877	0.06958900073510996\\
97.08844512060514	0.046337573114040576\\
97.71902147492152	0.02053703587858325\\
98.3495978292379	-0.00647539386083918\\
98.98017418355427	-0.033568789216459366\\
99.61075053787064	-0.06214756518280535\\
100.24132689218702	-0.09309002514199445\\
100.8719032465034	-0.12416864090627346\\
101.50247960081977	-0.15537882680561244\\
102.13305595513614	-0.1898714520029248\\
102.76363230945252	-0.22506353535837934\\
103.3942086637689	-0.2604416413038353\\
104.02478501808527	-0.2963162511132097\\
104.65536137240164	-0.3357322232608816\\
105.28593772671802	-0.37538750000613375\\
105.91651408103439	-0.4152779018457328\\
106.54709043535077	-0.4555255123847059\\
107.17766678966714	-0.49954818532141043\\
107.80824314398352	-0.5438581278325781\\
108.43881949829989	-0.5884513052084532\\
109.06939585261627	-0.6333236232727643\\
109.69997220693264	-0.6809192447546268\\
110.33054856124902	-0.7300350442095787\\
110.96112491556539	-0.7794626284437748\\
111.59170126988177	-0.8292083997508064\\
112.22227762419814	-0.8792789037848031\\
112.85285397851452	-0.9331514285459526\\
113.48343033283089	-0.987620839616979\\
114.11400668714727	-1.0424974945480083\\
114.74458304146364	-1.0977888570192775\\
115.37515939578002	-1.153502534071557\\
116.00573575009639	-1.2126310024230236\\
116.63631210441277	-1.2729315371016\\
117.26688845872914	-1.333738283196636\\
117.89746481304552	-1.3950597467372103\\
118.52804116736189	-1.4569045771129578\\
119.15861752167827	-1.5200552894505004\\
119.78919387599464	-1.5866548317994138\\
120.41977023031102	-1.6538627760301157\\
121.05034658462739	-1.721688651482771\\
121.68092293894377	-1.7901421308580765\\
122.31149929326014	-1.8592330302172648\\
122.94207564757652	-1.9291867675501988\\
123.57265200189289	-2.0031573549891553\\
124.20322835620927	-2.0777493551393458\\
124.83380471052564	-2.152969971893143\\
125.46438106484202	-2.2288265153374183\\
126.09495741915839	-2.305326401753537\\
126.72553377347477	-2.3824771536173706\\
127.35611012779114	-2.4612676904728445\\
127.98668648210752	-2.543425055618479\\
128.6172628364239	-2.62631097401491\\
129.24783919074028	-2.709933661348803\\
129.87841554505667	-2.794301439501305\\
130.50899189937306	-2.8794227365480727\\
131.13956825368945	-2.9653060867592522\\
131.77014460800584	-3.0519601305994972\\
132.40072096232223	-3.1419992867859725\\
133.03129731663861	-3.2339246797805696\\
133.661873670955	-3.326699939276338\\
134.2924500252714	-3.4203343799109267\\
134.92302637958778	-3.514837422516488\\
135.55360273390417	-3.610218594119673\\
136.18417908822056	-3.706452119126737\\
136.81475544253695	-3.8034800158334994\\
137.44533179685334	-3.9021750493141707\\
138.07590815116973	-4.0044979678545936\\
138.70648450548597	-4.10769678034848\\
};

\addplot [
color=black,
densely dashdotted
]
table[row sep=crcr]{
82.75992854189037	-1.1658267876750612\\
83.29845682694415	-1.1559309675163936\\
83.83698511199792	-1.1459865549409027\\
84.37551339705169	-1.1378706858550167\\
84.91404168210546	-1.1297631364998018\\
85.45256996715923	-1.1232477328664239\\
85.991098252213	-1.1170465287470321\\
86.52962653726678	-1.1119306042171155\\
87.06815482232055	-1.1076995764617281\\
87.60668310737432	-1.103762300702838\\
88.1452113924281	-1.101575582631603\\
88.68373967748187	-1.0988874394663495\\
89.22226796253564	-1.0985386837394744\\
89.76079624758941	-1.0980183558345797\\
90.29932453264318	-1.0984020406899522\\
90.83785281769696	-1.1001126986458325\\
91.37638110275073	-1.1014060200283147\\
91.9149093878045	-1.104947830323748\\
92.45343767285827	-1.1085740968432796\\
92.99196595791204	-1.1122712517395317\\
93.53049424296582	-1.118281253650722\\
94.06902252801959	-1.1239584219071144\\
94.60755081307336	-1.1302378821370032\\
95.14607909812713	-1.1383874286652866\\
95.6846073831809	-1.1462442895763991\\
96.22313566823468	-1.1547817745635338\\
96.76166395328845	-1.1651923695334718\\
97.30019223834222	-1.1753506677637786\\
97.83872052339599	-1.185774618951666\\
98.37724880844976	-1.198555313544868\\
98.91577709350354	-1.2110498818062438\\
99.45430537855731	-1.2232414204777045\\
99.99283366361108	-1.2377959008473558\\
100.53136194866485	-1.252583812868691\\
101.06989023371862	-1.2671455866498162\\
101.6084185187724	-1.2825553444261804\\
102.14694680382617	-1.2998443121296952\\
102.68547508887994	-1.3169865339121387\\
103.22400337393371	-1.333992729042558\\
103.76253165898748	-1.352830919528278\\
104.30105994404126	-1.3727621158996046\\
104.83958822909503	-1.392640265684123\\
105.3781165141488	-1.4124775737887054\\
105.91664479920257	-1.4344192742950899\\
106.45517308425634	-1.4573779845818668\\
106.99370136931012	-1.4803823101855822\\
107.53222965436389	-1.5034459315769058\\
108.07075793941766	-1.5280963305099313\\
108.60928622447143	-1.5544756233167882\\
109.1478145095252	-1.581003850070355\\
109.68634279457898	-1.6076108413216736\\
110.22487107963275	-1.6342522648982707\\
110.76339936468652	-1.6640276379269172\\
111.30192764974029	-1.6938740045460838\\
111.84045593479406	-1.7237964046413206\\
112.37898421984784	-1.7538000145611727\\
112.91751250490161	-1.7845503070692394\\
113.45604078995538	-1.8178729683606603\\
113.99456907500915	-1.8513379694701337\\
114.53309736006292	-1.8849512451603563\\
115.0716256451167	-1.9187188666570143\\
115.61015393017047	-1.9528482091425663\\
116.14868221522424	-1.990076652853406\\
116.68721050027801	-2.027522147058634\\
117.22573878533179	-2.0651915113240493\\
117.76426707038556	-2.1030917016784563\\
118.30279535543933	-2.1412298106136376\\
118.8413236404931	-2.1812297443241317\\
119.37985192554687	-2.2230175457186907\\
119.91838021060065	-2.265108015917092\\
120.45690849565442	-2.3074822913644506\\
120.99543678070819	-2.3500886818266062\\
121.53396506576196	-2.392929570187965\\
122.07249335081573	-2.4376258889176916\\
122.6110216358695	-2.4840999867473337\\
123.14954992092328	-2.5308636096586055\\
123.68807820597705	-2.577921624723118\\
124.22660649103082	-2.6252789893175366\\
124.7651347760846	-2.6729407511235777\\
125.30366306113837	-2.7209120481280054\\
125.84219134619214	-2.7723247459784806\\
126.38071963124591	-2.824099976249903\\
126.91924791629968	-2.8762411245543715\\
127.45777620135345	-2.928753862364877\\
127.99630448640723	-2.981643951459483\\
128.534832771461	-3.0349172439212815\\
129.07336105651478	-3.0885796821384304\\
129.61188934156857	-3.145394709935266\\
130.15041762662236	-3.203016334901301\\
130.68894591167614	-3.261084672850928\\
131.22747419672993	-3.3195944713054417\\
131.76600248178372	-3.3784884580021477\\
132.3045307668375	-3.4377642188834807\\
132.8430590518913	-3.497429187848225\\
133.38158733694507	-3.5577058836130835\\
133.92011562199886	-3.6213023018525554\\
134.45864390705265	-3.6853487675902312\\
134.99717219210643	-3.7498533397308864\\
135.53570047716022	-3.814824195401308\\
136.07422876221423	-3.880269629950307\\
};
\end{axis}
\end{tikzpicture}%
