%Rate_of_Climb_curves_AOE_CAS
\begin{tikzpicture}

\begin{axis}[
width=\figurewidth,
height=\figureheight,
scaled ticks=false, tick label style={/pgf/number format/fixed},
xmin=60.75200668180895,
xmax=142.92347371036968,
xlabel={Speed (CAS) ((m/s))},
xmajorgrids,
ymin=-3.622056028766193,
ymax=7.378635070293968,
ylabel={Rate of Climb ((m/s))},
ymajorgrids,
legend style={at={(1.03,0.5)},anchor=west,draw=black,fill=white,legend cell align=left}
]

\addplot [
color=black,
solid
]
table[row sep=crcr]{
60.75200668180895	6.792680059692456\\
61.582021500279254	6.863023840903422\\
62.412036318749564	6.910682802695382\\
63.242051137219875	6.940028266165666\\
64.07206595569019	6.955717848958259\\
64.9020807741605	6.9626961497339135\\
65.7320955926308	6.966195432640248\\
66.56211041110112	6.971736311781864\\
67.39212522957142	6.985128435690462\\
68.22214004804172	7.012471171794944\\
69.05215486651204	7.058560704849746\\
69.88216968498234	7.1312767184721\\
70.71218450345265	7.232523980135592\\
71.54219932192296	7.311995441679121\\
72.37221414039327	7.35882540528222\\
73.20222895886357	7.378635070293968\\
74.03224377733389	7.373733152456301\\
74.86225859580419	7.350341052986753\\
75.6922734142745	7.313154432068183\\
76.52228823274481	7.266194032241192\\
77.35230305121512	7.216843035454656\\
78.18231786968542	7.167903654432619\\
79.01233268815574	7.128404810639872\\
79.84234750662604	7.101035455656328\\
80.67236232509634	7.095303138096183\\
81.50237714356666	7.115016337488475\\
82.33239196203697	7.166769175291012\\
83.16240678050727	7.203248952866903\\
83.99242159897759	7.20519406446059\\
84.82243641744789	7.179745419749216\\
85.65245123591819	7.1267901589937015\\
86.48246605438851	7.055679695310806\\
87.31248087285881	6.969959862618802\\
88.14249569132912	6.873225231221353\\
88.97251050979943	6.774101257227367\\
89.80252532826974	6.67596432238304\\
90.63254014674004	6.584398717207168\\
91.46255496521036	6.507987044616064\\
92.29256978368066	6.4512412226052085\\
93.12258460215097	6.419372904591197\\
93.95259942062128	6.42173421429636\\
94.78261423909159	6.418427818439916\\
95.61262905756189	6.377014976104992\\
96.44264387603221	6.306616141466884\\
97.27265869450251	6.212045158537709\\
98.10267351297283	6.09696131122386\\
98.93268833144313	5.964110817680154\\
99.76270314991343	5.822285756732853\\
100.59271796838375	5.676963251513477\\
101.42273278685406	5.533075514814545\\
102.25274760532436	5.393063422729972\\
103.08276242379468	5.266980057336338\\
103.91277724226498	5.161044040886187\\
104.74279206073528	5.081659611688018\\
105.5728068792056	5.032619639524932\\
106.4028216976759	4.985035551459421\\
107.23283651614621	4.903289879724575\\
108.06285133461652	4.7918752410668155\\
108.89286615308683	4.655520448080981\\
109.72288097155713	4.4969429796777245\\
110.55289579002745	4.32065344353009\\
111.38291060849775	4.134482137163372\\
112.21292542696806	3.943811884079685\\
113.04294024543837	3.754189217560185\\
113.87295506390868	3.571324380665067\\
114.70296988237898	3.3979779178041767\\
115.5329847008493	3.2415026257791357\\
116.3629995193196	3.109792397035724\\
117.1930143377899	3.0092115539884334\\
118.02302915626022	2.920311574137022\\
118.85304397473053	2.7983734811481074\\
119.68305879320083	2.646630672013279\\
120.51307361167115	2.464880989444912\\
121.34308843014145	2.2625982389793484\\
122.17310324861175	2.044707241453655\\
123.00311806708207	1.8162597328297936\\
123.83313288555237	1.58245074019446\\
124.66314770402268	1.3486185817591132\\
125.493162522493	1.1202448668599438\\
126.3231773409633	0.9016085946732492\\
127.1531921594336	0.6963042562117732\\
127.98320697790392	0.5136675165072188\\
128.81322179637422	0.3597525265269667\\
129.64323661484454	0.22319445487351305\\
130.47325143331486	0.055294210886437004\\
131.30326625178517	-0.14323409554492905\\
132.13328107025552	-0.3677675431963247\\
132.96329588872584	-0.6135534848081714\\
133.79331070719616	-0.8765520976783189\\
134.62332552566647	-1.1549181101267885\\
135.4533403441368	-1.4395902422050804\\
136.2833551626071	-1.7252974969330683\\
137.11336998107745	-2.006639151295308\\
137.94338479954777	-2.278084756240997\\
138.7733996180181	-2.533974136684025\\
139.6034144364884	-2.768517391502936\\
140.43342925495872	-2.975794893540942\\
141.26344407342907	-3.16096028645054\\
142.0934588918994	-3.374991152246966\\
142.92347371036968	-3.622056028766193\\
};

\addplot [
color=black,
densely dashed
]
table[row sep=crcr]{
60.75200766706598	6.136431209695553\\
61.457189731609645	6.18916010911722\\
62.1623717961533	6.239431809166686\\
62.867553860696965	6.2877874725591045\\
63.57273592524063	6.33480378993911\\
64.27791798978429	6.381093431533425\\
64.98310005432795	6.425539286641612\\
65.68828211887161	6.4676824749606014\\
66.39346418341528	6.508098314174207\\
67.09864624795892	6.546680959594233\\
67.80382831250259	6.581773824942939\\
68.50901037704625	6.615268810064172\\
69.21419244158992	6.646606636152652\\
69.91937450613358	6.67448256075672\\
70.62455657067724	6.700969268418615\\
71.32973863522089	6.723646541573319\\
72.03492069976456	6.744304033745774\\
72.74010276430822	6.761853342758543\\
73.44528482885188	6.776441894746347\\
74.15046689339555	6.788195120354606\\
74.85564895793921	6.796499157237925\\
75.56083102248286	6.8019647497813915\\
76.26601308702652	6.8047421548102145\\
76.97119515157019	6.804647516938853\\
77.67637721611385	6.802677381221822\\
78.38155928065751	6.796782116857127\\
79.08674134520118	6.790082370667638\\
79.79192340974483	6.778464914840259\\
80.49710547428849	6.765560430063998\\
81.20228753883215	6.749863571642648\\
81.90746960337582	6.730507919223457\\
82.61265166791948	6.710023157474329\\
83.31783373246314	6.685178959411499\\
84.0230157970068	6.65784987275701\\
84.72819786155046	6.629208188106022\\
85.43337992609412	6.595509469609316\\
86.13856199063778	6.559668473533635\\
86.84374405518145	6.522528615922455\\
87.54892611972511	6.480870029611914\\
88.25410818426877	6.4366254172724995\\
88.95929024881242	6.39095471742167\\
89.66447231335609	6.342226441985121\\
90.36965437789975	6.289184288188337\\
91.07483644244341	6.234561182545253\\
91.78001850698708	6.178338421020862\\
92.48520057153074	6.117349147937043\\
93.19038263607439	6.053365677341804\\
93.89556470061805	5.987620817811672\\
94.60074676516172	5.920092721350387\\
95.30592882970538	5.8475669811263975\\
96.01111089424904	5.7719042417335436\\
96.7162929587927	5.6942684478855305\\
97.42147502333636	5.614394289853824\\
98.12665708788002	5.530766929227785\\
98.83183915242368	5.4420273632782195\\
99.53702121696735	5.35112040181917\\
100.24220328151101	5.258136200635365\\
100.94738534605467	5.163167652083519\\
101.65256741059832	5.064086566398518\\
102.35774947514199	4.960966518802367\\
103.06293153968565	4.856064783929288\\
103.76811360422931	4.749484563593738\\
104.47329566877298	4.641331796182166\\
105.17847773331664	4.531174882644277\\
105.88365979786029	4.4157705526158635\\
106.58884186240395	4.29903907114119\\
107.29402392694762	4.181093000133319\\
107.99920599149128	4.0617796888013995\\
108.70438805603494	3.940948884841295\\
109.4095701205786	3.8181933093950238\\
110.11475218512226	3.6898224413189293\\
110.81993424966592	3.5597720123708907\\
111.52511631420958	3.4280142222670156\\
112.23029837875325	3.2945204324787287\\
112.93548044329691	3.1592611662327856\\
113.64066250784057	3.0222061085112606\\
114.34584457238422	2.882213233894077\\
115.05102663692789	2.7370308725211\\
115.75620870147155	2.5898749520428574\\
116.46139076601521	2.440711303128362\\
117.16657283055888	2.2895049182019394\\
117.87175489510254	2.136219951443246\\
118.57693695964619	1.9809511076620512\\
119.28211902418984	1.823836855070132\\
119.98730108873349	1.6629746507012975\\
120.69248315327714	1.4976462018535899\\
121.39766521782079	1.3303212215673355\\
122.10284728236444	1.1609734592414207\\
122.80802934690809	0.9895760378690149\\
123.51321141145173	0.8161014540376466\\
124.21839347599538	0.6405215779291645\\
124.92357554053903	0.46280765331974405\\
125.62875760508268	0.2829302975798737\\
126.33393966962632	0.09934412555541361\\
127.03912173416997	-0.08939314693049479\\
127.74430379871362	-0.2804597995456708\\
128.44948586325728	-0.47388813154613246\\
129.15466792780092	-0.6695961373338012\\
129.85984999234455	-0.8673351012182604\\
130.56503205688836	-1.067148750035604\\
};

\addplot [
color=black,
dashdotted
]
table[row sep=crcr]{
60.752007667065975	4.8525043658510905\\
61.33932760442793	4.894380422935729\\
61.92664754178988	4.934310531640241\\
62.51396747915184	4.9724682579325234\\
63.10128741651379	5.007671658509369\\
63.688607353875746	5.040833505561343\\
64.2759272912377	5.072608219193892\\
64.86324722859966	5.101399549294904\\
65.45056716596162	5.1285377708188955\\
66.03788710332356	5.154260463382677\\
66.62520704068551	5.176968466484802\\
67.21252697804746	5.199051230933511\\
67.79984691540942	5.218099013993559\\
68.38716685277137	5.236322490784753\\
68.97448679013333	5.252137035716795\\
69.56180672749528	5.266658813106282\\
70.14912666485723	5.278990204078091\\
70.73644660221919	5.2899791917540355\\
71.32376653958114	5.298640216548493\\
71.9110864769431	5.30632922543009\\
72.49840641430505	5.311138940737482\\
73.085726351667	5.3158017985035055\\
73.67304628902896	5.316586205471966\\
74.26036622639091	5.317252209653438\\
74.84768616375287	5.3151320526311086\\
75.43500610111482	5.311505214171569\\
76.02232603847678	5.306978988981131\\
76.60964597583873	5.2988998503483264\\
77.19696591320069	5.290491598064759\\
77.78428585056264	5.279702481668616\\
78.3716057879246	5.2666057157572235\\
78.95892572528655	5.253217634544619\\
79.5462456626485	5.236818495430354\\
80.13356560001046	5.21884732216154\\
80.72088553737241	5.200511326908367\\
81.30820547473436	5.179125033131798\\
81.89552541209632	5.15600941561851\\
82.48284534945827	5.132428032618854\\
83.07016528682023	5.106596986037762\\
83.65748522418218	5.078049920926567\\
84.24480516154414	5.04893265985527\\
84.83212509890609	5.019237161581712\\
85.41944503626804	4.985039170260066\\
86.00676497363	4.950104044161206\\
86.59408491099195	4.914481196329264\\
87.1814048483539	4.877167503111788\\
87.76872478571586	4.8361425483871985\\
88.35604472307782	4.794351321674896\\
88.94336466043977	4.751849851059339\\
89.53068459780172	4.707803917122597\\
90.11800453516368	4.659908648014295\\
90.70532447252563	4.611241505010906\\
91.29264440988757	4.561807167647059\\
91.87996434724953	4.511610308429768\\
92.46728428461148	4.457382144151853\\
93.05460422197343	4.401638536936079\\
93.64192415933539	4.345070121646212\\
94.22924409669734	4.287681061349072\\
94.8165640340593	4.229338728081569\\
95.40388397142125	4.166346292861638\\
95.9912039087832	4.102472045107492\\
96.57852384614516	4.0377196665937145\\
97.16584378350711	3.972092832067254\\
97.75316372086907	3.905597147435033\\
98.34048365823102	3.835207116622651\\
98.92780359559298	3.7630605545764615\\
99.51512353295493	3.690029163531599\\
100.10244347031689	3.616104181206607\\
100.68976340767884	3.541276538381022\\
101.2770833450408	3.465536858895357\\
101.86440328240275	3.3850376318555395\\
102.4517232197647	3.3034083075724396\\
103.03904315712666	3.220767743990468\\
103.62636309448861	3.1371049403082054\\
104.21368303185056	3.052408588785224\\
104.80100296921252	2.966667074742066\\
105.38832290657447	2.877871877374422\\
105.97564284393643	2.7860020934221015\\
106.56296278129838	2.692983926431461\\
107.15028271866034	2.5988041652290392\\
107.73760265602229	2.5034785471504843\\
108.32492259338424	2.407109405615015\\
108.9122425307462	2.309696807620359\\
109.49956246810815	2.210211428584601\\
110.0868824054701	2.106692383588568\\
110.67420234283207	2.0020294194342445\\
111.26152228019403	1.8962093735228627\\
111.848842217556	1.7892187760378129\\
112.43616215491797	1.6810438499446172\\
113.02348209227993	1.5716705109909646\\
113.6108020296419	1.461084367706666\\
114.19812196700387	1.3490649050671597\\
114.78544190436583	1.2320397987650225\\
115.3727618417278	1.1136958069293548\\
115.96008177908976	0.9940169967764988\\
116.54740171645173	0.8729871283049117\\
117.1347216538137	0.7505896542952215\\
117.72204159117567	0.6268623565351691\\
118.30936152853762	0.5018532253511351\\
118.89668146589975	0.37555810122155886\\
};

\addplot [
color=black,
dashed
]
table[row sep=crcr]{
60.752007667065975	3.507165025904928\\
61.22827353557172	3.5351369182889765\\
61.704539404077465	3.563093380678481\\
62.18080527258321	3.589360990586537\\
62.657071141088956	3.6151096262355265\\
63.1333370095947	3.639802219080214\\
63.609602878100446	3.6631397141890756\\
64.0858687466062	3.6859913372629842\\
64.56213461511193	3.7069652137594753\\
65.03840048361768	3.727759612639171\\
65.51466635212343	3.746437473928577\\
65.99093222062918	3.7649571748841724\\
66.46719808913491	3.7814276150926576\\
66.94346395764066	3.7974543147635385\\
67.41972982614641	3.811827827981566\\
67.89599569465216	3.8251427830521427\\
68.37226156315789	3.8375526725778633\\
68.84852743166364	3.847937089453306\\
69.32479330016939	3.858503544304305\\
69.80105916867514	3.8657758015179122\\
70.27732503718087	3.8730684761548186\\
70.75359090568662	3.8786228435635413\\
71.22985677419237	3.88252391833779\\
71.70612264269812	3.8866872523370364\\
72.18238851120385	3.8879842112989476\\
72.6586543797096	3.8891085146592186\\
73.13492024821535	3.8899025126392166\\
73.61118611672109	3.8878476247506883\\
74.08745198522683	3.8858606368192525\\
74.56371785373258	3.8831226318155876\\
75.03998372223833	3.8777217245312823\\
75.51624959074407	3.8722716820499636\\
75.99251545924982	3.866241204485526\\
76.46878132775556	3.857142720514515\\
76.94504719626131	3.8478725476640934\\
77.42131306476705	3.8384099977337907\\
77.8975789332728	3.825689829736496\\
78.37384480177855	3.812238014907131\\
78.8501106702843	3.798463644679919\\
79.32637653879003	3.7829896602477353\\
79.80264240729578	3.7649930035616412\\
80.27890827580153	3.746649853345832\\
80.75517414430728	3.728019206125966\\
81.23144001281301	3.706767745567007\\
81.70770588131876	3.684047759040211\\
82.18397174982451	3.6609881801072044\\
82.66023761833026	3.637591789817766\\
83.13650348683599	3.6114523341044187\\
83.61276935534174	3.5838672066272403\\
84.08903522384749	3.555893421315389\\
84.56530109235324	3.527533386710932\\
85.04156696085897	3.4973303976579593\\
85.51783282936472	3.4646992868391586\\
85.99409869787047	3.4316305077747944\\
86.47036456637622	3.3981261127357225\\
86.94663043488195	3.364188146513347\\
87.4228963033877	3.326978045069321\\
87.89916217189345	3.288652033869733\\
88.3754280403992	3.2498413061052713\\
88.85169390890493	3.210546525163113\\
89.32795977741068	3.170764946891014\\
89.80422564591643	3.127590103939268\\
90.28049151442218	3.0833177625718147\\
90.75675738292792	3.0385126778056204\\
91.23302325143366	2.993178126619323\\
91.70928911993941	2.9473174184652726\\
92.18555498844516	2.899457860135143\\
92.6618208569509	2.849053034906161\\
93.13808672545665	2.7980781577712364\\
93.6143525939624	2.7465363904337026\\
94.09061846246814	2.6944309270706257\\
94.56688433097388	2.6417649943327977\\
95.04315019947963	2.586744591404413\\
95.51941606798538	2.529462317031707\\
95.99568193649111	2.4715770204519214\\
96.47194780499686	2.4130917968033083\\
96.94821367350261	2.3540097736978587\\
97.42447954200836	2.2943341112212834\\
97.90074541051409	2.2339592441946317\\
98.37701127901984	2.169645513914004\\
98.85327714752559	2.1047028157514536\\
99.32954301603134	2.0391280441562603\\
99.80580888453707	1.972918006579003\\
100.28207475304282	1.9060694234715903\\
100.75834062154857	1.838578928287248\\
101.23460649005432	1.7704430674805254\\
101.71087235856005	1.6986358332345388\\
102.1871382270658	1.6256795227711165\\
102.66340409557154	1.5520178440955166\\
103.13966996407727	1.4776467667330786\\
103.615935832583	1.4025621732104494\\
104.09220170108874	1.3267598590556053\\
104.56846756959447	1.2502355327978338\\
105.04473343810021	1.172984815967756\\
105.52099930660594	1.091871800660421\\
105.99726517511168	1.0096367526543435\\
106.47353104361741	0.9266212694034186\\
106.94979691212315	0.8429015270714507\\
107.42606278062888	0.7584898774956342\\
107.90232864913455	0.6733735395687457\\
};

\addplot [
color=black,
densely dashdotted
]
table[row sep=crcr]{
60.75200766706598	1.9301270179255465\\
61.123863316190715	1.9469802727280374\\
61.495718965315454	1.9637203419349545\\
61.867574614440194	1.9790405730194511\\
62.239430263564934	1.9938494239187594\\
62.611285912689674	2.0078726236108224\\
62.983141561814406	2.020740272788417\\
63.354997210939146	2.0337237390232965\\
63.726852860063886	2.0446473412813777\\
64.09870850918863	2.056057908629908\\
64.47056415831337	2.065783426116815\\
64.8424198074381	2.0750392472943875\\
65.21427545656285	2.084038299894349\\
65.58613110568758	2.0910525200675383\\
65.95798675481231	2.0983923224379484\\
66.32984240393705	2.1043585763041537\\
66.70169805306179	2.1094051784295527\\
67.07355370218653	2.114761254616121\\
67.44540935131127	2.1179826128264816\\
67.81726500043601	2.121001881347162\\
68.18912064956075	2.124315324101601\\
68.56097629868549	2.125121905900259\\
68.93283194781023	2.126063302692285\\
69.30468759693497	2.1272844576602137\\
69.6765432460597	2.1260499567541467\\
70.04839889518443	2.1248725738920995\\
70.42025454430917	2.1239614923785863\\
70.79211019343391	2.1211045352341755\\
71.16396584255865	2.117777547756695\\
71.5358214916834	2.1147044394917636\\
71.90767714080813	2.11068994363139\\
72.27953278993287	2.105209171220659\\
72.65138843905761	2.1000728958179673\\
73.02324408818235	2.095282402176229\\
73.39509973730709	2.088220930739962\\
73.76695538643182	2.0810867738877383\\
74.13881103555656	2.0742033823414308\\
74.5106666846813	2.06710053313852\\
74.88252233380604	2.057711652395204\\
75.25437798293078	2.048474478857885\\
75.62623363205552	2.0393694933620887\\
75.99808928118026	2.029776278704939\\
76.369944930305	2.0179205507273843\\
76.74180057942974	2.0060923204694303\\
77.11365622855448	1.9942699175332466\\
77.48551187767922	1.9823956030715009\\
77.85736752680394	1.967572037666409\\
78.22922317592868	1.9526440692691869\\
78.60107882505342	1.937587884633223\\
78.97293447417816	1.9223791853165888\\
79.3447901233029	1.9053788225441421\\
79.71664577242764	1.88682259812245\\
80.08850142155238	1.867996531675269\\
80.46035707067712	1.8489695236200392\\
80.83221271980186	1.8298436659711124\\
81.2040683689266	1.8083025604236833\\
81.57592401805132	1.7860050942071763\\
81.94777966717606	1.7635703751573726\\
82.3196353163008	1.7409988622728962\\
82.69149096542554	1.7182909880351565\\
83.06334661455028	1.6934149049711733\\
83.43520226367502	1.66746415079121\\
83.80705791279976	1.6413384784907665\\
84.1789135619245	1.615038037568392\\
84.55076921104924	1.5885629510054033\\
84.92262486017398	1.5612702774112321\\
85.29448050929872	1.5314941770378365\\
85.66633615842345	1.5015049843941628\\
86.03819180754819	1.471302547863234\\
86.41004745667293	1.4408866893108359\\
86.78190310579767	1.4102572040855346\\
87.1537587549224	1.3784670350753063\\
87.52561440404715	1.3444543972137024\\
87.89747005317189	1.3101896654896568\\
88.26932570229663	1.275675292425757\\
88.64118135142137	1.2409351737195855\\
89.0130370005461	1.205973351572315\\
89.38489264967083	1.1707881312591348\\
89.75674829879557	1.1325994927906535\\
90.12860394792031	1.0939850456954563\\
90.50045959704505	1.0551050203877173\\
90.87231524616979	1.015957361760307\\
91.24417089529453	0.9765399625506013\\
91.61602654441927	0.9368506633404634\\
91.98788219354401	0.896845596033584\\
92.35973784266875	0.8536632808388025\\
92.73159349179349	0.8101666634690575\\
93.10344914091823	0.766353232508453\\
93.47530479004296	0.7222204243855713\\
93.8471604391677	0.6777656233734989\\
94.21901608829243	0.6329861615898215\\
94.59087173741716	0.5878793189966154\\
94.9627273865419	0.5411289597509511\\
95.33458303566663	0.49240203274191957\\
95.70643868479135	0.44330464347370424\\
96.07829433391608	0.3938337282951557\\
96.4501499830408	0.3440003446100058\\
96.82200563216553	0.29382494788822167\\
97.19386128129027	0.2433067457839431\\
97.56571693041487	0.1924446489980062\\
};
\end{axis}
\end{tikzpicture}%
