%Rate_of_Climb_curves_OEI
\begin{tikzpicture}

\begin{axis}[
width=\figurewidth,
height=\figureheight,
scaled ticks=false, tick label style={/pgf/number format/fixed},
xmin=60.75200237992029,
xmax=142.9234635898666,
xlabel={Speed ((m/s))},
xmajorgrids,
ymin=-9.41666220396618,
ymax=2.715107815616651,
ylabel={Rate of Climb ((m/s))},
ymajorgrids,
legend style={at={(1.03,0.5)},anchor=west,draw=black,fill=white,legend cell align=left}
]

\addplot [
color=black,
solid
]
table[row sep=crcr]{
60.75200237992029	2.654082180539369\\
61.58201713961672	2.682588544929923\\
62.41203189931314	2.7018605628114747\\
63.24204665900957	2.7124905122754703\\
64.072061418706	2.715107815616651\\
64.90207617840242	2.7103797238031473\\
65.73209093809885	2.6990120009465897\\
66.56210569779527	2.6817496087722272\\
67.3921204574917	2.659377391089025\\
68.22213521718813	2.632720758259791\\
69.05214997688455	2.601052785629491\\
69.88216473658098	2.5664808950625173\\
70.7121794962774	2.5300335455448377\\
71.54219425597383	2.4914684147435233\\
72.37220901567025	2.451520868243896\\
73.20222377536668	2.4124082830613958\\
74.0322385350631	2.372817215352272\\
74.86225329475953	2.3351285694963315\\
75.69226805445595	2.2999791715866484\\
76.52228281415238	2.2671125928220226\\
77.3522975738488	2.239416506557457\\
78.18231233354523	2.214979279671093\\
79.01232709324165	2.197867970381518\\
79.84234185293808	2.1762256488713043\\
80.6723566126345	2.1464636311694885\\
81.50237137233093	2.106442674903174\\
82.33238613202735	2.058684214958283\\
83.16240089172378	2.00309283526579\\
83.9924156514202	1.9395004685756705\\
84.82243041111663	1.8712495340965365\\
85.65244517081305	1.794233964435898\\
86.48245993050948	1.7136172478722262\\
87.3124746902059	1.6285625763006146\\
88.14248944990233	1.5380871608166653\\
88.97250420959875	1.44604438113635\\
89.80251896929518	1.3508438254280395\\
90.6325337289916	1.2529082734478263\\
91.46254848868803	1.1554641001644328\\
92.29256324838445	1.057472278440872\\
93.12257800808088	0.9583987993763781\\
93.9525927677773	0.862007980898707\\
94.78260752747373	0.7691022505210132\\
95.61262228717015	0.6757243643495685\\
96.44263704686658	0.5872754241202505\\
97.272651806563	0.5046790045727224\\
98.10266656625943	0.4275332035078683\\
98.93268132595585	0.3475338715602459\\
99.76269608565228	0.2587702631942598\\
100.5927108453487	0.16173625244945067\\
101.42272560504513	0.05630176810559083\\
102.25274036474156	-0.06032686867899546\\
103.08275512443798	-0.18350340168617438\\
103.9127698841344	-0.3125883054446883\\
104.74278464383083	-0.44692870935017903\\
105.57279940352726	-0.5886553822465207\\
106.40281416322368	-0.7364094088979477\\
107.2328289229201	-0.8874951988781047\\
108.06284368261653	-1.0412073977059848\\
108.89285844231296	-1.1968273057674625\\
109.72287320200938	-1.3557979217785077\\
110.5528879617058	-1.517919480338597\\
111.38290272140223	-1.6798228908408863\\
112.21291748109866	-1.840736901347609\\
113.04293224079508	-1.999876914787875\\
113.87294700049151	-2.156444988957679\\
114.70296176018793	-2.312743244949258\\
115.53297651988436	-2.4666319161089953\\
116.36299127958078	-2.615580504785034\\
117.19300603927721	-2.758738448002707\\
118.02302079897363	-2.899731150813142\\
118.85303555867006	-3.049563881513177\\
119.68305031836648	-3.2082717899295097\\
120.51306507806291	-3.380096124595213\\
121.34307983775933	-3.5597338397074436\\
122.17309459745576	-3.746562542650652\\
123.00310935715218	-3.9399645941724475\\
123.83312411684861	-4.139310732383735\\
124.66313887654503	-4.343960072758697\\
125.49315363624146	-4.553260108134816\\
126.32316839593788	-4.76789260999752\\
127.15318315563431	-4.989355526483814\\
127.98319791533073	-5.213537300199789\\
128.81321267502716	-5.439739556303893\\
129.6432274347236	-5.667252297317845\\
130.47324219442004	-5.895353903126659\\
131.30325695411648	-6.123311130978637\\
132.13327171381292	-6.350379115485374\\
132.96328647350936	-6.575801368621759\\
133.7933012332058	-6.799652330318731\\
134.62331599290223	-7.02431909492802\\
135.45333075259867	-7.245090851931463\\
136.2833455122951	-7.461165177177887\\
137.11336027199155	-7.674411077661865\\
137.943375031688	-7.896585926943954\\
138.77338979138443	-8.128657722267434\\
139.60340455108087	-8.370014191271581\\
140.4334193107773	-8.62003204717763\\
141.26343407047375	-8.878076988788786\\
142.0934488301702	-9.143503700490177\\
142.9234635898666	-9.41666220396618\\
};

\addplot [
color=black,
densely dashed
]
table[row sep=crcr]{
65.36787767434237	2.181789376696135\\
66.12663868823095	2.191802551614238\\
66.88539970211954	2.1996146777448558\\
67.64416071600813	2.2053142032607735\\
68.40292172989672	2.20900658992046\\
69.1616827437853	2.210814764720674\\
69.9204437576739	2.2099282069229877\\
70.67920477156248	2.2067449100597076\\
71.43796578545107	2.201902830625497\\
72.19672679933966	2.1953603639603076\\
72.95548781322825	2.185529378568826\\
73.71424882711683	2.1743744438315415\\
74.47300984100542	2.1614131652340944\\
75.23177085489401	2.1454218993699774\\
75.9905318687826	2.128558644580827\\
76.74929288267118	2.1084927118552783\\
77.50805389655977	2.0871074980261715\\
78.26681491044836	2.063412558978217\\
79.02557592433695	2.037657493662527\\
79.78433693822554	2.010075213945555\\
80.54309795211412	1.9801930129680048\\
81.30185896600271	1.9485540883751786\\
82.0606199798913	1.914877804475345\\
82.81938099377989	1.8789699062488565\\
83.57814200766848	1.8418400223204416\\
84.33690302155706	1.8014524882071603\\
85.09566403544565	1.7609427997998022\\
85.85442504933424	1.716213461102027\\
86.61318606322283	1.6709117673684597\\
87.37194707711141	1.6235498712173602\\
88.130708091	1.5732797323592862\\
88.88946910488859	1.5226502982743295\\
89.64823011877718	1.4684513875397234\\
90.40699113266577	1.4125785761873904\\
91.16575214655435	1.3562260658712118\\
91.92451316044294	1.2956722145495467\\
92.68327417433153	1.2338228170084902\\
93.44203518822012	1.171372578356454\\
94.2007962021087	1.105087739403741\\
94.9595572159973	1.0369105581912696\\
95.71831822988588	0.968011061797839\\
96.47707924377447	0.8967683839013657\\
97.23584025766306	0.8219360554198467\\
97.99460127155164	0.7462515606219783\\
98.75336228544023	0.6697134522842804\\
99.51212329932882	0.5891751180374486\\
100.27088431321741	0.5064297931074863\\
101.029645327106	0.42273188511812104\\
101.78840634099458	0.33808182298946865\\
102.54716735488317	0.2492881546755262\\
103.30592836877176	0.15823515742489053\\
104.06468938266035	0.0661327990447624\\
104.82345039654894	-0.027018878863971432\\
105.58221141043752	-0.12272767318833004\\
106.34097242432611	-0.2224377397721119\\
107.0997334382147	-0.3232920735274985\\
107.85849445210329	-0.4252909750076052\\
108.61725546599187	-0.52843465980519\\
109.37601647988046	-0.6349470772464672\\
110.13477749376905	-0.7448530632821387\\
110.89353850765764	-0.8559964060623267\\
111.65229952154623	-0.9683776181685245\\
112.41106053543481	-1.0819971272218782\\
113.1698215493234	-1.1973955498918827\\
113.92858256321199	-1.3179278257735738\\
114.68734357710058	-1.439775737180535\\
115.44610459098917	-1.5629102493367204\\
116.20486560487775	-1.6873463119224654\\
116.96362661876634	-1.813102045439179\\
117.72238763265493	-1.940578335807502\\
118.48114864654352	-2.0734586986005756\\
119.2399096604321	-2.2077997838568275\\
119.99867067432069	-2.343621161023278\\
120.75743168820928	-2.4809426251584568\\
121.51619270209787	-2.6197841969323816\\
122.27495371598646	-2.760166122626581\\
123.03371472987504	-2.903219746291553\\
123.79247574376363	-3.0511854437846746\\
124.55123675765222	-3.200835380819486\\
125.30999777154081	-3.352191207457871\\
126.0687587854294	-3.50527479937321\\
126.82751979931798	-3.6601082578503905\\
127.58628081320657	-3.816713909785792\\
128.34504182709514	-3.975114307687294\\
129.10380284098372	-4.137211433371903\\
129.8625638548723	-4.30372204165178\\
130.62132486876087	-4.472174480802614\\
131.38008588264944	-4.642592661947375\\
132.138846896538	-4.814933724303995\\
132.8976079104266	-4.989123509585797\\
133.65636892431516	-5.165177080874972\\
134.41512993820373	-5.343110213309995\\
135.1738909520923	-5.52293879776084\\
135.93265196598088	-5.706194216947969\\
136.69141297986945	-5.894304241940382\\
137.45017399375803	-6.084432128623891\\
138.2089350076466	-6.276594641798338\\
138.96769602153518	-6.470808661995106\\
139.72645703542375	-6.667091185477067\\
140.48521804931246	-6.8654593242386515\\
};

\addplot [
color=black,
dashdotted
]
table[row sep=crcr]{
70.51572560201885	1.6677320293831166\\
71.19743626696633	1.6800234551452418\\
71.87914693191382	1.6908677243085404\\
72.56085759686131	1.700411366445973\\
73.2425682618088	1.7074445513955694\\
73.92427892675629	1.7128513140252715\\
74.60598959170377	1.7172564866540887\\
75.28770025665126	1.7190333809196165\\
75.96941092159875	1.7194809830622482\\
76.65112158654624	1.7188047335208294\\
77.33283225149373	1.7153724821521097\\
78.01454291644121	1.7115398396586845\\
78.6962535813887	1.704862372735834\\
79.37796424633619	1.69751555207775\\
80.05967491128368	1.6879313006109584\\
80.74138557623117	1.677259247122272\\
81.42309624117865	1.6646049499682707\\
82.10480690612614	1.6507749527566398\\
82.78651757107363	1.634780789738017\\
83.46822823602112	1.6179866964385243\\
84.1499389009686	1.598494281394601\\
84.8316495659161	1.579045464477179\\
85.51336023086358	1.5559187339084546\\
86.19507089581107	1.5328848168176987\\
86.87678156075856	1.5072872315470889\\
87.55849222570605	1.4804173322625214\\
88.24020289065353	1.4528948857098978\\
88.92191355560102	1.4220794348576569\\
89.60362422054851	1.3912084468175974\\
90.285334885496	1.3582444360884136\\
90.96704555044349	1.3232559228292826\\
91.64875621539097	1.2881417438715077\\
92.33046688033846	1.2501671459657964\\
93.01217754528595	1.2107803348173216\\
93.69388821023344	1.1711982006455404\\
94.37559887518093	1.1287454410518571\\
95.05730954012841	1.084753701054604\\
95.7390202050759	1.0404977052269606\\
96.42073087002339	0.9942052048081392\\
97.10244153497088	0.9454175534273456\\
97.78415219991837	0.8962846202592597\\
98.46586286486585	0.846804081759562\\
99.14757352981334	0.7930577541550363\\
99.82928419476083	0.73881742216397\\
100.51099485970832	0.6841392796526906\\
101.1927055246558	0.6280273381657278\\
101.8744161896033	0.5684686711532735\\
102.55612685455078	0.5083822256441339\\
103.23783751949827	0.44776412781745306\\
103.91954818444576	0.38577007576493727\\
104.60125884939325	0.320085993068589\\
105.28296951434073	0.2537800796252264\\
105.96468017928822	0.18684769677780813\\
106.64639084423571	0.11928414202965866\\
107.3281015091832	0.047811200357910505\\
108.00981217413069	-0.025064754742395248\\
108.69152283907817	-0.09866263384722773\\
109.37323350402566	-0.1729878761415132\\
110.05494416897315	-0.24818276865210723\\
110.73665483392064	-0.32795385623686163\\
111.41836549886813	-0.4085426221653566\\
112.10007616381561	-0.4899405191323244\\
112.7817868287631	-0.5721115043374402\\
113.46349749371059	-0.655059284143656\\
114.14520815865808	-0.7418650597214014\\
114.82691882360557	-0.8304119006049561\\
115.50862948855305	-0.9198266659471436\\
116.19034015350054	-1.0101164516996204\\
116.87205081844803	-1.1012884330353214\\
117.55376148339552	-1.1933498643484386\\
118.235472148343	-1.290145907050002\\
118.9171828132905	-1.3880445336283553\\
119.59889347823798	-1.4869240812205498\\
120.28060414318547	-1.5867925179917053\\
120.96231480813296	-1.6876578913282296\\
121.64402547308045	-1.78952832783778\\
122.32573613802793	-1.8944086325351288\\
123.00744680297542	-2.0023157651731838\\
123.68915746792291	-2.1113193509805486\\
124.3708681328704	-2.221428202187899\\
125.05257879781789	-2.332651210247152\\
125.73428946276537	-2.4449973458315117\\
126.41600012771286	-2.558475658835428\\
127.09771079266035	-2.674108700306135\\
127.77942145760784	-2.7938024171083367\\
128.46113212255534	-2.9146470525235215\\
129.14284278750284	-3.036651258873647\\
129.82455345245035	-3.159823764774523\\
130.50626411739785	-3.2841733751358384\\
131.18797478234535	-3.409708971161129\\
131.86968544729285	-3.536439510347806\\
132.55139611224035	-3.664579842823662\\
133.23310677718786	-3.7976963970753705\\
133.91481744213536	-3.93209628822908\\
134.59652810708286	-4.067789091399715\\
135.27823877203036	-4.20478445799608\\
135.95994943697787	-4.343092115720828\\
136.64166010192537	-4.48272186857048\\
137.32337076687287	-4.623683596835412\\
138.00508143182054	-4.765987257099912\\
};

\addplot [
color=black,
dashed
]
table[row sep=crcr]{
76.27942608819963	0.2090726912973572\\
76.87741928233584	0.22230357870737516\\
77.47541247647204	0.23534663483103987\\
78.07340567060825	0.2464406853777365\\
78.67139886474446	0.25688710666380404\\
79.26939205888067	0.26620313126879436\\
79.86738525301688	0.27409324284538245\\
80.46537844715309	0.2814307504042182\\
81.0633716412893	0.28682840743819266\\
81.6613648354255	0.2919896556688621\\
82.25935802956171	0.2949831526092429\\
82.85735122369792	0.2977735377279102\\
83.45534441783413	0.2984765175492428\\
84.05333761197033	0.29875708317574295\\
84.65133080610654	0.2975649212941825\\
85.24932400024275	0.29552233590354965\\
85.84731719437896	0.29280263092115866\\
86.44531038851517	0.2883059142835493\\
87.04330358265138	0.2842609153857723\\
87.64129677678758	0.27721332111133956\\
88.23928997092379	0.27050037274467365\\
88.83728316506	0.26238667558525325\\
89.43527635919621	0.25287806072955216\\
90.03326955333242	0.24365408616932988\\
90.63126274746863	0.23158085984551888\\
91.22925594160483	0.21935827926003387\\
91.82724913574104	0.20683525451441603\\
92.42524232987725	0.19150014681453995\\
93.02323552401346	0.17627706549412203\\
93.62122871814967	0.16035479884588488\\
94.21922191228587	0.14182954879741913\\
94.81721510642208	0.12332355138231564\\
95.41520830055829	0.1043143574783931\\
96.0132014946945	0.08232362834007063\\
96.61119468883071	0.06025729588634039\\
97.20918788296692	0.038125347063358954\\
97.80718107710312	0.012931028106113284\\
98.40517427123933	-0.01277133305285956\\
99.00316746537554	-0.03854572448535145\\
99.60116065951175	-0.06574161763659711\\
100.19915385364796	-0.09515568707801446\\
100.79714704778416	-0.12469241245655413\\
101.39514024192037	-0.15434800255407144\\
101.99313343605658	-0.18645509824616932\\
102.59112663019279	-0.21986068266691217\\
103.189119824329	-0.2534350387247407\\
103.7871130184652	-0.28717454780470275\\
104.38510621260141	-0.3234845723738483\\
104.98309940673762	-0.3610667731364299\\
105.58109260087383	-0.39886313649236804\\
106.17908579501004	-0.4368702001934273\\
106.77707898914625	-0.4765435616540991\\
107.37507218328246	-0.5184672264150354\\
107.97306537741866	-0.560649525144052\\
108.57105857155487	-0.6030871357231463\\
109.16905176569108	-0.6457766894784955\\
109.76704495982729	-0.6915553725307992\\
110.3650381539635	-0.7382579197401289\\
110.9630313480997	-0.7852401377496785\\
111.56102454223591	-0.8325067679594541\\
112.15901773637212	-0.8800632395807813\\
112.75701093050833	-0.9308242787354594\\
113.35500412464454	-0.9825032787538934\\
113.95299731878075	-1.034544788922868\\
114.55099051291695	-1.0869549812769357\\
115.14898370705316	-1.1397401400863505\\
115.74697690118937	-1.1943826969915\\
116.34497009532558	-1.251438951856616\\
116.94296328946179	-1.308943717539684\\
117.540956483598	-1.3669040048976968\\
118.1389496777342	-1.4253269370233408\\
118.73694287187041	-1.4842197492450016\\
119.33493606600662	-1.5453870490670876\\
119.93292926014283	-1.6087469891413968\\
120.53092245427904	-1.672651616338148\\
121.12891564841524	-1.7371088763359745\\
121.72690884255145	-1.8021268270492041\\
122.32490203668766	-1.8677136386278628\\
122.92289523082387	-1.9339933006516399\\
123.52088842496008	-2.004191395495908\\
124.11888161909629	-2.0749466201942695\\
124.7168748132325	-2.146263800210153\\
125.3148680073687	-2.2181490145604266\\
125.91286120150491	-2.290608425400676\\
126.51085439564112	-2.36364827802523\\
127.10884758977733	-2.4372749008671426\\
127.70684078391353	-2.514517172770945\\
128.30483397804974	-2.592855663682517\\
128.90282717218594	-2.6718495289043442\\
129.50082036632213	-2.751505658358894\\
130.09881356045832	-2.831831025107376\\
130.69680675459452	-2.912832685349715\\
131.2947999487307	-2.994517778424574\\
131.8927931428669	-3.076893526809339\\
132.4907863370031	-3.1630986785570134\\
133.0887795311393	-3.250395804177186\\
133.6867727252755	-3.33845308923204\\
134.28476591941168	-3.427278301451891\\
134.88275911354788	-3.516879291705791\\
135.48075230768399	-3.607263994001503\\
};

\addplot [
color=black,
densely dashdotted
]
table[row sep=crcr]{
82.75992925800008	-1.1658268867406512\\
83.26649271816429	-1.1565005285498553\\
83.77305617832849	-1.1472019603270653\\
84.27961963849269	-1.139249078284939\\
84.78618309865689	-1.1317449151197752\\
85.2927465588211	-1.1249754794348967\\
85.7993100189853	-1.1193226550665256\\
86.3058734791495	-1.1135273059196293\\
86.8124369393137	-1.1097775914527446\\
87.3190003994779	-1.1055392995196156\\
87.8255638596421	-1.1029337180077396\\
88.3321273198063	-1.10069978880695\\
88.8386907799705	-1.0986306079691368\\
89.34525424013471	-1.0984603881965576\\
89.85181770029891	-1.097884988787792\\
90.35838116046311	-1.0986099394362991\\
90.86494462062731	-1.1001878674402124\\
91.37150808079151	-1.101396296128545\\
91.87807154095572	-1.1046861917391466\\
92.38463500111992	-1.1081318252554337\\
92.89119846128412	-1.1112439570933839\\
93.39776192144832	-1.116830771851439\\
93.90432538161252	-1.1222578680588147\\
94.41088884177672	-1.1273877020808247\\
94.91745230194093	-1.1349632125846905\\
95.42401576210513	-1.1424792753391826\\
95.93057922226933	-1.1497344817960722\\
96.43714268243353	-1.158948908760527\\
96.94370614259773	-1.1686547358299442\\
97.45026960276194	-1.1781362034234009\\
97.95683306292614	-1.1885968533830564\\
98.46339652309034	-1.2005748201891806\\
98.96995998325454	-1.2122901534570356\\
99.47652344341874	-1.2237380896810852\\
99.98308690358294	-1.2375261811377871\\
100.48965036374715	-1.25144668425728\\
100.99621382391135	-1.2651664532141198\\
101.50277728407555	-1.2791457719549777\\
102.00934074423975	-1.2954410314355314\\
102.51590420440395	-1.3116040660689714\\
103.02246766456815	-1.3276437242670969\\
103.52903112473236	-1.3441695085678174\\
104.03559458489656	-1.3629445445529582\\
104.54215804506076	-1.3816674186929954\\
105.04872150522496	-1.400348154983965\\
105.55528496538916	-1.4190326019591355\\
106.06184842555336	-1.440605964809943\\
106.56841188571757	-1.4622110174465461\\
107.07497534588177	-1.4838589510646603\\
107.58153880604597	-1.5055611981430312\\
108.08810226621017	-1.5289437975813416\\
108.59466572637437	-1.5537575937852972\\
109.10122918653857	-1.578702969431128\\
109.60779264670278	-1.6037290788724003\\
110.11435610686698	-1.628768852801916\\
110.62091956703118	-1.6561432249904309\\
111.12748302719538	-1.6841978746451474\\
111.63404648735958	-1.7123183406853266\\
112.14060994752379	-1.7405088911858382\\
112.64717340768799	-1.7687739010571855\\
113.15373686785219	-1.7991501054827106\\
113.66030032801639	-1.8305489347809323\\
114.16686378818059	-1.8620756843035824\\
114.6734272483448	-1.8937353332177644\\
115.179990708509	-1.9255329675262516\\
115.6865541686732	-1.9581168179221429\\
116.1931176288374	-1.9931580937744393\\
116.6996810890016	-2.0283919105135855\\
117.2062445491658	-2.0638239500143962\\
117.71280800933	-2.0994600009873396\\
118.2193714694942	-2.1353059589785555\\
118.72593492965841	-2.172314652313194\\
119.23249838982261	-2.2115537175892745\\
119.73906184998681	-2.2510587116678593\\
120.24562531015101	-2.2908294521981674\\
120.75218877031521	-2.33081502067162\\
121.25875223047942	-2.371006336939441\\
121.76531569064362	-2.4114070384084867\\
122.27187915080782	-2.454799106293709\\
122.77844261097202	-2.4986069108355924\\
123.28500607113622	-2.5426722199325598\\
123.79156953130042	-2.5869991055478407\\
124.29813299146463	-2.6315917103436903\\
124.80469645162883	-2.676454247681379\\
125.31125991179303	-2.7216326581438675\\
125.81782337195723	-2.7699905125524866\\
126.32438683212143	-2.8186669747679867\\
126.83095029228564	-2.867666684323464\\
127.33751375244984	-2.916994351451051\\
127.84407721261404	-2.9666547570818924\\
128.35064067277824	-3.0166527528461553\\
128.85720413294243	-3.0669932610730246\\
129.36376759310662	-3.1189946384402107\\
129.8703310532708	-3.1729921754369146\\
130.376894513435	-3.227382024480768\\
130.88345797359918	-3.282169525688251\\
131.39002143376337	-3.337330987028681\\
131.89658489392755	-3.3928262842077648\\
132.40314835409174	-3.448660963833083\\
132.90971181425576	-3.5048412340221247\\
};
\end{axis}
\end{tikzpicture}%
