%Rate_of_Climb_curves_AOE
\begin{tikzpicture}

\begin{axis}[
width=\figurewidth,
height=\figureheight,
scaled ticks=false, tick label style={/pgf/number format/fixed},
xmin=60.75200185424198,
xmax=146.32640319914915,
xlabel={Speed ((m/s))},
xmajorgrids,
ymin=-4.860633129761806,
ymax=7.410479981692081,
ylabel={Rate of Climb ((m/s))},
ymajorgrids,
legend style={at={(1.03,0.5)},anchor=west,draw=black,fill=white,legend cell align=left}
]

\addplot [
color=black,
solid
]
table[row sep=crcr]{
60.75200185424198	6.831396668066889\\
61.61638974661478	6.9035029968684825\\
62.480777638987576	6.951298073809966\\
63.34516553136037	6.979748595981364\\
64.20955342373317	6.99413088838747\\
65.07394131610597	7.000031097072241\\
65.93832920847878	7.0033453670531145\\
66.80271710085158	7.010280006441156\\
67.66710499322438	7.0273516379822505\\
68.53149288559719	7.061387339129974\\
69.39588077796999	7.119524771650023\\
70.2602686703428	7.209212301657831\\
71.1246565627156	7.309694612537391\\
71.9890444550884	7.374196761145775\\
72.85343234746121	7.406167853083605\\
73.71782023983401	7.410479981692081\\
74.58220813220682	7.392280181697787\\
75.44659602457962	7.356990506476606\\
76.31098391695242	7.310308100066528\\
77.17537180932523	7.258205264341053\\
78.03975970169803	7.206929521718453\\
78.90414759407084	7.16300367374913\\
79.76853548644364	7.133225855893855\\
80.63292337881644	7.124669588778614\\
81.49731127118925	7.1446838261877\\
82.36169916356205	7.198109694639884\\
83.22608705593485	7.233547136217244\\
84.09047494830766	7.232719347651997\\
84.95486284068046	7.200652371366569\\
85.81925073305327	7.142617912954097\\
86.68363862542607	7.064133373996915\\
87.54802651779887	6.970961882940936\\
88.41241441017168	6.869112324158873\\
89.27680230254448	6.764839365325136\\
90.14119019491729	6.664643483215673\\
91.00557808729009	6.575270988037521\\
91.8699659796629	6.503714046384875\\
92.7343538720357	6.4572107029113015\\
93.5987417644085	6.443244900801065\\
94.4631296567813	6.449506590525538\\
95.32751754915411	6.420575445281479\\
96.19190544152691	6.357183724699937\\
97.05629333389972	6.264612624492689\\
97.92068122627252	6.1483613311166945\\
98.78506911864532	6.014147036475267\\
99.64945701101813	5.86790495185412\\
100.51384490339093	5.715788321138329\\
101.37823279576374	5.56416843335315\\
102.24262068813654	5.419634634568683\\
103.10700858050934	5.2889943392057335\\
103.97139647288215	5.179273040777713\\
104.83578436525495	5.097714322101117\\
105.70017225762776	5.051299871769871\\
106.56456015000056	4.996388302401434\\
107.42894804237336	4.904290319164982\\
108.29333593474617	4.780201835135767\\
109.15772382711897	4.6295111300000285\\
110.02211171949178	4.45779885765153\\
110.88649961186458	4.270838053432758\\
111.75088750423738	4.074594141040091\\
112.61527539661019	3.875224939110935\\
113.47966328898299	3.6790806675098366\\
114.3440511813558	3.4927039533294475\\
115.2084390737286	3.3228298366213673\\
116.0728269661014	3.1763857758709064\\
116.9372148584742	3.06049165322905\\
117.80160275084701	2.9706731899423144\\
118.66599064321981	2.8507334760174436\\
119.53037853559262	2.6965825755080584\\
120.39476642796542	2.5134079743533366\\
121.25915432033823	2.306565588098998\\
122.12354221271103	2.0815797659103974\\
122.98793010508383	1.8441432944164515\\
123.85231799745664	1.6001174013925592\\
124.71670588982944	1.3555317592903833\\
125.58109378220225	1.1165844886218714\\
126.44548167457505	0.8896421612044397\\
127.30986956694785	0.6812398032739935\\
128.17425745932064	0.4980808984719937\\
129.03864535169345	0.34703739071235046\\
129.90303324406625	0.1976705177384386\\
130.76742113643905	0.0112356345809081\\
131.63180902881186	-0.20722372988397697\\
132.49619692118466	-0.452431382911601\\
133.36058481355747	-0.7189586144002661\\
134.22497270593027	-1.0012241946368539\\
135.08936059830307	-1.2934943721290684\\
135.95374849067588	-1.5898828715202942\\
136.81813638304868	-1.8843508915836356\\
137.68252427542149	-2.1707071032913814\\
138.5469121677943	-2.442607647956796\\
139.4113000601671	-2.693556135445056\\
140.2756879525399	-2.916903642450304\\
141.1400758449127	-3.111765915599031\\
142.0044637372855	-3.331978543607077\\
142.8688516296583	-3.587940152640937\\
143.7332395220311	-3.8743253852975625\\
144.59762741440392	-4.185666476642275\\
145.46201530677672	-4.516353252827758\\
146.32640319914915	-4.860633129761806\\
};

\addplot [
color=black,
densely dashed
]
table[row sep=crcr]{
65.36787710872356	6.178089482603654\\
66.16042485705306	6.2328076597772935\\
66.95297260538256	6.284860350321088\\
67.74552035371205	6.334787168518747\\
68.53806810204155	6.3831479868316086\\
69.33061585037105	6.430499831977911\\
70.12316359870054	6.476133148237922\\
70.91571134703004	6.519426858401129\\
71.70825909535954	6.560325442894696\\
72.50080684368903	6.598767005052613\\
73.29335459201853	6.6346833393882925\\
74.08590234034803	6.667999995484998\\
74.87845008867752	6.698636337828814\\
75.67099783700702	6.726505601881577\\
76.46354558533652	6.751514946666671\\
77.25609333366602	6.7735655041180225\\
78.04864108199551	6.792552425422398\\
78.84118883032501	6.808364924566562\\
79.6337365786545	6.820886319284096\\
80.426284326984	6.829994069581106\\
81.2188320753135	6.835702605010759\\
82.011379823643	6.83850667144366\\
82.8039275719725	6.838451829371902\\
83.59647532030199	6.835524706711245\\
84.38902306863149	6.8297102277915736\\
85.18157081696098	6.8209916404183195\\
85.97411856529048	6.809350541437081\\
86.76666631361998	6.794766900897195\\
87.55921406194948	6.777219084902991\\
88.35176181027897	6.756683877235106\\
89.14430955860847	6.733136499818498\\
89.93685730693797	6.706550632108184\\
90.72940505526746	6.676898429458982\\
91.52195280359696	6.644150540540773\\
92.31450055192646	6.608276457899394\\
93.10704830025595	6.569379476727511\\
93.89959604858545	6.527549492191164\\
94.69214379691495	6.482770227040978\\
95.48469154524444	6.435024388082221\\
96.27723929357394	6.384293678941059\\
97.06978704190344	6.330558812205493\\
97.86233479023294	6.273799520976247\\
98.65488253856243	6.2139945698609615\\
99.44743028689193	6.151121765442651\\
100.23997803522143	6.085157966251545\\
101.03252578355092	6.016079092267601\\
101.82507353188042	5.943860133979234\\
102.61762128020992	5.868475161022238\\
103.41016902853941	5.7898973304215415\\
104.20271677686891	5.708048594840492\\
104.99526452519841	5.622643702113934\\
105.7878122735279	5.533721664836519\\
106.5803600218574	5.441380073298436\\
107.3729077701869	5.3457196044375666\\
108.1654555185164	5.2468440280999245\\
108.95800326684589	5.144860213026938\\
109.75055101517539	5.039878132583242\\
110.54309876350489	4.932010870238139\\
111.33564651183438	4.821374624812905\\
112.12819426016388	4.708088715505551\\
112.92074200849338	4.592275586704007\\
113.71328975682287	4.4740608125980454\\
114.50583750515237	4.353573101599601\\
115.29838525348187	4.230944300580891\\
116.09093300181136	4.106099765090704\\
116.88348075014086	3.978814674805049\\
117.67602849847036	3.849060162493905\\
118.46857624679986	3.716806854180672\\
119.26112399512935	3.5820242777417004\\
120.05367174345885	3.4446808662178268\\
120.84621949178835	3.304743960995656\\
121.63876724011784	3.1621798148644853\\
122.43131498844734	3.016953594954434\\
123.22386273677684	2.8690293855612627\\
124.01641048510633	2.7183701908628204\\
124.80895823343583	2.564937937532024\\
125.60150598176533	2.408693477250908\\
126.39405373009483	2.249596589130081\\
127.18660147842432	2.0876309884637103\\
127.97914922675382	1.9229985163137617\\
128.7716969750833	1.755730666112946\\
129.5642447234128	1.5857995417480002\\
130.3567924717423	1.4131764375168794\\
131.1493402200718	1.2378318400605834\\
131.9418879684013	1.0597354302253166\\
132.7344357167308	0.8788560848579895\\
133.52698346506028	0.6951618785377578\\
134.31953121338978	0.5086200852462591\\
135.11207896171928	0.319197179979034\\
135.90462671004877	0.1268588403006434\\
136.69717445837827	-0.06843005215441399\\
137.48972220670777	-0.2667054102325946\\
138.28226995503726	-0.4680039398621182\\
139.07481770336676	-0.6722003364866583\\
139.86736545169626	-0.8790557011427921\\
140.65991320002576	-1.0886312247643237\\
141.45246094835525	-1.300995714259484\\
142.24500869668475	-1.516219567658628\\
143.03755644501425	-1.7343747729753167\\
143.83010419334371	-1.9555349071048944\\
};

\addplot [
color=black,
dashdotted
]
table[row sep=crcr]{
70.51572499185646	4.897443313861028\\
71.23062591824181	4.941245584922984\\
71.94552684462717	4.982541168835279\\
72.66042777101252	5.021383088363691\\
73.37532869739788	5.057824639985679\\
74.09022962378323	5.0919194375552435\\
74.80513055016858	5.123721453463942\\
75.52003147655394	5.153285057464069\\
76.2349324029393	5.180665053307432\\
76.94983332932465	5.20591671334174\\
77.66473425571	5.229095811196272\\
78.37963518209536	5.250258652678785\\
79.09453610848071	5.269462104996822\\
79.80943703486606	5.2867412767566755\\
80.52433796125142	5.302062607504772\\
81.23923888763677	5.315426817445106\\
81.95413981402213	5.326837006900463\\
82.66904074040748	5.3362951546027455\\
83.38394166679284	5.343802138825605\\
84.09884259317819	5.3493577574392495\\
84.81374351956354	5.3529607469509495\\
85.5286444459489	5.354608800590665\\
86.24354537233425	5.354298585497155\\
86.95844629871961	5.352025759056338\\
87.67334722510496	5.347784984440302\\
88.38824815149032	5.3415699453922425\\
89.10314907787567	5.333373360299624\\
89.81805000426102	5.323186995595277\\
90.53295093064638	5.311001678523552\\
91.24785185703173	5.29687598441163\\
91.96275278341709	5.280925061405154\\
92.67765370980244	5.26314781871204\\
93.3925546361878	5.243540118916362\\
94.10745556257315	5.222097063683672\\
94.8223564889585	5.198813003378033\\
95.53725741534386	5.173681546247244\\
96.25215834172921	5.14669556719876\\
96.96705926811457	5.1178472161873785\\
97.68196019449992	5.087127926234629\\
98.39686112088528	5.054528421098545\\
99.11176204727063	5.020038722611542\\
99.82666297365598	4.983648157702953\\
100.54156390004134	4.945345365121991\\
101.2564648264267	4.905118301875899\\
101.97136575281205	4.86295424939731\\
102.6862666791974	4.81889115883375\\
103.40116760558276	4.772980509913982\\
104.11606853196811	4.725228108364057\\
104.83096945835347	4.675639603096137\\
105.54587038473882	4.624220491963811\\
106.26077131112417	4.570976126557613\\
106.97567223750953	4.515911716808298\\
107.69057316389488	4.459032335406745\\
108.40547409028024	4.400342922048964\\
109.12037501666559	4.339848287514258\\
109.83527594305095	4.277553117584126\\
110.5501768694363	4.213461976809044\\
111.26507779582165	4.147579312130141\\
111.97997872220701	4.079909456362045\\
112.69487964859236	4.010456631543226\\
113.40978057497772	3.939225804533326\\
114.12468150136307	3.8662674552609366\\
114.83958242774843	3.791602628365678\\
115.55448335413378	3.7152216689603152\\
116.26938428051913	3.6371144636156005\\
116.98428520690449	3.5572704430283277\\
117.69918613328984	3.4756785845921603\\
118.4140870596752	3.3923274148753366\\
119.12898798606055	3.3072050120091534\\
119.8438889124459	3.220299007990979\\
120.55878983883126	3.131596590905305\\
121.27369076521661	3.041084507066238\\
121.98859169160197	2.948749063084709\\
122.70349261798732	2.854576127863325\\
123.41839354437268	2.7585511345219964\\
124.13329447075803	2.660659082256931\\
124.84819539714339	2.5608921470150774\\
125.56309632352874	2.459356791313024\\
126.2779972499141	2.3560816205635646\\
126.99289817629945	2.2510528433957018\\
127.7077991026848	2.144256242563874\\
128.42270002907017	2.0356771764596555\\
129.13760095545553	1.9253005805733847\\
129.85250188184088	1.8131109689073779\\
130.56740280822623	1.699092435342837\\
131.2823037346116	1.5832286549620134\\
131.99720466099694	1.4655028853274115\\
132.7121055873823	1.3458979677197307\\
133.42700651376765	1.2243963283358632\\
134.141907440153	1.1009799794487456\\
134.85680836653836	0.9756305205301863\\
135.5717092929237	0.8483291393382626\\
136.28661021930907	0.719068679949463\\
137.00151114569442	0.5879242510408775\\
137.71641207207978	0.45490843862175184\\
138.43131299846513	0.3200162841550913\\
139.14621392485049	0.1832426978675176\\
139.86111485123584	0.04458245964903535\\
140.5760157776212	-0.09596978007466303\\
141.29091670400675	-0.23841949949638724\\
};

\addplot [
color=black,
dashed
]
table[row sep=crcr]{
76.27942542816477	3.5557771311575332\\
76.91000178248115	3.585340141316275\\
77.54057813679752	3.613878411716416\\
78.1711544911139	3.64147141085344\\
78.80173084543027	3.6679505029816335\\
79.43230719974665	3.693268260121435\\
80.06288355406302	3.717411747634559\\
80.6934599083794	3.7403664751978614\\
81.32403626269577	3.762116411950519\\
81.95461261701215	3.78264400094189\\
82.58518897132852	3.8019301729175305\\
83.2157653256449	3.819954359478384\\
83.84634167996127	3.8366945056462036\\
84.47691803427765	3.8521270818661884\\
85.10749438859402	3.8662270954760576\\
85.7380707429104	3.878968101669002\\
86.36864709722677	3.8903222139764204\\
86.99922345154314	3.900260114294724\\
87.62979980585952	3.9087510624793085\\
88.2603761601759	3.915762905527175\\
88.89095251449227	3.9212620863687824\\
89.52152886880864	3.9253606492063113\\
90.15210522312502	3.928290857820286\\
90.7826815774414	3.930042603725497\\
91.41325793175777	3.930600291316156\\
92.04383428607414	3.9299473576743553\\
92.67441064039052	3.928066279386059\\
93.3049869947069	3.9249385790806977\\
93.93556334902327	3.9205448317074034\\
94.56613970333964	3.9148646705601133\\
95.19671605765602	3.907876793063196\\
95.8272924119724	3.899558966328712\\
96.45786876628877	3.8898880324956315\\
97.08844512060514	3.878839913861026\\
97.71902147492152	3.8663896178125756\\
98.3495978292379	3.8525112415713285\\
98.98017418355427	3.8371779767531686\\
99.61075053787064	3.8203621137570463\\
100.24132689218702	3.8020390907436807\\
100.8719032465034	3.78230983114693\\
101.50247960081977	3.7612317712674894\\
102.13305595513614	3.7388084294502404\\
102.76363230945252	3.715043200137555\\
103.3942086637689	3.6899393573655606\\
104.02478501808527	3.6635000581332284\\
104.65536137240164	3.635728345649693\\
105.28593772671802	3.606627152464843\\
105.91651408103439	3.576199303488102\\
106.54709043535077	3.5444475189000095\\
107.17766678966714	3.511374416961041\\
107.80824314398352	3.476982516721806\\
108.43881949829989	3.4412742406387378\\
109.06939585261627	3.4042519170990135\\
109.69997220693264	3.365917782858425\\
110.33054856124902	3.326273985395614\\
110.96112491556539	3.2853225851860497\\
111.59170126988177	3.243064318616377\\
112.22227762419814	3.1994962487634715\\
112.85285397851452	3.15462151598136\\
113.48343033283089	3.1084439984269423\\
114.11400668714727	3.060967546924931\\
114.74458304146364	3.0121959868220816\\
115.37515939578002	2.962133119780682\\
116.00573575009639	2.9107827255135104\\
116.63631210441277	2.8581485634625134\\
117.26688845872914	2.8042343744233547\\
117.89746481304552	2.74904388211779\\
118.52804116736189	2.692580794715882\\
119.15861752167827	2.634848806309864\\
119.78919387599464	2.5758515983414796\\
120.41977023031102	2.51559284098443\\
121.05034658462739	2.4540761944836524\\
121.68092293894377	2.391305310452954\\
122.31149929326014	2.327283833132487\\
122.94207564757652	2.2620227972847347\\
123.57265200189289	2.1955311540716416\\
124.20322835620927	2.127805499959491\\
124.83380471052564	2.0588422340845725\\
125.46438106484202	1.9886376062252988\\
126.09495741915839	1.9171877178471397\\
126.72553377347477	1.8444885231163917\\
127.35611012779114	1.770535829883782\\
127.98668648210752	1.6953253006390332\\
128.6172628364239	1.6188524534373459\\
129.24783919074028	1.5411126627987344\\
129.87841554505667	1.4621011605812024\\
130.50899189937306	1.3818130368285526\\
131.13956825368945	1.3002432405938102\\
131.77014460800584	1.2173865807389257\\
132.40072096232223	1.1332377267116815\\
133.03129731663861	1.047791209300462\\
133.661873670955	0.9610468136819085\\
134.2924500252714	0.8730865090196333\\
134.92302637958778	0.7839284462364818\\
135.55360273390417	0.6935576101890419\\
136.18417908822056	0.6019586527850906\\
136.81475544253695	0.5091158936202043\\
137.44533179685334	0.415013320596883\\
138.07590815116973	0.319634590526668\\
138.70648450548597	0.22296302971588972\\
};

\addplot [
color=black,
densely dashdotted
]
table[row sep=crcr]{
82.75992854189037	1.98286909173566\\
83.29845682694415	2.0008991399229634\\
83.83698511199792	2.0179462746784504\\
84.37551339705169	2.034035183279309\\
84.91404168210546	2.0491907535243277\\
85.45256996715923	2.0634380796191367\\
85.991098252213	2.0768024678403303\\
86.52962653726678	2.089309441988069\\
87.06815482232055	2.100984748636315\\
87.60668310737432	2.11183036100462\\
88.1452113924281	2.121759028788086\\
88.68373967748187	2.13077129812637\\
89.22226796253564	2.138880425176886\\
89.76079624758941	2.1460996591090558\\
90.29932453264318	2.1524422463092026\\
90.83785281769696	2.1579214344358935\\
91.37638110275073	2.1625504763318264\\
91.9149093878045	2.166342633798236\\
92.45343767285827	2.1693111812373798\\
92.99196595791204	2.171469409168471\\
93.53049424296582	2.1728306276221114\\
94.06902252801959	2.173408169418179\\
94.60755081307336	2.1732153933317155\\
95.14607909812713	2.1722656871513375\\
95.6846073831809	2.1705724706343523\\
96.22313566823468	2.168149198362637\\
96.76166395328845	2.16500936250317\\
97.30019223834222	2.161166495476858\\
97.83872052339599	2.156634172539256\\
98.37724880844976	2.1514331395836583\\
98.91577709350354	2.145672345885528\\
99.45430537855731	2.139370099250981\\
99.99283366361108	2.1325068993723635\\
100.53136194866485	2.1250625466977566\\
101.06989023371862	2.1170161445488596\\
101.6084185187724	2.1083461011715183\\
102.14694680382617	2.099030131721403\\
102.68547508887994	2.0890452601872105\\
103.22400337393371	2.0783678212536376\\
103.76253165898748	2.0669734621063736\\
104.30105994404126	2.054837144181152\\
104.83958822909503	2.0419331448589007\\
105.3781165141488	2.0282350591089306\\
105.91664479920257	2.0137158010819736\\
106.45517308425634	1.9983476056548843\\
106.99370136931012	1.982102029928679\\
107.53222965436389	1.9649499546815714\\
108.07075793941766	1.9468615857785687\\
108.60928622447143	1.9278064555391115\\
109.1478145095252	1.9077536962734476\\
109.68634279457898	1.886800173510336\\
110.22487107963275	1.8650430834322138\\
110.76339936468652	1.8424831746888393\\
111.30192764974029	1.8191211145196202\\
111.84045593479406	1.794957489898162\\
112.37898421984784	1.7699928086438939\\
112.91751250490161	1.7442275005019097\\
113.45604078995538	1.7176619181920503\\
113.99456907500915	1.6902963384282206\\
114.53309736006292	1.662130962908993\\
115.0716256451167	1.6331659192803674\\
115.61015393017047	1.6034012620716327\\
116.14868221522424	1.5728369736051788\\
116.68721050027801	1.5414729648811474\\
117.22573878533179	1.5093090764376687\\
117.76426707038556	1.476345079187505\\
118.30279535543933	1.4425806752318369\\
118.8413236404931	1.4080154986519426\\
119.37985192554687	1.372649116279427\\
119.91838021060065	1.3364810284457223\\
120.45690849565442	1.2995222578001244\\
120.99543678070819	1.26179649434371\\
121.53396506576196	1.2233025500777432\\
122.07249335081573	1.1840382757843728\\
122.6110216358695	1.144001426455431\\
123.14954992092328	1.1031896619302377\\
123.68807820597705	1.0616005475167805\\
124.22660649103082	1.0192315545967012\\
124.7651347760846	0.9760800612146423\\
125.30366306113837	0.9321433526523814\\
125.84219134619214	0.8874186219882352\\
126.38071963124591	0.8419029706421451\\
126.91924791629968	0.7955934089068978\\
127.45777620135345	0.7484868564658889\\
127.99630448640723	0.7005801428977807\\
128.534832771461	0.6518700081685082\\
129.07336105651478	0.6023531031109719\\
129.61188934156857	0.552025989892724\\
130.15041762662236	0.5008851424721074\\
130.68894591167614	0.44892694704306096\\
131.22747419672993	0.3961533696702002\\
131.76600248178372	0.3425926058240611\\
132.3045307668375	0.2882479604131169\\
132.8430590518913	0.2331180885002239\\
133.38158733694507	0.17720159305781558\\
133.92011562199886	0.12049702535152283\\
134.45864390705265	0.0630028853145626\\
134.99717219210643	0.0047176219131830665\\
135.53570047716022	-0.05436036649661375\\
136.07422876221423	-0.11423273182086265\\
};
\end{axis}
\end{tikzpicture}%
