%Rate_of_Climb_curves_AOE_TAS
\begin{tikzpicture}

\begin{axis}[
width=\figurewidth,
height=\figureheight,
scaled ticks=false, tick label style={/pgf/number format/fixed},
xmin=60.75200237992029,
xmax=142.9234635898666,
xlabel={Speed (TAS) ((m/s))},
xmajorgrids,
ymin=-3.622056028766193,
ymax=7.378635070293968,
ylabel={Rate of Climb ((m/s))},
ymajorgrids,
legend style={at={(1.03,0.5)},anchor=west,draw=black,fill=white,legend cell align=left}
]

\addplot [
color=black,
solid
]
table[row sep=crcr]{
60.75200237992029	6.792680059692456\\
61.58201713961672	6.863023840903422\\
62.41203189931314	6.910682802695382\\
63.24204665900957	6.940028266165666\\
64.072061418706	6.955717848958259\\
64.90207617840242	6.9626961497339135\\
65.73209093809885	6.966195432640248\\
66.56210569779527	6.971736311781864\\
67.3921204574917	6.985128435690462\\
68.22213521718813	7.012471171794944\\
69.05214997688455	7.058560704849746\\
69.88216473658098	7.1312767184721\\
70.7121794962774	7.232523980135592\\
71.54219425597383	7.311995441679121\\
72.37220901567025	7.35882540528222\\
73.20222377536668	7.378635070293968\\
74.0322385350631	7.373733152456301\\
74.86225329475953	7.350341052986753\\
75.69226805445595	7.313154432068183\\
76.52228281415238	7.266194032241192\\
77.3522975738488	7.216843035454656\\
78.18231233354523	7.167903654432619\\
79.01232709324165	7.128404810639872\\
79.84234185293808	7.101035455656328\\
80.6723566126345	7.095303138096183\\
81.50237137233093	7.115016337488475\\
82.33238613202735	7.166769175291012\\
83.16240089172378	7.203248952866903\\
83.9924156514202	7.20519406446059\\
84.82243041111663	7.179745419749216\\
85.65244517081305	7.1267901589937015\\
86.48245993050948	7.055679695310806\\
87.3124746902059	6.969959862618802\\
88.14248944990233	6.873225231221353\\
88.97250420959875	6.774101257227367\\
89.80251896929518	6.67596432238304\\
90.6325337289916	6.584398717207168\\
91.46254848868803	6.507987044616064\\
92.29256324838445	6.4512412226052085\\
93.12257800808088	6.419372904591197\\
93.9525927677773	6.42173421429636\\
94.78260752747373	6.418427818439916\\
95.61262228717015	6.377014976104992\\
96.44263704686658	6.306616141466884\\
97.272651806563	6.212045158537709\\
98.10266656625943	6.09696131122386\\
98.93268132595585	5.964110817680154\\
99.76269608565228	5.822285756732853\\
100.5927108453487	5.676963251513477\\
101.42272560504513	5.533075514814545\\
102.25274036474156	5.393063422729972\\
103.08275512443798	5.266980057336338\\
103.9127698841344	5.161044040886187\\
104.74278464383083	5.081659611688018\\
105.57279940352726	5.032619639524932\\
106.40281416322368	4.985035551459421\\
107.2328289229201	4.903289879724575\\
108.06284368261653	4.7918752410668155\\
108.89285844231296	4.655520448080981\\
109.72287320200938	4.4969429796777245\\
110.5528879617058	4.32065344353009\\
111.38290272140223	4.134482137163372\\
112.21291748109866	3.943811884079685\\
113.04293224079508	3.754189217560185\\
113.87294700049151	3.571324380665067\\
114.70296176018793	3.3979779178041767\\
115.53297651988436	3.2415026257791357\\
116.36299127958078	3.109792397035724\\
117.19300603927721	3.0092115539884334\\
118.02302079897363	2.920311574137022\\
118.85303555867006	2.7983734811481074\\
119.68305031836648	2.646630672013279\\
120.51306507806291	2.464880989444912\\
121.34307983775933	2.2625982389793484\\
122.17309459745576	2.044707241453655\\
123.00310935715218	1.8162597328297936\\
123.83312411684861	1.58245074019446\\
124.66313887654503	1.3486185817591132\\
125.49315363624146	1.1202448668599438\\
126.32316839593788	0.9016085946732492\\
127.15318315563431	0.6963042562117732\\
127.98319791533073	0.5136675165072188\\
128.81321267502716	0.3597525265269667\\
129.6432274347236	0.22319445487351305\\
130.47324219442004	0.055294210886437004\\
131.30325695411648	-0.14323409554492905\\
132.13327171381292	-0.3677675431963247\\
132.96328647350936	-0.6135534848081714\\
133.7933012332058	-0.8765520976783189\\
134.62331599290223	-1.1549181101267885\\
135.45333075259867	-1.4395902422050804\\
136.2833455122951	-1.7252974969330683\\
137.11336027199155	-2.006639151295308\\
137.943375031688	-2.278084756240997\\
138.77338979138443	-2.533974136684025\\
139.60340455108087	-2.768517391502936\\
140.4334193107773	-2.975794893540942\\
141.26343407047375	-3.16096028645054\\
142.0934488301702	-3.374991152246966\\
142.9234635898666	-3.622056028766193\\
};

\addplot [
color=black,
densely dashed
]
table[row sep=crcr]{
65.36787767434237	6.136431209695553\\
66.12663868823095	6.18916010911722\\
66.88539970211954	6.239431809166686\\
67.64416071600813	6.2877874725591045\\
68.40292172989672	6.33480378993911\\
69.1616827437853	6.381093431533425\\
69.9204437576739	6.425539286641612\\
70.67920477156248	6.4676824749606014\\
71.43796578545107	6.508098314174207\\
72.19672679933966	6.546680959594233\\
72.95548781322825	6.581773824942939\\
73.71424882711683	6.615268810064172\\
74.47300984100542	6.646606636152652\\
75.23177085489401	6.67448256075672\\
75.9905318687826	6.700969268418615\\
76.74929288267118	6.723646541573319\\
77.50805389655977	6.744304033745774\\
78.26681491044836	6.761853342758543\\
79.02557592433695	6.776441894746347\\
79.78433693822554	6.788195120354606\\
80.54309795211412	6.796499157237925\\
81.30185896600271	6.8019647497813915\\
82.0606199798913	6.8047421548102145\\
82.81938099377989	6.804647516938853\\
83.57814200766848	6.802677381221822\\
84.33690302155706	6.796782116857127\\
85.09566403544565	6.790082370667638\\
85.85442504933424	6.778464914840259\\
86.61318606322283	6.765560430063998\\
87.37194707711141	6.749863571642648\\
88.130708091	6.730507919223457\\
88.88946910488859	6.710023157474329\\
89.64823011877718	6.685178959411499\\
90.40699113266577	6.65784987275701\\
91.16575214655435	6.629208188106022\\
91.92451316044294	6.595509469609316\\
92.68327417433153	6.559668473533635\\
93.44203518822012	6.522528615922455\\
94.2007962021087	6.480870029611914\\
94.9595572159973	6.4366254172724995\\
95.71831822988588	6.39095471742167\\
96.47707924377447	6.342226441985121\\
97.23584025766306	6.289184288188337\\
97.99460127155164	6.234561182545253\\
98.75336228544023	6.178338421020862\\
99.51212329932882	6.117349147937043\\
100.27088431321741	6.053365677341804\\
101.029645327106	5.987620817811672\\
101.78840634099458	5.920092721350387\\
102.54716735488317	5.8475669811263975\\
103.30592836877176	5.7719042417335436\\
104.06468938266035	5.6942684478855305\\
104.82345039654894	5.614394289853824\\
105.58221141043752	5.530766929227785\\
106.34097242432611	5.4420273632782195\\
107.0997334382147	5.35112040181917\\
107.85849445210329	5.258136200635365\\
108.61725546599187	5.163167652083519\\
109.37601647988046	5.064086566398518\\
110.13477749376905	4.960966518802367\\
110.89353850765764	4.856064783929288\\
111.65229952154623	4.749484563593738\\
112.41106053543481	4.641331796182166\\
113.1698215493234	4.531174882644277\\
113.92858256321199	4.4157705526158635\\
114.68734357710058	4.29903907114119\\
115.44610459098917	4.181093000133319\\
116.20486560487775	4.0617796888013995\\
116.96362661876634	3.940948884841295\\
117.72238763265493	3.8181933093950238\\
118.48114864654352	3.6898224413189293\\
119.2399096604321	3.5597720123708907\\
119.99867067432069	3.4280142222670156\\
120.75743168820928	3.2945204324787287\\
121.51619270209787	3.1592611662327856\\
122.27495371598646	3.0222061085112606\\
123.03371472987504	2.882213233894077\\
123.79247574376363	2.7370308725211\\
124.55123675765222	2.5898749520428574\\
125.30999777154081	2.440711303128362\\
126.0687587854294	2.2895049182019394\\
126.82751979931798	2.136219951443246\\
127.58628081320657	1.9809511076620512\\
128.34504182709514	1.823836855070132\\
129.10380284098372	1.6629746507012975\\
129.8625638548723	1.4976462018535899\\
130.62132486876087	1.3303212215673355\\
131.38008588264944	1.1609734592414207\\
132.138846896538	0.9895760378690149\\
132.8976079104266	0.8161014540376466\\
133.65636892431516	0.6405215779291645\\
134.41512993820373	0.46280765331974405\\
135.1738909520923	0.2829302975798737\\
135.93265196598088	0.09934412555541361\\
136.69141297986945	-0.08939314693049479\\
137.45017399375803	-0.2804597995456708\\
138.2089350076466	-0.47388813154613246\\
138.96769602153518	-0.6695961373338012\\
139.72645703542375	-0.8673351012182604\\
140.48521804931246	-1.067148750035604\\
};

\addplot [
color=black,
dashdotted
]
table[row sep=crcr]{
70.51572560201885	4.8525043658510905\\
71.19743626696633	4.894380422935729\\
71.87914693191382	4.934310531640241\\
72.56085759686131	4.9724682579325234\\
73.2425682618088	5.007671658509369\\
73.92427892675629	5.040833505561343\\
74.60598959170377	5.072608219193892\\
75.28770025665126	5.101399549294904\\
75.96941092159875	5.1285377708188955\\
76.65112158654624	5.154260463382677\\
77.33283225149373	5.176968466484802\\
78.01454291644121	5.199051230933511\\
78.6962535813887	5.218099013993559\\
79.37796424633619	5.236322490784753\\
80.05967491128368	5.252137035716795\\
80.74138557623117	5.266658813106282\\
81.42309624117865	5.278990204078091\\
82.10480690612614	5.2899791917540355\\
82.78651757107363	5.298640216548493\\
83.46822823602112	5.30632922543009\\
84.1499389009686	5.311138940737482\\
84.8316495659161	5.3158017985035055\\
85.51336023086358	5.316586205471966\\
86.19507089581107	5.317252209653438\\
86.87678156075856	5.3151320526311086\\
87.55849222570605	5.311505214171569\\
88.24020289065353	5.306978988981131\\
88.92191355560102	5.2988998503483264\\
89.60362422054851	5.290491598064759\\
90.285334885496	5.279702481668616\\
90.96704555044349	5.2666057157572235\\
91.64875621539097	5.253217634544619\\
92.33046688033846	5.236818495430354\\
93.01217754528595	5.21884732216154\\
93.69388821023344	5.200511326908367\\
94.37559887518093	5.179125033131798\\
95.05730954012841	5.15600941561851\\
95.7390202050759	5.132428032618854\\
96.42073087002339	5.106596986037762\\
97.10244153497088	5.078049920926567\\
97.78415219991837	5.04893265985527\\
98.46586286486585	5.019237161581712\\
99.14757352981334	4.985039170260066\\
99.82928419476083	4.950104044161206\\
100.51099485970832	4.914481196329264\\
101.1927055246558	4.877167503111788\\
101.8744161896033	4.8361425483871985\\
102.55612685455078	4.794351321674896\\
103.23783751949827	4.751849851059339\\
103.91954818444576	4.707803917122597\\
104.60125884939325	4.659908648014295\\
105.28296951434073	4.611241505010906\\
105.96468017928822	4.561807167647059\\
106.64639084423571	4.511610308429768\\
107.3281015091832	4.457382144151853\\
108.00981217413069	4.401638536936079\\
108.69152283907817	4.345070121646212\\
109.37323350402566	4.287681061349072\\
110.05494416897315	4.229338728081569\\
110.73665483392064	4.166346292861638\\
111.41836549886813	4.102472045107492\\
112.10007616381561	4.0377196665937145\\
112.7817868287631	3.972092832067254\\
113.46349749371059	3.905597147435033\\
114.14520815865808	3.835207116622651\\
114.82691882360557	3.7630605545764615\\
115.50862948855305	3.690029163531599\\
116.19034015350054	3.616104181206607\\
116.87205081844803	3.541276538381022\\
117.55376148339552	3.465536858895357\\
118.235472148343	3.3850376318555395\\
118.9171828132905	3.3034083075724396\\
119.59889347823798	3.220767743990468\\
120.28060414318547	3.1371049403082054\\
120.96231480813296	3.052408588785224\\
121.64402547308045	2.966667074742066\\
122.32573613802793	2.877871877374422\\
123.00744680297542	2.7860020934221015\\
123.68915746792291	2.692983926431461\\
124.3708681328704	2.5988041652290392\\
125.05257879781789	2.5034785471504843\\
125.73428946276537	2.407109405615015\\
126.41600012771286	2.309696807620359\\
127.09771079266035	2.210211428584601\\
127.77942145760784	2.106692383588568\\
128.46113212255534	2.0020294194342445\\
129.14284278750284	1.8962093735228627\\
129.82455345245035	1.7892187760378129\\
130.50626411739785	1.6810438499446172\\
131.18797478234535	1.5716705109909646\\
131.86968544729285	1.461084367706666\\
132.55139611224035	1.3490649050671597\\
133.23310677718786	1.2320397987650225\\
133.91481744213536	1.1136958069293548\\
134.59652810708286	0.9940169967764988\\
135.27823877203036	0.8729871283049117\\
135.95994943697787	0.7505896542952215\\
136.64166010192537	0.6268623565351691\\
137.32337076687287	0.5018532253511351\\
138.00508143182054	0.37555810122155886\\
};

\addplot [
color=black,
dashed
]
table[row sep=crcr]{
76.27942608819963	3.507165025904928\\
76.87741928233584	3.5351369182889765\\
77.47541247647204	3.563093380678481\\
78.07340567060825	3.589360990586537\\
78.67139886474446	3.6151096262355265\\
79.26939205888067	3.639802219080214\\
79.86738525301688	3.6631397141890756\\
80.46537844715309	3.6859913372629842\\
81.0633716412893	3.7069652137594753\\
81.6613648354255	3.727759612639171\\
82.25935802956171	3.746437473928577\\
82.85735122369792	3.7649571748841724\\
83.45534441783413	3.7814276150926576\\
84.05333761197033	3.7974543147635385\\
84.65133080610654	3.811827827981566\\
85.24932400024275	3.8251427830521427\\
85.84731719437896	3.8375526725778633\\
86.44531038851517	3.847937089453306\\
87.04330358265138	3.858503544304305\\
87.64129677678758	3.8657758015179122\\
88.23928997092379	3.8730684761548186\\
88.83728316506	3.8786228435635413\\
89.43527635919621	3.88252391833779\\
90.03326955333242	3.8866872523370364\\
90.63126274746863	3.8879842112989476\\
91.22925594160483	3.8891085146592186\\
91.82724913574104	3.8899025126392166\\
92.42524232987725	3.8878476247506883\\
93.02323552401346	3.8858606368192525\\
93.62122871814967	3.8831226318155876\\
94.21922191228587	3.8777217245312823\\
94.81721510642208	3.8722716820499636\\
95.41520830055829	3.866241204485526\\
96.0132014946945	3.857142720514515\\
96.61119468883071	3.8478725476640934\\
97.20918788296692	3.8384099977337907\\
97.80718107710312	3.825689829736496\\
98.40517427123933	3.812238014907131\\
99.00316746537554	3.798463644679919\\
99.60116065951175	3.7829896602477353\\
100.19915385364796	3.7649930035616412\\
100.79714704778416	3.746649853345832\\
101.39514024192037	3.728019206125966\\
101.99313343605658	3.706767745567007\\
102.59112663019279	3.684047759040211\\
103.189119824329	3.6609881801072044\\
103.7871130184652	3.637591789817766\\
104.38510621260141	3.6114523341044187\\
104.98309940673762	3.5838672066272403\\
105.58109260087383	3.555893421315389\\
106.17908579501004	3.527533386710932\\
106.77707898914625	3.4973303976579593\\
107.37507218328246	3.4646992868391586\\
107.97306537741866	3.4316305077747944\\
108.57105857155487	3.3981261127357225\\
109.16905176569108	3.364188146513347\\
109.76704495982729	3.326978045069321\\
110.3650381539635	3.288652033869733\\
110.9630313480997	3.2498413061052713\\
111.56102454223591	3.210546525163113\\
112.15901773637212	3.170764946891014\\
112.75701093050833	3.127590103939268\\
113.35500412464454	3.0833177625718147\\
113.95299731878075	3.0385126778056204\\
114.55099051291695	2.993178126619323\\
115.14898370705316	2.9473174184652726\\
115.74697690118937	2.899457860135143\\
116.34497009532558	2.849053034906161\\
116.94296328946179	2.7980781577712364\\
117.540956483598	2.7465363904337026\\
118.1389496777342	2.6944309270706257\\
118.73694287187041	2.6417649943327977\\
119.33493606600662	2.586744591404413\\
119.93292926014283	2.529462317031707\\
120.53092245427904	2.4715770204519214\\
121.12891564841524	2.4130917968033083\\
121.72690884255145	2.3540097736978587\\
122.32490203668766	2.2943341112212834\\
122.92289523082387	2.2339592441946317\\
123.52088842496008	2.169645513914004\\
124.11888161909629	2.1047028157514536\\
124.7168748132325	2.0391280441562603\\
125.3148680073687	1.972918006579003\\
125.91286120150491	1.9060694234715903\\
126.51085439564112	1.838578928287248\\
127.10884758977733	1.7704430674805254\\
127.70684078391353	1.6986358332345388\\
128.30483397804974	1.6256795227711165\\
128.90282717218594	1.5520178440955166\\
129.50082036632213	1.4776467667330786\\
130.09881356045832	1.4025621732104494\\
130.69680675459452	1.3267598590556053\\
131.2947999487307	1.2502355327978338\\
131.8927931428669	1.172984815967756\\
132.4907863370031	1.091871800660421\\
133.0887795311393	1.0096367526543435\\
133.6867727252755	0.9266212694034186\\
134.28476591941168	0.8429015270714507\\
134.88275911354788	0.7584898774956342\\
135.48075230768399	0.6733735395687457\\
};

\addplot [
color=black,
densely dashdotted
]
table[row sep=crcr]{
82.75992925800008	1.9301270179255465\\
83.26649271816429	1.9469802727280374\\
83.77305617832849	1.9637203419349545\\
84.27961963849269	1.9790405730194511\\
84.78618309865689	1.9938494239187594\\
85.2927465588211	2.0078726236108224\\
85.7993100189853	2.020740272788417\\
86.3058734791495	2.0337237390232965\\
86.8124369393137	2.0446473412813777\\
87.3190003994779	2.056057908629908\\
87.8255638596421	2.065783426116815\\
88.3321273198063	2.0750392472943875\\
88.8386907799705	2.084038299894349\\
89.34525424013471	2.0910525200675383\\
89.85181770029891	2.0983923224379484\\
90.35838116046311	2.1043585763041537\\
90.86494462062731	2.1094051784295527\\
91.37150808079151	2.114761254616121\\
91.87807154095572	2.1179826128264816\\
92.38463500111992	2.121001881347162\\
92.89119846128412	2.124315324101601\\
93.39776192144832	2.125121905900259\\
93.90432538161252	2.126063302692285\\
94.41088884177672	2.1272844576602137\\
94.91745230194093	2.1260499567541467\\
95.42401576210513	2.1248725738920995\\
95.93057922226933	2.1239614923785863\\
96.43714268243353	2.1211045352341755\\
96.94370614259773	2.117777547756695\\
97.45026960276194	2.1147044394917636\\
97.95683306292614	2.11068994363139\\
98.46339652309034	2.105209171220659\\
98.96995998325454	2.1000728958179673\\
99.47652344341874	2.095282402176229\\
99.98308690358294	2.088220930739962\\
100.48965036374715	2.0810867738877383\\
100.99621382391135	2.0742033823414308\\
101.50277728407555	2.06710053313852\\
102.00934074423975	2.057711652395204\\
102.51590420440395	2.048474478857885\\
103.02246766456815	2.0393694933620887\\
103.52903112473236	2.029776278704939\\
104.03559458489656	2.0179205507273843\\
104.54215804506076	2.0060923204694303\\
105.04872150522496	1.9942699175332466\\
105.55528496538916	1.9823956030715009\\
106.06184842555336	1.967572037666409\\
106.56841188571757	1.9526440692691869\\
107.07497534588177	1.937587884633223\\
107.58153880604597	1.9223791853165888\\
108.08810226621017	1.9053788225441421\\
108.59466572637437	1.88682259812245\\
109.10122918653857	1.867996531675269\\
109.60779264670278	1.8489695236200392\\
110.11435610686698	1.8298436659711124\\
110.62091956703118	1.8083025604236833\\
111.12748302719538	1.7860050942071763\\
111.63404648735958	1.7635703751573726\\
112.14060994752379	1.7409988622728962\\
112.64717340768799	1.7182909880351565\\
113.15373686785219	1.6934149049711733\\
113.66030032801639	1.66746415079121\\
114.16686378818059	1.6413384784907665\\
114.6734272483448	1.615038037568392\\
115.179990708509	1.5885629510054033\\
115.6865541686732	1.5612702774112321\\
116.1931176288374	1.5314941770378365\\
116.6996810890016	1.5015049843941628\\
117.2062445491658	1.471302547863234\\
117.71280800933	1.4408866893108359\\
118.2193714694942	1.4102572040855346\\
118.72593492965841	1.3784670350753063\\
119.23249838982261	1.3444543972137024\\
119.73906184998681	1.3101896654896568\\
120.24562531015101	1.275675292425757\\
120.75218877031521	1.2409351737195855\\
121.25875223047942	1.205973351572315\\
121.76531569064362	1.1707881312591348\\
122.27187915080782	1.1325994927906535\\
122.77844261097202	1.0939850456954563\\
123.28500607113622	1.0551050203877173\\
123.79156953130042	1.015957361760307\\
124.29813299146463	0.9765399625506013\\
124.80469645162883	0.9368506633404634\\
125.31125991179303	0.896845596033584\\
125.81782337195723	0.8536632808388025\\
126.32438683212143	0.8101666634690575\\
126.83095029228564	0.766353232508453\\
127.33751375244984	0.7222204243855713\\
127.84407721261404	0.6777656233734989\\
128.35064067277824	0.6329861615898215\\
128.85720413294243	0.5878793189966154\\
129.36376759310662	0.5411289597509511\\
129.8703310532708	0.49240203274191957\\
130.376894513435	0.44330464347370424\\
130.88345797359918	0.3938337282951557\\
131.39002143376337	0.3440003446100058\\
131.89658489392755	0.29382494788822167\\
132.40314835409174	0.2433067457839431\\
132.90971181425576	0.1924446489980062\\
};
\end{axis}
\end{tikzpicture}%
