%Rate_of_Climb_curves_OEI
\begin{tikzpicture}

\begin{axis}[
width=\figurewidth,
height=\figureheight,
scaled ticks=false, tick label style={/pgf/number format/fixed},
xmin=60.75200185424198,
xmax=146.32640319914915,
xlabel={Speed ((m/s))},
xmajorgrids,
ymin=-10.723469964348523,
ymax=2.150149098712001,
ylabel={Rate of Climb ((m/s))},
ymajorgrids,
legend style={at={(1.03,0.5)},anchor=west,draw=black,fill=white,legend cell align=left}
]

\addplot [
color=black,
solid
]
table[row sep=crcr]{
60.75200185424198	2.001169636232959\\
61.61638974661478	2.0374052251381496\\
62.480777638987576	2.057533987817706\\
63.34516553136037	2.064640810335671\\
64.20955342373317	2.062000994474342\\
65.07394131610597	2.053080450858647\\
65.93832920847878	2.041535876890495\\
66.80271710085158	2.0312149208689045\\
67.66710499322438	2.0261563335311834\\
68.53149288559719	2.0305901081258155\\
69.39588077796999	2.0489376100168966\\
70.2602686703428	2.085811696721735\\
71.1246565627156	2.128773584984777\\
71.9890444550884	2.149548560976798\\
72.85343234746121	2.150149098712001\\
73.71782023983401	2.1334420527722253\\
74.58220813220682	2.102455310733661\\
75.44659602457962	2.0603778704307434\\
76.31098391695242	2.0105599119689623\\
77.17537180932523	1.956512864898286\\
78.03975970169803	1.901909470922387\\
78.90414759407084	1.8505838424860361\\
79.76853548644364	1.80653151755333\\
80.63292337881644	1.7739095108625083\\
81.49731127118925	1.7570363619190992\\
82.36169916356205	1.7587794345927268\\
83.22608705593485	1.749390555371057\\
84.09047494830766	1.7182423796966342\\
84.95486284068046	1.6681973460069162\\
85.81925073305327	1.6022576138942743\\
86.68363862542607	1.5235650969245131\\
87.54802651779887	1.4354014935112271\\
88.41241441017168	1.3411883159790396\\
89.27680230254448	1.244486917938484\\
90.14119019491729	1.148998520085867\\
91.00557808729009	1.0585642345327972\\
91.8699659796629	0.9771650877622644\\
92.7343538720357	0.9089220423008425\\
93.5987417644085	0.8580960171900434\\
94.4631296567813	0.8176589191246714\\
95.32751754915411	0.7559988103057877\\
96.19190544152691	0.6735310108688175\\
97.05629333389972	0.5732652024628532\\
97.92068122627252	0.45833535240768847\\
98.78506911864532	0.33199972839499264\\
99.64945701101813	0.19764091242435233\\
100.51384490339093	0.058765814020231434\\
101.37823279576374	-0.0809943172272058\\
102.24262068813654	-0.21788387975743687\\
103.10700858050934	-0.348022908733714\\
103.97139647288215	-0.4674070653011602\\
104.83578436525495	-0.5719076263763037\\
105.70017225762776	-0.6575492063958304\\
106.56456015000056	-0.7496279573598195\\
107.42894804237336	-0.8647189890448918\\
108.29333593474617	-0.9997754247013537\\
109.15772382711897	-1.1516374393990974\\
110.02211171949178	-1.3170322524310885\\
110.88649961186458	-1.4925741200721365\\
111.75088750423738	-1.6747643286737552\\
112.61527539661019	-1.8599911880770006\\
113.47966328898299	-2.0445300253263823\\
114.3440511813558	-2.2245431786688785\\
115.2084390737286	-2.396079991823115\\
116.0728269661014	-2.555076808504572\\
116.9372148584742	-2.6973569671936493\\
117.80160275084701	-2.825540574152719\\
118.66599064321981	-2.97257646365304\\
119.53037853559262	-3.140876614140387\\
120.39476642796542	-3.3274151693904512\\
121.25915432033823	-3.5290678485354428\\
122.12354221271103	-3.7426119420509707\\
122.98793010508383	-3.9647263079121386\\
123.85231799745664	-4.191991367910599\\
124.71670588982944	-4.4208891041247975\\
125.58109378220225	-4.6478030555359355\\
126.44548167457505	-4.869018314782795\\
127.30986956694785	-5.080721525048708\\
128.17425745932064	-5.279000877074505\\
129.03864535169345	-5.4598461062916055\\
129.90303324406625	-5.641523516027042\\
130.76742113643905	-5.847154804047429\\
131.63180902881186	-6.073659243665469\\
132.49619692118466	-6.317814896715865\\
133.36058481355747	-6.576306513551325\\
134.22497270593027	-6.845725530788212\\
135.08936059830307	-7.122570069138812\\
135.95374849067588	-7.403244931326175\\
136.81813638304868	-7.684061600078156\\
137.68252427542149	-7.9612382361968805\\
138.5469121677943	-8.230899676700549\\
139.4113000601671	-8.48907743303435\\
140.2756879525399	-8.731709689347523\\
141.1400758449127	-8.958371791874509\\
142.0044637372855	-9.203065068753665\\
142.8688516296583	-9.472260394061843\\
143.7332395220311	-9.76249767312771\\
144.59762741440392	-10.070224123708446\\
145.46201530677672	-10.391794274608737\\
146.32640319914915	-10.723469964348523\\
};

\addplot [
color=black,
densely dashed
]
table[row sep=crcr]{
65.36787710872356	1.624476454631626\\
66.16042485705306	1.6539810604061354\\
66.95297260538256	1.6806236478608185\\
67.74552035371205	1.704505880665928\\
68.53806810204155	1.7257307073976045\\
69.33061585037105	1.7443987546425166\\
70.12316359870054	1.7604116769781595\\
70.91571134703004	1.7736985825491949\\
71.70825909535954	1.784280768214271\\
72.50080684368903	1.7921779249165177\\
73.29335459201853	1.7974082059561343\\
74.08590234034803	1.7999882908808056\\
74.87845008867752	1.7999334453186817\\
75.67099783700702	1.7972575770513193\\
76.46354558533652	1.7919732885994668\\
77.25609333366602	1.7840919265720554\\
78.04864108199551	1.7736236280084974\\
78.84118883032501	1.7605773639258642\\
79.6337365786545	1.7449609802656594\\
80.426284326984	1.7267812364195902\\
81.2188320753135	1.706060804732065\\
82.011379823643	1.6828721891438334\\
82.8039275719725	1.6572251419754906\\
83.59647532030199	1.6291211129324343\\
84.38902306863149	1.598560480570975\\
85.18157081696098	1.5655425793597673\\
85.97411856529048	1.530065725244436\\
86.76666631361998	1.4921272398111325\\
87.55921406194948	1.451723473137798\\
88.35176181027897	1.4088498254154804\\
89.14430955860847	1.3635007674163464\\
89.93685730693797	1.3156698598794145\\
90.72940505526746	1.2653497718803002\\
91.52195280359696	1.212532298246482\\
92.31450055192646	1.1572085282216023\\
93.10704830025595	1.0994300094606138\\
93.89959604858545	1.0392408715196604\\
94.69214379691495	0.9766364231341259\\
95.48469154524444	0.9116113050491348\\
96.27723929357394	0.8441595027858363\\
97.06978704190344	0.7742743587822841\\
97.86233479023294	0.7019485839443758\\
98.65488253856243	0.6271742686400316\\
99.44743028689193	0.5499428931676393\\
100.23997803522143	0.4702453377279056\\
101.03252578355092	0.3880718919263775\\
101.82507353188042	0.3034122638321425\\
102.61762128020992	0.21625558861680028\\
103.41016902853941	0.12659043679615187\\
104.20271677686891	0.03440110911952171\\
104.99526452519841	-0.060336743148995314\\
105.7878122735279	-0.15761261079008473\\
106.5803600218574	-0.2574107742139328\\
107.3729077701869	-0.35971517563828587\\
108.1654555185164	-0.46450941282800856\\
108.95800326684589	-0.5717767331078151\\
109.75055101517539	-0.6815000276344625\\
110.54309876350489	-0.7936618259152944\\
111.33564651183438	-0.9082442905609436\\
112.12819426016388	-1.0252292122605584\\
112.92074200849338	-1.1445980049686115\\
113.71328975682287	-1.2663317012930135\\
114.50583750515237	-1.3904109480747369\\
115.29838525348187	-1.5168160021497623\\
116.09093300181136	-1.6454739245538181\\
116.88348075014086	-1.7763410307198815\\
117.67602849847036	-1.9094637248707922\\
118.46857624679986	-2.044890067842717\\
119.26112399512935	-2.1826695726451617\\
120.05367174345885	-2.3228532011494205\\
120.84621949178835	-2.465493360907281\\
121.63876724011784	-2.6106439020941394\\
122.43131498844734	-2.758360114570827\\
123.22386273677684	-2.9086987250588154\\
124.01641048510633	-3.0617178944237637\\
124.80895823343583	-3.2174772150625452\\
125.60150598176533	-3.3760377083891844\\
126.39405373009483	-3.5374618224154104\\
127.18660147842432	-3.7017831849698486\\
127.97914922675382	-3.86876712306186\\
128.7716969750833	-4.038376179620019\\
129.5642447234128	-4.210643640335358\\
130.3567924717423	-4.3856035482880475\\
131.1493402200718	-4.563290702015574\\
131.9418879684013	-4.74374065365057\\
132.7344357167308	-4.926989707125306\\
133.52698346506028	-5.1130749164401745\\
134.31953121338978	-5.30203408399344\\
135.11207896171928	-5.493905758969807\\
135.90462671004877	-5.688729235785328\\
136.69717445837827	-5.886544552586463\\
137.48972220670777	-6.087392489800981\\
138.28226995503726	-6.291314568738772\\
139.07481770336676	-6.4982602694312\\
139.86736545169626	-6.708100564640475\\
140.65991320002576	-6.920866606218214\\
141.45246094835525	-7.136593503258343\\
142.24500869668475	-7.355316993140898\\
143.03755644501425	-7.577073440393062\\
143.83010419334371	-7.801899835587782\\
};

\addplot [
color=black,
dashdotted
]
table[row sep=crcr]{
70.51572499185646	1.246461899864386\\
71.23062591824181	1.2743810548375822\\
71.94552684462717	1.3003611273482703\\
72.66042777101252	1.32437464611716\\
73.37532869739788	1.3463910773898877\\
74.09022962378323	1.3663768686018838\\
74.80513055016858	1.384295489539379\\
75.52003147655394	1.4001074711626\\
76.2349324029393	1.4137704422445225\\
76.94983332932465	1.4252391639672908\\
77.66473425571	1.4344655626078522\\
78.37963518209536	1.4413987604348897\\
79.09453610848071	1.4459851049301287\\
79.80943703486606	1.4482314379794665\\
80.52433796125142	1.4483047519179375\\
81.23923888763677	1.4462375271300092\\
81.95413981402213	1.4420511852586702\\
82.66904074040748	1.4357671475856297\\
83.38394166679284	1.4274068561639537\\
84.09884259317819	1.4169917938728642\\
84.81374351956354	1.4045435034582452\\
85.5286444459489	1.3900836056182786\\
86.24354537233425	1.3736338161895478\\
86.95844629871961	1.3552159624853868\\
87.67334722510496	1.3348519988349161\\
88.38824815149032	1.3125640213679564\\
89.10314907787567	1.288374282088205\\
89.81805000426102	1.2623052022743224\\
90.53295093064638	1.2343793852460927\\
91.24785185703173	1.2045707948497604\\
91.96275278341709	1.1728109638724318\\
92.67765370980244	1.1391122612801876\\
93.3925546361878	1.1034887057342764\\
94.10745556257315	1.0659543697082678\\
94.8223564889585	1.0265233891050725\\
95.53725741534386	0.985209972442176\\
96.25215834172921	0.9420284096275634\\
96.96705926811457	0.8969930803473931\\
97.68196019449992	0.8501184620853944\\
98.39686112088528	0.8014191377926462\\
99.11176204727063	0.7509098032254318\\
99.82666297365598	0.6986052739678085\\
100.54156390004134	0.6445204921545363\\
101.2564648264267	0.5886705329092506\\
101.97136575281205	0.531070610511805\\
102.6862666791974	0.4717275192160044\\
103.40116760558276	0.4106343300998086\\
104.11606853196811	0.34778560049951174\\
104.83096945835347	0.28317548703333906\\
105.54587038473882	0.21679775051683237\\
106.26077131112417	0.1486457607583824\\
106.97567223750953	0.07871250116249097\\
107.69057316389488	0.0069905731496806844\\
108.40547409028024	-0.06652779959849336\\
109.12037501666559	-0.14185076706128744\\
109.83527594305095	-0.21898684895988246\\
110.5501768694363	-0.2979449309905566\\
111.26507779582165	-0.3787342612030752\\
111.97997872220701	-0.4613644465177748\\
112.69487964859236	-0.5458454493752782\\
113.40978057497772	-0.6321863005217463\\
114.12468150136307	-0.7203234152671266\\
114.83958242774843	-0.8102247817925112\\
115.55448335413378	-0.9019020231062344\\
116.26938428051913	-0.9953671637958563\\
116.98428520690449	-1.0906326273601235\\
117.69918613328984	-1.1877112336381275\\
118.4140870596752	-1.2866161963315967\\
119.12898798606055	-1.3873611206164302\\
119.8438889124459	-1.4899600008396723\\
120.55878983883126	-1.594427218298465\\
121.27369076521661	-1.700777539097539\\
121.98859169160197	-1.8090261120820406\\
122.70349261798732	-1.9191884668426384\\
123.41839354437268	-2.0312805117899373\\
124.13329447075803	-2.1453185322954464\\
124.84819539714339	-2.2613128671493716\\
125.56309632352874	-2.379178770701614\\
126.2779972499141	-2.498895861604611\\
126.99289817629945	-2.6204789443711896\\
127.7077991026848	-2.7439431804761187\\
128.42270002907017	-2.8693040868443704\\
129.13760095545553	-2.9965775343895262\\
129.85250188184088	-3.1257797466005233\\
130.56740280822623	-3.2569272981747814\\
131.2823037346116	-3.390037113696037\\
131.99720466099694	-3.5251264663551045\\
132.7121055873823	-3.6622129767119915\\
133.42700651376765	-3.8013146114978382\\
134.141907440153	-3.9424496824551194\\
134.85680836653836	-4.08563684521478\\
135.5717092929237	-4.230895098208858\\
136.28661021930907	-4.3782155716158435\\
137.00151114569442	-4.527415993251554\\
137.71641207207978	-4.678493679728941\\
138.43131299846513	-4.831490308107843\\
139.14621392485049	-4.986448414144885\\
139.86111485123584	-5.143411391393721\\
140.5760157776212	-5.302423490332721\\
141.29091670400675	-5.463529817519181\\
};

\addplot [
color=black,
dashed
]
table[row sep=crcr]{
76.27942542816477	0.05618789692721826\\
76.91000178248115	0.07246552297153716\\
77.54057813679752	0.08768622051247824\\
78.1711544911139	0.10190701297482968\\
78.80173084543027	0.11508182912245876\\
79.43230719974665	0.1271902889455466\\
80.06288355406302	0.1382225909075095\\
80.6934599083794	0.1481675883246668\\
81.32403626269577	0.1570128045133811\\
81.95461261701215	0.16474444723795376\\
82.58518897132852	0.17134742249662419\\
83.2157653256449	0.17680534768076867\\
83.84634167996127	0.18110056414031295\\
84.47691803427765	0.18421414918637233\\
85.10749438859402	0.18612592756033455\\
85.7380707429104	0.18681448239680076\\
86.36864709722677	0.18625716570631223\\
86.99922345154314	0.1844301084021902\\
87.62979980585952	0.18130822989446324\\
88.2603761601759	0.17686524727252279\\
88.89095251449227	0.17107368409696153\\
89.52152886880864	0.16402131640021841\\
90.15210522312502	0.15589242484355637\\
90.7826815774414	0.14668028616650006\\
91.41325793175777	0.13637383126194033\\
92.04383428607414	0.1249612180119254\\
92.67441064039052	0.11242983810367378\\
93.3049869947069	0.09876632356916874\\
93.93556334902327	0.08395655306138305\\
94.56613970333964	0.06798565787938277\\
95.19671605765602	0.05083802775397757\\
95.8272924119724	0.032497316404939164\\
96.45786876628877	0.012946446880257588\\
97.08844512060514	-0.007832383312684783\\
97.71902147492152	-0.029857697274609026\\
98.3495978292379	-0.05314873397156982\\
98.98017418355427	-0.07772544367349202\\
99.61075053787064	-0.10360848356594658\\
100.24132689218702	-0.13081679756742517\\
100.8719032465034	-0.15929227913198715\\
101.50247960081977	-0.18899682075936736\\
102.13305595513614	-0.21992349830932015\\
102.76363230945252	-0.25206539050994425\\
103.3942086637689	-0.2854155754614195\\
104.02478501808527	-0.319967127266919\\
104.65536137240164	-0.35571311278528267\\
105.28593772671802	-0.3926465885004423\\
105.91651408103439	-0.43076059750262347\\
106.54709043535077	-0.470048166576776\\
107.17766678966714	-0.5105023033937481\\
107.80824314398352	-0.5521159938000862\\
108.43881949829989	-0.5948821992023628\\
109.06939585261627	-0.6387938540422178\\
109.69997220693264	-0.6838438633585402\\
110.33054856124902	-0.7300251004331859\\
110.96112491556539	-0.7773304045170283\\
111.59170126988177	-0.8257464305226803\\
112.22227762419814	-0.8752444721076347\\
112.85285397851452	-0.925829790415186\\
113.48343033283089	-0.9775119753337802\\
114.11400668714727	-1.0303009537274421\\
114.74458304146364	-1.0842069875815625\\
115.37515939578002	-1.1392406722093893\\
116.00573575009639	-1.1954129345170945\\
116.63631210441277	-1.2527350313250727\\
117.26688845872914	-1.3112185477434115\\
117.89746481304552	-1.3708753955994974\\
118.52804116736189	-1.431717811915812\\
119.15861752167827	-1.4937583574360753\\
119.78919387599464	-1.5570099151978969\\
120.41977023031102	-1.6214856891503213\\
121.05034658462739	-1.6871992028145668\\
121.68092293894377	-1.7541642979863759\\
122.31149929326014	-1.8223951334785549\\
122.94207564757652	-1.8918475284704273\\
123.57265200189289	-1.9624563296167137\\
124.20322835620927	-2.034230758420495\\
124.83380471052564	-2.1071806022245654\\
125.46438106484202	-2.181315889789475\\
126.09495741915839	-2.2566468902485934\\
126.72553377347477	-2.3331841120943473\\
127.35611012779114	-2.4109383021946056\\
127.98668648210752	-2.4899204448381163\\
128.6172628364239	-2.5701417608080397\\
129.24783919074028	-2.651613706482586\\
129.87841554505667	-2.7343479729618663\\
130.50899189937306	-2.8183564852200607\\
131.13956825368945	-2.9036514012820116\\
131.77014460800584	-2.9902451114235093\\
132.40072096232223	-3.0781502373944005\\
133.03129731663861	-3.167379631663784\\
133.661873670955	-3.2579402661602233\\
134.2924500252714	-3.349743719757523\\
134.92302637958778	-3.4427685208133654\\
135.55360273390417	-3.5370299979999165\\
136.18417908822056	-3.6325437732681625\\
136.81475544253695	-3.7293257612112893\\
137.44533179685334	-3.827392168445555\\
138.07590815116973	-3.9267594930081837\\
138.70648450548597	-4.027444523771608\\
};

\addplot [
color=black,
densely dashdotted
]
table[row sep=crcr]{
82.75992854189037	-1.1130848022244757\\
83.29845682694415	-1.1030536270978848\\
83.83698511199792	-1.0939096492111196\\
84.37551339705169	-1.0856417186653322\\
84.91404168210546	-1.0782388004705556\\
85.45256996715923	-1.0716899686604777\\
85.991098252213	-1.0659844006283126\\
86.52962653726678	-1.061111371674204\\
87.06815482232055	-1.0570602497549777\\
87.60668310737432	-1.0538227113190302\\
88.1452113924281	-1.0514000477252965\\
88.68373967748187	-1.04978725577455\\
89.22226796253564	-1.048978416452718\\
89.76079624758941	-1.0489677774870527\\
90.29932453264318	-1.0497497491412542\\
90.83785281769696	-1.051318900160139\\
91.37638110275073	-1.0536699538577186\\
91.9149093878045	-1.0567977843428311\\
92.45343767285827	-1.0606974128766182\\
92.99196595791204	-1.0653640043566304\\
93.53049424296582	-1.0707928639223667\\
94.06902252801959	-1.0769794336774012\\
94.60755081307336	-1.0839192895234788\\
95.14607909812713	-1.0916081381021265\\
95.6846073831809	-1.1000418138395225\\
96.22313566823468	-1.1092162760906232\\
96.76166395328845	-1.1191276063786266\\
97.30019223834222	-1.1297720057261513\\
97.83872052339599	-1.1411457920745114\\
98.37724880844976	-1.1532404447299127\\
98.91577709350354	-1.1659830924793348\\
99.45430537855731	-1.1793568760764948\\
99.99283366361108	-1.193370255378189\\
100.53136194866485	-1.2080320779322191\\
101.06989023371862	-1.2233515768595193\\
101.6084185187724	-1.2393383688036037\\
102.14694680382617	-1.2560024519449158\\
102.68547508887994	-1.2733542040776096\\
103.22400337393371	-1.2914043807465856\\
103.76253165898748	-1.3101641134424888\\
104.30105994404126	-1.3296449078526624\\
104.83958822909503	-1.3498586421660035\\
105.3781165141488	-1.370817565429761\\
105.91664479920257	-1.392534295956504\\
106.45517308425634	-1.4150218197794289\\
106.99370136931012	-1.4382934891543069\\
107.53222965436389	-1.4623630211064518\\
108.07075793941766	-1.4872444960211337\\
108.60928622447143	-1.5129523562759246\\
109.1478145095252	-1.5395012199585203\\
109.68634279457898	-1.5668209340793129\\
110.22487107963275	-1.594848777646215\\
110.76339936468652	-1.6235894100918484\\
111.30192764974029	-1.6530476748512761\\
111.84045593479406	-1.6832285982174544\\
112.37898421984784	-1.7141373882295978\\
112.91751250490161	-1.7457794335933456\\
113.45604078995538	-1.778160302631684\\
113.99456907500915	-1.811285742265617\\
114.53309736006292	-1.8451616770235724\\
115.0716256451167	-1.8797942080786387\\
115.61015393017047	-1.9151896123127023\\
116.14868221522424	-1.9513543414066348\\
116.68721050027801	-1.988295020955646\\
117.22573878533179	-2.026018449609048\\
117.76426707038556	-2.064531598233612\\
118.30279535543933	-2.1038416090997663\\
118.8413236404931	-2.1439557950899415\\
119.37985192554687	-2.1848816389283194\\
119.91838021060065	-2.2266267924313614\\
120.45690849565442	-2.2691723814656677\\
120.99543678070819	-2.3124667364085583\\
121.53396506576196	-2.3565122912548815\\
122.07249335081573	-2.4013135407577066\\
122.6110216358695	-2.4468750991463692\\
123.14954992092328	-2.493201699488661\\
123.68807820597705	-2.5402981930696495\\
124.22660649103082	-2.5881695487866927\\
124.7651347760846	-2.6368208525600925\\
125.30366306113837	-2.686257306758962\\
125.84219134619214	-2.7364842296418157\\
126.38071963124591	-2.787507054811497\\
126.91924791629968	-2.839331330683941\\
127.45777620135345	-2.891962719970422\\
127.99630448640723	-2.945406999172891\\
128.534832771461	-2.999670058091967\\
129.07336105651478	-3.0547578993472615\\
129.61188934156857	-3.110676637909667\\
130.15041762662236	-3.1674325006452353\\
130.68894591167614	-3.225031825870362\\
131.22747419672993	-3.2834693446388403\\
131.76600248178372	-3.3426877885086443\\
132.3045307668375	-3.4026847671181586\\
132.8430590518913	-3.4634677575345196\\
133.38158733694507	-3.525044374126186\\
133.92011562199886	-3.5874223681793227\\
134.45864390705265	-3.650609627523398\\
134.99717219210643	-3.7146141761657496\\
135.53570047716022	-3.7794441739348676\\
136.07422876221423	-3.845107916132164\\
};
\end{axis}
\end{tikzpicture}%
