%Rate_of_Climb_curves_AOE_MACH
\begin{tikzpicture}

\begin{axis}[
width=\figurewidth,
height=\figureheight,
scaled ticks=false, tick label style={/pgf/number format/fixed},
xmin=0.17852800583092024,
xmax=0.42000000000000004,
xlabel={Mach ((m/s))},
xmajorgrids,
ymin=-3.622056028766193,
ymax=7.378635070293968,
ylabel={Rate of Climb ((m/s))},
ymajorgrids,
legend style={at={(1.03,0.5)},anchor=west,draw=black,fill=white,legend cell align=left}
]

\addplot [
color=black,
solid
]
table[row sep=crcr]{
0.17852800583092024	6.792680059692456\\
0.18096711687341996	6.863023840903422\\
0.18340622791591968	6.910682802695382\\
0.18584533895841943	6.940028266165666\\
0.18828445000091917	6.955717848958259\\
0.1907235610434189	6.9626961497339135\\
0.1931626720859186	6.966195432640248\\
0.19560178312841833	6.971736311781864\\
0.19804089417091808	6.985128435690462\\
0.2004800052134178	7.012471171794944\\
0.20291911625591752	7.058560704849746\\
0.20535822729841724	7.1312767184721\\
0.207797338340917	7.232523980135592\\
0.2102364493834167	7.311995441679121\\
0.21267556042591643	7.35882540528222\\
0.21511467146841615	7.378635070293968\\
0.2175537825109159	7.373733152456301\\
0.2199928935534156	7.350341052986753\\
0.22243200459591533	7.313154432068183\\
0.22487111563841505	7.266194032241192\\
0.2273102266809148	7.216843035454656\\
0.22974933772341452	7.167903654432619\\
0.23218844876591424	7.128404810639872\\
0.23462755980841396	7.101035455656328\\
0.2370666708509137	7.095303138096183\\
0.23950578189341343	7.115016337488475\\
0.24194489293591315	7.166769175291012\\
0.24438400397841287	7.203248952866903\\
0.2468231150209126	7.20519406446059\\
0.24926222606341233	7.179745419749216\\
0.251701337105912	7.1267901589937015\\
0.2541404481484118	7.055679695310806\\
0.2565795591909115	6.969959862618802\\
0.25901867023341124	6.873225231221353\\
0.26145778127591096	6.774101257227367\\
0.2638968923184107	6.67596432238304\\
0.2663360033609104	6.584398717207168\\
0.2687751144034101	6.507987044616064\\
0.27121422544590984	6.4512412226052085\\
0.2736533364884096	6.419372904591197\\
0.27609244753090934	6.42173421429636\\
0.27853155857340905	6.418427818439916\\
0.2809706696159088	6.377014976104992\\
0.2834097806584085	6.306616141466884\\
0.2858488917009082	6.212045158537709\\
0.28828800274340793	6.09696131122386\\
0.29072711378590765	5.964110817680154\\
0.29316622482840743	5.822285756732853\\
0.29560533587090715	5.676963251513477\\
0.29804444691340687	5.533075514814545\\
0.3004835579559066	5.393063422729972\\
0.3029226689984063	5.266980057336338\\
0.30536178004090603	5.161044040886187\\
0.30780089108340575	5.081659611688018\\
0.31024000212590547	5.032619639524932\\
0.31267911316840524	4.985035551459421\\
0.31511822421090496	4.903289879724575\\
0.3175573352534047	4.7918752410668155\\
0.3199964462959044	4.655520448080981\\
0.3224355573384041	4.4969429796777245\\
0.32487466838090384	4.32065344353009\\
0.32731377942340356	4.134482137163372\\
0.3297528904659033	3.943811884079685\\
0.332192001508403	3.754189217560185\\
0.3346311125509028	3.571324380665067\\
0.3370702235934025	3.3979779178041767\\
0.3395093346359022	3.2415026257791357\\
0.34194844567840194	3.109792397035724\\
0.34438755672090166	3.0092115539884334\\
0.3468266677634014	2.920311574137022\\
0.3492657788059011	2.7983734811481074\\
0.3517048898484008	2.646630672013279\\
0.3541440008909006	2.464880989444912\\
0.3565831119334003	2.2625982389793484\\
0.35902222297590003	2.044707241453655\\
0.36146133401839975	1.8162597328297936\\
0.36390044506089947	1.58245074019446\\
0.3663395561033992	1.3486185817591132\\
0.3687786671458989	1.1202448668599438\\
0.37121777818839863	0.9016085946732492\\
0.3736568892308984	0.6963042562117732\\
0.3760960002733981	0.5136675165072188\\
0.37853511131589784	0.3597525265269667\\
0.3809742223583976	0.22319445487351305\\
0.3834133334008974	0.055294210886437004\\
0.3858524444433971	-0.14323409554492905\\
0.3882915554858969	-0.3677675431963247\\
0.39073066652839666	-0.6135534848081714\\
0.39316977757089644	-0.8765520976783189\\
0.3956088886133962	-1.1549181101267885\\
0.398047999655896	-1.4395902422050804\\
0.40048711069839577	-1.7252974969330683\\
0.4029262217408955	-2.006639151295308\\
0.40536533278339526	-2.278084756240997\\
0.40780444382589504	-2.533974136684025\\
0.4102435548683948	-2.768517391502936\\
0.4126826659108946	-2.975794893540942\\
0.41512177695339436	-3.16096028645054\\
0.41756088799589414	-3.374991152246966\\
0.4199999990383938	-3.622056028766193\\
};

\addplot [
color=black,
densely dashed
]
table[row sep=crcr]{
0.19542631605260308	6.136431209695553\\
0.1976947371025768	6.18916010911722\\
0.1999631581525505	6.239431809166686\\
0.2022315792025242	6.2877874725591045\\
0.2045000002524979	6.33480378993911\\
0.2067684213024716	6.381093431533425\\
0.20903684235244532	6.425539286641612\\
0.21130526340241904	6.4676824749606014\\
0.21357368445239275	6.508098314174207\\
0.21584210550236646	6.546680959594233\\
0.21811052655234017	6.581773824942939\\
0.22037894760231388	6.615268810064172\\
0.2226473686522876	6.646606636152652\\
0.22491578970226128	6.67448256075672\\
0.227184210752235	6.700969268418615\\
0.2294526318022087	6.723646541573319\\
0.23172105285218242	6.744304033745774\\
0.23398947390215613	6.761853342758543\\
0.23625789495212984	6.776441894746347\\
0.23852631600210356	6.788195120354606\\
0.24079473705207727	6.796499157237925\\
0.24306315810205098	6.8019647497813915\\
0.2453315791520247	6.8047421548102145\\
0.24760000020199838	6.804647516938853\\
0.2498684212519721	6.802677381221822\\
0.25213684230194583	6.796782116857127\\
0.25440526335191954	6.790082370667638\\
0.25667368440189325	6.778464914840259\\
0.2589421054518669	6.765560430063998\\
0.2612105265018406	6.749863571642648\\
0.26347894755181434	6.730507919223457\\
0.26574736860178805	6.710023157474329\\
0.26801578965176176	6.685178959411499\\
0.2702842107017355	6.65784987275701\\
0.2725526317517092	6.629208188106022\\
0.2748210528016829	6.595509469609316\\
0.2770894738516566	6.559668473533635\\
0.2793578949016303	6.522528615922455\\
0.28162631595160403	6.480870029611914\\
0.28389473700157775	6.4366254172724995\\
0.28616315805155146	6.39095471742167\\
0.28843157910152517	6.342226441985121\\
0.2907000001514989	6.289184288188337\\
0.2929684212014726	6.234561182545253\\
0.2952368422514463	6.178338421020862\\
0.29750526330142	6.117349147937043\\
0.29977368435139373	6.053365677341804\\
0.30204210540136744	5.987620817811672\\
0.3043105264513411	5.920092721350387\\
0.3065789475013148	5.8475669811263975\\
0.3088473685512885	5.7719042417335436\\
0.31111578960126224	5.6942684478855305\\
0.31338421065123595	5.614394289853824\\
0.31565263170120966	5.530766929227785\\
0.3179210527511834	5.4420273632782195\\
0.3201894738011571	5.35112040181917\\
0.3224578948511308	5.258136200635365\\
0.3247263159011045	5.163167652083519\\
0.3269947369510782	5.064086566398518\\
0.32926315800105194	4.960966518802367\\
0.33153157905102565	4.856064783929288\\
0.33380000010099936	4.749484563593738\\
0.3360684211509731	4.641331796182166\\
0.3383368422009468	4.531174882644277\\
0.3406052632509205	4.4157705526158635\\
0.3428736843008942	4.29903907114119\\
0.3451421053508679	4.181093000133319\\
0.34741052640084163	4.0617796888013995\\
0.3496789474508153	3.940948884841295\\
0.351947368500789	3.8181933093950238\\
0.3542157895507627	3.6898224413189293\\
0.35648421060073643	3.5597720123708907\\
0.35875263165071014	3.4280142222670156\\
0.36102105270068385	3.2945204324787287\\
0.36328947375065757	3.1592611662327856\\
0.3655578948006313	3.0222061085112606\\
0.367826315850605	2.882213233894077\\
0.3700947369005787	2.7370308725211\\
0.3723631579505524	2.5898749520428574\\
0.3746315790005261	2.440711303128362\\
0.37690000005049984	2.2895049182019394\\
0.37916842110047355	2.136219951443246\\
0.38143684215044726	1.9809511076620512\\
0.3837052632004209	1.823836855070132\\
0.3859736842503946	1.6629746507012975\\
0.38824210530036823	1.4976462018535899\\
0.39051052635034195	1.3303212215673355\\
0.3927789474003156	1.1609734592414207\\
0.39504736845028926	0.9895760378690149\\
0.3973157895002629	0.8161014540376466\\
0.3995842105502366	0.6405215779291645\\
0.40185263160021023	0.46280765331974405\\
0.40412105265018394	0.2829302975798737\\
0.4063894737001576	0.09934412555541361\\
0.40865789475013126	-0.08939314693049479\\
0.4109263158001049	-0.2804597995456708\\
0.41319473685007857	-0.47388813154613246\\
0.4154631579000523	-0.6695961373338012\\
0.41773157895002594	-0.8673351012182604\\
0.42000000000000004	-1.067148750035604\\
};

\addplot [
color=black,
dashdotted
]
table[row sep=crcr]{
0.21460517573390642	4.8525043658510905\\
0.2166798709285134	4.894380422935729\\
0.21875456612312041	4.934310531640241\\
0.2208292613177274	4.9724682579325234\\
0.22290395651233438	5.007671658509369\\
0.22497865170694137	5.040833505561343\\
0.22705334690154838	5.072608219193892\\
0.22912804209615537	5.101399549294904\\
0.23120273729076235	5.1285377708188955\\
0.23327743248536936	5.154260463382677\\
0.23535212767997635	5.176968466484802\\
0.23742682287458333	5.199051230933511\\
0.23950151806919034	5.218099013993559\\
0.24157621326379733	5.236322490784753\\
0.24365090845840431	5.252137035716795\\
0.24572560365301133	5.266658813106282\\
0.2478002988476183	5.278990204078091\\
0.2498749940422253	5.2899791917540355\\
0.2519496892368323	5.298640216548493\\
0.25402438443143927	5.30632922543009\\
0.2560990796260463	5.311138940737482\\
0.2581737748206533	5.3158017985035055\\
0.26024847001526025	5.316586205471966\\
0.26232316520986726	5.317252209653438\\
0.26439786040447427	5.3151320526311086\\
0.26647255559908123	5.311505214171569\\
0.26854725079368824	5.306978988981131\\
0.27062194598829525	5.2988998503483264\\
0.2726966411829022	5.290491598064759\\
0.2747713363775092	5.279702481668616\\
0.27684603157211624	5.2666057157572235\\
0.2789207267667232	5.253217634544619\\
0.2809954219613302	5.236818495430354\\
0.2830701171559372	5.21884732216154\\
0.2851448123505442	5.200511326908367\\
0.2872195075451512	5.179125033131798\\
0.2892942027397582	5.15600941561851\\
0.29136889793436516	5.132428032618854\\
0.29344359312897217	5.106596986037762\\
0.2955182883235792	5.078049920926567\\
0.29759298351818614	5.04893265985527\\
0.29966767871279315	5.019237161581712\\
0.30174237390740016	4.985039170260066\\
0.3038170691020071	4.950104044161206\\
0.30589176429661413	4.914481196329264\\
0.30796645949122115	4.877167503111788\\
0.3100411546858281	4.8361425483871985\\
0.3121158498804351	4.794351321674896\\
0.3141905450750421	4.751849851059339\\
0.3162652402696491	4.707803917122597\\
0.3183399354642561	4.659908648014295\\
0.3204146306588631	4.611241505010906\\
0.32248932585347007	4.561807167647059\\
0.3245640210480771	4.511610308429768\\
0.3266387162426841	4.457382144151853\\
0.32871341143729105	4.401638536936079\\
0.33078810663189806	4.345070121646212\\
0.3328628018265051	4.287681061349072\\
0.33493749702111203	4.229338728081569\\
0.33701219221571904	4.166346292861638\\
0.33908688741032605	4.102472045107492\\
0.341161582604933	4.0377196665937145\\
0.34323627779954	3.972092832067254\\
0.34531097299414704	3.905597147435033\\
0.347385668188754	3.835207116622651\\
0.349460363383361	3.7630605545764615\\
0.351535058577968	3.690029163531599\\
0.353609753772575	3.616104181206607\\
0.355684448967182	3.541276538381022\\
0.357759144161789	3.465536858895357\\
0.35983383935639596	3.3850376318555395\\
0.36190853455100297	3.3034083075724396\\
0.36398322974561	3.220767743990468\\
0.36605792494021694	3.1371049403082054\\
0.36813262013482395	3.052408588785224\\
0.37020731532943096	2.966667074742066\\
0.3722820105240379	2.877871877374422\\
0.37435670571864493	2.7860020934221015\\
0.37643140091325195	2.692983926431461\\
0.3785060961078589	2.5988041652290392\\
0.3805807913024659	2.5034785471504843\\
0.38265548649707287	2.407109405615015\\
0.3847301816916799	2.309696807620359\\
0.3868048768862869	2.210211428584601\\
0.38887957208089385	2.106692383588568\\
0.3909542672755009	2.0020294194342445\\
0.39302896247010793	1.8962093735228627\\
0.395103657664715	1.7892187760378129\\
0.397178352859322	1.6810438499446172\\
0.3992530480539291	1.5716705109909646\\
0.4013277432485361	1.461084367706666\\
0.40340243844314316	1.3490649050671597\\
0.4054771336377502	1.2320397987650225\\
0.4075518288323572	1.1136958069293548\\
0.40962652402696426	0.9940169967764988\\
0.41170121922157127	0.8729871283049117\\
0.41377591441617834	0.7505896542952215\\
0.41585060961078535	0.6268623565351691\\
0.4179253048053924	0.5018532253511351\\
0.41999999999999993	0.37555810122155886\\
};

\addplot [
color=black,
dashed
]
table[row sep=crcr]{
0.23647166413931112	3.507165025904928\\
0.2383254857136615	3.5351369182889765\\
0.2401793072880119	3.563093380678481\\
0.2420331288623623	3.589360990586537\\
0.2438869504367127	3.6151096262355265\\
0.24574077201106312	3.639802219080214\\
0.24759459358541352	3.6631397141890756\\
0.2494484151597639	3.6859913372629842\\
0.25130223673411434	3.7069652137594753\\
0.2531560583084647	3.727759612639171\\
0.2550098798828151	3.746437473928577\\
0.2568637014571655	3.7649571748841724\\
0.2587175230315159	3.7814276150926576\\
0.26057134460586634	3.7974543147635385\\
0.2624251661802167	3.811827827981566\\
0.2642789877545671	3.8251427830521427\\
0.26613280932891753	3.8375526725778633\\
0.2679866309032679	3.847937089453306\\
0.26984045247761834	3.858503544304305\\
0.2716942740519687	3.8657758015179122\\
0.27354809562631915	3.8730684761548186\\
0.27540191720066953	3.8786228435635413\\
0.2772557387750199	3.88252391833779\\
0.27910956034937034	3.8866872523370364\\
0.2809633819237207	3.8879842112989476\\
0.28281720349807116	3.8891085146592186\\
0.28467102507242154	3.8899025126392166\\
0.2865248466467719	3.8878476247506883\\
0.28837866822112235	3.8858606368192525\\
0.2902324897954727	3.8831226318155876\\
0.29208631136982316	3.8777217245312823\\
0.29394013294417354	3.8722716820499636\\
0.2957939545185239	3.866241204485526\\
0.29764777609287435	3.857142720514515\\
0.29950159766722473	3.8478725476640934\\
0.30135541924157516	3.8384099977337907\\
0.30320924081592554	3.825689829736496\\
0.3050630623902759	3.812238014907131\\
0.30691688396462635	3.798463644679919\\
0.30877070553897673	3.7829896602477353\\
0.31062452711332716	3.7649930035616412\\
0.31247834868767754	3.746649853345832\\
0.314332170262028	3.728019206125966\\
0.31618599183637836	3.706767745567007\\
0.31803981341072873	3.684047759040211\\
0.31989363498507917	3.6609881801072044\\
0.32174745655942955	3.637591789817766\\
0.32360127813378	3.6114523341044187\\
0.32545509970813036	3.5838672066272403\\
0.32730892128248074	3.555893421315389\\
0.32916274285683117	3.527533386710932\\
0.33101656443118155	3.4973303976579593\\
0.332870386005532	3.4646992868391586\\
0.33472420757988236	3.4316305077747944\\
0.33657802915423274	3.3981261127357225\\
0.3384318507285832	3.364188146513347\\
0.34028567230293355	3.326978045069321\\
0.342139493877284	3.288652033869733\\
0.34399331545163436	3.2498413061052713\\
0.3458471370259848	3.210546525163113\\
0.3477009586003352	3.170764946891014\\
0.34955478017468555	3.127590103939268\\
0.351408601749036	3.0833177625718147\\
0.35326242332338637	3.0385126778056204\\
0.3551162448977368	2.993178126619323\\
0.3569700664720872	2.9473174184652726\\
0.35882388804643756	2.899457860135143\\
0.360677709620788	2.849053034906161\\
0.36253153119513837	2.7980781577712364\\
0.3643853527694888	2.7465363904337026\\
0.3662391743438392	2.6944309270706257\\
0.36809299591818956	2.6417649943327977\\
0.36994681749254	2.586744591404413\\
0.37180063906689037	2.529462317031707\\
0.3736544606412408	2.4715770204519214\\
0.3755082822155912	2.4130917968033083\\
0.3773621037899416	2.3540097736978587\\
0.379215925364292	2.2943341112212834\\
0.3810697469386424	2.2339592441946317\\
0.3829235685129928	2.169645513914004\\
0.3847773900873432	2.1047028157514536\\
0.3866312116616936	2.0391280441562603\\
0.388485033236044	1.972918006579003\\
0.3903388548103944	1.9060694234715903\\
0.3921926763847448	1.838578928287248\\
0.3940464979590952	1.7704430674805254\\
0.3959003195334456	1.6986358332345388\\
0.397754141107796	1.6256795227711165\\
0.3996079626821464	1.5520178440955166\\
0.4014617842564967	1.4776467667330786\\
0.4033156058308471	1.4025621732104494\\
0.4051694274051974	1.3267598590556053\\
0.4070232489795478	1.2502355327978338\\
0.40887707055389816	1.172984815967756\\
0.4107308921282485	1.091871800660421\\
0.41258471370259886	1.0096367526543435\\
0.41443853527694924	0.9266212694034186\\
0.41629235685129956	0.8429015270714507\\
0.41814617842564994	0.7584898774956342\\
0.42000000000000004	0.6733735395687457\\
};

\addplot [
color=black,
densely dashdotted
]
table[row sep=crcr]{
0.2615246832897865	1.9301270179255465\\
0.26312544406463717	1.9469802727280374\\
0.26472620483948783	1.9637203419349545\\
0.2663269656143385	1.9790405730194511\\
0.2679277263891891	1.9938494239187594\\
0.26952848716403977	2.0078726236108224\\
0.2711292479388904	2.020740272788417\\
0.2727300087137411	2.0337237390232965\\
0.27433076948859175	2.0446473412813777\\
0.27593153026344236	2.056057908629908\\
0.277532291038293	2.065783426116815\\
0.2791330518131437	2.0750392472943875\\
0.28073381258799435	2.084038299894349\\
0.282334573362845	2.0910525200675383\\
0.2839353341376956	2.0983923224379484\\
0.2855360949125463	2.1043585763041537\\
0.28713685568739694	2.1094051784295527\\
0.2887376164622476	2.114761254616121\\
0.2903383772370982	2.1179826128264816\\
0.2919391380119489	2.121001881347162\\
0.29353989878679954	2.124315324101601\\
0.2951406595616502	2.125121905900259\\
0.29674142033650086	2.126063302692285\\
0.29834218111135147	2.1272844576602137\\
0.29994294188620213	2.1260499567541467\\
0.3015437026610528	2.1248725738920995\\
0.30314446343590346	2.1239614923785863\\
0.3047452242107541	2.1211045352341755\\
0.3063459849856047	2.117777547756695\\
0.3079467457604554	2.1147044394917636\\
0.30954750653530605	2.11068994363139\\
0.3111482673101567	2.105209171220659\\
0.3127490280850073	2.1000728958179673\\
0.314349788859858	2.095282402176229\\
0.31595054963470864	2.088220930739962\\
0.3175513104095593	2.0810867738877383\\
0.31915207118440997	2.0742033823414308\\
0.3207528319592606	2.06710053313852\\
0.32235359273411124	2.057711652395204\\
0.3239543535089619	2.048474478857885\\
0.32555511428381256	2.0393694933620887\\
0.3271558750586632	2.029776278704939\\
0.32875663583351383	2.0179205507273843\\
0.3303573966083645	2.0060923204694303\\
0.33195815738321516	1.9942699175332466\\
0.3335589181580658	1.9823956030715009\\
0.3351596789329165	1.967572037666409\\
0.3367604397077671	1.9526440692691869\\
0.33836120048261775	1.937587884633223\\
0.3399619612574684	1.9223791853165888\\
0.3415627220323191	1.9053788225441421\\
0.3431634828071697	1.88682259812245\\
0.34476424358202035	1.867996531675269\\
0.346365004356871	1.8489695236200392\\
0.34796576513172167	1.8298436659711124\\
0.34956652590657233	1.8083025604236833\\
0.35116728668142294	1.7860050942071763\\
0.3527680474562736	1.7635703751573726\\
0.35436880823112427	1.7409988622728962\\
0.35596956900597493	1.7182909880351565\\
0.3575703297808256	1.6934149049711733\\
0.3591710905556762	1.66746415079121\\
0.36077185133052686	1.6413384784907665\\
0.3623726121053775	1.615038037568392\\
0.3639733728802282	1.5885629510054033\\
0.3655741336550788	1.5612702774112321\\
0.36717489442992945	1.5314941770378365\\
0.3687756552047801	1.5015049843941628\\
0.3703764159796308	1.471302547863234\\
0.37197717675448144	1.4408866893108359\\
0.37357793752933205	1.4102572040855346\\
0.3751786983041827	1.3784670350753063\\
0.3767794590790334	1.3444543972137024\\
0.37838021985388404	1.3101896654896568\\
0.3799809806287347	1.275675292425757\\
0.3815817414035853	1.2409351737195855\\
0.38318250217843597	1.205973351572315\\
0.38478326295328663	1.1707881312591348\\
0.3863840237281373	1.1325994927906535\\
0.3879847845029879	1.0939850456954563\\
0.38958554527783856	1.0551050203877173\\
0.3911863060526892	1.015957361760307\\
0.3927870668275399	0.9765399625506013\\
0.39438782760239055	0.9368506633404634\\
0.39598858837724116	0.896845596033584\\
0.3975893491520918	0.8536632808388025\\
0.3991901099269425	0.8101666634690575\\
0.40079087070179314	0.766353232508453\\
0.4023916314766438	0.7222204243855713\\
0.4039923922514944	0.6777656233734989\\
0.4055931530263451	0.6329861615898215\\
0.4071939138011957	0.5878793189966154\\
0.4087946745760463	0.5411289597509511\\
0.4103954353508969	0.49240203274191957\\
0.4119961961257475	0.44330464347370424\\
0.4135969569005981	0.3938337282951557\\
0.4151977176754487	0.3440003446100058\\
0.4167984784502993	0.29382494788822167\\
0.41839923922514993	0.2433067457839431\\
0.42	0.1924446489980062\\
};
\end{axis}
\end{tikzpicture}%
