%Rate_of_Climb_curves_OEI_CAS
\begin{tikzpicture}

\begin{axis}[
width=\figurewidth,
height=\figureheight,
scaled ticks=false, tick label style={/pgf/number format/fixed},
xmin=60.75200668180895,
xmax=142.92347371036968,
xlabel={Speed (CAS) ((m/s))},
xmajorgrids,
ymin=-9.71669723243572,
ymax=2.3602283087016187,
ylabel={Rate of Climb ((m/s))},
ymajorgrids,
legend style={at={(1.03,0.5)},anchor=west,draw=black,fill=white,legend cell align=left}
]

\addplot [
color=black,
solid
]
table[row sep=crcr]{
60.75200668180895	2.1739609111891824\\
61.582021500279254	2.2285847075223244\\
62.412036318749564	2.264437566048319\\
63.242051137219875	2.2843407507688847\\
64.07206595569019	2.291060064524482\\
64.9020807741605	2.287696088272988\\
65.7320955926308	2.2775401772906867\\
66.56211041110112	2.2640741245037894\\
67.39212522957142	2.2509808943484537\\
68.22214004804172	2.2421453523307493\\
69.05215486651204	2.241336020484345\\
69.88216968498234	2.2516286763196987\\
70.71218450345265	2.2787329560831395\\
71.54219932192296	2.323411716251071\\
72.37221414039327	2.352000220910327\\
73.20222895886357	2.3602283087016187\\
74.03224377733389	2.3510757633796975\\
74.86225859580419	2.3249505552788006\\
75.6922734142745	2.2878071289360706\\
76.52228823274481	2.240068201049466\\
77.35230305121512	2.1869872175343263\\
78.18231786968542	2.130546483562975\\
79.01233268815574	2.075231118188336\\
79.84234750662604	2.0238319693308595\\
80.67236232509634	1.981261835561577\\
81.50237714356666	1.949858390306476\\
82.33239196203697	1.9362936252950829\\
83.16240678050727	1.93679083828258\\
83.99242159897759	1.9237927367865957\\
84.82243641744789	1.8884526352971107\\
85.65245123591819	1.8356338674792405\\
86.48246605438851	1.7686987458730485\\
87.31248087285881	1.6872260313565328\\
88.14249569132912	1.5983382683935403\\
88.97251050979943	1.5034325247601124\\
89.80252532826974	1.4045592547533412\\
90.63254014674004	1.3081993384556263\\
91.46255496521036	1.216252691968604\\
92.29256978368066	1.1309244904985105\\
93.12258460215097	1.0591957711787763\\
93.95259942062128	1.0048207955655895\\
94.78261423909159	0.9628450128760826\\
95.61262905756189	0.9058616881531012\\
96.44264387603221	0.8292052598597007\\
97.27265869450251	0.7336075006600306\\
98.10267351297283	0.6211723109842412\\
98.93268833144313	0.4976943932070718\\
99.76270314991343	0.3663205244660336\\
100.59271796838375	0.22825553427895276\\
101.42273278685406	0.08602861257949483\\
102.25274760532436	-0.05409251896181328\\
103.08276242379468	-0.18850534483578202\\
103.91277724226498	-0.31349315777040754\\
104.74279206073528	-0.4299732772114833\\
105.5728068792056	-0.5295233488566131\\
106.4028216976759	-0.6130303698724157\\
107.23283651614621	-0.7128731353160497\\
108.06285133461652	-0.8331894567392956\\
108.89286615308683	-0.9758439585763007\\
109.72288097155713	-1.1332953153268732\\
110.55289579002745	-1.302302875189356\\
111.38291060849775	-1.479649386217361\\
112.21292542696806	-1.66201392402662\\
113.04294024543837	-1.8475197447811786\\
113.87295506390868	-2.034476974694369\\
114.70296988237898	-2.21597698380514\\
115.5329847008493	-2.3882849677892097\\
116.3629995193196	-2.547562449884392\\
117.1930143377899	-2.6898672808906183\\
118.02302915626022	-2.81661802272707\\
118.85304397473053	-2.9640298846037787\\
119.68305879320083	-3.132491430922324\\
120.51307361167115	-3.318396078950293\\
121.34308843014145	-3.518808575275872\\
122.17310324861175	-3.730703375362251\\
123.00311806708207	-3.9509646435476484\\
123.83313288555237	-4.176386253045268\\
124.66314770402268	-4.405259848867882\\
125.493162522493	-4.635949072182995\\
126.3231773409633	-4.861737623914452\\
127.1531921594336	-5.0790588766750755\\
127.98320697790392	-5.284255911952689\\
128.81322179637422	-5.473581520110135\\
129.64323661484454	-5.649077654580732\\
130.47325143331486	-5.842817019365764\\
131.30326625178517	-6.057826696516087\\
132.13328107025552	-6.293344223671829\\
132.96329588872584	-6.5467573629698546\\
133.79331070719616	-6.8122918883918935\\
134.62332552566647	-7.086696436169969\\
135.4533403441368	-7.366634076392961\\
136.2833551626071	-7.648682313006645\\
137.11336998107745	-7.929333083813637\\
137.94338479954777	-8.204992760473441\\
138.7733996180181	-8.471982148502425\\
139.6034144364884	-8.72653648727383\\
140.43342925495872	-8.964805450017762\\
141.26344407342907	-9.193342706691949\\
142.0934588918994	-9.443451798401801\\
142.92347371036968	-9.71669723243572\\
};

\addplot [
color=black,
densely dashed
]
table[row sep=crcr]{
60.75200766706598	1.8176916526734372\\
61.457189731609645	1.8486112950147207\\
62.1623717961533	1.8766679388125878\\
62.867553860696965	1.902010600315157\\
63.57273592524063	1.9248086347504407\\
64.27791798978429	1.9452522205626126\\
64.98310005432795	1.9633555536204184\\
65.68828211887161	1.9781425787139553\\
66.39346418341528	1.9906958421142544\\
67.09864624795892	2.0011905678742097\\
67.80382831250259	2.008614753668216\\
68.50901037704625	2.013235009811508\\
69.21419244158992	2.016179045535342\\
69.91937450613358	2.0157071197849614\\
70.62455657067724	2.012996061459694\\
71.32973863522089	2.0083728047277374\\
72.03492069976456	2.0001020674273886\\
72.74010276430822	1.9909521491167945\\
73.44528482885188	1.9773799607109745\\
74.15046689339555	1.9631589481001062\\
74.85564895793921	1.9447807833160216\\
75.56083102248286	1.9257450068056432\\
76.26601308702652	1.9023508265946554\\
76.97119515157019	1.8786574055105165\\
77.67637721611385	1.8504482358382701\\
78.38155928065751	1.8215501662394213\\
79.08674134520118	1.7893162800859348\\
79.79192340974483	1.7550017693933486\\
80.49710547428849	1.7192058368850898\\
81.20228753883215	1.6792778373003994\\
81.90746960337582	1.63867945587263\\
82.61265166791948	1.5947305329476094\\
83.31783373246314	1.5482106027747282\\
84.0230157970068	1.5008868413901093\\
84.72819786155046	1.449196663052024\\
85.43337992609412	1.3956580552727273\\
86.13856199063778	1.3411777669510332\\
86.84374405518145	1.2823215135374013\\
87.54892611972511	1.2214839822156769\\
88.25410818426877	1.1596799725425413\\
88.95929024881242	1.0946682495144686\\
89.66447231335609	1.026369518420033\\
90.36965437789975	0.9569788934414413\\
91.07483644244341	0.88648948551405\\
91.78001850698708	0.810638200060475\\
92.48520057153074	0.7333385295725137\\
93.19038263607439	0.6548108414314026\\
93.89556470061805	0.5747360350585602\\
94.60074676516172	0.48922895352001283\\
95.30592882970538	0.4023630923089115\\
96.01111089424904	0.31412766901815165\\
96.7162929587927	0.2245115747151658\\
97.42147502333636	0.12985993602395599\\
98.12665708788002	0.032860018427240345\\
98.83183915242368	-0.0656434973462881\\
99.53702121696735	-0.16563604252086003\\
100.24220328151101	-0.26758747476490635\\
100.94738534605467	-0.375008495827928\\
101.65256741059832	-0.4839681511040659\\
102.35774947514199	-0.5944506964075053\\
103.06293153968565	-0.7064399230066781\\
103.76811360422931	-0.8199191576242136\\
104.47329566877298	-0.938800591364868\\
105.17847773331664	-1.0597729273970236\\
105.88365979786029	-1.1822755533612705\\
106.58884186240395	-1.3062905721465938\\
107.29402392694762	-1.4317996220962035\\
107.99920599149128	-1.5587977966292652\\
108.70438805603494	-1.6916061783817102\\
109.4095701205786	-1.8259121390693736\\
110.11475218512226	-1.9617608056477742\\
110.81993424966592	-2.0991985386698624\\
111.52511631420958	-2.2382729322860357\\
112.23029837875325	-2.3790328142441184\\
112.93548044329691	-2.5231596916801253\\
113.64066250784057	-2.6719532294012436\\
114.34584457238422	-2.8226714672752355\\
115.05102663692789	-2.975368704941881\\
115.75620870147155	-3.130100475638395\\
116.46139076601521	-3.2869235461994375\\
117.16657283055888	-3.445895917057082\\
117.87175489510254	-3.607076822240856\\
118.57693695964619	-3.773823594897759\\
119.28211902418984	-3.9436674972030294\\
119.98730108873349	-4.115556542542503\\
120.69248315327714	-4.289522453618095\\
121.39766521782079	-4.465597585927883\\
122.10284728236444	-4.643814927766129\\
122.80802934690809	-4.824208100223256\\
123.51321141145173	-5.0068113571858825\\
124.21839347599538	-5.191659585336766\\
124.92357554053903	-5.3829487046795945\\
125.62875760508268	-5.576941816484001\\
126.33393966962632	-5.7733658001882615\\
127.03912173416997	-5.972258514314807\\
127.74430379871362	-6.173658450182251\\
128.44948586325728	-6.377604731905377\\
129.15466792780092	-6.584074614435659\\
129.85984999234455	-6.7929236261570365\\
130.56503205688836	-7.004172822480077\\
};

\addplot [
color=black,
dashdotted
]
table[row sep=crcr]{
60.752007667065975	1.4382074562366511\\
61.33932760442793	1.4666329444892194\\
61.92664754178988	1.4935305400035601\\
62.51396747915184	1.5189968147336197\\
63.10128741651379	1.5422737496462622\\
63.688607353875746	1.5633286119292944\\
64.2759272912377	1.5830910973486894\\
64.86324722859966	1.6007488006272288\\
65.45056716596162	1.6159438207456096\\
66.03788710332356	1.630053794607824\\
66.62520704068551	1.641114168472895\\
67.21252697804746	1.6505838598332305\\
67.79984691540942	1.6580326831134473\\
68.38716685277137	1.6627448942815821\\
68.97448679013333	1.6661473603799355\\
69.56180672749528	1.6660841640243738\\
70.14912666485723	1.6653587811336052\\
70.73644660221919	1.661042834102133\\
71.32376653958114	1.656206744524419\\
71.9110864769431	1.647933614939122\\
72.49840641430505	1.638866415300808\\
73.085726351667	1.626975519812172\\
73.67304628902896	1.6135718057011457\\
74.26036622639091	1.5984549311249463\\
74.84768616375287	1.580625027052861\\
75.43500610111482	1.56255595662614\\
76.02232603847678	1.5403987229798246\\
76.60964597583873	1.5177747856774333\\
77.19696591320069	1.493338502609735\\
77.78428585056264	1.4661063072619793\\
78.3716057879246	1.4385472065579756\\
78.95892572528655	1.4080794572952788\\
79.5462456626485	1.3757071534684644\\
80.13356560001046	1.342837553147597\\
80.72088553737241	1.3065794462157418\\
81.30820547473436	1.2686465697799307\\
81.89552541209632	1.230164950935064\\
82.48284534945827	1.18876543354506\\
83.07016528682023	1.145132059615627\\
83.65748522418218	1.1009011937537563\\
84.24480516154414	1.0551529570514016\\
84.83212509890609	1.0057067111052962\\
85.41944503626804	0.9556171938308254\\
86.00676497363	0.9048978874856232\\
86.59408491099195	0.8510957873727277\\
87.1814048483539	0.7950676808024648\\
87.76872478571586	0.7383675097885815\\
88.35604472307782	0.6810092918290127\\
88.94336466043977	0.6201905085324513\\
89.53068459780172	0.5574252341999643\\
90.11800453516368	0.4939136526830727\\
90.70532447252563	0.4296500765058648\\
91.29264440988757	0.36284933189475765\\
91.87996434724953	0.2929915501511897\\
92.46728428461148	0.22228360539472364\\
93.05460422197343	0.15071837073984937\\
93.64192415933539	0.07828848947317953\\
94.22924409669734	0.00177038766362195\\
94.8165640340593	-0.07650920224334964\\
95.40388397142125	-0.15575440084690828\\
95.9912039087832	-0.2359739738549481\\
96.57852384614516	-0.3171769168032481\\
97.16584378350711	-0.4021870162962852\\
97.75316372086907	-0.4894714719112533\\
98.34048365823102	-0.5778168993734553\\
98.92780359559298	-0.6671509183436601\\
99.51512353295493	-0.7574780867895492\\
100.10244347031689	-0.8490792974642767\\
100.68976340767884	-0.9454646630347509\\
101.2770833450408	-1.042949543142823\\
101.86440328240275	-1.1415463345465242\\
102.4517232197647	-1.2412677192068646\\
103.03904315712666	-1.3421266642878296\\
103.62636309448861	-1.4441364221563762\\
104.21368303185056	-1.5505395613898774\\
104.80100296921252	-1.6589797059215154\\
105.38832290657447	-1.7686819745659834\\
105.97564284393643	-1.8796611589398524\\
106.56296278129838	-1.9919323358626961\\
107.15028271866034	-2.1055108673570304\\
107.73760265602229	-2.2204058933118804\\
108.32492259338424	-2.3396543926623083\\
108.9122425307462	-2.461079574716806\\
109.49956246810815	-2.5837996933148366\\
110.0868824054701	-2.707829110555161\\
110.67420234283207	-2.8331824632006244\\
111.26152228019403	-2.9598746626781813\\
111.848842217556	-3.087920895078861\\
112.43616215491797	-3.2173366211577923\\
113.02348209227993	-3.351434627023321\\
113.6108020296419	-3.487718579099441\\
114.19812196700387	-3.625484299168715\\
114.78544190436583	-3.764748684250176\\
115.3727618417278	-3.9055289060269396\\
115.96008177908976	-4.04784241084622\\
116.54740171645173	-4.191706919719332\\
117.1347216538137	-4.337140428321671\\
117.72204159117567	-4.484041675379497\\
118.30936152853762	-4.63514435805707\\
118.89668146589975	-4.788856528217343\\
};

\addplot [
color=black,
dashed
]
table[row sep=crcr]{
60.752007667065975	0.24028044088394004\\
61.22827353557172	0.25643157315471155\\
61.704539404077465	0.2722766290133852\\
62.18080527258321	0.2865010445858995\\
62.657071141088956	0.29985644444282067\\
63.1333370095947	0.31275603605221164\\
63.609602878100446	0.323786017657389\\
64.0858687466062	0.33510613349039775\\
64.56213461511193	0.3437967531232294\\
65.03840048361768	0.3529481592102318\\
65.51466635212343	0.35972579855571324\\
65.99093222062918	0.36679208088809584\\
66.46719808913491	0.3714433934580067\\
66.94346395764066	0.3765317159896999\\
67.41972982614641	0.3788436644208307\\
67.89599569465216	0.38166333029796384\\
68.37226156315789	0.3818460439813941\\
68.84852743166364	0.38199886498595054\\
69.32479330016939	0.3803966894823128\\
69.80105916867514	0.37766838340277165\\
70.27732503718087	0.37446990193054047\\
70.75359090568662	0.368647879067829\\
71.22985677419237	0.3629532054003325\\
71.70612264269812	0.354954236821698\\
72.18238851120385	0.34606922096488946\\
72.6586543797096	0.33741312342980884\\
73.13492024821535	0.3255649179069747\\
73.61118611672109	0.31392606855846106\\
74.08745198522683	0.30175126970337685\\
74.56371785373258	0.2869270674466817\\
75.03998372223833	0.27220558611431717\\
75.51624959074407	0.25676548661817344\\
75.99251545924982	0.23863887069968967\\
76.46878132775556	0.22050367412285143\\
76.94504719626131	0.20211042819723282\\
77.42131306476705	0.1803534950287029\\
77.8975789332728	0.15847217290808027\\
78.37384480177855	0.13644894439487068\\
78.8501106702843	0.11178387854914834\\
79.32637653879003	0.08582365127650755\\
79.80264240729578	0.05959940518044619\\
80.27890827580153	0.03270754159985527\\
80.75517414430728	0.0023950637151453494\\
81.23144001281301	-0.028175930783457745\\
81.70770588131876	-0.05899923286187234\\
82.18397174982451	-0.09100252079959494\\
82.66023761833026	-0.12587889825240003\\
83.13650348683599	-0.16105168247679374\\
83.61276935534174	-0.19651463593020863\\
84.08903522384749	-0.23274487634157248\\
84.56530109235324	-0.2723275267276566\\
85.04156696085897	-0.3122427845218705\\
85.51783282936472	-0.3524843659374189\\
85.99409869787047	-0.3930458865043674\\
86.47036456637622	-0.43636201180303685\\
86.94663043488195	-0.48113454537214484\\
87.4228963033877	-0.5262676368691651\\
87.89916217189345	-0.5717548378442109\\
88.3754280403992	-0.6175895991642582\\
88.85169390890493	-0.6668788379973201\\
89.32795977741068	-0.7169778511929356\\
89.80422564591643	-0.7674363858878903\\
90.28049151442218	-0.8182622430043246\\
90.75675738292792	-0.8694644886682661\\
91.23302325143366	-0.9233552971011532\\
91.70928911993941	-0.9789231244291807\\
92.18555498844516	-1.034953082002757\\
92.6618208569509	-1.0914555101276724\\
93.13808672545665	-1.1484409918343714\\
93.6143525939624	-1.2059203528779658\\
94.09061846246814	-1.2672507028024043\\
94.56688433097388	-1.3293501493387894\\
95.04315019947963	-1.3920328706500755\\
95.51941606798538	-1.455310948935394\\
95.99568193649111	-1.5191967091185268\\
96.47194780499686	-1.583702718847931\\
96.94821367350261	-1.651242740172166\\
97.42447954200836	-1.720610092897189\\
97.90074541051409	-1.790672257068622\\
98.37701127901984	-1.8613437813001712\\
98.85327714752559	-1.9326193995983076\\
99.32954301603134	-2.004508191412272\\
99.80580888453707	-2.0770194159898954\\
100.28207475304282	-2.1528465929921845\\
100.75834062154857	-2.2302153471236217\\
101.23460649005432	-2.308287213671329\\
101.71087235856005	-2.3870724211514154\\
102.1871382270658	-2.4665813778785743\\
102.66340409557154	-2.5468246719661005\\
103.13966996407727	-2.6278130713258863\\
103.615935832583	-2.7097695148198593\\
104.09220170108874	-2.7958282339652287\\
104.56846756959447	-2.882715214996285\\
105.04473343810021	-2.970442177357446\\
105.52099930660594	-3.059021020291734\\
105.99726517511168	-3.1484638228407684\\
106.47353104361741	-3.238777215076191\\
106.94979691212315	-3.329875967276883\\
107.42606278062888	-3.4217382666766514\\
107.90232864913455	-3.5158830946030135\\
};

\addplot [
color=black,
densely dashdotted
]
table[row sep=crcr]{
60.75200766706598	-0.940675027486563\\
61.123863316190715	-0.9305430858781468\\
61.495718965315454	-0.920406060548515\\
61.867574614440194	-0.9119168995439989\\
62.239430263564934	-0.9036065559312924\\
62.611285912689674	-0.8965800661616491\\
62.983141561814406	-0.8901609855796144\\
63.354997210939146	-0.8843966583508646\\
63.726852860063886	-0.8799280356284581\\
64.09870850918863	-0.8752044417339532\\
64.47056415831337	-0.8727398618492003\\
64.8424198074381	-0.8698027935277634\\
65.21427545656285	-0.868406139739806\\
65.58613110568758	-0.8675755612616273\\
65.95798675481231	-0.8667537691868635\\
66.32984240393705	-0.8680936191017253\\
66.70169805306179	-0.8690481316981917\\
67.07355370218653	-0.8711317996919223\\
67.44540935131127	-0.8743503018719408\\
67.81726500043601	-0.8772210130614042\\
68.18912064956075	-0.8819641668093602\\
68.56097629868549	-0.8871861977674751\\
68.93283194781023	-0.8920983262753857\\
69.30468759693497	-0.8992128611681092\\
69.6765432460597	-0.9065569898128015\\
70.04839889518443	-0.9136293629978569\\
70.42025454430917	-0.9227835364091205\\
70.79211019343391	-0.9323615214705735\\
71.16396584255865	-0.9417060727508562\\
71.5358214916834	-0.9525229963161129\\
71.90767714080813	-0.9644392837723481\\
72.27953278993287	-0.9761605500514804\\
72.65138843905761	-0.9882166819462858\\
73.02324408818235	-1.0025345679271012\\
73.39509973730709	-1.0166074063748398\\
73.76695538643182	-1.0304416488747024\\
74.13881103555656	-1.0458354921031774\\
74.5106666846813	-1.0622655588832428\\
74.88252233380604	-1.0785292057268725\\
75.25437798293078	-1.0946355757924078\\
75.62623363205552	-1.1130045680674352\\
75.99808928118026	-1.1318818736968541\\
76.369944930305	-1.1506772303331656\\
76.74180057942974	-1.1694011127647483\\
77.11365622855448	-1.1903865705066028\\
77.48551187767922	-1.2120544721193807\\
77.85736752680394	-1.2337292767098116\\
78.22922317592868	-1.2554227813893781\\
78.60107882505342	-1.2785983918595434\\
78.97293447417816	-1.3034063015727886\\
79.3447901233029	-1.3283142355787871\\
79.71664577242764	-1.3533353040052059\\
80.08850142155238	-1.3784828914862846\\
80.46035707067712	-1.4065063407186635\\
80.83221271980186	-1.4349564796901895\\
81.2040683689266	-1.4634666242202679\\
81.57592401805132	-1.492038728890557\\
81.94777966717606	-1.5207060769651832\\
82.3196353163008	-1.552434346368458\\
82.69149096542554	-1.5842806305323736\\
83.06334661455028	-1.61624998081817\\
83.43520226367502	-1.6483475701335268\\
83.80705791279976	-1.680578692932553\\
84.1789135619245	-1.715212189398059\\
84.55076921104924	-1.750775427026935\\
84.92262486017398	-1.7865301512410527\\
85.29448050929872	-1.8224823297493926\\
85.66633615842345	-1.8586380518073795\\
86.03819180754819	-1.8952593029036224\\
86.41004745667293	-1.9348615076999554\\
86.78190310579767	-1.9747264256232653\\
87.1537587549224	-2.014860809876933\\
87.52561440404715	-2.055271535210766\\
87.89747005317189	-2.0959655979209986\\
88.26932570229663	-2.1369501158502957\\
88.64118135142137	-2.181088871595978\\
89.0130370005461	-2.2256207766920255\\
89.38489264967083	-2.270416424794115\\
89.75674829879557	-2.3154800563475946\\
90.12860394792031	-2.3608159922317653\\
90.50045959704505	-2.4064286337598726\\
90.87231524616979	-2.453212959622792\\
91.24417089529453	-2.5024199319306826\\
91.61602654441927	-2.55195533133952\\
91.98788219354401	-2.6018240400467105\\
92.35973784266875	-2.6520310206835926\\
92.73159349179349	-2.7025813163154617\\
93.10344914091823	-2.7534800504415435\\
93.47530479004296	-2.804810243277547\\
93.8471604391677	-2.859438083536708\\
94.21901608829243	-2.9144670749313573\\
94.59087173741716	-2.969902812537964\\
94.9627273865419	-3.025750971866942\\
95.33458303566663	-3.0820173088626377\\
95.70643868479135	-3.138707659903354\\
96.07829433391608	-3.195827941801323\\
96.4501499830408	-3.253492700292377\\
96.82200563216553	-3.314402757969358\\
97.19386128129027	-3.37571572775716\\
97.56571693041487	-3.437438637413501\\
};
\end{axis}
\end{tikzpicture}%
