Ground Distance, Angles
   0.000000,    0.000000
   0.000002,    0.000000
   0.000044,    0.000000
   0.000511,    0.000000
   0.002564,    0.000000
   0.008820,    0.000000
   0.024257,    0.000000
   0.047446,    0.000000
   0.078337,    0.000000
   0.117028,    0.000000
   0.163513,    0.000000
   0.217974,    0.000000
   0.280304,    0.000000
   0.350338,    0.000000
   0.428427,    0.000000
   0.514999,    0.000000
   0.610619,    0.000000
   0.714109,    0.000000
   0.826235,    0.000000
   0.948334,    0.000000
   1.077203,    0.000000
   1.218595,    0.000000
   1.367585,    0.000000
   1.526118,    0.000000
   1.695332,    0.000000
   1.872477,    0.000000
   2.060661,    0.000000
   2.258038,    0.000000
   2.468563,    0.000000
   2.690184,    0.000000
   2.924539,    0.000000
   3.165388,    0.000000
   3.418501,    0.000000
   3.686976,    0.000000
   3.963501,    0.000000
   4.257880,    0.000000
   4.562639,    0.000000
   4.878714,    0.000000
   5.207155,    0.000000
   5.552586,    0.000000
   5.906441,    0.000000
   6.275954,    0.000000
   6.659839,    0.000000
   7.061480,    0.000000
   7.472530,    0.000000
   7.898835,    0.000000
   8.342580,    0.000000
   8.805684,    0.000000
   9.277850,    0.000000
   9.766738,    0.000000
  10.275192,    0.000000
  10.798010,    0.000000
  11.334453,    0.000000
  11.888120,    0.000000
  12.462053,    0.000000
  13.047038,    0.000000
  13.659095,    0.000000
  14.293507,    0.000000
  14.941658,    0.000000
  15.610882,    0.000000
  16.297049,    0.000000
  17.004910,    0.000000
  17.728054,    0.000000
  18.474511,    0.000000
  19.230680,    0.000000
  20.015877,    0.000000
  20.829825,    0.000000
  21.655329,    0.000000
  22.496453,    0.000000
  23.354912,    0.000000
  24.247787,    0.000000
  25.162056,    0.000000
  26.103163,    0.000000
  27.066409,    0.000000
  28.050798,    0.000000
  29.056622,    0.000000
  30.084805,    0.000000
  31.152242,    0.000000
  32.227198,    0.000000
  33.316255,    0.000000
  34.449277,    0.000000
  35.604656,    0.000000
  36.786403,    0.000000
  37.986906,    0.000000
  39.220483,    0.000000
  40.472815,    0.000000
  41.761548,    0.000000
  43.075114,    0.000000
  44.410689,    0.000000
  45.777456,    0.000000
  47.162949,    0.000000
  48.594311,    0.000000
  50.039602,    0.000000
  51.516321,    0.000000
  53.022048,    0.000000
  54.571155,    0.000000
  56.128514,    0.000000
  57.729139,    0.000000
  59.367418,    0.000000
  61.018195,    0.000000
  62.696408,    0.000000
  64.421682,    0.000000
  66.170138,    0.000000
  67.963192,    0.000000
  69.777303,    0.000000
  71.627266,    0.000000
  73.501847,    0.000000
  75.405490,    0.000000
  77.338441,    0.000000
  79.317637,    0.000000
  81.322469,    0.000000
  83.368657,    0.000000
  85.444021,    0.000000
  85.859314,    0.000000
  86.925349,    0.000000
  87.365508,    0.000000
  87.412004,    0.000000
  87.453963,    0.000000
  87.461513,    0.000000
  87.471151,    0.000000
  87.474147,    0.000000
  87.475338,    0.000000
  87.477552,    0.000000
  87.479576,    0.000000
  87.495581,    0.000000
  87.602101,    0.000000
  87.999910,    0.000000
  89.218185,    0.000000
  91.165673,    0.000000
  93.166650,    0.000000
  95.196486,    0.000000
  97.269298,    0.000000
  99.354878,    0.000000
 101.475746,    0.000000
 103.645503,    0.000000
 105.828081,    0.000000
 108.053992,    0.000000
 110.293889,    0.000000
 112.571652,    0.000000
 114.880480,    0.000000
 117.232427,    0.000000
 119.612188,    0.000000
 122.026676,    0.000000
 124.448993,    0.000000
 126.914524,    0.000000
 129.416094,    0.000000
 131.946832,    0.000000
 134.515653,    0.000000
 137.121898,    0.000000
 139.759147,    0.000000
 142.428014,    0.000000
 145.129501,    0.000000
 147.858302,    0.000000
 150.638333,    0.000000
 153.442205,    0.000000
 156.287791,    0.000000
 159.163785,    0.000000
 162.064504,    0.000000
 165.019815,    0.000000
 167.982597,    0.000000
 170.977177,    0.000000
 174.044874,    0.000000
 177.119179,    0.000000
 180.217953,    0.000000
 183.348607,    0.000000
 186.551477,    0.000000
 189.788710,    0.000000
 193.049969,    0.000000
 196.340251,    0.000000
 199.671548,    0.000000
 203.044654,    0.000000
 206.447501,    0.000000
 209.909608,    0.000000
 213.400425,    0.000000
 216.922266,    0.000000
 220.487855,    0.000000
 224.081236,    0.000000
 227.726418,    0.000000
 231.410410,    0.000000
 235.112528,    0.000000
 238.865097,    0.000000
 242.659254,    0.000000
 246.497527,    0.000000
 250.368314,    0.000000
 254.286296,    0.000000
 258.234621,    0.000000
 262.237042,    0.000000
 266.270590,    0.000000
 270.347273,    0.000000
 274.474507,    0.000000
 278.624369,    0.000000
 282.824663,    0.000000
 287.053172,    0.000000
 291.334510,    0.000000
 295.645630,    0.000000
 299.990661,    0.000000
 304.386994,    0.000000
 308.847602,    0.000000
 313.341248,    0.000000
 317.868134,    0.000000
 322.424505,    0.000000
 327.028518,    0.000000
 331.693211,    0.000000
 336.388364,    0.000000
 341.135257,    0.000000
 345.915181,    0.000000
 350.736283,    0.000000
 355.612292,    0.000000
 360.549683,    0.000000
 361.543377,    0.000000
 362.744575,    0.000000
 363.628817,    0.000000
 363.767901,    0.000000
 363.914587,    0.000000
 364.039672,    0.000000
 364.067063,    0.000000
 364.100354,    0.000000
 364.140072,    0.000000
 364.149449,    0.000000
 364.150064,    0.000000
 364.150635,    0.000000
 364.156341,    0.000000
 364.206007,    0.000000
 364.494632,    0.000000
 365.968457,    0.000000
 370.278430,    0.000000
 374.889944,    0.000000
 379.526049,    0.000000
 384.183137,    0.000000
 388.892439,    0.000000
 393.639134,    0.000000
 398.445966,    0.000000
 403.273740,    0.000000
 408.125418,    0.000000
 413.026382,    0.000000
 417.947169,    0.000000
 422.912515,    0.000000
 427.921555,    0.000000
 432.969733,    0.000000
 438.062298,    0.000000
 443.189426,    0.000000
 448.366629,    0.000000
 453.564468,    0.000000
 458.801944,    0.000000
 464.094414,    0.000000
 469.432915,    0.000000
 474.797059,    0.000000
 480.204572,    0.000000
 485.640328,    0.000000
 491.113917,    0.000000
 496.639561,    0.000000
 502.187564,    0.000000
 507.794200,    0.000000
 513.435586,    0.000000
 519.130253,    0.000000
 524.846802,    0.000000
 530.615948,    0.000000
 536.440667,    0.000000
 542.278772,    0.000000
 548.180553,    0.000000
 554.100183,    0.000000
 560.072453,    0.000000
 566.062846,    0.000000
 572.112739,    0.000000
 578.202571,    0.000000
 584.325152,    0.000000
 590.507740,    0.000000
 596.733431,    0.000000
 602.971835,    0.000000
 609.275639,    0.000000
 615.625456,    0.000000
 622.023011,    0.000000
 628.442078,    0.000000
 634.912593,    0.000000
 641.416749,    0.000000
 647.996623,    0.000000
 654.609327,    0.000000
 661.247125,    0.000000
 667.919382,    0.000000
 674.640630,    0.000000
 681.390592,    0.000000
 688.202858,    0.000000
 695.063170,    0.000000
 701.962254,    0.000000
 708.917562,    0.000000
 715.930994,    0.000000
 722.930149,    0.000000
 729.987684,    0.000000
 737.104980,    0.000000
 744.224597,    0.000000
 751.424082,    0.000000
 758.672438,    0.000000
 765.958935,    0.000000
 773.291780,    0.000000
 780.663301,    0.000000
 788.108787,    0.000000
 795.565666,    0.000000
 803.090163,    0.000000
 810.630086,    0.000000
 818.218349,    0.000000
 825.883158,    0.000000
 833.535562,    0.000000
 841.264439,    0.000000
 849.039465,    0.000000
 856.869004,    0.000000
 864.747004,    0.000000
 865.063510,    0.000000
 865.364061,    0.000000
 865.687515,    0.000000
 865.746758,    0.000000
 865.814180,    0.000000
 865.835652,    0.000000
 865.867659,    0.000000
 865.883838,    0.000000
 865.890376,    0.000000
 865.892693,    0.000000
 865.893790,    0.000000
 865.895655,    0.000000
 865.897352,    0.000000
 865.914326,    0.000000
 866.067075,    0.000000
 866.886142,    0.000000
 870.201397,    0.000000
 877.336528,    0.000000
 884.459333,    0.000000
 891.639075,    0.000000
 898.877643,    0.000000
 906.142691,    0.000000
 913.423469,    0.000000
 920.739666,    0.000000
 928.117043,    0.000000
 935.512869,    0.000000
 942.937093,    0.000000
 950.411094,    0.000000
 957.912885,    0.000000
 965.474156,    0.000000
 973.075492,    0.000000
 980.701189,    0.000000
 988.362314,    0.000000
 996.063577,    0.000000
1003.816658,    0.000000
1011.622002,    0.000000
1019.444344,    0.000000
1027.286909,    0.000000
1035.178007,    0.000000
1043.091361,    0.000000
1051.065483,    0.000000
1059.075167,    0.000000
1067.105670,    0.000000
1075.175506,    0.000000
1083.300142,    0.000000
1091.466297,    0.000000
1099.651272,    0.000000
1107.897790,    0.000000
1116.183877,    0.000000
1124.506964,    0.000000
1132.865994,    0.000000
1141.264346,    0.000000
1149.694940,    0.000000
1158.174724,    0.000000
1166.677905,    0.000000
1175.238238,    0.000000
1183.817578,    0.000000
1192.434768,    0.000000
1201.118747,    0.000000
1209.849082,    0.000000
1218.599956,    0.000000
1227.372730,    0.000000
1236.191935,    0.000000
1245.044695,    0.000000
1253.941271,    0.000000
1262.896974,    0.000000
1271.890940,    0.000000
1280.909661,    0.000000
1289.977868,    0.000000
1299.081826,    0.000000
1308.226785,    0.000000
1317.416727,    0.000000
1326.641445,    0.000000
1335.926930,    0.000000
1345.216164,    0.000000
1354.551238,    0.000000
1363.931107,    0.000000
1373.367734,    0.000000
1382.853448,    0.000000
1392.389477,    0.000000
1401.958290,    0.000000
1411.540830,    0.000000
1421.185482,    0.000000
1430.857719,    0.000000
1440.572337,    0.000000
1450.317632,    0.000000
1460.108997,    0.000000
1469.951646,    0.000000
1479.826530,    0.000000
1489.733767,    0.000000
1499.703567,    0.000000
1509.697128,    0.000000
1519.732555,    0.000000
1529.805869,    0.000000
1539.930991,    0.000000
1550.088244,    0.000000
1560.298583,    0.000000
1570.551394,    0.000000
1580.840653,    0.000000
1591.165298,    0.000000
1601.532661,    0.000000
1611.948659,    0.000000
1622.420997,    0.000000
1632.918822,    0.000000
1643.451219,    0.000000
1654.005140,    0.000000
1656.132120,    0.000000
1663.686782,    0.000000
1663.771907,    0.000000
1663.907758,    0.000000
1663.929776,    0.000000
1663.943368,    0.000000
1663.948758,    0.000000
1663.954133,    0.000000
1664.007889,    0.000000
1664.500991,    0.000000
1666.952872,    0.000000
1676.324776,    0.000000
1686.968430,    0.000000
1697.677377,    0.000000
1708.390672,    0.000000
1719.185933,    0.000000
1729.997045,    0.000000
1740.865466,    0.000000
1751.769283,    0.000000
1762.723613,    0.000000
1773.710757,    0.000000
1784.748878,    0.000000
1795.815148,    0.000000
1806.950144,    0.000000
1818.123530,    0.000000
1829.325139,    0.000000
1840.578293,    0.000000
1851.873122,    0.000000
1863.191392,    0.000000
1874.557136,    0.000000
1885.961398,    0.000000
1897.418331,    0.000000
1908.917724,    0.000000
1920.468507,    0.000000
1932.028217,    0.000000
1943.644834,    0.000000
1955.298282,    0.000000
1967.004316,    0.000000
1978.734549,    0.000000
1990.517004,    0.000000
2002.345588,    0.000000
2014.217452,    0.000000
2026.133580,    0.000000
2038.078412,    0.000000
2050.076943,    0.000000
2062.123308,    0.000000
2074.215746,    0.000000
2086.344919,    0.000000
2098.529006,    0.000000
2110.739746,    0.000000
2122.998203,    0.000000
2135.299729,    0.000000
2147.624905,    0.000000
2160.032149,    0.000000
2172.458191,    0.000000
2184.918324,    0.000000
2197.422289,    0.000000
2209.968642,    0.000000
2222.554575,    0.000000
2235.208393,    0.000000
2247.901631,    0.000000
2260.627407,    0.000000
2273.396143,    0.000000
2286.195572,    0.000000
2299.069325,    0.000000
2311.950341,    0.000000
2324.895126,    0.000000
2337.876597,    0.000000
2350.917891,    0.000000
2363.973999,    0.000000
2377.091368,    0.000000
2390.252383,    0.000000
2403.468128,    0.000000
2416.740941,    0.000000
2430.033586,    0.000000
2443.366917,    0.000000
2456.769265,    0.000000
2470.178977,    0.000000
2483.649146,    0.000000
2497.184210,    0.000000
2510.738687,    0.000000
2524.338550,    0.000000
2537.986697,    0.000000
2551.659155,    0.000000
2565.381612,    0.000000
2579.152918,    0.000000
2592.967479,    0.000000
2606.831245,    0.000000
2620.741852,    0.000000
2634.679257,    0.000000
2648.672948,    0.000000
2662.694743,    0.000000
2676.774134,    0.000000
2690.912711,    0.000000
2702.166898,    0.000000
2705.089826,    0.000000
2719.306337,    0.046726
2733.570876,    0.273286
2747.868469,    0.498089
2762.199855,    0.720909
2776.601810,    0.941777
2791.012943,    1.161269
2805.478758,    1.378459
2820.002265,    1.594054
2834.529802,    1.808103
2849.108249,    2.019832
2863.741057,    2.229945
2878.432018,    2.438501
2881.371913,    2.645558
2884.186092,    2.686565
2886.537742,    2.725731
2886.612207,    2.758391
2886.615421,    2.759423
2886.618635,    2.759468
2886.650775,    2.759513
2886.922384,    2.759958
2888.615627,    2.763724
2895.188981,    2.787192
2910.191758,    2.878153
2925.499737,    3.084613
2940.851936,    3.292890
2956.234880,    3.499369
2971.665680,    3.703883
2987.117600,    3.906678
3002.601205,    4.107418
3018.105853,    4.306262
3033.671055,    4.503095
3049.258903,    4.698434
3064.891051,    4.891817
3080.560894,    5.083529
3096.279514,    5.273505
3112.033184,    5.461892
3127.818669,    5.648538
3143.620667,    5.833422
3159.437033,    6.016385
3175.313835,    6.197424
3191.199971,    6.377085
3207.129184,    6.554801
3223.091289,    6.730972
3239.079384,    6.905498
3255.122021,    7.078320
3271.176537,    7.249762
3272.394024,    7.419380
3273.610244,    7.432107
3274.823722,    7.444811
3276.042561,    7.457475
3277.260945,    7.470184
3278.478914,    7.482877
3279.703216,    7.495555
3280.926757,    7.508288
3282.146066,    7.521003
3283.373102,    7.533662
3284.595429,    7.546391
3285.822907,    7.559059
3287.045961,    7.571771
3288.272683,    7.584425
3289.503569,    7.597107
3290.736147,    7.609821
3291.966765,    7.622541
3293.202767,    7.635230
3294.434912,    7.647964
3295.671683,    7.660646
3296.911032,    7.673366
3298.152030,    7.686101
3299.394473,    7.698841
3300.628455,    7.711586
3301.853323,    7.724232
3303.098825,    7.736775
3304.339976,    7.749518
3305.583923,    7.762205
3306.831713,    7.774910
3308.077263,    7.787643
3309.328831,    7.800341
3310.580273,    7.813091
3311.829889,    7.825827
3313.086334,    7.838535
3314.334767,    7.851300
3315.592675,    7.863973
3316.853289,    7.876731
3318.109693,    7.889505
3319.364475,    7.902225
3320.616427,    7.914918
3321.867646,    7.927571
3323.134627,    7.940206
3324.401262,    7.952988
3325.670152,    7.965756
3326.937842,    7.978536
3328.202803,    7.991292
3329.477638,    8.004009
3330.752814,    8.016814
3332.030628,    8.029612
3333.309274,    8.042424
3334.580258,    8.055234
3335.856476,    8.067955
3337.138833,    8.080718
3338.425116,    8.093531
3339.710688,    8.106371
3340.996971,    8.119193
3342.279565,    8.132010
3343.567596,    8.144780
3344.856295,    8.157592
3346.153436,    8.170399
3347.445523,    8.183279
3348.739391,    8.196097
3350.036220,    8.208922
3351.332974,    8.221764
3352.637839,    8.234594
3353.942347,    8.247492
3355.239978,    8.260376
3356.541199,    8.273180
3357.854239,    8.286008
3359.162848,    8.298941
3360.471155,    8.311818
3361.791855,    8.324681
3363.100870,    8.337654
3364.424835,    8.350501
3365.753084,    8.363483
3367.064214,    8.376495
3368.384174,    8.389327
3369.705988,    8.402234
3371.030318,    8.415148
3372.343527,    8.428074
3373.672740,    8.428074
3375.006501,    8.428074
3376.350992,    8.428074
3377.691860,    8.428074
3379.030600,    8.428074
3380.358197,    8.428074
3381.706028,    8.428074
3383.046476,    8.428074
3384.394975,    8.428074
3385.734816,    8.428074
3387.087380,    8.428074
3388.440217,    8.428074
3389.796807,    8.428074
3391.148343,    8.428074
3392.501520,    8.428074
3393.860617,    8.428074
3395.224177,    8.428074
3396.579065,    8.428074
3397.944167,    8.428074
3399.318474,    8.428074
3400.694524,    8.428074
3402.059378,    8.428074
3403.428029,    8.428074
3404.800823,    8.428074
3406.180692,    8.428074
3407.560060,    8.428074
3408.931129,    8.428074
3410.313083,    8.428074
3411.699618,    8.428074
3413.074852,    8.428074
3414.460013,    8.428074
3415.852301,    8.428074
3417.240533,    8.428074
3418.640939,    8.428074
3420.031748,    8.428074
3421.434975,    8.428074
3422.835953,    8.428074
3424.237147,    8.428074
3425.643701,    8.428074
3427.049122,    8.428074
3428.457652,    8.428074
3429.866070,    8.428074
3431.274556,    8.428074
3432.689944,    8.428074
3434.113693,    8.428074
3435.526737,    8.428074
3436.954958,    8.428074
3438.380895,    8.428074
3439.811482,    8.428074
3441.241634,    8.428074
3442.675770,    8.428074
3444.108490,    8.428074
3445.555062,    8.428074
3446.993889,    8.428074
3448.424701,    8.428074
3449.868755,    8.428074
3451.320467,    8.428074
3452.776661,    8.428074
3454.217668,    8.428074
3455.676927,    8.428074
3457.129789,    8.428074
3458.594024,    8.428074
3460.059655,    8.428074
3461.525697,    8.428074
3462.994111,    8.428074
3464.468340,    8.428074
3465.944331,    8.428074
3467.418770,    8.428074
3468.882676,    8.428074
3470.357465,    8.428074
3471.841016,    8.428074
3473.329811,    8.428074
3474.801415,    8.428074
3474.820365,    8.428074
3476.312108,    8.428019
3477.806789,    8.423671
3479.291557,    8.419316
3480.795278,    8.414989
3482.303106,    8.410609
3483.803811,    8.406216
3485.305195,    8.401845
3486.816928,    8.397473
3488.336565,    8.393071
3489.860377,    8.388647
3491.377884,    8.384211
3492.903027,    8.379794
3494.433904,    8.375355
3495.963230,    8.370900
3497.489465,    8.366450
3499.021255,    8.362010
3500.555105,    8.357554
3502.097033,    8.353093
3503.648165,    8.348609
3505.193941,    8.344098
3506.740461,    8.339604
3508.287013,    8.335108
3509.845173,    8.330613
3511.394294,    8.326084
3512.949280,    8.321582
3514.494879,    8.317064
3516.053322,    8.312574
3517.613094,    8.308047
3519.177515,    8.303517
3520.735145,    8.298973
3522.308013,    8.294450
3523.882238,    8.289883
3525.463119,    8.285313
3527.051362,    8.280725
3528.639572,    8.276115
3530.231332,    8.271506
3531.822689,    8.266887
3533.422950,    8.262271
3535.023249,    8.257628
3536.627259,    8.252987
3538.227981,    8.248335
3539.836678,    8.243693
3541.443630,    8.239029
3543.060760,    8.234370
3544.675826,    8.229683
3546.298653,    8.225002
3547.904765,    8.220299
3549.538294,    8.215645
3551.174030,    8.210912
3552.810070,    8.206174
3554.450403,    8.201435
3556.078121,    8.196684
3557.712657,    8.191971
3559.356492,    8.187238
3560.995839,    8.182479
3562.650823,    8.177734
3564.295232,    8.172944
3565.942846,    8.168185
3567.604741,    8.163417
3569.271690,    8.158609
3570.945132,    8.153787
3572.615702,    8.148946
3574.290425,    8.144115
3575.973263,    8.139272
3577.633387,    8.134406
3579.317309,    8.129606
3581.006234,    8.124738
3582.683739,    8.119857
3584.378798,    8.115009
3586.071252,    8.110111
3587.756941,    8.105221
3589.465375,    8.100351
3591.185343,    8.095416
3592.897026,    8.090448
3594.606713,    8.085505
3596.323919,    8.080568
3598.044224,    8.075610
3599.763760,    8.070644
3601.480487,    8.065681
3603.208638,    8.060726
3604.949146,    8.055739
3606.688829,    8.050717
3608.433963,    8.045698
3610.172406,    8.040664
3611.922086,    8.035650
3613.681090,    8.030604
3615.434934,    8.025531
3617.200270,    8.020475
3618.966583,    8.015385
3620.720655,    8.010294
3622.486823,    8.005238
3624.265351,    8.000148
3626.043040,    7.995024
3627.804493,    7.989902
3629.565778,    7.984827
3631.345191,    7.979754
3633.148169,    7.974629
3634.930537,    7.969437
3636.740224,    7.964305
3638.538289,    7.959095
3640.332605,    7.953919
3642.147072,    7.948754
3643.955274,    7.943532
3645.765844,    7.938329
3647.588912,    7.933119
3649.397053,    7.927874
3651.218548,    7.922673
3653.034159,    7.917434
3654.843177,    7.912213
3656.670599,    7.907011
3658.499522,    7.901756
3660.329843,    7.896498
3662.178609,    7.891237
3664.028423,    7.885923
3665.864904,    7.880607
3667.710297,    7.875330
3669.565793,    7.870028
3671.416768,    7.864698
3673.278443,    7.859381
3675.138606,    7.854034
3677.014881,    7.848692
3678.889742,    7.843304
3680.769808,    7.837922
3682.639228,    7.832524
3684.519927,    7.827158
3686.406444,    7.821761
3688.283981,    7.816347
3690.175362,    7.810959
3692.065075,    7.805533
3693.977703,    7.800112
3695.894576,    7.794626
3697.807704,    7.789128
3699.713349,    7.783642
3701.624608,    7.778178
3703.525387,    7.772698
3705.438010,    7.767249
3707.349210,    7.761767
3709.272053,    7.756289
3711.211802,    7.750779
3713.160847,    7.745221
3715.108584,    7.739637
3717.063034,    7.734057
3719.023960,    7.728459
3720.981476,    7.722843
3722.940346,    7.717237
3724.903375,    7.711629
3726.866565,    7.706008
3728.828821,    7.700388
3730.803605,    7.694772
3732.780400,    7.689120
3734.751340,    7.683463
3736.730657,    7.677823
3738.723230,    7.672161
3740.709625,    7.666460
3742.709869,    7.660779
3744.706121,    7.655058
3746.701836,    7.649349
3748.704440,    7.643643
3750.710728,    7.637917
3752.733229,    7.632182
3754.755938,    7.626401
3756.783539,    7.620619
3758.822694,    7.614825
3760.851407,    7.608998
3762.870622,    7.603202
3764.906618,    7.597434
3766.932255,    7.591618
3768.983418,    7.585832
3771.019289,    7.579975
3773.076665,    7.574161
3775.119494,    7.568287
3777.178174,    7.562455
3779.242339,    7.556579
3781.299610,    7.550687
3783.371220,    7.544816
3785.449497,    7.538904
3787.508101,    7.532974
3789.588201,    7.527101
3791.664862,    7.521168
3793.736062,    7.515244
3795.836395,    7.509337
3797.912514,    7.503348
3799.990251,    7.497428
3802.104716,    7.491504
3804.198709,    7.485476
3806.308162,    7.479507
3808.433603,    7.473495
3810.544739,    7.467438
3812.645928,    7.461422
3814.779990,    7.455436
3816.916978,    7.449356
3819.070877,    7.443269
3821.192361,    7.437134
3823.322205,    7.431092
3825.454369,    7.425027
3827.607053,    7.418956
3829.745652,    7.412827
3831.904106,    7.406739
3834.060474,    7.400595
3836.231849,    7.394458
3838.379222,    7.388278
3840.543487,    7.382168
3842.730454,    7.376010
3844.903375,    7.369788
3847.086236,    7.363607
3849.249856,    7.357398
3851.453308,    7.351245
3853.625023,    7.344979
3855.841412,    7.338804
3858.024796,    7.332502
3860.239289,    7.326295
3862.469323,    7.320000
3864.670249,    7.313662
3866.874983,    7.307407
3869.097901,    7.301142
3871.312069,    7.294826
3873.534754,    7.288535
3875.743990,    7.282221
3877.970294,    7.275946
3880.203355,    7.269623
3882.442266,    7.263281
3884.720876,    7.256923
3886.977884,    7.250453
3889.242453,    7.244046
3891.506693,    7.237617
3893.757863,    7.231190
3895.997482,    7.224801
3898.275761,    7.218445
3900.534200,    7.211980
3902.799905,    7.205572
3905.047675,    7.199144
3907.327630,    7.192768
3909.614697,    7.186301
3911.909013,    7.179814
3914.185868,    7.173307
3916.475191,    7.166851
3918.770457,    7.160360
3921.089610,    7.153853
3923.394430,    7.147278
3925.742608,    7.140745
3928.045623,    7.134090
3930.369945,    7.127563
3932.674666,    7.120976
3934.989021,    7.114446
3937.311052,    7.107889
3939.638602,    7.101311
3941.986214,    7.094718
3944.299728,    7.088068
3946.652596,    7.081516
3948.993309,    7.074853
3951.364238,    7.068225
3953.719170,    7.061513
3956.068023,    7.054846
3958.435013,    7.048197
3960.805368,    7.041497
3963.183601,    7.034788
3965.576662,    7.028058
3967.957218,    7.021286
3970.321000,    7.014550
3972.727295,    7.007863
3975.097069,    7.001055
3977.460434,    6.994352
3979.828189,    6.987667
3982.228379,    6.980971
3984.601754,    6.974183
3987.002357,    6.967472
3989.427306,    6.960685
3991.865721,    6.953829
3994.299794,    6.946936
3996.748505,    6.940056
3999.190821,    6.933134
4001.605046,    6.926232
4004.034421,    6.919410
4006.476660,    6.912545
4008.925801,    6.905645
4011.393313,    6.898726
4013.835902,    6.891755
4016.287579,    6.884856
4018.718860,    6.877931
4021.185310,    6.871065
4023.639325,    6.864100
4026.116202,    6.857170
4028.603496,    6.850177
4031.088457,    6.843155
4033.581821,    6.836140
4036.071421,    6.829102
4038.555653,    6.822075
4041.070472,    6.815064
4043.599676,    6.807967
4046.085437,    6.800830
4048.557218,    6.793816
4051.082023,    6.786843
4053.590464,    6.779720
4056.088945,    6.772644
4058.607960,    6.765597
4061.151262,    6.758492
4063.673636,    6.751320
4066.196502,    6.744207
4068.763235,    6.737093
4071.299932,    6.729856
4073.844247,    6.722705
4076.370107,    6.715532
4078.916171,    6.708412
4081.464074,    6.701236
4084.019675,    6.694055
4086.590271,    6.686853
4087.537884,    6.679609
