Ground Distance, Angles
   0.000000,    0.000000
   0.000002,    0.000000
   0.000022,    0.000000
   0.000226,    0.000000
   0.001291,    0.000000
   0.005104,    0.000000
   0.015419,    0.000000
   0.034445,    0.000000
   0.060907,    0.000000
   0.095143,    0.000000
   0.136995,    0.000000
   0.186585,    0.000000
   0.244177,    0.000000
   0.309661,    0.000000
   0.383384,    0.000000
   0.464596,    0.000000
   0.554366,    0.000000
   0.651722,    0.000000
   0.759051,    0.000000
   0.873426,    0.000000
   0.998138,    0.000000
   1.131639,    0.000000
   1.272799,    0.000000
   1.424084,    0.000000
   1.584706,    0.000000
   1.753900,    0.000000
   1.934560,    0.000000
   2.125491,    0.000000
   2.328509,    0.000000
   2.540082,    0.000000
   2.763545,    0.000000
   2.997145,    0.000000
   3.243145,    0.000000
   3.497772,    0.000000
   3.765584,    0.000000
   4.044731,    0.000000
   4.336938,    0.000000
   4.640331,    0.000000
   4.956859,    0.000000
   5.285238,    0.000000
   5.628484,    0.000000
   5.984910,    0.000000
   6.357473,    0.000000
   6.746396,    0.000000
   7.150007,    0.000000
   7.565005,    0.000000
   7.990867,    0.000000
   8.439822,    0.000000
   8.899169,    0.000000
   9.372376,    0.000000
   9.860217,    0.000000
  10.360945,    0.000000
  10.878834,    0.000000
  11.423024,    0.000000
  11.984490,    0.000000
  12.551330,    0.000000
  13.138233,    0.000000
  13.737695,    0.000000
  14.359330,    0.000000
  15.000298,    0.000000
  15.664892,    0.000000
  16.343528,    0.000000
  17.042004,    0.000000
  17.765361,    0.000000
  18.515136,    0.000000
  19.280573,    0.000000
  20.056205,    0.000000
  20.855059,    0.000000
  21.677347,    0.000000
  22.515624,    0.000000
  23.386885,    0.000000
  24.272080,    0.000000
  25.182208,    0.000000
  26.121187,    0.000000
  27.075071,    0.000000
  28.047680,    0.000000
  29.048784,    0.000000
  30.075066,    0.000000
  31.120838,    0.000000
  32.182859,    0.000000
  33.281620,    0.000000
  34.405339,    0.000000
  35.540840,    0.000000
  36.712812,    0.000000
  37.909416,    0.000000
  39.126360,    0.000000
  40.361336,    0.000000
  41.614920,    0.000000
  42.913094,    0.000000
  44.228646,    0.000000
  45.571183,    0.000000
  46.949817,    0.000000
  48.352233,    0.000000
  49.785236,    0.000000
  51.250922,    0.000000
  52.731743,    0.000000
  54.235229,    0.000000
  55.773368,    0.000000
  57.337142,    0.000000
  58.926704,    0.000000
  60.565105,    0.000000
  62.231112,    0.000000
  63.915331,    0.000000
  65.645288,    0.000000
  67.388350,    0.000000
  69.159723,    0.000000
  70.960879,    0.000000
  72.786381,    0.000000
  74.663786,    0.000000
  76.571180,    0.000000
  78.497588,    0.000000
  80.470902,    0.000000
  82.471079,    0.000000
  84.520175,    0.000000
  84.602921,    0.000000
  84.617744,    0.000000
  84.635179,    0.000000
  84.655410,    0.000000
  84.659482,    0.000000
  84.666094,    0.000000
  84.666853,    0.000000
  84.667666,    0.000000
  84.668410,    0.000000
  84.675748,    0.000000
  84.730699,    0.000000
  84.989568,    0.000000
  85.835770,    0.000000
  87.587744,    0.000000
  89.529982,    0.000000
  91.502881,    0.000000
  93.503151,    0.000000
  95.531319,    0.000000
  97.583334,    0.000000
  99.671008,    0.000000
 101.785063,    0.000000
 103.930804,    0.000000
 106.099909,    0.000000
 108.312588,    0.000000
 110.549334,    0.000000
 112.817536,    0.000000
 115.102068,    0.000000
 117.406823,    0.000000
 119.753684,    0.000000
 122.137033,    0.000000
 124.565089,    0.000000
 127.020278,    0.000000
 129.495114,    0.000000
 131.999905,    0.000000
 134.539282,    0.000000
 137.128477,    0.000000
 139.743485,    0.000000
 142.366008,    0.000000
 145.033905,    0.000000
 147.760073,    0.000000
 150.503636,    0.000000
 153.279565,    0.000000
 156.085548,    0.000000
 158.934639,    0.000000
 161.823828,    0.000000
 164.725735,    0.000000
 167.680482,    0.000000
 170.657263,    0.000000
 173.662589,    0.000000
 176.713216,    0.000000
 179.810161,    0.000000
 182.935424,    0.000000
 186.088671,    0.000000
 189.277825,    0.000000
 192.509394,    0.000000
 195.796580,    0.000000
 199.081692,    0.000000
 202.420153,    0.000000
 205.792702,    0.000000
 209.185670,    0.000000
 212.621365,    0.000000
 216.106555,    0.000000
 219.641163,    0.000000
 223.204355,    0.000000
 226.810658,    0.000000
 230.442855,    0.000000
 234.110619,    0.000000
 237.820063,    0.000000
 241.569934,    0.000000
 245.372548,    0.000000
 249.194750,    0.000000
 253.050899,    0.000000
 256.972943,    0.000000
 260.926008,    0.000000
 264.908129,    0.000000
 268.955990,    0.000000
 273.008013,    0.000000
 277.106243,    0.000000
 281.252352,    0.000000
 285.438606,    0.000000
 289.670968,    0.000000
 293.919855,    0.000000
 298.236262,    0.000000
 302.568832,    0.000000
 306.962508,    0.000000
 311.390226,    0.000000
 315.849165,    0.000000
 320.332408,    0.000000
 324.879358,    0.000000
 329.463008,    0.000000
 334.094516,    0.000000
 338.773151,    0.000000
 343.503068,    0.000000
 348.282112,    0.000000
 349.241774,    0.000000
 349.904518,    0.000000
 350.429096,    0.000000
 352.285631,    0.000000
 352.324670,    0.000000
 352.368523,    0.000000
 352.377818,    0.000000
 352.393865,    0.000000
 352.398585,    0.000000
 352.407201,    0.000000
 352.409184,    0.000000
 352.410242,    0.000000
 352.410736,    0.000000
 352.411187,    0.000000
 352.415699,    0.000000
 352.451656,    0.000000
 352.647699,    0.000000
 353.396389,    0.000000
 355.889802,    0.000000
 360.198202,    0.000000
 364.673321,    0.000000
 369.174362,    0.000000
 373.725233,    0.000000
 378.299438,    0.000000
 382.928424,    0.000000
 387.585347,    0.000000
 392.272024,    0.000000
 396.973704,    0.000000
 401.734621,    0.000000
 406.527181,    0.000000
 411.361673,    0.000000
 416.208508,    0.000000
 421.116320,    0.000000
 426.065451,    0.000000
 431.045299,    0.000000
 436.071477,    0.000000
 441.139826,    0.000000
 446.253391,    0.000000
 451.402457,    0.000000
 456.570201,    0.000000
 461.785331,    0.000000
 467.046958,    0.000000
 472.359684,    0.000000
 477.697632,    0.000000
 483.063596,    0.000000
 488.475763,    0.000000
 493.942952,    0.000000
 499.422945,    0.000000
 504.924910,    0.000000
 510.504727,    0.000000
 516.108503,    0.000000
 521.753440,    0.000000
 527.427631,    0.000000
 533.155733,    0.000000
 538.905202,    0.000000
 544.739969,    0.000000
 550.597267,    0.000000
 556.475594,    0.000000
 562.410097,    0.000000
 568.378302,    0.000000
 574.391975,    0.000000
 580.466377,    0.000000
 586.542385,    0.000000
 592.664779,    0.000000
 598.825805,    0.000000
 605.029430,    0.000000
 611.284359,    0.000000
 617.584280,    0.000000
 623.907132,    0.000000
 630.273183,    0.000000
 636.680920,    0.000000
 643.139595,    0.000000
 649.645983,    0.000000
 656.191010,    0.000000
 662.767429,    0.000000
 669.410060,    0.000000
 676.084824,    0.000000
 682.798831,    0.000000
 689.563325,    0.000000
 696.373213,    0.000000
 703.214757,    0.000000
 710.085631,    0.000000
 716.991836,    0.000000
 723.959155,    0.000000
 730.962615,    0.000000
 738.012579,    0.000000
 745.087015,    0.000000
 752.209527,    0.000000
 759.363693,    0.000000
 766.572738,    0.000000
 773.829023,    0.000000
 781.129321,    0.000000
 788.493538,    0.000000
 795.867599,    0.000000
 803.303269,    0.000000
 810.790045,    0.000000
 818.304785,    0.000000
 825.873485,    0.000000
 833.499644,    0.000000
 835.028612,    0.000000
 836.213814,    0.000000
 837.001397,    0.000000
 837.602217,    0.000000
 837.705048,    0.000000
 837.730379,    0.000000
 837.771298,    0.000000
 837.781735,    0.000000
 837.802610,    0.000000
 837.809395,    0.000000
 837.810107,    0.000000
 837.810761,    0.000000
 837.817300,    0.000000
 837.879813,    0.000000
 838.342997,    0.000000
 840.957162,    0.000000
 847.843489,    0.000000
 854.768277,    0.000000
 861.730900,    0.000000
 868.721996,    0.000000
 875.748050,    0.000000
 882.803759,    0.000000
 889.916920,    0.000000
 897.058398,    0.000000
 904.227730,    0.000000
 911.433788,    0.000000
 918.677454,    0.000000
 925.949964,    0.000000
 933.253754,    0.000000
 940.607181,    0.000000
 947.982484,    0.000000
 955.419593,    0.000000
 962.905417,    0.000000
 970.418013,    0.000000
 977.939740,    0.000000
 985.512728,    0.000000
 993.118905,    0.000000
1000.753866,    0.000000
1008.433088,    0.000000
1016.157439,    0.000000
1023.918758,    0.000000
1031.710442,    0.000000
1039.533796,    0.000000
1047.416049,    0.000000
1055.333829,    0.000000
1063.303718,    0.000000
1071.293940,    0.000000
1079.319019,    0.000000
1087.374081,    0.000000
1095.474519,    0.000000
1103.618832,    0.000000
1111.803992,    0.000000
1120.018213,    0.000000
1128.275677,    0.000000
1136.571631,    0.000000
1144.924266,    0.000000
1153.312743,    0.000000
1161.709610,    0.000000
1170.148990,    0.000000
1178.620471,    0.000000
1187.147650,    0.000000
1195.720640,    0.000000
1204.309381,    0.000000
1212.971688,    0.000000
1221.662532,    0.000000
1230.374235,    0.000000
1239.129511,    0.000000
1247.908222,    0.000000
1256.734374,    0.000000
1265.613066,    0.000000
1274.517244,    0.000000
1283.456632,    0.000000
1292.428629,    0.000000
1301.449985,    0.000000
1310.525694,    0.000000
1319.632711,    0.000000
1328.762884,    0.000000
1337.976858,    0.000000
1347.199477,    0.000000
1356.478853,    0.000000
1365.783230,    0.000000
1375.127659,    0.000000
1384.506243,    0.000000
1393.926962,    0.000000
1403.396379,    0.000000
1412.902422,    0.000000
1422.448609,    0.000000
1432.020828,    0.000000
1441.655035,    0.000000
1451.290065,    0.000000
1460.980207,    0.000000
1470.716581,    0.000000
1480.496212,    0.000000
1490.297695,    0.000000
1500.148408,    0.000000
1510.056383,    0.000000
1519.976578,    0.000000
1529.953256,    0.000000
1539.957700,    0.000000
1550.004538,    0.000000
1560.094309,    0.000000
1570.211436,    0.000000
1580.400372,    0.000000
1590.617865,    0.000000
1600.890545,    0.000000
1602.948249,    0.000000
1604.567977,    0.000000
1605.883273,    0.000000
1607.041541,    0.000000
1608.024690,    0.000000
1608.881886,    0.000000
1609.023032,    0.000000
1609.185025,    0.000000
1609.441466,    0.000000
1609.464994,    0.000000
1609.475442,    0.000000
1609.484928,    0.000000
1609.579792,    0.000000
1610.277549,    0.000000
1617.262160,    0.000000
1627.580424,    0.000000
1637.947317,    0.000000
1648.350141,    0.000000
1658.778284,    0.000000
1669.258621,    0.000000
1679.766040,    0.000000
1690.315605,    0.000000
1700.911687,    0.000000
1711.546663,    0.000000
1722.228870,    0.000000
1732.966362,    0.000000
1743.717498,    0.000000
1754.534953,    0.000000
1765.368952,    0.000000
1776.249881,    0.000000
1787.171893,    0.000000
1798.143020,    0.000000
1809.154749,    0.000000
1820.190044,    0.000000
1831.292984,    0.000000
1842.434407,    0.000000
1853.598512,    0.000000
1864.815255,    0.000000
1876.061120,    0.000000
1887.354070,    0.000000
1898.675030,    0.000000
1910.070826,    0.000000
1921.483017,    0.000000
1932.953180,    0.000000
1944.455952,    0.000000
1955.984876,    0.000000
1967.549729,    0.000000
1979.157487,    0.000000
1990.824464,    0.000000
2002.526516,    0.000000
2014.249486,    0.000000
2026.050271,    0.000000
2037.887171,    0.000000
2049.754448,    0.000000
2061.673982,    0.000000
2073.613696,    0.000000
2085.598865,    0.000000
2097.655718,    0.000000
2109.729771,    0.000000
2121.858823,    0.000000
2134.009735,    0.000000
2146.219423,    0.000000
2158.479747,    0.000000
2170.758594,    0.000000
2183.099804,    0.000000
2195.488015,    0.000000
2207.891273,    0.000000
2220.337250,    0.000000
2232.834764,    0.000000
2245.348935,    0.000000
2257.930597,    0.000000
2270.532750,    0.000000
2283.198659,    0.000000
2295.900664,    0.000000
2308.660477,    0.000000
2321.454398,    0.000000
2334.277136,    0.000000
2347.157959,    0.000000
2360.083033,    0.000000
2373.030732,    0.000000
2386.042270,    0.000000
2399.066328,    0.000000
2412.164437,    0.000000
2425.282369,    0.000000
2438.457435,    0.000000
2451.648197,    0.000000
2464.891688,    0.000000
2478.194850,    0.000000
2491.532405,    0.000000
2504.913602,    0.000000
2516.689726,    0.000000
2518.330925,    0.000000
2531.764083,    0.026626
2545.269080,    0.244073
2558.824471,    0.460325
2572.423874,    0.675040
2586.045924,    0.888123
2599.722752,    1.099253
2613.429541,    1.308941
2627.164067,    1.516816
2640.948115,    1.722861
2654.795534,    1.927416
2668.665763,    2.130690
2682.582317,    2.332096
2696.566506,    2.531989
2710.566439,    2.730681
2724.600498,    2.927441
2738.676932,    3.122546
2752.793752,    3.316124
2766.934513,    3.508158
2781.117807,    3.698436
2783.959263,    3.887225
2786.170445,    3.924667
2788.072144,    3.953742
2789.593543,    3.978706
2789.965916,    3.998650
2790.622981,    4.003526
2790.741082,    4.012127
2790.912115,    4.013672
2790.960717,    4.015910
2790.970737,    4.016546
2790.976943,    4.016677
2790.982636,    4.016758
2791.039570,    4.016833
2791.515469,    4.017577
2793.852568,    4.023802
2807.585629,    4.054356
2822.372277,    4.233437
2837.188237,    4.424237
2852.008229,    4.613278
2866.872864,    4.800260
2881.796759,    4.985716
2896.736339,    5.169837
2911.704414,    5.352097
2926.724211,    5.532671
2941.762298,    5.711854
2956.815195,    5.889259
2971.884212,    6.064865
2987.024090,    6.238710
3002.217853,    6.411438
3017.407497,    6.582858
3032.613962,    6.752329
3047.887210,    6.920110
3063.143109,    7.086765
3064.324295,    7.254210
3065.507364,    7.269709
3066.684424,    7.285259
3067.868367,    7.300808
3069.053280,    7.316478
3070.235360,    7.332198
3071.419433,    7.347938
3072.600394,    7.363736
3073.785466,    7.379559
3074.975015,    7.395483
3076.166096,    7.411505
3077.357702,    7.427591
3078.551627,    7.443736
3079.744937,    7.459950
3080.938373,    7.476203
3082.131253,    7.492503
3083.319926,    7.508829
3084.518694,    7.525189
3085.713904,    7.541690
3086.913794,    7.558215
3088.113554,    7.574835
3089.313380,    7.591500
3090.517798,    7.608228
3091.720505,    7.625045
3092.926305,    7.641901
3094.132823,    7.658839
3095.339485,    7.675832
3096.542924,    7.692860
3097.752950,    7.709926
3098.964938,    7.727115
3100.170185,    7.744345
3101.384115,    7.761584
3102.599798,    7.778968
3103.814877,    7.796415
3105.023498,    7.813876
3106.240018,    7.831348
3107.461170,    7.848969
3108.683048,    7.866687
3109.899247,    7.884437
3111.125472,    7.902217
3112.346091,    7.920123
3113.574055,    7.938051
3114.804907,    7.956115
3116.035323,    7.974254
3117.266434,    7.992439
3118.500521,    8.010693
3119.730104,    8.029004
3120.963987,    8.047336
3122.200209,    8.065771
3123.426925,    8.084232
3124.665626,    8.102700
3125.899329,    8.121315
3127.137429,    8.139947
3128.386038,    8.158724
3129.628980,    8.177628
3130.878671,    8.196556
3132.130372,    8.215611
3133.381398,    8.234732
3134.627997,    8.253871
3135.880457,    8.273044
3137.128956,    8.292304
3138.381943,    8.311595
3139.639498,    8.331005
3140.896457,    8.350506
3142.161036,    8.370092
3143.427401,    8.389813
3144.696759,    8.409618
3145.958513,    8.429460
3147.225564,    8.449303
3148.491333,    8.469242
3149.758621,    8.489225
3151.031588,    8.509306
3152.309106,    8.529519
3153.582826,    8.549805
3154.857488,    8.570108
3156.133549,    8.590477
3157.415899,    8.610948
3158.696215,    8.631519
3159.974707,    8.652109
3161.257558,    8.672756
3162.548536,    8.693546
3163.839779,    8.714469
3165.129951,    8.735439
3166.418189,    8.756435
3167.716336,    8.777525
3169.013388,    8.798757
3170.317793,    8.820076
3171.617972,    8.841492
3172.922360,    8.862943
3174.236352,    8.884551
3175.545206,    8.906270
3176.857103,    8.928010
3178.170804,    8.949844
3179.491010,    8.958800
3180.817352,    8.967814
3182.141057,    8.976825
3183.459668,    8.985817
3184.786167,    8.994879
3186.111662,    9.003950
3187.433523,    9.013012
3188.759659,    9.022118
3190.089949,    9.031269
3191.422519,    9.040451
3192.759677,    9.049681
3194.095675,    9.058918
3195.427147,    9.068140
3196.772504,    9.077474
3198.119601,    9.086836
3199.466361,    9.096211
3200.810721,    9.105586
3202.155753,    9.114981
3203.506204,    9.124429
3204.857471,    9.133900
3206.218144,    9.143452
3207.579454,    9.153025
3208.934522,    9.162570
3210.290640,    9.172138
3211.661330,    9.181825
3213.026506,    9.191490
3214.395785,    9.201199
3215.769027,    9.210953
3217.148688,    9.220768
3218.517182,    9.230520
3219.896167,    9.240363
3221.268682,    9.250176
3222.651619,    9.260079
3224.035866,    9.270008
3225.421982,    9.279967
3226.810325,    9.289958
3228.203901,    9.300003
3229.600371,    9.310085
3230.994881,    9.320169
3232.395430,    9.330314
3233.796864,    9.340481
3235.205320,    9.350715
3236.612324,    9.360956
3238.017825,    9.371201
3239.426407,    9.381486
3240.834241,    9.391782
3242.238044,    9.402064
3243.653817,    9.412451
3245.071621,    9.422869
3246.496232,    9.433353
3247.921346,    9.443858
3249.339204,    9.454325
3250.770916,    9.464912
3252.193587,    9.475448
3253.614870,    9.485990
3255.055712,    9.496694
3256.493200,    9.507390
3257.926521,    9.518072
3259.373937,    9.528875
3260.819339,    9.539679
3262.265075,    9.550503
3263.721399,    9.561424
3265.177129,    9.572356
3266.637295,    9.583339
3268.091670,    9.594295
3269.550103,    9.605298
3271.024459,    9.616439
3272.495668,    9.627572
3273.967094,    9.638725
3275.444337,    9.649938
3276.914438,    9.661114
3278.388600,    9.672338
3279.665449,    9.682074
3279.866346,    9.683607
3281.346917,    9.694914
3282.836841,    9.706309
3284.335904,    9.717791
3285.832837,    9.729275
3287.324951,    9.740739
3288.826895,    9.752295
3290.323059,    9.763824
3291.837447,    9.775511
3293.348208,    9.787188
3294.866627,    9.798941
3296.384775,    9.810709
3297.906344,    9.822521
3299.431914,    9.834382
3300.959514,    9.846277
3302.496504,    9.858262
3304.033477,    9.870264
3305.581024,    9.882367
3307.114333,    9.894377
3308.657466,    9.906480
3310.201437,    9.918609
3311.748024,    9.930775
3313.293661,    9.942951
3314.845221,    9.955192
3316.403145,    9.967501
3317.961557,    9.979831
3319.531514,    9.992271
3321.111529,   10.004808
3322.680027,   10.017272
3324.255611,   10.029811
3325.829186,   10.042351
3327.410511,   10.054971
3328.987724,   10.067576
3330.574202,   10.080273
3332.175395,   10.093106
3333.772245,   10.105923
3335.375666,   10.118810
3336.973278,   10.131669
3338.579130,   10.144613
3340.182520,   10.157554
3341.786968,   10.170523
3343.394887,   10.183537
3345.012863,   10.196652
3346.640154,   10.209860
3348.271709,   10.223121
3349.906178,   10.236425
3351.540407,   10.249745
3353.172819,   10.263069
3354.802816,   10.276391
3356.443470,   10.289819
3358.088135,   10.303298
3359.736794,   10.316829
3361.389999,   10.330415
3363.041038,   10.344002
3364.696083,   10.357641
3366.363996,   10.371404
3368.029641,   10.385167
3369.696401,   10.398959
3371.382817,   10.412931
3373.063736,   10.426878
3374.754042,   10.440921
3376.429071,   10.454855
3378.114883,   10.468899
3379.797865,   10.482937
3381.484789,   10.497027
3383.186782,   10.511262
3384.888470,   10.525513
3386.588687,   10.539770
3388.291112,   10.554066
3389.991076,   10.568359
3391.700820,   10.582753
3393.423863,   10.597278
3395.147556,   10.611828
3396.891830,   10.626571
3398.615205,   10.641156
3400.347402,   10.655835
3402.092204,   10.670640
3403.829587,   10.685402
3405.586753,   10.700350
3407.343772,   10.715317
3409.094605,   10.730251
3410.837501,   10.745136
3412.580480,   10.760040
3414.352511,   10.775212
3416.127507,   10.790429
3417.888825,   10.805548
3419.667672,   10.820837
3421.437290,   10.836066
3423.223411,   10.851456
3425.022012,   10.866974
3426.828745,   10.882581
3428.618088,   10.898058
3430.403994,   10.913524
3432.201835,   10.929113
3434.014548,   10.944850
3435.834223,   10.960668
3437.649442,   10.976466
3439.481801,   10.992433
3441.293308,   11.008239
3443.110908,   11.024117
3444.949909,   11.040201
3446.788874,   11.056305
3448.599270,   11.072178
3450.443692,   11.088369
3452.282118,   11.104527
3454.141639,   11.120891
3455.983009,   11.137114
3457.835874,   11.153458
3459.698027,   11.169903
3461.546387,   11.186247
3463.391749,   11.202583
3465.267608,   11.219209
3467.145875,   11.235876
3469.026798,   11.252586
3470.909602,   11.269333
3472.797271,   11.286143
3474.667451,   11.302817
3476.549007,   11.319612
3478.460368,   11.336693
3480.337595,   11.353488
3482.247364,   11.370594
3484.166920,   11.387808
3486.077144,   11.404958
3487.997365,   11.422217
3489.904013,   11.439374
3491.830272,   11.456728
3493.763681,   11.474166
3495.696185,   11.491615
3497.620921,   11.509014
3499.547069,   11.526446
3501.507279,   11.544206
3503.439956,   11.561736
3505.376741,   11.579322
3507.309236,   11.596890
3509.276811,   11.614796
3511.230063,   11.632591
3513.179090,   11.650368
3515.130537,   11.668186
3517.086416,   11.686064
3519.049368,   11.704026
3521.025056,   11.722124
3523.014597,   11.740369
3524.991128,   11.758515
3526.982174,   11.776813
3528.964988,   11.795055
3530.957406,   11.813406
3532.935368,   11.831642
3534.922768,   11.849985
3536.936272,   11.868588
3538.948478,   11.887200
3540.949018,   11.905722
3542.948858,   11.924258
3544.944234,   11.942771
3546.962734,   11.961518
3549.012409,   11.980575
3551.030218,   11.999355
3553.057821,   12.018245
3555.069835,   12.037009
3557.101594,   12.055977
3559.124972,   12.074885
3561.156601,   12.093890
3563.193376,   12.112962
3565.224854,   12.132003
3567.306767,   12.151536
3569.345448,   12.170683
3571.396462,   12.189965
3573.467433,   12.209454
3575.516403,   12.228754
3577.569131,   12.248109
3579.631427,   12.267573
3581.705003,   12.287163
3583.759255,   12.306588
3585.824057,   12.326132
3587.895992,   12.345762
3589.973141,   12.365460
3592.063574,   12.385303
3594.133539,   12.404970
3596.218248,   12.424796
3598.322141,   12.444823
3600.398239,   12.464604
3602.479066,   12.484448
3604.574598,   12.504450
3606.677316,   12.524540
3608.785938,   12.544704
3610.888465,   12.564829
3612.998887,   12.585047
3615.116448,   12.605352
3617.262617,   12.625950
3619.389433,   12.646381
3621.513579,   12.666804
3623.606916,   12.686948
3625.718015,   12.707281
3627.853012,   12.727862
3630.014297,   12.748715
3632.122289,   12.769072
3634.240438,   12.789543
3636.382388,   12.810263
3638.504893,   12.830812
3640.656346,   12.851659
3642.805530,   12.872501
3644.944943,   12.893266
3647.097593,   12.914177
3649.239900,   12.935005
3651.403063,   12.956052
3653.560391,   12.977061
3655.709615,   12.998007
3657.866867,   13.019049
3660.026859,   13.040134
3662.173899,   13.061110
3664.331436,   13.082205
3666.512011,   13.103542
3668.687194,   13.124843
3670.872395,   13.146259
3673.042662,   13.167545
3675.211936,   13.188838
3677.414310,   13.210473
3679.603547,   13.231995
3681.794171,   13.253548
3683.986670,   13.275135
3686.194817,   13.296892
3688.389310,   13.318531
3690.578636,   13.340136
3692.764642,   13.361723
3694.957323,   13.383393
3697.160638,   13.405183
3699.369310,   13.427042
3701.581368,   13.448950
3703.815391,   13.471092
3706.028241,   13.493040
3708.241290,   13.515005
3710.442160,   13.536865
3712.664926,   13.558958
3714.872133,   13.580911
3717.110986,   13.603194
3719.332749,   13.625322
3721.552891,   13.647449
3723.784015,   13.669701
3726.013267,   13.691949
3728.231358,   13.714100
3730.478405,   13.736555
3732.724738,   13.759018
3734.955611,   13.781341
3737.203227,   13.803846
3739.435383,   13.826211
3741.670271,   13.848617
3743.912075,   13.871106
3746.153859,   13.893610
3748.398068,   13.916152
3750.667912,   13.938966
3752.926200,   13.961677
3755.189273,   13.984451
3757.437555,   14.007089
3759.682664,   14.029709
3761.942115,   14.052487
3764.188340,   14.075145
3766.433342,   14.097804
3768.702803,   14.120723
3770.976285,   14.143696
3773.267758,   14.166864
3775.564282,   14.190097
3777.844330,   14.213175
3780.124089,   14.236264
3782.420916,   14.259539
3784.722169,   14.282872
3786.986716,   14.305845
3789.267258,   14.328992
3791.507166,   14.351739
3793.786931,   14.374904
3796.073763,   14.398152
3798.377773,   14.421587
3800.646963,   14.444680
3802.938487,   14.468012
3805.254433,   14.491604
3807.554295,   14.515045
3808.817586,   14.527926
