Ground Distance, Angles
   0.000000,    0.000000
   0.000001,    0.000000
   0.000021,    0.000000
   0.000177,    0.000000
   0.004022,    0.000000
   0.017086,    0.000000
   0.039959,    0.000000
   0.072291,    0.000000
   0.114286,    0.000000
   0.166161,    0.000000
   0.227640,    0.000000
   0.298937,    0.000000
   0.380833,    0.000000
   0.473369,    0.000000
   0.576269,    0.000000
   0.690116,    0.000000
   0.813222,    0.000000
   0.948597,    0.000000
   1.095866,    0.000000
   1.253311,    0.000000
   1.421076,    0.000000
   1.600972,    0.000000
   1.793988,    0.000000
   2.003192,    0.000000
   2.224424,    0.000000
   2.458819,    0.000000
   2.708964,    0.000000
   2.968183,    0.000000
   3.241937,    0.000000
   3.530157,    0.000000
   3.834867,    0.000000
   4.155969,    0.000000
   4.486518,    0.000000
   4.836958,    0.000000
   5.206865,    0.000000
   5.590097,    0.000000
   5.993125,    0.000000
   6.410864,    0.000000
   6.849564,    0.000000
   7.312895,    0.000000
   7.783951,    0.000000
   8.276353,    0.000000
   8.792011,    0.000000
   9.323971,    0.000000
   9.881893,    0.000000
  10.457901,    0.000000
  11.055133,    0.000000
  11.684166,    0.000000
  12.332118,    0.000000
  12.994446,    0.000000
  13.690481,    0.000000
  14.393613,    0.000000
  15.134658,    0.000000
  15.901196,    0.000000
  16.669410,    0.000000
  17.480801,    0.000000
  18.313856,    0.000000
  19.169155,    0.000000
  20.042750,    0.000000
  20.965292,    0.000000
  21.893385,    0.000000
  22.874750,    0.000000
  23.878800,    0.000000
  24.901545,    0.000000
  25.959484,    0.000000
  27.042993,    0.000000
  28.158483,    0.000000
  29.310659,    0.000000
  30.483763,    0.000000
  31.694446,    0.000000
  32.927623,    0.000000
  34.189951,    0.000000
  35.488314,    0.000000
  36.839716,    0.000000
  38.216887,    0.000000
  39.612977,    0.000000
  41.060277,    0.000000
  42.533394,    0.000000
  44.038719,    0.000000
  45.588730,    0.000000
  47.182097,    0.000000
  48.798121,    0.000000
  50.435036,    0.000000
  52.117372,    0.000000
  53.850730,    0.000000
  55.604543,    0.000000
  57.403066,    0.000000
  59.257274,    0.000000
  61.139801,    0.000000
  63.087475,    0.000000
  65.055444,    0.000000
  67.079480,    0.000000
  69.115362,    0.000000
  71.205611,    0.000000
  73.341503,    0.000000
  75.539697,    0.000000
  77.750145,    0.000000
  80.011582,    0.000000
  82.312258,    0.000000
  82.405767,    0.000000
  82.692956,    0.000000
  82.727655,    0.000000
  82.734252,    0.000000
  82.742117,    0.000000
  82.744420,    0.000000
  82.744833,    0.000000
  82.745084,    0.000000
  82.745381,    0.000000
  82.748351,    0.000000
  82.778058,    0.000000
  82.921661,    0.000000
  83.385715,    0.000000
  84.653376,    0.000000
  86.850419,    0.000000
  89.030472,    0.000000
  91.238970,    0.000000
  93.503030,    0.000000
  95.777493,    0.000000
  98.101711,    0.000000
 100.453901,    0.000000
 102.845135,    0.000000
 105.276563,    0.000000
 107.761189,    0.000000
 110.271982,    0.000000
 112.823294,    0.000000
 115.409178,    0.000000
 118.038498,    0.000000
 120.718937,    0.000000
 123.426528,    0.000000
 126.165112,    0.000000
 128.958676,    0.000000
 131.804217,    0.000000
 134.683429,    0.000000
 137.589184,    0.000000
 140.545432,    0.000000
 143.537548,    0.000000
 146.578382,    0.000000
 149.666597,    0.000000
 152.799450,    0.000000
 155.987632,    0.000000
 159.224660,    0.000000
 162.475143,    0.000000
 165.831073,    0.000000
 169.181171,    0.000000
 172.550841,    0.000000
 176.011264,    0.000000
 179.512838,    0.000000
 183.076578,    0.000000
 186.670239,    0.000000
 190.307768,    0.000000
 193.970986,    0.000000
 197.692992,    0.000000
 201.483731,    0.000000
 205.296918,    0.000000
 209.165869,    0.000000
 213.095725,    0.000000
 217.090540,    0.000000
 221.117121,    0.000000
 225.171816,    0.000000
 229.305359,    0.000000
 233.511819,    0.000000
 237.748176,    0.000000
 242.017617,    0.000000
 246.346709,    0.000000
 250.719958,    0.000000
 255.148989,    0.000000
 259.634017,    0.000000
 264.186619,    0.000000
 268.767950,    0.000000
 273.397706,    0.000000
 278.097563,    0.000000
 282.829167,    0.000000
 287.626381,    0.000000
 292.515913,    0.000000
 297.426558,    0.000000
 302.408678,    0.000000
 307.421084,    0.000000
 312.505299,    0.000000
 317.639501,    0.000000
 322.829911,    0.000000
 328.067160,    0.000000
 333.376704,    0.000000
 338.754066,    0.000000
 339.842165,    0.000000
 340.557517,    0.000000
 341.037220,    0.000000
 341.413633,    0.000000
 341.721107,    0.000000
 341.994455,    0.000000
 342.206341,    0.000000
 342.381483,    0.000000
 342.577049,    0.000000
 342.753684,    0.000000
 342.787170,    0.000000
 342.827219,    0.000000
 342.872775,    0.000000
 342.883482,    0.000000
 342.903883,    0.000000
 342.909481,    0.000000
 342.912244,    0.000000
 342.914132,    0.000000
 342.915456,    0.000000
 342.915875,    0.000000
 342.916277,    0.000000
 342.920295,    0.000000
 342.958612,    0.000000
 343.187931,    0.000000
 344.152736,    0.000000
 347.580418,    0.000000
 352.601234,    0.000000
 357.541097,    0.000000
 362.542438,    0.000000
 367.594497,    0.000000
 372.652008,    0.000000
 377.780523,    0.000000
 382.957507,    0.000000
 388.178357,    0.000000
 393.443938,    0.000000
 398.747040,    0.000000
 404.108708,    0.000000
 409.530340,    0.000000
 414.990673,    0.000000
 420.493013,    0.000000
 426.036580,    0.000000
 431.639931,    0.000000
 437.273474,    0.000000
 442.973729,    0.000000
 448.719477,    0.000000
 454.507442,    0.000000
 460.341250,    0.000000
 466.248530,    0.000000
 472.223928,    0.000000
 478.246694,    0.000000
 484.293194,    0.000000
 490.411134,    0.000000
 496.605896,    0.000000
 502.808500,    0.000000
 509.052032,    0.000000
 515.374183,    0.000000
 521.724540,    0.000000
 528.145882,    0.000000
 534.610725,    0.000000
 541.137778,    0.000000
 547.727003,    0.000000
 554.354999,    0.000000
 561.058558,    0.000000
 567.763862,    0.000000
 574.577159,    0.000000
 581.422327,    0.000000
 588.327352,    0.000000
 595.295830,    0.000000
 602.300796,    0.000000
 609.345569,    0.000000
 616.474129,    0.000000
 623.665485,    0.000000
 630.888376,    0.000000
 638.179700,    0.000000
 645.522314,    0.000000
 652.914453,    0.000000
 660.367278,    0.000000
 667.860561,    0.000000
 675.433148,    0.000000
 683.072821,    0.000000
 690.754410,    0.000000
 698.500700,    0.000000
 706.295851,    0.000000
 714.143610,    0.000000
 722.059367,    0.000000
 730.028510,    0.000000
 738.066551,    0.000000
 746.154678,    0.000000
 754.280119,    0.000000
 762.443188,    0.000000
 770.705806,    0.000000
 779.023224,    0.000000
 787.393502,    0.000000
 795.815325,    0.000000
 804.305640,    0.000000
 806.022372,    0.000000
 807.202997,    0.000000
 808.023120,    0.000000
 808.149209,    0.000000
 808.280467,    0.000000
 808.420467,    0.000000
 808.587412,    0.000000
 808.597216,    0.000000
 808.603045,    0.000000
 808.607386,    0.000000
 808.610419,    0.000000
 808.612466,    0.000000
 808.613340,    0.000000
 808.614189,    0.000000
 808.622677,    0.000000
 808.704785,    0.000000
 809.357187,    0.000000
 811.703216,    0.000000
 819.810043,    0.000000
 827.334457,    0.000000
 834.910967,    0.000000
 842.557417,    0.000000
 850.223379,    0.000000
 857.934850,    0.000000
 865.719611,    0.000000
 873.534732,    0.000000
 881.399970,    0.000000
 889.328360,    0.000000
 897.281190,    0.000000
 905.255521,    0.000000
 913.283822,    0.000000
 921.393460,    0.000000
 929.529006,    0.000000
 937.731304,    0.000000
 945.971535,    0.000000
 954.252499,    0.000000
 962.578873,    0.000000
 970.958191,    0.000000
 979.383236,    0.000000
 987.881142,    0.000000
 996.423759,    0.000000
1005.001141,    0.000000
1013.626067,    0.000000
1022.304771,    0.000000
1031.040571,    0.000000
1039.840418,    0.000000
1048.669234,    0.000000
1057.569154,    0.000000
1066.476551,    0.000000
1075.451592,    0.000000
1084.488291,    0.000000
1093.552959,    0.000000
1102.681399,    0.000000
1111.885216,    0.000000
1121.125904,    0.000000
1130.419883,    0.000000
1139.744525,    0.000000
1149.120669,    0.000000
1158.542586,    0.000000
1168.035117,    0.000000
1177.576303,    0.000000
1187.161723,    0.000000
1196.766333,    0.000000
1206.473632,    0.000000
1216.202870,    0.000000
1225.974163,    0.000000
1235.811752,    0.000000
1245.714168,    0.000000
1255.661531,    0.000000
1265.660655,    0.000000
1275.701118,    0.000000
1285.808033,    0.000000
1295.958289,    0.000000
1306.148265,    0.000000
1316.406899,    0.000000
1326.720548,    0.000000
1337.067286,    0.000000
1347.487962,    0.000000
1357.976180,    0.000000
1368.493504,    0.000000
1379.074021,    0.000000
1389.690370,    0.000000
1400.366579,    0.000000
1411.088063,    0.000000
1421.864560,    0.000000
1432.692294,    0.000000
1443.566748,    0.000000
1454.529401,    0.000000
1465.539268,    0.000000
1476.606223,    0.000000
1487.700385,    0.000000
1498.844466,    0.000000
1510.051575,    0.000000
1521.329194,    0.000000
1523.598166,    0.000000
1531.998095,    0.000000
1532.089017,    0.000000
1532.122634,    0.000000
1532.130683,    0.000000
1532.190685,    0.000000
1532.244799,    0.000000
1532.601341,    0.000000
1534.651832,    0.000000
1544.162182,    0.000000
1555.480442,    0.000000
1566.884955,    0.000000
1578.358135,    0.000000
1589.883108,    0.000000
1601.492564,    0.000000
1613.129159,    0.000000
1624.807581,    0.000000
1636.585783,    0.000000
1648.388965,    0.000000
1660.243261,    0.000000
1672.173872,    0.000000
1684.189468,    0.000000
1696.209478,    0.000000
1708.314081,    0.000000
1720.477579,    0.000000
1732.684347,    0.000000
1744.926515,    0.000000
1757.263064,    0.000000
1769.649379,    0.000000
1782.079741,    0.000000
1794.595331,    0.000000
1807.141097,    0.000000
1819.717357,    0.000000
1832.363926,    0.000000
1845.075631,    0.000000
1857.837608,    0.000000
1870.683721,    0.000000
1883.559287,    0.000000
1896.505348,    0.000000
1909.491056,    0.000000
1922.559995,    0.000000
1935.659837,    0.000000
1948.808832,    0.000000
1962.032904,    0.000000
1975.306977,    0.000000
1988.657637,    0.000000
2002.048622,    0.000000
2015.514790,    0.000000
2029.028570,    0.000000
2042.627444,    0.000000
2056.282554,    0.000000
2069.976007,    0.000000
2083.723419,    0.000000
2097.532939,    0.000000
2111.391246,    0.000000
2120.113003,    0.000000
2125.313255,    0.000000
2139.277297,    0.088109
2153.320389,    0.323425
2167.444008,    0.557195
2181.642845,    0.789441
2195.915352,    1.020072
2210.251061,    1.249065
2224.629972,    1.476255
2239.104378,    1.701337
2253.636522,    1.925139
2268.218458,    2.147073
2282.862103,    2.367031
2297.590502,    2.585207
2312.335430,    2.801949
2327.155452,    3.016263
2342.028521,    3.229022
2356.948742,    3.439916
2371.964198,    3.648877
2386.992614,    3.856586
2402.086826,    4.061913
2417.218572,    4.265604
2432.366594,    4.467291
2447.577389,    4.666715
2462.813725,    4.864512
2478.084663,    5.060213
2493.453984,    5.253959
2508.822042,    5.446570
2524.238058,    5.636807
2525.285631,    5.825308
2526.334183,    5.837975
2527.383587,    5.850644
2528.433296,    5.863313
2529.480426,    5.875975
2530.530991,    5.888596
2531.583140,    5.901247
2532.632310,    5.913907
2533.683264,    5.926521
2534.738348,    5.939145
2535.793405,    5.951809
2536.846476,    5.964462
2537.902700,    5.977081
2538.961062,    5.989727
2540.018283,    6.002388
2541.075472,    6.015025
2542.136746,    6.027651
2543.195777,    6.040315
2544.257941,    6.052942
2545.321560,    6.065595
2546.386235,    6.078256
2547.447885,    6.090918
2548.514251,    6.103534
2549.582052,    6.116196
2550.649109,    6.128863
2551.718141,    6.141512
2552.785077,    6.154173
2553.852881,    6.166799
2554.922636,    6.179425
2555.995043,    6.192063
2557.069687,    6.204722
2558.142735,    6.217396
2559.218824,    6.230041
2560.291827,    6.242712
2561.368795,    6.255335
2562.448044,    6.267994
2563.526802,    6.280670
2564.608334,    6.293329
2565.688066,    6.306010
2566.767210,    6.318659
2567.851519,    6.331291
2568.933728,    6.343972
2570.019090,    6.356619
2571.108138,    6.369291
2572.197572,    6.381996
2573.286935,    6.394694
2574.377794,    6.407381
2575.469788,    6.420075
2576.553327,    6.432771
2577.645570,    6.445358
2578.736988,    6.458035
2579.832148,    6.470692
2580.930689,    6.483382
2582.026148,    6.496100
2583.127261,    6.508772
2584.225346,    6.521498
2585.327910,    6.534178
2586.427241,    6.546899
2587.531813,    6.559573
2588.636439,    6.572295
2589.740935,    6.585008
2590.849259,    6.597708
2591.957221,    6.610442
2593.067576,    6.623160
2594.179965,    6.635895
2595.295665,    6.648642
2596.412199,    6.661416
2597.531905,    6.674189
2598.649716,    6.686987
2599.770069,    6.699752
2599.994496,    6.712536
2600.121532,    6.715094
2600.188549,    6.716543
2600.198926,    6.717306
2600.211012,    6.717425
2600.215179,    6.717562
2600.217566,    6.717610
2600.222485,    6.717637
2600.226937,    6.717693
2600.263957,    6.717744
2600.402227,    6.718166
2600.755788,    6.719742
2601.603498,    6.723771
2602.717652,    6.733428
2603.837173,    6.746111
2604.957201,    6.758845
2606.082916,    6.771574
2607.211244,    6.784357
2608.334185,    6.784357
2609.464019,    6.784357
2610.595294,    6.784357
2611.730748,    6.784357
2612.863905,    6.784357
2613.998843,    6.784357
2615.129035,    6.784357
2616.269699,    6.784357
2617.412232,    6.784357
2618.549591,    6.784357
2619.688200,    6.784357
2620.827249,    6.784357
2621.972445,    6.784357
2623.117932,    6.784357
2624.264181,    6.784357
2625.415566,    6.784357
2626.562562,    6.784357
2627.712683,    6.784357
2628.866072,    6.784357
2630.021651,    6.784357
2631.174396,    6.784357
2632.325939,    6.784357
2633.483048,    6.784357
2634.641239,    6.784357
2635.804385,    6.784357
2636.962668,    6.784357
2638.124937,    6.784357
2639.288618,    6.784357
2640.453638,    6.784357
2641.621574,    6.784357
2642.791155,    6.784357
2643.961320,    6.784357
2645.131686,    6.784357
2646.304656,    6.784357
2647.482409,    6.784357
2648.661739,    6.784357
2649.839587,    6.784357
2651.018711,    6.784357
2652.199914,    6.784357
2653.375693,    6.784357
2654.557986,    6.784357
2655.745500,    6.784357
2656.934831,    6.784357
2658.126603,    6.784357
2659.319248,    6.784357
2660.509036,    6.784357
2661.705193,    6.784357
2662.898034,    6.784357
2664.094169,    6.784357
2665.294743,    6.784357
2666.493368,    6.784357
2667.691648,    6.784357
2668.892554,    6.784357
2670.103076,    6.784357
2671.312747,    6.784357
2672.523925,    6.784357
2673.740064,    6.784357
2674.953534,    6.784357
2676.174577,    6.784357
2677.390526,    6.784357
2678.613121,    6.784357
2679.839464,    6.784357
2681.065484,    6.784357
2682.289145,    6.784357
2683.517305,    6.784357
2684.748820,    6.784357
2685.977053,    6.784357
2687.203537,    6.784357
2688.433925,    6.784357
2689.677989,    6.784357
2690.913377,    6.784357
2692.142586,    6.784357
2693.380670,    6.784357
2694.626928,    6.784357
2695.871589,    6.784357
2697.117745,    6.784357
2698.366991,    6.784357
2699.620350,    6.784357
2700.878620,    6.784357
2702.135600,    6.784357
2703.398017,    6.784357
2704.205473,    6.784357
2704.655830,    6.784357
2705.925165,    6.784357
2707.181559,    6.784357
2708.451175,    6.784357
2709.722280,    6.784357
2710.996858,    6.784357
2712.259627,    6.784357
2713.533058,    6.784357
2714.811387,    6.784357
2716.095480,    6.784357
2717.380342,    6.784357
2718.663757,    6.784357
2719.951666,    6.784357
2721.244225,    6.784357
2722.538243,    6.784357
2723.829847,    6.784357
2725.128404,    6.784357
2726.425770,    6.784357
2727.726277,    6.784357
2729.036283,    6.784357
2730.338330,    6.784357
2731.649086,    6.784357
2732.955907,    6.784357
2734.269342,    6.784357
2735.585561,    6.784357
2736.904063,    6.784357
2738.229730,    6.784357
2739.551157,    6.784357
2740.880139,    6.784357
2742.207017,    6.784357
2743.531593,    6.784357
2744.864001,    6.784357
2746.202574,    6.784357
2747.543343,    6.784357
2748.883814,    6.784357
2750.223749,    6.784357
2751.569084,    6.784357
2752.923696,    6.784357
2754.276678,    6.784357
2755.622447,    6.784357
2756.978939,    6.784357
2758.339376,    6.784357
2759.695474,    6.784357
2761.056572,    6.784357
2762.428886,    6.784357
2763.798716,    6.784357
2765.171030,    6.784357
2766.551404,    6.784357
2767.932373,    6.784357
2769.312503,    6.784357
2770.700262,    6.784357
2772.086337,    6.784357
2773.479871,    6.784357
2774.869407,    6.784357
2776.252491,    6.784357
2777.650023,    6.784357
2779.041316,    6.784357
2780.445896,    6.784357
2781.851968,    6.784357
2783.256224,    6.784357
2784.672375,    6.784357
2786.079837,    6.784357
2787.490967,    6.784357
2788.908539,    6.784357
2790.336161,    6.784357
2791.760131,    6.784357
2793.187207,    6.784357
2794.616369,    6.784357
2796.050425,    6.784357
2797.487564,    6.784357
2798.926032,    6.784357
2800.369576,    6.784357
2801.807181,    6.784357
2803.252221,    6.784357
2804.702516,    6.784357
2806.150944,    6.784357
2807.602288,    6.784357
2809.071481,    6.784357
2810.526921,    6.784357
2811.984838,    6.784357
2813.443173,    6.784357
2814.904571,    6.784357
2816.379705,    6.784357
2817.853309,    6.784357
2819.333215,    6.784357
2820.804862,    6.784357
2822.279728,    6.784357
2823.760691,    6.784357
2825.258318,    6.784357
2826.747147,    6.784357
2828.248394,    6.784357
2829.750881,    6.784357
2831.255196,    6.784357
2832.759085,    6.784357
2834.264081,    6.784357
2835.774269,    6.784357
2837.291167,    6.784357
2838.803939,    6.784357
2840.323995,    6.784357
2841.839784,    6.784357
2843.369800,    6.784357
2844.904894,    6.784357
2846.445434,    6.784357
2847.977023,    6.784357
2849.512676,    6.784357
2851.059912,    6.784357
2852.607250,    6.784357
2854.154291,    6.784357
2855.699256,    6.784357
2857.259914,    6.784357
2858.822930,    6.784357
2860.387141,    6.784357
2861.946589,    6.784357
2863.520041,    6.784357
2865.095381,    6.784357
2866.669769,    6.784357
2868.249571,    6.784357
2869.833921,    6.784357
2871.418387,    6.784357
2873.005830,    6.784357
2874.600153,    6.784357
2876.195161,    6.784357
2877.793018,    6.784357
2879.391198,    6.784357
2880.989469,    6.784357
2882.604122,    6.784357
2884.212883,    6.784357
2885.829786,    6.784357
2887.442246,    6.784357
2889.061575,    6.784357
2890.679359,    6.784357
2892.319618,    6.784357
2893.945942,    6.784357
2895.585404,    6.784357
2897.219644,    6.784357
2898.861095,    6.784357
2900.499159,    6.784357
2902.142185,    6.784357
2903.789182,    6.784357
2905.447746,    6.784357
2907.111004,    6.784357
2908.768182,    6.784357
2910.416803,    6.784357
2912.070910,    6.784357
2913.741310,    6.784357
2915.415705,    6.784357
2917.090824,    6.784357
2918.774951,    6.784357
2920.457630,    6.784357
2922.127879,    6.784357
2923.820051,    6.784357
2925.505851,    6.784357
2927.202207,    6.784357
2928.885292,    6.784357
2930.591034,    6.784357
2932.306797,    6.784357
2934.020392,    6.784357
2935.738371,    6.784357
2937.451746,    6.784357
2939.178469,    6.784357
2940.902377,    6.784357
2942.616028,    6.784357
2944.346111,    6.784357
2946.095211,    6.784357
2947.830983,    6.784357
2949.574538,    6.784357
2951.305706,    6.784357
2953.045589,    6.784357
2954.804501,    6.784357
2956.554928,    6.784357
2958.304471,    6.784357
2960.055856,    6.784357
2961.818280,    6.784357
2963.590956,    6.784357
2965.362384,    6.784357
2967.142989,    6.784357
2968.915430,    6.784357
2970.698136,    6.784357
2972.460469,    6.784357
2974.252409,    6.784357
2976.031800,    6.784357
2977.812637,    6.784357
2979.605835,    6.784357
2981.419609,    6.784357
2983.218953,    6.784357
2985.011792,    6.784357
2986.816681,    6.784357
2988.615784,    6.784357
2990.433606,    6.784357
2992.235484,    6.784357
2994.056913,    6.784357
2995.870210,    6.784357
2997.692538,    6.784357
2999.499808,    6.784357
3001.331298,    6.784357
3003.160598,    6.784357
3004.995391,    6.784357
3006.855532,    6.784357
3008.694905,    6.784357
3010.533449,    6.784357
3012.380985,    6.784357
3014.232609,    6.784357
3016.084728,    6.784357
3017.928163,    6.784357
3019.783527,    6.784357
3021.652529,    6.784357
3023.497389,    6.784357
3025.371875,    6.784357
3027.257720,    6.784357
3029.149186,    6.784357
3031.024863,    6.784357
3032.916428,    6.784357
3034.826143,    6.784357
3036.696151,    6.784357
3038.586186,    6.784357
3040.483931,    6.784357
3042.382740,    6.784357
3044.285832,    6.784357
3046.193757,    6.784357
3048.092723,    6.784357
3050.000272,    6.784357
3051.894669,    6.784357
3053.812381,    6.784357
3055.723848,    6.784357
3057.638660,    6.784357
3059.562192,    6.784357
3061.480588,    6.784357
3063.399268,    6.784357
3065.328480,    6.784357
3067.263781,    6.784357
3069.195198,    6.784357
3071.138510,    6.784357
3073.075977,    6.784357
3075.016664,    6.784357
3076.970094,    6.784357
3078.909460,    6.784357
3080.856548,    6.784357
3082.803299,    6.784357
3084.752645,    6.784357
3086.721391,    6.784357
3088.665968,    6.784357
3090.635874,    6.784357
3092.579897,    6.784357
3094.562297,    6.784357
3096.537230,    6.784357
3098.499737,    6.784357
3100.488338,    6.784357
3102.463624,    6.784357
3104.466661,    6.784357
3106.460389,    6.784357
3108.462309,    6.784357
3110.458290,    6.784357
3112.451201,    6.784357
3114.443688,    6.784357
3116.446033,    6.784357
3118.442365,    6.784357
3120.444485,    6.784357
3122.462651,    6.784357
3124.474565,    6.784357
3126.487371,    6.784357
3128.496795,    6.784357
3130.505201,    6.784357
3132.529039,    6.784357
3134.564670,    6.784357
3136.575480,    6.784357
3138.572543,    6.784357
3140.585755,    6.784357
3142.633350,    6.784357
3144.646218,    6.784357
3146.709043,    6.784357
3148.747922,    6.784357
3150.762464,    6.784357
3152.788695,    6.784357
3154.815078,    6.784357
3156.855332,    6.784357
3158.893408,    6.784357
3160.933708,    6.784357
3162.969020,    6.784357
3165.003838,    6.784357
3167.054822,    6.784357
3169.118514,    6.784357
3171.173253,    6.784357
3173.213757,    6.784357
3175.266022,    6.784357
3177.337129,    6.784357
3179.415998,    6.784357
3181.489395,    6.784357
3183.548043,    6.784357
3185.622428,    6.784357
3187.695009,    6.784357
3189.772779,    6.784357
3191.844695,    6.784357
3193.937536,    6.784357
3196.012404,    6.784357
3198.105424,    6.784357
3200.206484,    6.784357
3202.293102,    6.784357
3204.387195,    6.784357
3206.488871,    6.784357
3208.591566,    6.784357
3210.685280,    6.784357
3212.772015,    6.784357
3214.900783,    6.784357
3217.030202,    6.784357
3219.133829,    6.784357
3221.262960,    6.784357
3223.381062,    6.784357
3225.269102,    6.784357
