Ground Distance, Angles
   0.000000,    0.000000
   0.000001,    0.000000
   0.000021,    0.000000
   0.000177,    0.000000
   0.004022,    0.000000
   0.017086,    0.000000
   0.039959,    0.000000
   0.072291,    0.000000
   0.114286,    0.000000
   0.166161,    0.000000
   0.227640,    0.000000
   0.298937,    0.000000
   0.380833,    0.000000
   0.473369,    0.000000
   0.576269,    0.000000
   0.690116,    0.000000
   0.813222,    0.000000
   0.948597,    0.000000
   1.095866,    0.000000
   1.253311,    0.000000
   1.421076,    0.000000
   1.600972,    0.000000
   1.793988,    0.000000
   2.003192,    0.000000
   2.224424,    0.000000
   2.458819,    0.000000
   2.708964,    0.000000
   2.968183,    0.000000
   3.241937,    0.000000
   3.530157,    0.000000
   3.834867,    0.000000
   4.155969,    0.000000
   4.486518,    0.000000
   4.836958,    0.000000
   5.206865,    0.000000
   5.590097,    0.000000
   5.993125,    0.000000
   6.410864,    0.000000
   6.849564,    0.000000
   7.312895,    0.000000
   7.783951,    0.000000
   8.276353,    0.000000
   8.792011,    0.000000
   9.323971,    0.000000
   9.881893,    0.000000
  10.457901,    0.000000
  11.055133,    0.000000
  11.684166,    0.000000
  12.332118,    0.000000
  12.994446,    0.000000
  13.690481,    0.000000
  14.393613,    0.000000
  15.134658,    0.000000
  15.901196,    0.000000
  16.669410,    0.000000
  17.480801,    0.000000
  18.313856,    0.000000
  19.169155,    0.000000
  20.042750,    0.000000
  20.965292,    0.000000
  21.893385,    0.000000
  22.874750,    0.000000
  23.878800,    0.000000
  24.901545,    0.000000
  25.959484,    0.000000
  27.042993,    0.000000
  28.158483,    0.000000
  29.310659,    0.000000
  30.483763,    0.000000
  31.694446,    0.000000
  32.927623,    0.000000
  34.189951,    0.000000
  35.488314,    0.000000
  36.839716,    0.000000
  38.216887,    0.000000
  39.612977,    0.000000
  41.060277,    0.000000
  42.533394,    0.000000
  44.038719,    0.000000
  45.588730,    0.000000
  47.182097,    0.000000
  48.798121,    0.000000
  50.435036,    0.000000
  52.117372,    0.000000
  53.850730,    0.000000
  55.604543,    0.000000
  57.403066,    0.000000
  59.257274,    0.000000
  61.139801,    0.000000
  63.087475,    0.000000
  65.055444,    0.000000
  67.079480,    0.000000
  69.115362,    0.000000
  71.205611,    0.000000
  73.341503,    0.000000
  75.539697,    0.000000
  77.750145,    0.000000
  80.011582,    0.000000
  82.312258,    0.000000
  82.405767,    0.000000
  82.692956,    0.000000
  82.727655,    0.000000
  82.734252,    0.000000
  82.742117,    0.000000
  82.744420,    0.000000
  82.744833,    0.000000
  82.745084,    0.000000
  82.745381,    0.000000
  82.748351,    0.000000
  82.778058,    0.000000
  82.921661,    0.000000
  83.385715,    0.000000
  84.653376,    0.000000
  86.850419,    0.000000
  89.030472,    0.000000
  91.238970,    0.000000
  93.503030,    0.000000
  95.777493,    0.000000
  98.101711,    0.000000
 100.453901,    0.000000
 102.845135,    0.000000
 105.276563,    0.000000
 107.761189,    0.000000
 110.271982,    0.000000
 112.823294,    0.000000
 115.409178,    0.000000
 118.038498,    0.000000
 120.718937,    0.000000
 123.426528,    0.000000
 126.165112,    0.000000
 128.958676,    0.000000
 131.804217,    0.000000
 134.683429,    0.000000
 137.589184,    0.000000
 140.545432,    0.000000
 143.537548,    0.000000
 146.578382,    0.000000
 149.666597,    0.000000
 152.799450,    0.000000
 155.987632,    0.000000
 159.224660,    0.000000
 162.475143,    0.000000
 165.831073,    0.000000
 169.181171,    0.000000
 172.550841,    0.000000
 176.011264,    0.000000
 179.512838,    0.000000
 183.076578,    0.000000
 186.670239,    0.000000
 190.307768,    0.000000
 193.970986,    0.000000
 197.692992,    0.000000
 201.483731,    0.000000
 205.296918,    0.000000
 209.165869,    0.000000
 213.095725,    0.000000
 217.090540,    0.000000
 221.117121,    0.000000
 225.171816,    0.000000
 229.305359,    0.000000
 233.511819,    0.000000
 237.748176,    0.000000
 242.017617,    0.000000
 246.346709,    0.000000
 250.719958,    0.000000
 255.148989,    0.000000
 259.634017,    0.000000
 264.186619,    0.000000
 268.767950,    0.000000
 273.397706,    0.000000
 278.097563,    0.000000
 282.829167,    0.000000
 287.626381,    0.000000
 292.515913,    0.000000
 297.426558,    0.000000
 302.408678,    0.000000
 307.421084,    0.000000
 312.505299,    0.000000
 317.639501,    0.000000
 322.829911,    0.000000
 328.067160,    0.000000
 333.376704,    0.000000
 338.754066,    0.000000
 339.842165,    0.000000
 340.557517,    0.000000
 341.037220,    0.000000
 341.413633,    0.000000
 341.721107,    0.000000
 341.994455,    0.000000
 342.206341,    0.000000
 342.381483,    0.000000
 342.577049,    0.000000
 342.753684,    0.000000
 342.787170,    0.000000
 342.827219,    0.000000
 342.872775,    0.000000
 342.883482,    0.000000
 342.903883,    0.000000
 342.909481,    0.000000
 342.912244,    0.000000
 342.914132,    0.000000
 342.915456,    0.000000
 342.915875,    0.000000
 342.916277,    0.000000
 342.920295,    0.000000
 342.958612,    0.000000
 343.187931,    0.000000
 344.152736,    0.000000
 347.580418,    0.000000
 352.601234,    0.000000
 357.541097,    0.000000
 362.542438,    0.000000
 367.594497,    0.000000
 372.652008,    0.000000
 377.780523,    0.000000
 382.957507,    0.000000
 388.178357,    0.000000
 393.443938,    0.000000
 398.747040,    0.000000
 404.108708,    0.000000
 409.530340,    0.000000
 414.990673,    0.000000
 420.493013,    0.000000
 426.036580,    0.000000
 431.639931,    0.000000
 437.273474,    0.000000
 442.973729,    0.000000
 448.719477,    0.000000
 454.507442,    0.000000
 460.341250,    0.000000
 466.248530,    0.000000
 472.223928,    0.000000
 478.246694,    0.000000
 484.293194,    0.000000
 490.411134,    0.000000
 496.605896,    0.000000
 502.808500,    0.000000
 509.052032,    0.000000
 515.374183,    0.000000
 521.724540,    0.000000
 528.145882,    0.000000
 534.610725,    0.000000
 541.137778,    0.000000
 547.727003,    0.000000
 554.354999,    0.000000
 561.058558,    0.000000
 567.763862,    0.000000
 574.577159,    0.000000
 581.422327,    0.000000
 588.327352,    0.000000
 595.295830,    0.000000
 602.300796,    0.000000
 609.345569,    0.000000
 616.474129,    0.000000
 623.665485,    0.000000
 630.888376,    0.000000
 638.179700,    0.000000
 645.522314,    0.000000
 652.914453,    0.000000
 660.367278,    0.000000
 667.860561,    0.000000
 675.433148,    0.000000
 683.072821,    0.000000
 690.754410,    0.000000
 698.500700,    0.000000
 706.295851,    0.000000
 714.143610,    0.000000
 722.059367,    0.000000
 730.028510,    0.000000
 738.066551,    0.000000
 746.154678,    0.000000
 754.280119,    0.000000
 762.443188,    0.000000
 770.705806,    0.000000
 779.023224,    0.000000
 787.393502,    0.000000
 795.815325,    0.000000
 804.305640,    0.000000
 806.022372,    0.000000
 807.202997,    0.000000
 808.023120,    0.000000
 808.149209,    0.000000
 808.280467,    0.000000
 808.420467,    0.000000
 808.587412,    0.000000
 808.597216,    0.000000
 808.603045,    0.000000
 808.607386,    0.000000
 808.610419,    0.000000
 808.612466,    0.000000
 808.613340,    0.000000
 808.614189,    0.000000
 808.622677,    0.000000
 808.704785,    0.000000
 809.357187,    0.000000
 811.703216,    0.000000
 819.810043,    0.000000
 827.334457,    0.000000
 834.910967,    0.000000
 842.557417,    0.000000
 850.223379,    0.000000
 857.934850,    0.000000
 865.719611,    0.000000
 873.534732,    0.000000
 881.399970,    0.000000
 889.328360,    0.000000
 897.281190,    0.000000
 905.255521,    0.000000
 913.283822,    0.000000
 921.393460,    0.000000
 929.529006,    0.000000
 937.731304,    0.000000
 945.971535,    0.000000
 954.252499,    0.000000
 962.578873,    0.000000
 970.958191,    0.000000
 979.383236,    0.000000
 987.881142,    0.000000
 996.423759,    0.000000
1005.001141,    0.000000
1013.626067,    0.000000
1022.304771,    0.000000
1031.040571,    0.000000
1039.840418,    0.000000
1048.669234,    0.000000
1057.569154,    0.000000
1066.476551,    0.000000
1075.451592,    0.000000
1084.488291,    0.000000
1093.552959,    0.000000
1102.681399,    0.000000
1111.885216,    0.000000
1121.125904,    0.000000
1130.419883,    0.000000
1139.744525,    0.000000
1149.120669,    0.000000
1158.542586,    0.000000
1168.035117,    0.000000
1177.576303,    0.000000
1187.161723,    0.000000
1196.766333,    0.000000
1206.473632,    0.000000
1216.202870,    0.000000
1225.974163,    0.000000
1235.811752,    0.000000
1245.714168,    0.000000
1255.661531,    0.000000
1265.660655,    0.000000
1275.701118,    0.000000
1285.808033,    0.000000
1295.958289,    0.000000
1306.148265,    0.000000
1316.406899,    0.000000
1326.720548,    0.000000
1337.067286,    0.000000
1347.487962,    0.000000
1357.976180,    0.000000
1368.493504,    0.000000
1379.074021,    0.000000
1389.690370,    0.000000
1400.366579,    0.000000
1411.088063,    0.000000
1421.864560,    0.000000
1432.692294,    0.000000
1443.566748,    0.000000
1454.529401,    0.000000
1465.539268,    0.000000
1476.606223,    0.000000
1487.700385,    0.000000
1498.844466,    0.000000
1510.051575,    0.000000
1521.329194,    0.000000
1523.598166,    0.000000
1531.998095,    0.000000
1532.089017,    0.000000
1532.122634,    0.000000
1532.130683,    0.000000
1532.190685,    0.000000
1532.244799,    0.000000
1532.601341,    0.000000
1534.651832,    0.000000
1544.162182,    0.000000
1555.480442,    0.000000
1566.884955,    0.000000
1578.358135,    0.000000
1589.883108,    0.000000
1601.492564,    0.000000
1613.129159,    0.000000
1624.807581,    0.000000
1636.585783,    0.000000
1648.388965,    0.000000
1660.243261,    0.000000
1672.173872,    0.000000
1684.189468,    0.000000
1696.209478,    0.000000
1708.314081,    0.000000
1720.477579,    0.000000
1732.684347,    0.000000
1744.926515,    0.000000
1757.263064,    0.000000
1769.649379,    0.000000
1782.079741,    0.000000
1794.595331,    0.000000
1807.141097,    0.000000
1819.717357,    0.000000
1832.363926,    0.000000
1845.075631,    0.000000
1857.837608,    0.000000
1870.683721,    0.000000
1883.559287,    0.000000
1896.505348,    0.000000
1909.491056,    0.000000
1922.559995,    0.000000
1935.659837,    0.000000
1948.808832,    0.000000
1962.032904,    0.000000
1975.306977,    0.000000
1988.657637,    0.000000
2002.048622,    0.000000
2015.514790,    0.000000
2029.028570,    0.000000
2042.627444,    0.000000
2056.282554,    0.000000
2069.976007,    0.000000
2083.723419,    0.000000
2097.532939,    0.000000
2111.391246,    0.000000
2120.113003,    0.000000
2125.313255,    0.000000
2139.277297,    0.000000
2153.320389,    0.000000
2167.444008,    0.000000
2181.642845,    0.000000
2195.915352,    0.000000
2210.251061,    0.000000
2224.629972,    0.000000
2239.104378,    0.000000
2253.636522,    0.000000
2268.218458,    0.000000
2282.862103,    0.000000
2297.590502,    0.000000
2312.335430,    0.000000
2327.155452,    0.000000
2342.028521,    0.000000
2356.948742,    0.000000
2371.964198,    0.000000
2386.992614,    0.000000
2402.086826,    0.000000
2417.218572,    0.000000
2432.366594,    0.000000
2447.577389,    0.000000
2462.813725,    0.000000
2478.084663,    0.000000
2493.453984,    0.000000
2508.822042,    0.000000
2524.238058,    0.000000
2525.285631,    0.002706
2526.334183,    0.005474
2527.383587,    0.008304
2528.433296,    0.011194
2529.480426,    0.014137
2530.530991,    0.017150
2531.583140,    0.020226
2532.632310,    0.023354
2533.683264,    0.026546
2534.738348,    0.029811
2535.793405,    0.033135
2536.846476,    0.036513
2537.902700,    0.039961
2538.961062,    0.043476
2540.018283,    0.047048
2541.075472,    0.050679
2542.136746,    0.054384
2543.195777,    0.058141
2544.257941,    0.061970
2545.321560,    0.065864
2546.386235,    0.069822
2547.447885,    0.073830
2548.514251,    0.077915
2549.582052,    0.082066
2550.649109,    0.086275
2551.718141,    0.090553
2552.785077,    0.094882
2553.852881,    0.099275
2554.922636,    0.103736
2555.995043,    0.108270
2557.069687,    0.112873
2558.142735,    0.117530
2559.218824,    0.122262
2560.291827,    0.127040
2561.368795,    0.131897
2562.448044,    0.136825
2563.526802,    0.141812
2564.608334,    0.146872
2565.688066,    0.151986
2566.767210,    0.157157
2567.851519,    0.162414
2568.933728,    0.167723
2570.019090,    0.173107
2571.108138,    0.178572
2572.197572,    0.184100
2573.286935,    0.189690
2574.377794,    0.195348
2575.469788,    0.201075
2576.553327,    0.206818
2577.645570,    0.212668
2578.736988,    0.218576
2579.832148,    0.224565
2580.930689,    0.230635
2582.026148,    0.236750
2583.127261,    0.242958
2584.225346,    0.249211
2585.327910,    0.255552
2586.427241,    0.261936
2587.531813,    0.268413
2588.636439,    0.274952
2589.740935,    0.281553
2590.849259,    0.288239
2591.957221,    0.294985
2593.067576,    0.301809
2594.179965,    0.308708
2595.295665,    0.315690
2596.412199,    0.322741
2597.531905,    0.329875
2598.649716,    0.337060
2599.770069,    0.344325
2599.994496,    0.345792
2600.121532,    0.346623
2600.188549,    0.347062
2600.198926,    0.347130
2600.211012,    0.347210
2600.215179,    0.347237
2600.217566,    0.347253
2600.222485,    0.347285
2600.226937,    0.347314
2600.263957,    0.347557
2600.402227,    0.348464
2600.755788,    0.350786
2601.603498,    0.356371
2602.717652,    0.363761
2603.837173,    0.371250
2604.957201,    0.378805
2606.082916,    0.386462
2607.211244,    0.394200
2608.334185,    0.401919
2609.464019,    0.409703
2610.595294,    0.417515
2611.730748,    0.425373
2612.863905,    0.433234
2613.998843,    0.441124
2615.129035,    0.448999
2616.269699,    0.456965
2617.412232,    0.464962
2618.549591,    0.472940
2619.688200,    0.480945
2620.827249,    0.488971
2621.972445,    0.497058
2623.117932,    0.505165
2624.264181,    0.513295
2625.415566,    0.521479
2626.562562,    0.529651
2627.712683,    0.537862
2628.866072,    0.546115
2630.021651,    0.554401
2631.174396,    0.562685
2632.325939,    0.570978
2633.483048,    0.579329
2634.641239,    0.587706
2635.804385,    0.596137
2636.962668,    0.604551
2638.124937,    0.613011
2639.288618,    0.621500
2640.453638,    0.630017
2641.621574,    0.638573
2642.791155,    0.647159
2643.961320,    0.655768
2645.131686,    0.664396
2646.304656,    0.673062
2647.482409,    0.681781
2648.661739,    0.690530
2649.839587,    0.699286
2651.018711,    0.708070
2652.199914,    0.716888
2653.375693,    0.725683
2654.557986,    0.734545
2655.745500,    0.743465
2656.934831,    0.752416
2658.126603,    0.761404
2659.319248,    0.770418
2660.509036,    0.779428
2661.705193,    0.788504
2662.898034,    0.797574
2664.094169,    0.806687
2665.294743,    0.815853
2666.493368,    0.825022
2667.691648,    0.834207
2668.892554,    0.843430
2670.103076,    0.852746
2671.312747,    0.862073
2672.523925,    0.871431
2673.740064,    0.880846
2674.953534,    0.890259
2676.174577,    0.899750
2677.390526,    0.909219
2678.613121,    0.918759
2679.839464,    0.928347
2681.065484,    0.937952
2682.289145,    0.947557
2683.517305,    0.957215
2684.748820,    0.966919
2685.977053,    0.976616
2687.203537,    0.986318
2688.433925,    0.996070
2689.677989,    1.005949
2690.913377,    1.015778
2692.142586,    1.025576
2693.380670,    1.035464
2694.626928,    1.045436
2695.871589,    1.055415
2697.117745,    1.065424
2698.366991,    1.075478
2699.620350,    1.085583
2700.878620,    1.095748
2702.135600,    1.105921
2703.398017,    1.116157
2704.205473,    1.122714
2704.655830,    1.126375
2705.925165,    1.136706
2707.181559,    1.146951
2708.451175,    1.157323
2709.722280,    1.167727
2710.996858,    1.178179
2712.259627,    1.188552
2713.533058,    1.199033
2714.811387,    1.209573
2716.095480,    1.220181
2717.380342,    1.230814
2718.663757,    1.241455
2719.951666,    1.252153
2721.244225,    1.262909
2722.538243,    1.273697
2723.829847,    1.284484
2725.128404,    1.295349
2726.425770,    1.306224
2727.726277,    1.317145
2729.036283,    1.328166
2730.338330,    1.339139
2731.649086,    1.350206
2732.955907,    1.361260
2734.269342,    1.372389
2735.585561,    1.383561
2736.904063,    1.394774
2738.229730,    1.406067
2739.551157,    1.417344
2740.880139,    1.428705
2742.207017,    1.440069
2743.531593,    1.451433
2744.864001,    1.462885
2746.202574,    1.474410
2747.543343,    1.485974
2748.883814,    1.497555
2750.223749,    1.509153
2751.569084,    1.520817
2752.923696,    1.532582
2754.276678,    1.544354
2755.622447,    1.556083
2756.978939,    1.567926
2758.339376,    1.579825
2759.695474,    1.591705
2761.056572,    1.603650
2762.428886,    1.615715
2763.798716,    1.627778
2765.171030,    1.639883
2766.551404,    1.652081
2767.932373,    1.664305
2769.312503,    1.676542
2770.700262,    1.688868
2772.086337,    1.701200
2773.479871,    1.713619
2774.869407,    1.726023
2776.252491,    1.738391
2777.650023,    1.750909
2779.041316,    1.763392
2780.445896,    1.776015
2781.851968,    1.788673
2783.256224,    1.801336
2784.672375,    1.814127
2786.079837,    1.826861
2787.490967,    1.839649
2788.908539,    1.852517
2790.336161,    1.865497
2791.760131,    1.878466
2793.187207,    1.891485
2794.616369,    1.904544
2796.050425,    1.917669
2797.487564,    1.930844
2798.926032,    1.944053
2800.369576,    1.957330
2801.807181,    1.970573
2803.252221,    1.983907
2804.702516,    1.997312
2806.150944,    2.010720
2807.602288,    2.024177
2809.071481,    2.037822
2810.526921,    2.051361
2811.984838,    2.064944
2813.443173,    2.078553
2814.904571,    2.092213
2816.379705,    2.106022
2817.853309,    2.119840
2819.333215,    2.133738
2820.804862,    2.147581
2822.279728,    2.161476
2823.760691,    2.175450
2825.258318,    2.189603
2826.747147,    2.203696
2828.248394,    2.217929
2829.750881,    2.232195
2831.255196,    2.246502
2832.759085,    2.260827
2834.264081,    2.275184
2835.774269,    2.289614
2837.291167,    2.304130
2838.803939,    2.318628
2840.323995,    2.333220
2841.839784,    2.347792
2843.369800,    2.362524
2844.904894,    2.377328
2846.445434,    2.392207
2847.977023,    2.407022
2849.512676,    2.421899
2851.059912,    2.436911
2852.607250,    2.451946
2854.154291,    2.467002
2855.699256,    2.482060
2857.259914,    2.497294
2858.822930,    2.512575
2860.387141,    2.527889
2861.946589,    2.543180
2863.520041,    2.558632
2865.095381,    2.574125
2866.669769,    2.589632
2868.249571,    2.605215
2869.833921,    2.620867
2871.418387,    2.636543
2873.005830,    2.652271
2874.600153,    2.668091
2876.195161,    2.683941
2877.793018,    2.699842
2879.391198,    2.715770
2880.989469,    2.731723
2882.604122,    2.747862
2884.212883,    2.763965
2885.829786,    2.780174
2887.442246,    2.796362
2889.061575,    2.812642
2890.679359,    2.828929
2892.319618,    2.845467
2893.945942,    2.861888
2895.585404,    2.878465
2897.219644,    2.895013
2898.861095,    2.911658
2900.499159,    2.928292
2902.142185,    2.945000
2903.789182,    2.961772
2905.447746,    2.978686
2907.111004,    2.995671
2908.768182,    3.012618
2910.416803,    3.029501
2912.070910,    3.046464
2913.741310,    3.063618
2915.415705,    3.080836
2917.090824,    3.098086
2918.774951,    3.115453
2920.457630,    3.132828
2922.127879,    3.150099
2923.820051,    3.167621
2925.505851,    3.185101
2927.202207,    3.202713
2928.885292,    3.220212
2930.591034,    3.237971
2932.306797,    3.255858
2934.020392,    3.273746
2935.738371,    3.291705
2937.451746,    3.309640
2939.178469,    3.327739
2940.902377,    3.345832
2942.616028,    3.363842
2944.346111,    3.382048
2946.095211,    3.400480
2947.830983,    3.418795
2949.574538,    3.437216
2951.305706,    3.455531
2953.045589,    3.473962
2954.804501,    3.492619
2956.554928,    3.511210
2958.304471,    3.529816
2960.055856,    3.548466
2961.818280,    3.567257
2963.590956,    3.586183
2965.362384,    3.605119
2967.142989,    3.624178
2968.915430,    3.643174
2970.698136,    3.662305
2972.460469,    3.681240
2974.252409,    3.700518
2976.031800,    3.719686
2977.812637,    3.738893
2979.605835,    3.758258
2981.419609,    3.777869
2983.218953,    3.797349
2985.011792,    3.816783
2986.816681,    3.836371
2988.615784,    3.855921
2990.433606,    3.875698
2992.235484,    3.895326
2994.056913,    3.915192
2995.870210,    3.934993
2997.692538,    3.954916
2999.499808,    3.974699
3001.331298,    3.994771
3003.160598,    4.014844
3004.995391,    4.035000
3006.855532,    4.055460
3008.694905,    4.075716
3010.533449,    4.095987
3012.380985,    4.116381
3014.232609,    4.136844
3016.084728,    4.157337
3017.928163,    4.177757
3019.783527,    4.198334
3021.652529,    4.219086
3023.497389,    4.239594
3025.371875,    4.260456
3027.257720,    4.281468
3029.149186,    4.302567
3031.024863,    4.323514
3032.916428,    4.344663
3034.826143,    4.366039
3036.696151,    4.386995
3038.586186,    4.408198
3040.483931,    4.429513
3042.382740,    4.450863
3044.285832,    4.472286
3046.193757,    4.493787
3048.092723,    4.515210
3050.000272,    4.536755
3051.894669,    4.558174
3053.812381,    4.579881
3055.723848,    4.601540
3057.638660,    4.623261
3059.562192,    4.645105
3061.480588,    4.666914
3063.399268,    4.688750
3065.328480,    4.710729
3067.263781,    4.732801
3069.195198,    4.754852
3071.138510,    4.777062
3073.075977,    4.799229
3075.016664,    4.821456
3076.970094,    4.843853
3078.909460,    4.866112
3080.856548,    4.888482
3082.803299,    4.910872
3084.752645,    4.933314
3086.721391,    4.956003
3088.665968,    4.978437
3090.635874,    5.001185
3092.579897,    5.023658
3094.562297,    5.046597
3096.537230,    5.069473
3098.499737,    5.092228
3100.488338,    5.115308
3102.463624,    5.138256
3104.466661,    5.161550
3106.460389,    5.184759
3108.462309,    5.208086
3110.458290,    5.231366
3112.451201,    5.254633
3114.443688,    5.277918
3116.446033,    5.301341
3118.442365,    5.324715
3120.444485,    5.348180
3122.462651,    5.371855
3124.474565,    5.395480
3126.487371,    5.419137
3128.496795,    5.442776
3130.505201,    5.466425
3132.529039,    5.490279
3134.564670,    5.514293
3136.575480,    5.538037
3138.572543,    5.561639
3140.585755,    5.585454
3142.633350,    5.609697
3144.646218,    5.633551
3146.709043,    5.658018
3148.747922,    5.682224
3150.762464,    5.706161
3152.788695,    5.730259
3154.815078,    5.754379
3156.855332,    5.778686
3158.893408,    5.802987
3160.933708,    5.827337
3162.969020,    5.851647
3165.003838,    5.875972
3167.054822,    5.900511
3169.118514,    5.925223
3171.173253,    5.949849
3173.213757,    5.974324
3175.266022,    5.998961
3177.337129,    6.023845
3179.415998,    6.048842
3181.489395,    6.073794
3183.548043,    6.098589
3185.622428,    6.123594
3187.695009,    6.148597
3189.772779,    6.173683
3191.844695,    6.198718
3193.937536,    6.224025
3196.012404,    6.249136
3198.105424,    6.274485
3200.206484,    6.299953
3202.293102,    6.325264
3204.387195,    6.350686
3206.488871,    6.376220
3208.591566,    6.401785
3210.685280,    6.427261
3212.772015,    6.452670
3214.900783,    6.478611
3217.030202,    6.504580
3219.133829,    6.530253
3221.262960,    6.556256
3223.381062,    6.582143
3225.269102,    6.605235
