Time, Vertical Forces
   0.000100,    0.000000
   0.000546,    0.000000
   0.002149,    0.000000
   0.006197,    0.000000
   0.029562,    0.000000
   0.060933,    0.000000
   0.093189,    0.000000
   0.125348,    0.000000
   0.157614,    0.000000
   0.190058,    0.000000
   0.222468,    0.000000
   0.254951,    0.000000
   0.287777,    0.000000
   0.320857,    0.000000
   0.354035,    0.000000
   0.387452,    0.000000
   0.420615,    0.000000
   0.454301,    0.000000
   0.488321,    0.000000
   0.522251,    0.000000
   0.556137,    0.000000
   0.590321,    0.000000
   0.624928,    0.000000
   0.660398,    0.000000
   0.695949,    0.000000
   0.731740,    0.000000
   0.768104,    0.000000
   0.804060,    0.000000
   0.840370,    0.000000
   0.876982,    0.000000
   0.914101,    0.000000
   0.951658,    0.000000
   0.988838,    0.000000
   1.026793,    0.000000
   1.065397,    0.000000
   1.103976,    0.000000
   1.143151,    0.000000
   1.182394,    0.000000
   1.222258,    0.000000
   1.263003,    0.000000
   1.303129,    0.000000
   1.343801,    0.000000
   1.385122,    0.000000
   1.426504,    0.000000
   1.468661,    0.000000
   1.510961,    0.000000
   1.553611,    0.000000
   1.597311,    0.000000
   1.641118,    0.000000
   1.684728,    0.000000
   1.729383,    0.000000
   1.773361,    0.000000
   1.818570,    0.000000
   1.864190,    0.000000
   1.908826,    0.000000
   1.954874,    0.000000
   2.001059,    0.000000
   2.047405,    0.000000
   2.093693,    0.000000
   2.141499,    0.000000
   2.188550,    0.000000
   2.237237,    0.000000
   2.285988,    0.000000
   2.334612,    0.000000
   2.383876,    0.000000
   2.433310,    0.000000
   2.483187,    0.000000
   2.533685,    0.000000
   2.584099,    0.000000
   2.635129,    0.000000
   2.686124,    0.000000
   2.737353,    0.000000
   2.789075,    0.000000
   2.841924,    0.000000
   2.894802,    0.000000
   2.947451,    0.000000
   3.001070,    0.000000
   3.054693,    0.000000
   3.108547,    0.000000
   3.163056,    0.000000
   3.218142,    0.000000
   3.273079,    0.000000
   3.327817,    0.000000
   3.383165,    0.000000
   3.439275,    0.000000
   3.495146,    0.000000
   3.551543,    0.000000
   3.608780,    0.000000
   3.665993,    0.000000
   3.724277,    0.000000
   3.782273,    0.000000
   3.841024,    0.000000
   3.899242,    0.000000
   3.958142,    0.000000
   4.017452,    0.000000
   4.077609,    0.000000
   4.137237,    0.000000
   4.197381,    0.000000
   4.257715,    0.000000
   4.260150,    0.000000
   4.267618,    0.000000
   4.268520,    0.000000
   4.268691,    0.000000
   4.268895,    0.000000
   4.268955,    0.000000
   4.268966,    0.000000
   4.268972,    0.000000
   4.268980,    0.000000
   4.269057,    0.000000
   4.269829,    0.000000
   4.273557,    0.000000
   4.285581,    0.000000
   4.318262,    0.000000
   4.374337,    0.000000
   4.429291,    0.000000
   4.484291,    0.000000
   4.539999,    0.000000
   4.595297,    0.000000
   4.651143,    0.000000
   4.707001,    0.000000
   4.763132,    0.000000
   4.819552,    0.000000
   4.876550,    0.000000
   4.933495,    0.000000
   4.990711,    0.000000
   5.048058,    0.000000
   5.105726,    0.000000
   5.163870,    0.000000
   5.221963,    0.000000
   5.280090,    0.000000
   5.338750,    0.000000
   5.397865,    0.000000
   5.457046,    0.000000
   5.516149,    0.000000
   5.575655,    0.000000
   5.635263,    0.000000
   5.695222,    0.000000
   5.755496,    0.000000
   5.816024,    0.000000
   5.877001,    0.000000
   5.938293,    0.000000
   5.999230,    0.000000
   6.061523,    0.000000
   6.123098,    0.000000
   6.184435,    0.000000
   6.246819,    0.000000
   6.309339,    0.000000
   6.372362,    0.000000
   6.435312,    0.000000
   6.498433,    0.000000
   6.561408,    0.000000
   6.624804,    0.000000
   6.688776,    0.000000
   6.752540,    0.000000
   6.816650,    0.000000
   6.881183,    0.000000
   6.946192,    0.000000
   7.011132,    0.000000
   7.075949,    0.000000
   7.141445,    0.000000
   7.207512,    0.000000
   7.273467,    0.000000
   7.339363,    0.000000
   7.405607,    0.000000
   7.471957,    0.000000
   7.538583,    0.000000
   7.605485,    0.000000
   7.672824,    0.000000
   7.740024,    0.000000
   7.807374,    0.000000
   7.875182,    0.000000
   7.942890,    0.000000
   8.010981,    0.000000
   8.079821,    0.000000
   8.148400,    0.000000
   8.217422,    0.000000
   8.286311,    0.000000
   8.355637,    0.000000
   8.425094,    0.000000
   8.494764,    0.000000
   8.564517,    0.000000
   8.634688,    0.000000
   8.705209,    0.000000
   8.719414,    0.000000
   8.728740,    0.000000
   8.734989,    0.000000
   8.739889,    0.000000
   8.743890,    0.000000
   8.747445,    0.000000
   8.750200,    0.000000
   8.752477,    0.000000
   8.755019,    0.000000
   8.757313,    0.000000
   8.757748,    0.000000
   8.758269,    0.000000
   8.758860,    0.000000
   8.758999,    0.000000
   8.759264,    0.000000
   8.759337,    0.000000
   8.759373,    0.000000
   8.759397,    0.000000
   8.759415,    0.000000
   8.759420,    0.000000
   8.759425,    0.000000
   8.759477,    0.000000
   8.759975,    0.000000
   8.762953,    0.000000
   8.775470,    0.000000
   8.819804,    0.000000
   8.884367,    0.000000
   8.947459,    0.000000
   9.010910,    0.000000
   9.074580,    0.000000
   9.137900,    0.000000
   9.201689,    0.000000
   9.265661,    0.000000
   9.329757,    0.000000
   9.393985,    0.000000
   9.458257,    0.000000
   9.522824,    0.000000
   9.587698,    0.000000
   9.652622,    0.000000
   9.717634,    0.000000
   9.782724,    0.000000
   9.848106,    0.000000
   9.913434,    0.000000
   9.979129,    0.000000
  10.044941,    0.000000
  10.110833,    0.000000
  10.176844,    0.000000
  10.243283,    0.000000
  10.310081,    0.000000
  10.377004,    0.000000
  10.443790,    0.000000
  10.510963,    0.000000
  10.578576,    0.000000
  10.645875,    0.000000
  10.713222,    0.000000
  10.781019,    0.000000
  10.848724,    0.000000
  10.916791,    0.000000
  10.984924,    0.000000
  11.053320,    0.000000
  11.121973,    0.000000
  11.190637,    0.000000
  11.259692,    0.000000
  11.328376,    0.000000
  11.397776,    0.000000
  11.467112,    0.000000
  11.536665,    0.000000
  11.606470,    0.000000
  11.676253,    0.000000
  11.746050,    0.000000
  11.816291,    0.000000
  11.886766,    0.000000
  11.957168,    0.000000
  12.027854,    0.000000
  12.098655,    0.000000
  12.169554,    0.000000
  12.240655,    0.000000
  12.311765,    0.000000
  12.383249,    0.000000
  12.454988,    0.000000
  12.526743,    0.000000
  12.598726,    0.000000
  12.670788,    0.000000
  12.742963,    0.000000
  12.815389,    0.000000
  12.887931,    0.000000
  12.960727,    0.000000
  13.033605,    0.000000
  13.106450,    0.000000
  13.179266,    0.000000
  13.252602,    0.000000
  13.326057,    0.000000
  13.399611,    0.000000
  13.473253,    0.000000
  13.547129,    0.000000
  13.562023,    0.000000
  13.572257,    0.000000
  13.579362,    0.000000
  13.580454,    0.000000
  13.581591,    0.000000
  13.582803,    0.000000
  13.584249,    0.000000
  13.584333,    0.000000
  13.584384,    0.000000
  13.584422,    0.000000
  13.584448,    0.000000
  13.584466,    0.000000
  13.584473,    0.000000
  13.584480,    0.000000
  13.584554,    0.000000
  13.585265,    0.000000
  13.590912,    0.000000
  13.611203,    0.000000
  13.681110,    0.000000
  13.745709,    0.000000
  13.810481,    0.000000
  13.875576,    0.000000
  13.940564,    0.000000
  14.005666,    0.000000
  14.071113,    0.000000
  14.136543,    0.000000
  14.202122,    0.000000
  14.267955,    0.000000
  14.333721,    0.000000
  14.399396,    0.000000
  14.465249,    0.000000
  14.531499,    0.000000
  14.597693,    0.000000
  14.664163,    0.000000
  14.730672,    0.000000
  14.797245,    0.000000
  14.863916,    0.000000
  14.930747,    0.000000
  14.997677,    0.000000
  15.064921,    0.000000
  15.132254,    0.000000
  15.199598,    0.000000
  15.267051,    0.000000
  15.334663,    0.000000
  15.402457,    0.000000
  15.470485,    0.000000
  15.538475,    0.000000
  15.606752,    0.000000
  15.674825,    0.000000
  15.743156,    0.000000
  15.811697,    0.000000
  15.880192,    0.000000
  15.948910,    0.000000
  16.017936,    0.000000
  16.086980,    0.000000
  16.156165,    0.000000
  16.225322,    0.000000
  16.294604,    0.000000
  16.363970,    0.000000
  16.433600,    0.000000
  16.503332,    0.000000
  16.573133,    0.000000
  16.642821,    0.000000
  16.713000,    0.000000
  16.783085,    0.000000
  16.853222,    0.000000
  16.923583,    0.000000
  16.994156,    0.000000
  17.064798,    0.000000
  17.135557,    0.000000
  17.206359,    0.000000
  17.277380,    0.000000
  17.348456,    0.000000
  17.419562,    0.000000
  17.490900,    0.000000
  17.562372,    0.000000
  17.633827,    0.000000
  17.705545,    0.000000
  17.777481,    0.000000
  17.849371,    0.000000
  17.921447,    0.000000
  17.993523,    0.000000
  18.065760,    0.000000
  18.138061,    0.000000
  18.210489,    0.000000
  18.283019,    0.000000
  18.355620,    0.000000
  18.428567,    0.000000
  18.501586,    0.000000
  18.574741,    0.000000
  18.647836,    0.000000
  18.721021,    0.000000
  18.794379,    0.000000
  18.867959,    0.000000
  18.882734,    0.000000
  18.937349,    0.000000
  18.937940,    0.000000
  18.938158,    0.000000
  18.938210,    0.000000
  18.938600,    0.000000
  18.938951,    0.000000
  18.941266,    0.000000
  18.954576,    0.000000
  19.016207,    0.000000
  19.089339,    0.000000
  19.162794,    0.000000
  19.236457,    0.000000
  19.310218,    0.000000
  19.384286,    0.000000
  19.458293,    0.000000
  19.532334,    0.000000
  19.606774,    0.000000
  19.681139,    0.000000
  19.755596,    0.000000
  19.830299,    0.000000
  19.905303,    0.000000
  19.980103,    0.000000
  20.055199,    0.000000
  20.130430,    0.000000
  20.205699,    0.000000
  20.280957,    0.000000
  20.356566,    0.000000
  20.432251,    0.000000
  20.507977,    0.000000
  20.583993,    0.000000
  20.659965,    0.000000
  20.735896,    0.000000
  20.812025,    0.000000
  20.888320,    0.000000
  20.964691,    0.000000
  21.041340,    0.000000
  21.117940,    0.000000
  21.194735,    0.000000
  21.271541,    0.000000
  21.348616,    0.000000
  21.425649,    0.000000
  21.502749,    0.000000
  21.580068,    0.000000
  21.657456,    0.000000
  21.735070,    0.000000
  21.812696,    0.000000
  21.890537,    0.000000
  21.968433,    0.000000
  22.046599,    0.000000
  22.124867,    0.000000
  22.203136,    0.000000
  22.281493,    0.000000
  22.359987,    0.000000
  22.438539,    0.000000
  22.487865,    0.000000
  22.517234,    0.000000
  22.595951,   17.202553
  22.674895,   63.057053
  22.754075,  108.479932
  22.833459,  153.475706
  22.913037,  198.027457
  22.992750,  242.131207
  23.072486,  285.756475
  23.152534,  328.843859
  23.232684,  371.555199
  23.312892,  413.778521
  23.393223,  455.493755
  23.473803,  496.738185
  23.554258,  537.583104
  23.634908,  577.836492
  23.715632,  617.668256
  23.796399,  657.020794
  23.877468,  695.879637
  23.958395,  734.381254
  24.039463,  772.308625
  24.120523,  809.807302
  24.201461,  846.810925
  24.282525,  883.269152
  24.363519,  919.306935
  24.444490,  954.836950
  24.525777,  989.881970
  24.606852, 1024.607002
  24.687977, 1058.776665
  24.693483, 1093.959108
  24.698992, 1096.225483
  24.704505, 1098.491609
  24.710019, 1100.757249
  24.715519, 1103.021458
  24.721035, 1105.277137
  24.726559, 1107.538030
  24.732066, 1109.800417
  24.737582, 1112.053552
  24.743119, 1114.307925
  24.748654, 1116.569201
  24.754178, 1118.828245
  24.759718, 1121.080151
  24.765268, 1123.336536
  24.770812, 1125.595448
  24.776354, 1127.849441
  24.781916, 1130.100585
  24.787466, 1132.358697
  24.793031, 1134.609125
  24.798603, 1136.864015
  24.804180, 1139.119657
  24.809740, 1141.375582
  24.815324, 1143.621944
  24.820914, 1145.876252
  24.826499, 1148.131443
  24.832094, 1150.382411
  24.837677, 1152.635593
  24.843264, 1154.881689
  24.848860, 1157.127145
  24.854469, 1159.374273
  24.860088, 1161.624646
  24.865698, 1163.877737
  24.871324, 1166.124638
  24.876932, 1168.376168
  24.882560, 1170.618156
  24.888199, 1172.866239
  24.893834, 1175.117001
  24.899483, 1177.364031
  24.905122, 1179.614941
  24.910757, 1181.859615
  24.916418, 1184.100110
  24.922067, 1186.349721
  24.927731, 1188.592061
  24.933414, 1190.838519
  24.939097, 1193.090571
  24.944780, 1195.341091
  24.950469, 1197.588926
  24.956163, 1199.837511
  24.961813, 1202.087062
  24.967506, 1204.315059
  24.973195, 1206.559603
  24.978902, 1208.799611
  24.984626, 1211.044970
  24.990332, 1213.295566
  24.996068, 1215.536558
  25.001786, 1217.787659
  25.007527, 1220.029407
  25.013250, 1222.278738
  25.019000, 1224.518216
  25.024749, 1226.766545
  25.030496, 1229.012628
  25.036262, 1231.255658
  25.042025, 1233.504528
  25.047800, 1235.749994
  25.053585, 1237.997972
  25.059386, 1240.247549
  25.065190, 1242.501696
  25.071009, 1244.754885
  25.076818, 1247.012617
  25.082639, 1249.263662
  25.083805, 1251.612615
  25.084465, 1252.074055
  25.084814, 1252.335722
  25.084867, 1252.476394
  25.084930, 1252.497064
  25.084952, 1252.522190
  25.084964, 1252.530750
  25.084990, 1252.535318
  25.085013, 1252.545289
  25.085205, 1252.551091
  25.085924, 1252.615890
  25.087760, 1252.873820
  25.092163, 1253.538753
  25.097950, 1255.222001
  25.103763, 1257.466110
  25.109578, 1259.719162
  25.115422, 1261.970376
  25.121278, 1264.230964
  25.127106, 1264.121171
  25.132968, 1264.010832
  25.138836, 1263.900482
  25.144726, 1263.789855
  25.150602, 1263.679582
  25.156487, 1263.569266
  25.162346, 1263.459541
  25.168259, 1263.348932
  25.174180, 1263.238274
  25.180074, 1263.128249
  25.185973, 1263.018236
  25.191873, 1262.908312
  25.197804, 1262.797929
  25.203736, 1262.687651
  25.209671, 1262.577435
  25.215631, 1262.466861
  25.221568, 1262.356843
  25.227520, 1262.246660
  25.233488, 1262.136301
  25.239466, 1262.025870
  25.245428, 1261.915846
  25.251384, 1261.806073
  25.257367, 1261.695908
  25.263355, 1261.585777
  25.269367, 1261.475315
  25.275354, 1261.365453
  25.281360, 1261.255353
  25.287372, 1261.145259
  25.293390, 1261.035178
  25.299422, 1260.924964
  25.305462, 1260.814735
  25.311504, 1260.704594
  25.317546, 1260.594576
  25.323601, 1260.484457
  25.329679, 1260.374032
  25.335764, 1260.263604
  25.341841, 1260.153459
  25.347923, 1260.043340
  25.354015, 1259.933172
  25.360078, 1259.823655
  25.366174, 1259.713677
  25.372295, 1259.603361
  25.378425, 1259.493023
  25.384567, 1259.382608
  25.390712, 1259.272261
  25.396841, 1259.162327
  25.403002, 1259.051955
  25.409145, 1258.942038
  25.415304, 1258.831968
  25.421485, 1258.721641
  25.427655, 1258.611645
  25.433822, 1258.501831
  25.440002, 1258.391929
  25.446230, 1258.281302
  25.452453, 1258.170906
  25.458682, 1258.060528
  25.464936, 1257.949855
  25.471175, 1257.839580
  25.477452, 1257.728775
  25.483702, 1257.618589
  25.489986, 1257.507959
  25.496287, 1257.397149
  25.502586, 1257.286529
  25.508871, 1257.176281
  25.515179, 1257.065787
  25.521503, 1256.955154
  25.527808, 1256.844976
  25.534104, 1256.735116
  25.540419, 1256.625068
  25.546804, 1256.513961
  25.553142, 1256.403792
  25.559448, 1256.294337
  25.565799, 1256.184255
  25.572190, 1256.073612
  25.578572, 1255.963278
  25.584961, 1255.852977
  25.591364, 1255.742570
  25.597788, 1255.631969
  25.604236, 1255.521104
  25.610676, 1255.410523
  25.617142, 1255.299635
  25.621278, 1255.228800
  25.623585, 1255.189322
  25.630085, 1255.078172
  25.636518, 1254.968326
  25.643017, 1254.857498
  25.649524, 1254.746714
  25.656046, 1254.635803
  25.662508, 1254.526093
  25.669023, 1254.415631
  25.675562, 1254.304922
  25.682129, 1254.193892
  25.688699, 1254.082975
  25.695261, 1253.972361
  25.701845, 1253.861541
  25.708451, 1253.750501
  25.715064, 1253.639519
  25.721663, 1253.528925
  25.728297, 1253.417920
  25.734924, 1253.307200
  25.741565, 1253.196396
  25.748254, 1253.084970
  25.754902, 1252.974407
  25.761593, 1252.863292
  25.768262, 1252.752697
  25.774964, 1252.641731
  25.781680, 1252.530720
  25.788406, 1252.419706
  25.795167, 1252.308282
  25.801906, 1252.197406
  25.808682, 1252.086090
  25.815446, 1251.975144
  25.822198, 1251.864583
  25.828988, 1251.753564
  25.835809, 1251.642228
  25.842640, 1251.530908
  25.849468, 1251.419810
  25.856292, 1251.308955
  25.863143, 1251.197853
  25.870040, 1251.086187
  25.876927, 1250.974858
  25.883777, 1250.864324
  25.890680, 1250.753112
  25.897602, 1250.641781
  25.904501, 1250.531010
  25.911424, 1250.420035
  25.918403, 1250.308354
  25.925368, 1250.197084
  25.932345, 1250.085822
  25.939362, 1249.974117
  25.946381, 1249.862577
  25.953394, 1249.751316
  25.960445, 1249.639655
  25.967486, 1249.528343
  25.974564, 1249.416649
  25.981620, 1249.305490
  25.988643, 1249.195063
  25.995738, 1249.083699
  26.002800, 1248.973049
  26.009928, 1248.861562
  26.017063, 1248.750178
  26.024187, 1248.639159
  26.031371, 1248.527424
  26.038509, 1248.416597
  26.045665, 1248.305705
  26.052852, 1248.194532
  26.060089, 1248.082799
  26.067307, 1247.971580
  26.074539, 1247.860347
  26.081780, 1247.749182
  26.089045, 1247.637867
  26.096325, 1247.526546
  26.103610, 1247.415355
  26.110919, 1247.304006
  26.118198, 1247.193349
  26.125513, 1247.082356
  26.132853, 1246.971196
  26.140183, 1246.860417
  26.147526, 1246.749653
  26.154958, 1246.637769
  26.162320, 1246.527175
  26.169693, 1246.416633
  26.177067, 1246.306300
  26.184455, 1246.195978
  26.191912, 1246.084865
  26.199359, 1245.974114
  26.206838, 1245.863138
  26.214273, 1245.753028
  26.221723, 1245.642925
  26.229203, 1245.532616
  26.236766, 1245.421320
  26.244284, 1245.310931
  26.251863, 1245.199878
  26.259447, 1245.088990
  26.267039, 1244.978226
  26.274627, 1244.867751
  26.282220, 1244.757454
  26.289838, 1244.647037
  26.297489, 1244.536392
  26.305117, 1244.426311
  26.312782, 1244.315964
  26.320423, 1244.206190
  26.328135, 1244.095653
  26.335871, 1243.985019
  26.343634, 1243.874264
  26.351350, 1243.764424
  26.359085, 1243.654562
  26.366878, 1243.544146
  26.374670, 1243.433999
  26.382459, 1243.324148
  26.390236, 1243.214719
  26.398092, 1243.104458
  26.405958, 1242.994312
  26.413828, 1242.884364
  26.421674, 1242.775032
  26.429588, 1242.665002
  26.437511, 1242.555127
  26.445428, 1242.445605
  26.453371, 1242.335994
  26.461335, 1242.226357
  26.469299, 1242.117004
  26.477277, 1242.007736
  26.485288, 1241.898288
  26.493301, 1241.789089
  26.501327, 1241.679990
  26.509353, 1241.571165
  26.517379, 1241.462630
  26.525486, 1241.353285
  26.533562, 1241.244639
  26.541677, 1241.135747
  26.549769, 1241.027457
  26.557894, 1240.919010
  26.566011, 1240.810971
  26.574238, 1240.701742
  26.582395, 1240.593751
  26.590616, 1240.485200
  26.598810, 1240.377306
  26.607038, 1240.269250
  26.615249, 1240.161730
  26.623483, 1240.054199
  26.631735, 1239.946725
  26.640044, 1239.838816
  26.648376, 1239.730925
  26.656676, 1239.623751
  26.664931, 1239.517448
  26.673213, 1239.411112
  26.681576, 1239.304053
  26.689956, 1239.197067
  26.698340, 1239.090363
  26.706767, 1238.983417
  26.715186, 1238.876895
  26.723541, 1238.771489
  26.732004, 1238.665034
  26.740435, 1238.559313
  26.748917, 1238.453268
  26.757331, 1238.348387
  26.765857, 1238.242434
  26.774432, 1238.136204
  26.782995, 1238.030454
  26.791579, 1237.924781
  26.800138, 1237.819737
  26.808763, 1237.714225
  26.817372, 1237.609236
  26.825929, 1237.505219
  26.834567, 1237.400555
  26.843298, 1237.295101
  26.851962, 1237.190807
  26.860663, 1237.086404
  26.869301, 1236.983098
  26.877981, 1236.879630
  26.886755, 1236.775393
  26.895485, 1236.672023
  26.904210, 1236.569067
  26.912942, 1236.466366
  26.921728, 1236.363384
  26.930565, 1236.260175
  26.939393, 1236.157410
  26.948266, 1236.054488
  26.957097, 1235.952411
  26.965978, 1235.850120
  26.974756, 1235.749368
  26.983681, 1235.647301
  26.992541, 1235.546327
  27.001408, 1235.445648
  27.010335, 1235.344650
  27.019363, 1235.242883
  27.028318, 1235.142312
  27.037239, 1235.042488
  27.046219, 1234.942379
  27.055169, 1234.842978
  27.064211, 1234.742934
  27.073172, 1234.644155
  27.082229, 1234.544699
  27.091244, 1234.446079
  27.100304, 1234.347364
  27.109287, 1234.249855
  27.118389, 1234.151437
  27.127479, 1234.053537
  27.136595, 1233.955744
  27.145836, 1233.857011
  27.154972, 1233.759787
  27.164103, 1233.663011
  27.173277, 1233.566168
  27.182471, 1233.469521
  27.191665, 1233.373258
  27.200816, 1233.277855
  27.210024, 1233.182245
  27.219299, 1233.086349
  27.228452, 1232.992102
  27.237752, 1232.896759
  27.247106, 1232.801263
  27.256487, 1232.705911
  27.265789, 1232.611779
  27.275168, 1232.517277
  27.284636, 1232.422304
  27.293906, 1232.329729
  27.303274, 1232.236590
  27.312679, 1232.143502
  27.322088, 1232.050795
  27.331517, 1231.958314
  27.340968, 1231.866034
  27.350375, 1231.774623
  27.359822, 1231.683235
  27.369203, 1231.592910
  27.378698, 1231.501913
  27.388162, 1231.411653
  27.397640, 1231.321677
  27.407161, 1231.231734
  27.416655, 1231.142476
  27.426149, 1231.053648
  27.435694, 1230.964779
  27.445268, 1230.876081
  27.454822, 1230.788011
  27.464433, 1230.699852
  27.474014, 1230.612412
  27.483610, 1230.525281
  27.493268, 1230.438036
  27.502855, 1230.351875
  27.512479, 1230.265827
  27.522101, 1230.180252
  27.531734, 1230.095022
  27.541462, 1230.009409
  27.551069, 1229.925306
  27.560800, 1229.840574
  27.570402, 1229.757415
  27.580193, 1229.673085
  27.589945, 1229.589545
  27.599636, 1229.506998
  27.609453, 1229.423829
  27.619204, 1229.341690
  27.629091, 1229.258879
  27.638931, 1229.176935
  27.648810, 1229.095138
  27.658659, 1229.014067
  27.668491, 1228.933602
  27.678320, 1228.853635
  27.688197, 1228.773757
  27.698043, 1228.694602
  27.707917, 1228.615702
  27.717868, 1228.536662
  27.727788, 1228.458358
  27.737711, 1228.380510
  27.747616, 1228.303284
  27.757515, 1228.226585
  27.767489, 1228.149792
  27.777520, 1228.073052
  27.787428, 1227.997742
  27.797267, 1227.923433
  27.807185, 1227.849012
  27.817271, 1227.773825
  27.827185, 1227.700408
  27.837344, 1227.625681
  27.847384, 1227.552328
  27.857303, 1227.480346
  27.867279, 1227.408445
  27.877254, 1227.337036
  27.887297, 1227.265642
  27.897328, 1227.194830
  27.907369, 1227.124446
  27.917385, 1227.054738
  27.927397, 1226.985550
  27.937487, 1226.916321
  27.947640, 1226.847180
  27.957747, 1226.778853
  27.967783, 1226.711507
  27.977876, 1226.644284
  27.988061, 1226.576963
  27.998284, 1226.509914
  28.008478, 1226.443565
  28.018599, 1226.378205
  28.028796, 1226.312867
  28.038984, 1226.248109
  28.049196, 1226.183713
  28.059378, 1226.120022
  28.069663, 1226.056218
  28.079858, 1225.993488
  28.090142, 1225.930739
  28.100464, 1225.868286
  28.110714, 1225.806794
  28.121000, 1225.745615
  28.131323, 1225.684750
  28.141650, 1225.624394
  28.151932, 1225.564831
  28.162178, 1225.505998
  28.172631, 1225.446525
  28.183085, 1225.387586
  28.193412, 1225.329904
  28.203864, 1225.272070
  28.214260, 1225.215084
  28.223527, 1225.164748
