Time, Horizontal Forces
   0.000000,    0.000000
   0.000000,    0.000004
   0.000006,    0.000069
   0.000054,    0.000572
   0.001226,    0.013014
   0.005208,    0.055272
   0.012180,    0.129240
   0.022034,    0.233763
   0.034834,    0.369485
   0.050646,    0.537088
   0.069385,    0.735659
   0.091116,    0.965869
   0.116078,    1.230217
   0.144283,    1.528820
   0.175647,    1.860763
   0.210347,    2.227899
   0.247870,    2.624773
   0.289132,    3.061059
   0.334020,    3.535523
   0.382009,    4.042606
   0.433144,    4.582754
   0.487976,    5.161774
   0.546808,    5.782815
   0.610573,    6.455718
   0.678004,    7.167067
   0.749448,    7.920484
   0.825692,    8.724249
   0.904702,    9.556881
   0.988142,   10.435897
   1.075992,   11.361039
   1.168868,   12.338769
   1.266739,   13.368723
   1.367491,   14.428601
   1.474305,   15.551852
   1.587052,   16.737062
   1.703862,   17.964515
   1.826705,   19.254886
   1.954031,   20.591853
   2.087747,   21.995369
   2.228970,   23.477114
   2.372548,   24.982973
   2.522632,   26.556459
   2.679805,   28.203608
   2.841946,   29.902151
   3.012001,   31.682869
   3.187568,   33.520564
   3.369605,   35.425189
   3.561334,   37.430389
   3.758829,   39.495023
   3.960707,   41.604572
   4.172858,   43.820527
   4.387173,   46.058117
   4.613044,   48.415335
   4.846684,   50.852567
   5.080836,   53.294058
   5.328148,   55.871631
   5.582063,   58.516836
   5.842758,   61.231450
   6.109030,   64.002880
   6.390221,   66.928245
   6.673104,   69.869853
   6.972224,   72.978850
   7.278258,   76.158197
   7.589991,   79.395199
   7.912451,   82.741987
   8.242704,   86.168007
   8.582706,   89.693432
   8.933889,   93.333005
   9.291451,   97.036853
   9.660467,  100.857441
  10.036340,  104.747062
  10.421097,  108.726627
  10.816838,  112.817717
  11.228745,  117.073737
  11.648507,  121.408653
  12.074036,  125.800828
  12.515173,  130.351722
  12.964179,  134.981339
  13.423002,  139.709661
  13.895445,  144.575732
  14.381103,  149.575198
  14.873667,  154.642988
  15.372599,  159.773496
  15.885375,  165.043484
  16.413703,  170.470290
  16.948265,  175.958079
  17.496454,  181.582619
  18.061617,  187.378024
  18.635411,  193.258584
  19.229062,  199.339136
  19.828899,  205.479484
  20.445826,  211.791083
  21.066362,  218.135904
  21.703470,  224.646342
  22.354490,  231.295003
  23.024499,  238.133496
  23.698244,  245.005979
  24.387530,  252.032760
  25.088776,  259.177136
  25.117278,  259.467422
  25.204813,  260.358918
  25.215389,  260.466625
  25.217400,  260.487101
  25.219797,  260.511515
  25.220499,  260.518665
  25.220625,  260.519947
  25.220702,  260.520724
  25.220792,  260.521646
  25.221697,  260.530867
  25.230752,  260.623078
  25.274522,  261.068811
  25.415966,  262.509059
  25.802349,  266.442252
  26.472008,  273.255127
  27.136488,  280.010443
  27.809638,  286.849017
  28.499724,  293.854589
  29.192980,  300.887271
  29.901402,  308.068599
  30.618349,  315.331068
  31.347197,  322.708698
  32.088296,  330.204835
  32.845610,  337.859317
  33.610900,  345.588657
  34.388540,  353.436879
  35.176717,  361.385496
  35.978134,  369.461549
  36.795132,  377.688378
  37.620406,  385.992217
  38.455126,  394.384716
  39.306604,  402.939148
  40.173925,  411.646014
  41.051509,  420.449068
  41.937183,  429.326376
  42.838248,  438.350905
  43.750245,  447.477775
  44.677091,  456.745955
  45.618379,  466.151096
  46.573272,  475.684592
  47.545030,  485.378688
  48.531676,  495.213368
  49.522424,  505.080965
  50.545311,  515.260376
  51.566421,  525.413783
  52.593496,  535.618209
  53.648233,  546.088885
  54.715513,  556.675317
  55.801741,  567.440739
  56.897089,  578.287481
  58.005808,  589.257447
  59.122356,  600.295642
  60.256824,  611.501568
  61.412241,  622.904767
  62.574501,  634.365753
  63.753757,  645.984448
  64.951577,  657.775939
  66.169197,  669.751990
  67.396499,  681.812814
  68.632369,  693.947334
  69.892273,  706.307065
  71.174402,  718.873769
  72.465644,  731.518622
  73.766970,  744.250985
  75.086477,  757.149824
  76.419443,  770.168660
  77.769412,  783.341803
  79.136448,  796.669551
  80.524081,  810.185914
  81.920471,  823.775284
  83.331621,  837.495877
  84.764137,  851.411562
  86.206330,  865.408472
  87.668521,  879.586491
  89.158850,  894.024018
  90.655615,  908.510457
  92.174165,  923.194101
  93.701946,  937.953251
  95.251615,  952.909869
  96.816520,  967.999365
  98.398557,  983.239697
  99.994870,  998.603049
 101.613219, 1014.163715
 103.252239, 1029.908104
 103.583892, 1033.092121
 103.801931, 1035.185066
 103.948145, 1036.588411
 104.062875, 1037.689501
 104.156593, 1038.588878
 104.239910, 1039.388391
 104.304493, 1040.008109
 104.357876, 1040.520343
 104.417485, 1041.092291
 104.471323, 1041.608855
 104.481529, 1041.706783
 104.493736, 1041.823903
 104.507622, 1041.957126
 104.510885, 1041.988438
 104.517103, 1042.048096
 104.518810, 1042.064469
 104.519652, 1042.072547
 104.520228, 1042.078070
 104.520631, 1042.081941
 104.520759, 1042.083166
 104.520881, 1042.084341
 104.522106, 1042.096090
 104.533785, 1042.208144
 104.603681, 1042.878730
 104.897754, 1045.699682
 105.942511, 1055.716836
 107.472856, 1070.376069
 108.978526, 1084.783110
 110.502935, 1099.353571
 112.042803, 1114.055684
 113.584332, 1128.757566
 115.147503, 1143.649524
 116.725448, 1158.665669
 118.316763, 1173.792323
 119.921712, 1189.031685
 121.538098, 1204.362613
 123.172334, 1219.845603
 124.824848, 1235.484241
 126.489157, 1251.216836
 128.166270, 1267.052649
 129.855950, 1282.989150
 131.563851, 1299.079320
 133.280955, 1315.237872
 135.018392, 1331.569207
 136.769697, 1348.012112
 138.533868, 1364.556908
 140.312013, 1381.213654
 142.112552, 1398.060780
 143.933853, 1415.082452
 145.769592, 1432.219114
 147.612566, 1449.403307
 149.477314, 1466.770268
 151.365477, 1484.334673
 153.256031, 1501.900651
 155.159059, 1519.561795
 157.086051, 1537.424261
 159.021640, 1555.345218
 160.978865, 1573.445031
 162.949349, 1591.645792
 164.938795, 1609.999784
 166.947190, 1628.506414
 168.967404, 1647.099591
 171.010648, 1665.882085
 173.054425, 1684.646823
 175.131118, 1703.690728
 177.217525, 1722.800465
 179.322177, 1742.053840
 181.446169, 1761.460397
 183.581283, 1780.944685
 185.728530, 1800.515688
 187.901315, 1820.295106
 190.093240, 1840.224094
 192.294777, 1860.215686
 194.517173, 1880.371649
 196.755201, 1900.644127
 199.008325, 1921.027881
 201.279946, 1941.553276
 203.563899, 1962.164230
 205.872024, 1982.967137
 208.200596, 2003.927823
 210.541944, 2024.976823
 212.903013, 2046.176177
 215.278975, 2067.482105
 217.670972, 2088.904480
 220.083695, 2110.484844
 222.512690, 2132.182889
 224.962685, 2154.040370
 227.427946, 2176.005676
 229.904580, 2198.043826
 232.392684, 2220.155448
 234.911130, 2242.507709
 237.446279, 2264.978910
 239.997540, 2287.563409
 242.564511, 2310.257276
 245.152359, 2333.105716
 245.675619, 2337.721998
 246.035474, 2340.895983
 246.285447, 2343.100455
 246.323879, 2343.439355
 246.363886, 2343.792143
 246.406558, 2344.168417
 246.457443, 2344.617099
 246.460431, 2344.643449
 246.462208, 2344.659113
 246.463531, 2344.670781
 246.464456, 2344.678932
 246.465080, 2344.684433
 246.465346, 2344.686782
 246.465605, 2344.689063
 246.468192, 2344.711877
 246.493218, 2344.932544
 246.692071, 2346.685772
 247.407140, 2352.988481
 249.878101, 2374.745333
 252.171543, 2394.908028
 254.480863, 2415.180247
 256.811501, 2435.609164
 259.148086, 2456.059682
 261.498542, 2476.600928
 263.871338, 2497.306357
 266.253386, 2518.061329
 268.650711, 2538.917999
 271.067284, 2559.910419
 273.491307, 2580.935735
 275.921883, 2601.986062
 278.368909, 2623.146832
 280.840727, 2644.489531
 283.320441, 2665.867808
 285.820501, 2687.388607
 288.332124, 2708.975856
 290.856162, 2730.636585
 293.394041, 2752.382683
 295.948057, 2774.233408
 298.516010, 2796.169516
 301.106172, 2818.261117
 303.709962, 2840.434497
 306.324348, 2862.663534
 308.953225, 2884.981027
 311.598494, 2907.402670
 314.261166, 2929.936542
 316.943359, 2952.600020
 319.634382, 2975.302377
 322.347078, 2998.151535
 325.062053, 3020.983844
 327.797645, 3043.953255
 330.552031, 3067.043851
 333.314942, 3090.169184
 336.097290, 3113.420218
 338.902614, 3136.825859
 341.719176, 3160.287678
 344.551980, 3183.847007
 347.394131, 3207.446163
 350.251980, 3231.137571
 353.123780, 3254.906352
 356.017104, 3278.814653
 358.925257, 3302.806629
 361.846893, 3326.870787
 364.774378, 3350.944056
 367.733163, 3375.235170
 370.698635, 3399.541496
 373.676925, 3423.913090
 376.675422, 3448.409948
 379.693678, 3473.027806
 382.725635, 3497.716760
 385.773368, 3522.493331
 388.833701, 3547.331321
 391.914288, 3572.292393
 395.008086, 3597.318993
 398.113991, 3622.401884
 401.240823, 3647.611836
 404.384423, 3672.914761
 407.538109, 3698.256530
 410.714331, 3723.736736
 413.911140, 3749.339075
 417.116820, 3774.969336
 420.341762, 3800.710219
 423.577625, 3826.494761
 426.831733, 3852.380935
 430.099642, 3878.332939
 433.384318, 3904.373934
 436.684611, 3930.494351
 439.999145, 3956.682897
 443.340562, 3983.038850
 446.696369, 4009.463046
 450.069577, 4035.978753
 453.451077, 4062.514074
 456.847793, 4089.123067
 460.263720, 4115.836550
 463.701138, 4142.671751
 464.392721, 4148.065190
 466.953019, 4168.015894
 466.980732, 4168.231703
 466.990979, 4168.311493
 466.993432, 4168.330598
 467.011721, 4168.473014
 467.028215, 4168.601453
 467.136889, 4169.447681
 467.761878, 4174.313463
 470.660633, 4196.861295
 474.110439, 4223.652516
 477.586534, 4250.600918
 481.083559, 4277.664203
 484.596371, 4304.802038
 488.134934, 4332.090775
 491.681768, 4359.395147
 495.241351, 4386.749411
 498.831347, 4414.288657
 502.428957, 4441.837435
 506.042146, 4469.456492
 509.678596, 4497.203979
 513.340950, 4525.099279
 517.004649, 4552.955012
 520.694132, 4580.956663
 524.401566, 4609.044115
 528.122189, 4637.180883
 531.853602, 4665.348568
 535.613782, 4693.682297
 539.389131, 4722.078937
 543.177905, 4750.525023
 546.992657, 4779.114222
 550.816606, 4807.720298
 554.649850, 4836.343827
 558.504525, 4865.075038
 562.379052, 4893.901570
 566.268903, 4922.789233
 570.184398, 4951.814079
 574.108871, 4980.852089
 578.054830, 5009.995437
 582.012874, 5039.174235
 585.996286, 5068.485891
 589.989118, 5097.812570
 593.996932, 5127.194870
 598.027629, 5156.690191
 602.073567, 5186.242066
 606.142848, 5215.909136
 610.224420, 5245.610340
 614.328908, 5275.422520
 618.447908, 5305.284118
 622.592845, 5335.277378
 626.754922, 5365.338019
 630.928687, 5395.426313
 635.118898, 5425.576245
 639.328040, 5455.805212
 643.552052, 5486.083619
 646.210443, 5505.110053
 647.795480, 5516.443599
 652.051720, 5568.673784
 656.332055, 5657.947603
 660.636934, 5747.610626
 664.964739, 5839.925085
 669.314999, 5939.502144
 673.684524, 6039.423400
 678.067216, 6139.588727
 682.479014, 6242.806314
 686.908412, 6353.766367
 691.352986, 6464.963384
 695.816369, 6576.379303
 700.305585, 6690.160113
 704.799839, 6813.163276
 709.316982, 6936.216598
 713.850293, 7059.607862
 718.397976, 7183.186677
 722.974688, 7316.560516
 727.555349, 7450.721292
 732.156064, 7584.851543
 736.768221, 7719.209534
 741.385338, 7858.836737
 746.021588, 8002.283779
 750.665623, 8145.897690
 755.320205, 8289.444011
 760.004774, 8433.276772
 764.688959, 8586.912247
 769.387760, 8740.291028
 769.707060, 8852.607396
 770.026659, 8862.920316
 770.346517, 8873.239317
 770.666469, 8883.561925
 770.985634, 8893.876139
 771.305846, 8904.178716
 771.626541, 8914.506540
 771.946328, 8924.833717
 772.266659, 8935.141739
 772.588248, 8945.470559
 772.909830, 8955.824777
 773.230806, 8966.169764
 773.552743, 8976.506336
 773.875332, 8986.867492
 774.197573, 8997.236832
 774.519804, 9007.594583
 774.843280, 9017.960103
 775.166073, 9028.344149
 775.489821, 9038.717820
 775.814011, 9049.113770
 776.138524, 9059.519139
 776.462115, 9069.919591
 776.787144, 9080.308622
 777.112609, 9090.730714
 777.437848, 9101.156869
 777.763689, 9111.579617
 778.088891, 9122.259301
 778.414358, 9133.476289
 778.740419, 9144.701368
 779.067289, 9155.944799
 779.394840, 9167.210736
 779.721906, 9178.485115
 780.049897, 9189.751610
 780.376949, 9201.028415
 780.705209, 9212.288498
 781.034164, 9223.581064
 781.362969, 9234.885333
 781.692620, 9246.189280
 782.021723, 9257.504911
 782.350646, 9268.800664
 782.681143, 9280.102043
 783.011000, 9291.432397
 783.341819, 9302.751071
 783.673760, 9314.099623
 784.005820, 9325.472710
 784.337858, 9336.843856
 784.670352, 9348.213974
 785.003191, 9359.593938
 785.333454, 9370.953888
 785.666370, 9382.269361
 785.999034, 9393.643843
 786.332839, 9405.017759
 786.667674, 9416.424720
 787.001570, 9427.843688
 787.337189, 9439.250242
 787.671885, 9450.686095
 788.007947, 9462.106574
 788.343023, 9473.546768
 788.679697, 9484.972147
 789.016387, 9496.432150
 789.353037, 9507.886994
 789.690854, 9519.346399
 790.028561, 9530.828407
 790.366997, 9542.309094
 790.706053, 9553.808197
 791.046119, 9565.326534
 791.386438, 9576.866706
 791.727725, 9588.416561
 792.068433, 9599.979417
 792.409917, 9611.529564
 792.478322, 9620.577550
 792.517043, 9622.619362
 792.537470, 9623.761257
 792.540633, 9624.293449
 792.544317, 9624.405291
 792.545586, 9624.507717
 792.546314, 9624.545692
 792.547813, 9624.577428
 792.549170, 9624.626860
 792.560454, 9624.764268
 792.602599, 9625.430518
 792.710364, 9627.461339
 792.968746, 9632.495107
 793.308340, 9641.984283
 793.649570, 9653.484179
 793.990955, 9665.020105
 794.334073, 9676.570044
 794.677987, 9688.164148
 795.020260, 9691.307640
 795.364633, 9694.467224
 795.709446, 9697.627613
 796.055532, 9700.796427
 796.400918, 9703.955578
 796.746847, 9707.116436
 797.091330, 9710.260828
 797.439004, 9713.431061
 797.787248, 9716.603170
 798.133915, 9719.757607
 798.480964, 9722.912205
 798.828145, 9726.064701
 799.177201, 9729.230863
 799.526346, 9732.394460
 799.875722, 9735.556788
 800.226665, 9738.729882
 800.576269, 9741.887481
 800.926826, 9745.050274
 801.278379, 9748.218619
 801.630599, 9751.389526
 801.981956, 9754.549207
 802.332946, 9757.702145
 802.685633, 9760.866848
 803.038650, 9764.031017
 803.393177, 9767.205202
 803.746221, 9770.362601
 804.100481, 9773.527337
 804.455171, 9776.692368
 804.810269, 9779.857484
 805.166256, 9783.026935
 805.522744, 9786.197256
 805.879410, 9789.365547
 806.236138, 9792.530766
 806.593659, 9795.699392
 806.952638, 9798.877271
 807.312098, 9802.055721
 807.671106, 9805.226485
 808.030503, 9808.396990
 808.390534, 9811.569368
 808.748911, 9814.723484
 809.109274, 9817.891348
 809.471228, 9821.069435
 809.833737, 9824.248598
 810.196989, 9827.430476
 810.560507, 9830.610862
 810.923154, 9833.779817
 811.287743, 9836.961887
 811.651321, 9840.131290
 812.015903, 9843.305581
 812.381838, 9846.487758
 812.747179, 9849.660871
 813.112414, 9852.829172
 813.478450, 9856.000498
 813.847418, 9859.193244
 814.216125, 9862.379754
 814.585292, 9865.566230
 814.955972, 9868.761723
 815.325837, 9871.946164
 815.698011, 9875.146405
 816.068632, 9878.329226
 816.441279, 9881.525345
 816.815069, 9884.727125
 817.188759, 9887.923915
 817.561731, 9891.110420
 817.936075, 9894.304474
 818.311440, 9897.503059
 818.685806, 9900.688931
 819.059638, 9903.866085
 819.434660, 9907.049152
 819.813851, 9910.263311
 820.190397, 9913.450786
 820.565060, 9916.618089
 820.942428, 9919.803990
 821.322288, 9923.006590
 821.701660, 9926.200741
 822.081489, 9929.394373
 822.462259, 9932.591540
 822.844283, 9935.794819
 823.227803, 9939.006195
 823.610931, 9942.209818
 823.995716, 9945.422804
 824.241828, 9947.475500
 824.379097, 9948.619587
 824.765990, 9951.841108
 825.148939, 9955.025282
 825.535918, 9958.238408
 825.923351, 9961.450712
 826.311842, 9964.667167
 826.696734, 9967.849253
 827.084876, 9971.053594
 827.474511, 9974.265595
 827.865902, 9977.487365
 828.257528, 9980.706333
 828.648713, 9983.916944
 829.041268, 9987.134036
 829.435240, 9990.357943
 829.829656, 9993.580664
 830.223337, 9996.792553
 830.619137, 10000.016870
 831.014575, 10003.233358
 831.410969, 10006.452740
 831.810259, 10009.690672
 832.207123, 10012.903995
 832.606641, 10016.133826
 833.004960, 10019.348983
 833.405295, 10022.575392
 833.806479, 10025.803587
 834.208358, 10029.032302
 834.612422, 10032.273432
 835.015193, 10035.499070
 835.420266, 10038.737980
 835.824699, 10041.966585
 836.228430, 10045.184421
 836.634547, 10048.416068
 837.042545, 10051.657398
 837.451211, 10054.898739
 837.859787, 10058.134045
 838.268199, 10061.362742
 838.678257, 10064.599094
 839.091143, 10067.852337
 839.503531, 10071.096221
 839.913722, 10074.317409
 840.327181, 10077.558802
 840.741842, 10080.804110
 841.155181, 10084.033567
 841.570043, 10087.269401
 841.988324, 10090.526284
 842.405849, 10093.771645
 842.824130, 10097.017242
 843.244868, 10100.276193
 843.665787, 10103.530814
 844.086451, 10106.777719
 844.509440, 10110.036779
 844.931915, 10113.286080
 845.356665, 10116.547013
 845.780195, 10119.792740
 846.201759, 10123.017584
 846.627727, 10126.270222
 847.051793, 10129.502445
 847.479909, 10132.759568
 847.908480, 10136.014132
 848.336497, 10139.258480
 848.768140, 10142.524215
 849.197134, 10145.763841
 849.627247, 10149.005826
 850.059323, 10152.256472
 850.494462, 10155.523936
 850.928488, 10158.776811
 851.363461, 10162.030526
 851.799069, 10165.282720
 852.236170, 10168.539725
 852.674209, 10171.797370
 853.112655, 10175.051643
 853.552647, 10178.310969
 853.990829, 10181.550476
 854.431277, 10184.800284
 854.873327, 10188.055399
 855.314808, 10191.299806
 855.757177, 10194.544201
 856.204987, 10197.821820
 856.648605, 10201.062127
 857.092979, 10204.301323
 857.537479, 10207.534808
 857.982913, 10210.768414
 858.432534, 10214.025635
 858.881689, 10217.272671
 859.332764, 10220.526736
 859.781322, 10223.755822
 860.230861, 10226.985140
 860.682259, 10230.220921
 861.138735, 10233.486081
 861.592531, 10236.725051
 862.050110, 10239.983946
 862.508068, 10243.238401
 862.966584, 10246.489659
 863.424969, 10249.732832
 863.883692, 10252.971210
 864.343997, 10256.213532
 864.806348, 10259.462962
 865.267441, 10262.696262
 865.730754, 10265.937789
 866.192766, 10269.162882
 866.659115, 10272.410806
 867.127012, 10275.661993
 867.596568, 10278.917135
 868.063397, 10282.145829
 868.531464, 10285.375542
 869.003061, 10288.621964
 869.474690, 10291.860907
 869.946228, 10295.091532
 870.417133, 10298.310133
 870.892822, 10301.553617
 871.369229, 10304.794126
 871.846001, 10308.029216
 872.321320, 10311.246582
 872.800908, 10314.484863
 873.281072, 10317.718997
 873.760945, 10320.943136
 874.242469, 10324.170275
 874.725379, 10327.398560
 875.208324, 10330.618917
 875.692177, 10333.837127
 876.178127, 10337.061017
 876.664285, 10340.277995
 877.151312, 10343.492389
 877.638437, 10346.699084
 878.125590, 10349.897603
 878.617736, 10353.120407
 879.108087, 10356.322952
 879.600919, 10359.533144
 880.092396, 10362.725962
 880.585968, 10365.923776
 881.079069, 10369.109920
 881.579020, 10372.331523
 882.074723, 10375.516994
 882.574431, 10378.719361
 883.072548, 10381.902686
 883.572862, 10385.091164
 884.072144, 10388.264170
 884.572938, 10391.437854
 885.074943, 10394.610221
 885.580473, 10397.795762
 886.087434, 10400.981138
 886.592542, 10404.145717
 887.095042, 10407.284880
 887.599213, 10410.425384
 888.108351, 10413.587557
 888.618707, 10416.747942
 889.129283, 10419.900316
 889.642605, 10423.060177
 890.155486, 10426.207834
 890.664578, 10429.322856
 891.180352, 10432.469217
 891.694183, 10435.594169
 892.211233, 10438.729047
 892.724237, 10441.829830
 893.244147, 10444.962624
 893.767112, 10448.103929
 894.289416, 10451.231354
 894.813056, 10454.356826
 895.335292, 10457.463988
 895.861597, 10460.585309
 896.387045, 10463.691473
 896.909365, 10466.769173
 897.436695, 10469.866283
 897.969820, 10472.987106
 898.498884, 10476.073875
 899.030319, 10479.164169
 899.557979, 10482.222272
 900.088296, 10485.285483
 900.624412, 10488.371705
 901.157942, 10491.432560
 901.691203, 10494.481412
 902.225025, 10497.522996
 902.762212, 10500.573158
 903.302523, 10503.630334
 903.842455, 10506.674602
 904.385183, 10509.723792
 904.925423, 10512.748195
 905.468792, 10515.779228
 906.005951, 10518.764882
 906.552134, 10521.789736
 907.094493, 10524.782463
 907.637292, 10527.766697
 908.183858, 10530.760590
 908.736697, 10533.777545
 909.285137, 10536.759265
 909.831594, 10539.719072
 910.381724, 10542.687536
 910.930091, 10545.635256
 911.484163, 10548.602251
 912.033376, 10551.531910
 912.588547, 10554.481901
 913.141240, 10557.407274
 913.696685, 10560.335698
 914.247542, 10563.228513
 914.805780, 10566.148490
 915.363350, 10569.053307
 915.922595, 10571.955124
 916.489566, 10574.885037
 917.050207, 10577.770352
 917.610595, 10580.642551
 918.173724, 10583.516885
 918.738099, 10586.385589
 919.302625, 10589.243045
 919.864504, 10592.075160
 920.430019, 10594.913565
 920.999691, 10597.760614
 921.562004, 10600.558852
 922.133347, 10603.389769
 922.708153, 10606.225365
 923.284672, 10609.056834
 923.856378, 10611.852219
 924.432927, 10614.658721
 925.015008, 10617.479343
 925.584987, 10620.228841
 926.161070, 10622.995229
 926.739502, 10625.760193
 927.318259, 10628.513956
 927.898322, 10631.261120
 928.479857, 10634.002379
 929.058662, 10636.717951
 929.640083, 10639.432916
 930.217495, 10642.116379
 930.802014, 10644.819882
 931.384629, 10647.501573
 931.968263, 10650.174924
 932.554556, 10652.847311
 933.139283, 10655.499437
 933.724097, 10658.138836
 934.312121, 10660.779486
 934.902001, 10663.415127
 935.490696, 10666.032145
 936.083018, 10668.651828
 936.673558, 10671.250191
 937.265079, 10673.839411
 937.860485, 10676.432018
 938.451603, 10678.992439
 939.045076, 10681.549495
 939.638446, 10684.092517
 940.232606, 10686.625303
 940.832680, 10689.169450
 941.425387, 10691.668693
 942.025814, 10694.186634
 942.618353, 10696.657809
 943.222588, 10699.163761
 943.824548, 10701.646205
 944.422720, 10704.099112
 945.028845, 10706.570471
 945.630913, 10709.011164
 946.241438, 10711.471768
 946.849127, 10713.906552
 947.459312, 10716.336892
 948.067687, 10718.745601
 948.675126, 10721.136231
 949.282436, 10723.511985
 949.892751, 10725.885015
 950.501233, 10728.236462
 951.111479, 10730.580221
 951.726616, 10732.928055
 952.339847, 10735.253909
 952.953351, 10737.566093
 953.565823, 10739.859716
 954.177985, 10742.137520
 954.794851, 10744.417994
 955.415311, 10746.696731
 956.028206, 10748.932881
 956.636911, 10751.139175
 957.250538, 10753.348609
 957.874645, 10755.580630
 958.488167, 10757.759900
 959.116916, 10759.977925
 959.738366, 10762.154948
 960.352399, 10764.291081
 960.969994, 10766.424660
 961.587636, 10768.543397
 962.209505, 10770.661475
 962.830711, 10772.762095
 963.452594, 10774.849788
 964.072957, 10776.917199
 964.693170, 10778.968948
 965.318310, 10781.021651
 965.947323, 10783.071515
 966.573608, 10785.096977
 967.195553, 10787.093084
 967.821084, 10789.085291
 968.452357, 10791.080116
 969.085996, 10793.066582
 969.717968, 10795.032009
 970.345444, 10796.967828
 970.977716, 10798.902689
 971.609439, 10800.820066
 972.242743, 10802.726384
 972.874263, 10804.611514
 973.512161, 10806.499640
 974.144581, 10808.355632
 974.782533, 10810.211795
 975.422936, 10812.058853
 976.058938, 10813.877112
 976.697217, 10815.685744
 977.337808, 10817.484664
 977.978709, 10819.268148
 978.616873, 10821.027800
 979.252910, 10822.765485
 979.901759, 10824.521602
 980.550806, 10826.261508
 981.191991, 10827.963888
 981.840950, 10829.670251
 982.486548, 10831.351145
 983.062022, 10832.835478
