Time, Horizontal Forces
   0.000000, 68402.939535
   0.000000, 68402.677985
   0.000006, 68401.738943
   0.000054, 68399.367567
   0.001226, 68385.681435
   0.005208, 68367.310235
   0.012180, 68348.426575
   0.022034, 68329.605054
   0.034834, 68310.727063
   0.050646, 68291.750633
   0.069385, 68272.799754
   0.091116, 68253.812714
   0.116078, 68234.630663
   0.144283, 68215.306244
   0.175647, 68195.930201
   0.210347, 68176.421486
   0.247870, 68157.067162
   0.289132, 68137.413362
   0.334020, 68117.571718
   0.382009, 68097.788620
   0.433144, 68078.037600
   0.487976, 68058.119070
   0.546808, 68037.961031
   0.610573, 68017.307030
   0.678004, 67996.612746
   0.749448, 67975.786369
   0.825692, 67954.633482
   0.904702, 67933.725294
   0.988142, 67912.618714
   1.075992, 67891.344144
   1.168868, 67869.782032
   1.266739, 67847.973454
   1.367491, 67826.391742
   1.474305, 67804.368256
   1.587052, 67781.976180
   1.703862, 67759.606984
   1.826705, 67736.900630
   1.954031, 67714.163379
   2.087747, 67691.075231
   2.228970, 67667.486254
   2.372548, 67644.264404
   2.522632, 67620.735797
   2.679805, 67596.841055
   2.841946, 67572.920818
   3.012001, 67548.562038
   3.187568, 67524.131474
   3.369605, 67499.507982
   3.561334, 67474.289451
   3.758829, 67449.019782
   3.960707, 67423.873757
   4.172858, 67398.136807
   4.387173, 67372.800801
   4.613044, 67346.767398
   4.846684, 67320.508433
   5.080836, 67294.827267
   5.328148, 67268.345287
   5.582063, 67241.796199
   5.842758, 67215.167272
   6.109030, 67188.583223
   6.390221, 67161.139815
   6.673104, 67134.142402
   6.972224, 67106.219521
   7.278258, 67078.273362
   7.589991, 67050.413489
   7.912451, 67022.199637
   8.242704, 66993.902870
   8.582706, 66965.366397
   8.933889, 66936.488382
   9.291451, 66907.672828
   9.660467, 66878.519637
  10.036340, 66849.401552
  10.421097, 66820.164431
  10.816838, 66790.660525
  11.228745, 66760.529551
  11.648507, 66730.397911
  12.074036, 66700.412047
  12.515173, 66669.889774
  12.964179, 66639.381460
  13.423002, 66608.758068
  13.895445, 66577.778925
  14.381103, 66546.488858
  14.873667, 66515.300436
  15.372599, 66484.242361
  15.885375, 66452.854849
  16.413703, 66421.052761
  16.948265, 66389.404006
  17.496454, 66357.474657
  18.061617, 66325.088497
  18.635411, 66292.734441
  19.229062, 66259.793617
  19.828899, 66227.034850
  20.445826, 66193.868682
  21.066362, 66161.022406
  21.703470, 66127.811618
  22.354490, 66094.388759
  23.024499, 66060.509062
  23.698244, 66026.947608
  24.387530, 65993.115857
  25.088776, 65959.198064
  25.117278, 65957.829881
  25.204813, 65953.632848
  25.215389, 65953.126265
  25.217400, 65953.029969
  25.219797, 65952.915160
  25.220499, 65952.881541
  25.220625, 65952.875512
  25.220702, 65952.871798
  25.220792, 65952.866131
  25.221697, 65952.809458
  25.230752, 65952.242732
  25.274522, 65949.504697
  25.415966, 65940.673533
  25.802349, 65916.679046
  26.472008, 65875.532360
  27.136488, 65835.236730
  27.809638, 65794.936569
  28.499724, 65754.147366
  29.192980, 65713.686483
  29.901402, 65672.855447
  30.618349, 65632.044243
  31.347197, 65591.064313
  32.088296, 65549.903130
  32.845610, 65508.351803
  33.610900, 65466.869046
  34.388540, 65425.220235
  35.176717, 65383.507353
  35.978134, 65341.592924
  36.795132, 65299.364371
  37.620406, 65257.204386
  38.455126, 65215.052561
  39.306604, 65172.546483
  40.173925, 65129.743814
  41.051509, 65086.926055
  41.937183, 65044.198688
  42.838248, 65001.213155
  43.750245, 64958.187865
  44.677091, 64914.943133
  45.618379, 64871.505584
  46.573272, 64827.920168
  47.545030, 64784.046108
  48.531676, 64739.981233
  49.522424, 64696.206471
  50.545311, 64651.494244
  51.566421, 64607.334089
  52.593496, 64563.379892
  53.648233, 64518.711946
  54.715513, 64473.983451
  55.801741, 64428.932758
  56.897089, 64383.971923
  58.005808, 64338.927162
  59.122356, 64294.023491
  60.256824, 64248.857826
  61.412241, 64203.319898
  62.574501, 64157.969288
  63.753757, 64112.410892
  64.951577, 64066.591927
  66.169197, 64020.474269
  67.396499, 63974.445021
  68.632369, 63928.543565
  69.892273, 63882.200924
  71.174402, 63835.496113
  72.465644, 63788.911104
  73.766970, 63742.408770
  75.086477, 63695.702269
  76.419443, 63648.962959
  77.769412, 63602.070044
  79.136448, 63555.026338
  80.524081, 63507.717063
  81.920471, 63460.548439
  83.331621, 63413.317420
  84.764137, 63365.808367
  86.206330, 63318.412074
  87.668521, 63270.791670
  89.158850, 63222.692422
  90.655615, 63174.819013
  92.174165, 63126.681834
  93.701946, 63078.681375
  95.251615, 63030.422440
  96.816520, 62982.117041
  98.398557, 62933.709446
  99.994870, 62885.289349
 101.613219, 62836.625584
 103.252239, 62787.765753
 103.583892, 62777.930241
 103.801931, 62771.473336
 103.948145, 62767.147558
 104.062875, 62763.755522
 104.156593, 62760.986223
 104.239910, 62758.525423
 104.304493, 62756.618659
 104.357876, 62755.043037
 104.417485, 62753.284192
 104.471323, 62751.696076
 104.481529, 62751.395055
 104.493736, 62751.035055
 104.507622, 62750.625584
 104.510885, 62750.529346
 104.517103, 62750.345992
 104.518810, 62750.295674
 104.519652, 62750.270847
 104.520228, 62750.253874
 104.520631, 62750.241977
 104.520759, 62750.237825
 104.520881, 62750.233160
 104.522106, 62750.186505
 104.533785, 62749.741557
 104.603681, 62747.079261
 104.897754, 62735.889145
 105.942511, 62696.274694
 107.472856, 62638.639619
 108.978526, 62582.379369
 110.502935, 62525.859658
 112.042803, 62469.207633
 113.584332, 62412.929093
 115.147503, 62356.295360
 116.725448, 62299.561475
 118.316763, 62242.780562
 119.921712, 62185.945350
 121.538098, 62129.134972
 123.172334, 62072.126920
 124.824848, 62014.911862
 126.489157, 61957.717279
 128.166270, 61900.509442
 129.855950, 61843.297646
 131.563851, 61785.893536
 133.280955, 61728.602125
 135.018392, 61671.054589
 136.769697, 61613.469340
 138.533868, 61555.880655
 140.312013, 61498.253897
 142.112552, 61440.320871
 143.933853, 61382.141043
 145.769592, 61323.920589
 147.612566, 61265.887370
 149.477314, 61207.585401
 151.365477, 61148.970620
 153.256031, 61090.696419
 155.159059, 61032.449062
 157.086051, 60973.881024
 159.021640, 60915.462122
 160.978865, 60856.800807
 162.949349, 60798.151568
 164.938795, 60739.347166
 166.947190, 60680.392135
 168.967404, 60621.497783
 171.010648, 60562.340308
 173.054425, 60503.570853
 175.131118, 60444.260774
 177.217525, 60385.077945
 179.322177, 60325.781290
 181.446169, 60266.343541
 183.581283, 60206.996210
 185.728530, 60147.710671
 187.901315, 60088.120267
 190.093240, 60028.405788
 192.294777, 59968.827719
 194.517173, 59909.083022
 196.755201, 59849.315081
 199.008325, 59789.539592
 201.279946, 59729.668336
 203.563899, 59669.865117
 205.872024, 59609.822595
 208.200596, 59549.642382
 210.541944, 59489.524511
 212.903013, 59429.292200
 215.278975, 59369.070651
 217.670972, 59308.832000
 220.083695, 59248.460600
 222.512690, 59188.070375
 224.962685, 59127.546286
 227.427946, 59067.032193
 229.904580, 59006.623589
 232.392684, 58946.317185
 234.911130, 58885.658930
 237.446279, 58824.981869
 239.997540, 58764.301398
 242.564511, 58703.628053
 245.152359, 58642.841758
 245.675619, 58630.596735
 246.035474, 58622.184521
 246.285447, 58616.345227
 246.323879, 58615.447778
 246.363886, 58614.513621
 246.406558, 58613.517354
 246.457443, 58612.329472
 246.460431, 58612.259716
 246.462208, 58612.218247
 246.463531, 58612.187357
 246.464456, 58612.165779
 246.465080, 58612.151217
 246.465346, 58612.144613
 246.465605, 58612.136646
 246.468192, 58612.056971
 246.493218, 58611.286318
 246.692071, 58605.164682
 247.407140, 58583.176780
 249.878101, 58507.500271
 252.171543, 58437.677586
 254.480863, 58367.771321
 256.811501, 58297.620864
 259.148086, 58227.690287
 261.498542, 58157.741931
 263.871338, 58087.527447
 266.253386, 58017.436474
 268.650711, 57947.292449
 271.067284, 57876.982204
 273.491307, 57806.850155
 275.921883, 57736.920270
 278.368909, 57666.908014
 280.840727, 57596.579294
 283.320441, 57526.417270
 285.820501, 57456.071072
 288.332124, 57385.790074
 290.856162, 57315.550749
 293.394041, 57245.314276
 295.948057, 57175.018789
 298.516010, 57104.726528
 301.106172, 57034.214119
 303.709962, 56963.718040
 306.324348, 56893.320670
 308.953225, 56822.917590
 311.598494, 56752.459643
 314.261166, 56681.922229
 316.943359, 56611.252171
 319.634382, 56540.732285
 322.347078, 56470.027529
 325.062053, 56399.643527
 327.797645, 56329.104758
 330.552031, 56258.461575
 333.314942, 56187.978140
 336.097290, 56117.376968
 338.902614, 56046.572100
 341.719176, 55975.861902
 344.551980, 55905.121445
 347.394131, 55834.523309
 350.251980, 55763.909958
 353.123780, 55693.325662
 356.017104, 55622.586563
 358.925257, 55551.858675
 361.846893, 55481.175578
 364.774378, 55410.721037
 367.733163, 55339.884994
 370.698635, 55269.259268
 373.676925, 55198.696946
 376.675422, 55128.024572
 379.693678, 55057.255553
 382.725635, 54986.533612
 385.773368, 54915.811175
 388.833701, 54845.162635
 391.914288, 54774.412747
 395.008086, 54703.724844
 398.113991, 54633.124238
 401.240823, 54562.411859
 404.384423, 54491.683985
 407.538109, 54421.091299
 410.714331, 54350.356411
 413.911140, 54279.525800
 417.116820, 54208.859761
 420.341762, 54138.129761
 423.577625, 54067.519516
 426.831733, 53996.869859
 430.099642, 53926.278409
 433.384318, 53855.681899
 436.684611, 53785.106192
 439.999145, 53714.581437
 443.340562, 53643.841109
 446.696369, 53573.152185
 450.069577, 53502.452212
 453.451077, 53431.932063
 456.847793, 53361.447018
 460.263720, 53290.915496
 463.701138, 53220.292684
 464.392721, 53206.126278
 466.953019, 53153.803650
 466.980732, 53153.238354
 466.990979, 53153.029355
 466.993432, 53152.979313
 467.011721, 53152.601911
 467.028215, 53152.261545
 467.136889, 53150.019157
 467.761878, 53137.129909
 470.660633, 53077.499505
 474.110439, 53006.854808
 477.586534, 52936.021319
 481.083559, 52865.111481
 484.596371, 52794.231191
 488.134934, 52723.181695
 491.681768, 52652.315110
 495.241351, 52581.541227
 498.831347, 52510.511289
 502.428957, 52439.678108
 506.042146, 52368.884380
 509.678596, 52297.981381
 513.340950, 52226.920819
 517.004649, 52156.179280
 520.694132, 52085.284945
 524.401566, 52014.390719
 528.122189, 51943.588269
 531.853602, 51872.922853
 535.613782, 51802.055766
 539.389131, 51731.245615
 543.177905, 51660.525311
 546.992657, 51589.662230
 550.816606, 51518.969143
 554.649850, 51448.443119
 558.504525, 51377.861344
 562.379052, 51307.254546
 566.268903, 51236.706317
 570.184398, 51166.031228
 574.108871, 51095.531056
 578.054830, 51024.981459
 582.012874, 50954.551318
 585.996286, 50884.005498
 589.989118, 50813.627372
 593.996932, 50743.318485
 598.027629, 50672.941484
 602.073567, 50602.631106
 606.142848, 50532.247858
 610.224420, 50461.983853
 614.328908, 50391.657066
 618.447908, 50321.412629
 622.592845, 50251.057200
 626.754922, 50180.741860
 630.928687, 50110.558813
 635.118898, 50040.428012
 639.328040, 49970.308723
 643.552052, 49900.269217
 646.210443, 49856.356437
 647.795480, 49830.234807
 652.051720, 49760.243577
 656.332055, 49689.474724
 660.636934, 49617.775120
 664.964739, 49545.196548
 669.314999, 49471.780939
 673.684524, 49397.601891
 678.067216, 49322.781709
 682.479014, 49247.100895
 686.908412, 49170.757823
 691.352986, 49093.826160
 695.816369, 49016.274510
 700.305585, 48938.012613
 704.799839, 48859.386784
 709.316982, 48780.180346
 713.850293, 48700.482322
 718.397976, 48620.353675
 722.974688, 48539.611413
 727.555349, 48458.620491
 732.156064, 48377.217711
 736.768221, 48295.510043
 741.385338, 48213.643365
 746.021588, 48131.449597
 750.665623, 48049.073198
 755.320205, 47966.522845
 760.004774, 47883.523493
 764.688959, 47800.487915
 769.387760, 47717.309663
 769.707060, 47697.018628
 770.026659, 47691.403077
 770.346517, 47685.785445
 770.666469, 47680.168258
 770.985634, 47674.564552
 771.305846, 47668.951386
 771.626541, 47663.330574
 771.946328, 47657.723716
 772.266659, 47652.115048
 772.588248, 47646.489606
 772.909830, 47640.862857
 773.230806, 47635.247552
 773.552743, 47629.623719
 773.875332, 47623.990407
 774.197573, 47618.362745
 774.519804, 47612.739432
 774.843280, 47607.101772
 775.166073, 47601.472499
 775.489821, 47595.835345
 775.814011, 47590.191882
 776.138524, 47584.545598
 776.462115, 47578.914289
 776.787144, 47573.269402
 777.112609, 47567.616764
 777.437848, 47561.969104
 777.763689, 47556.317239
 778.088891, 47550.675579
 778.414358, 47545.035989
 778.740419, 47539.390801
 779.067289, 47533.735968
 779.394840, 47528.072544
 779.721906, 47522.417126
 780.049897, 47516.754344
 780.376949, 47511.105005
 780.705209, 47505.446109
 781.034164, 47499.777244
 781.362969, 47494.111848
 781.692620, 47488.439281
 782.021723, 47482.775175
 782.350646, 47477.119394
 782.681143, 47471.446724
 783.011000, 47465.781269
 783.341819, 47460.109030
 783.673760, 47454.422221
 784.005820, 47448.733995
 784.337858, 47443.049835
 784.670352, 47437.363791
 785.003191, 47431.675704
 785.333454, 47426.025518
 785.666370, 47420.352934
 785.999034, 47414.678652
 786.332839, 47408.994284
 786.667674, 47403.296417
 787.001570, 47397.611987
 787.337189, 47391.912284
 787.671885, 47386.223356
 788.007947, 47380.524038
 788.343023, 47374.837632
 788.679697, 47369.138087
 789.016387, 47363.437297
 789.353037, 47357.741720
 789.690854, 47352.035547
 790.028561, 47346.331473
 790.366997, 47340.622985
 790.706053, 47334.908568
 791.046119, 47329.183523
 791.386438, 47323.456492
 791.727725, 47317.720844
 792.068433, 47311.994413
 792.409917, 47306.265009
 792.478322, 47304.124960
 792.517043, 47303.367506
 792.537470, 47302.958361
 792.540633, 47302.842538
 792.544317, 47302.782639
 792.545586, 47302.752562
 792.546314, 47302.738387
 792.547813, 47302.717552
 792.549170, 47302.695672
 792.560454, 47302.554153
 792.602599, 47302.003021
 792.710364, 47300.545776
 792.968746, 47297.029464
 793.308340, 47291.987615
 793.649570, 47286.635135
 793.990955, 47281.279558
 794.334073, 47275.907332
 794.677987, 47270.524049
 795.020260, 47266.418788
 795.364633, 47262.293139
 795.709446, 47258.167071
 796.055532, 47254.030636
 796.400918, 47249.907445
 796.746847, 47245.782655
 797.091330, 47241.679976
 797.439004, 47237.544210
 797.787248, 47233.406631
 798.133915, 47229.292727
 798.480964, 47225.179237
 798.828145, 47221.069113
 799.177201, 47216.941797
 799.526346, 47212.818451
 799.875722, 47208.697385
 800.226665, 47204.562917
 800.576269, 47200.449261
 800.926826, 47196.329464
 801.278379, 47192.203059
 801.630599, 47188.073943
 801.981956, 47183.960067
 802.332946, 47179.855590
 802.685633, 47175.736418
 803.038650, 47171.618562
 803.393177, 47167.488294
 803.746221, 47163.380487
 804.100481, 47159.263755
 804.455171, 47155.147258
 804.810269, 47151.031270
 805.166256, 47146.910263
 805.522744, 47142.788746
 805.879410, 47138.670486
 806.236138, 47134.556835
 806.593659, 47130.439375
 806.952638, 47126.310511
 807.312098, 47122.181523
 807.671106, 47118.063138
 808.030503, 47113.945706
 808.390534, 47109.826458
 808.748911, 47105.731532
 809.109274, 47101.619371
 809.471228, 47097.494554
 809.833737, 47093.368957
 810.196989, 47089.240454
 810.560507, 47085.114502
 810.923154, 47081.003992
 811.287743, 47076.877085
 811.651321, 47072.767217
 812.015903, 47068.651621
 812.381838, 47064.526413
 812.747179, 47060.413566
 813.112414, 47056.307564
 813.478450, 47052.198250
 813.847418, 47048.061792
 814.216125, 47043.934028
 814.585292, 47039.806919
 814.955972, 47035.668746
 815.325837, 47031.545495
 815.698011, 47027.402401
 816.068632, 47023.282468
 816.441279, 47019.145934
 816.815069, 47015.002686
 817.188759, 47010.866507
 817.561731, 47006.744245
 817.936075, 47002.612825
 818.311440, 46998.476153
 818.685806, 46994.356530
 819.059638, 46990.248782
 819.434660, 46986.133991
 819.813851, 46981.979616
 820.190397, 46977.860338
 820.565060, 46973.767726
 820.942428, 46969.651682
 821.322288, 46965.514669
 821.701660, 46961.389174
 822.081489, 46957.264952
 822.462259, 46953.136766
 822.844283, 46949.001294
 823.227803, 46944.855974
 823.610931, 46940.721266
 823.995716, 46936.575079
 824.241828, 46933.926502
 824.379097, 46932.450402
 824.765990, 46928.294414
 825.148939, 46924.187203
 825.535918, 46920.043247
 825.923351, 46915.900955
 826.311842, 46911.753913
 826.696734, 46907.651776
 827.084876, 46903.521547
 827.474511, 46899.382042
 827.865902, 46895.230550
 828.257528, 46891.083270
 828.648713, 46886.947355
 829.041268, 46882.803689
 829.435240, 46878.651847
 829.829656, 46874.502131
 830.223337, 46870.366959
 830.619137, 46866.216385
 831.014575, 46862.076484
 831.410969, 46857.933454
 831.810259, 46853.767152
 832.207123, 46849.633108
 832.606641, 46845.478423
 833.004960, 46841.343207
 833.405295, 46837.194112
 833.806479, 46833.043314
 834.208358, 46828.892441
 834.612422, 46824.726204
 835.015193, 46820.580475
 835.420266, 46816.418280
 835.824699, 46812.269922
 836.228430, 46808.135987
 836.634547, 46803.984897
 837.042545, 46799.821964
 837.451211, 46795.659607
 837.859787, 46791.505590
 838.268199, 46787.360646
 838.678257, 46783.206464
 839.091143, 46779.031190
 839.503531, 46774.868519
 839.913722, 46770.735555
 840.327181, 46766.577251
 840.741842, 46762.414512
 841.155181, 46758.272688
 841.570043, 46754.123266
 841.988324, 46749.947440
 842.405849, 46745.786972
 842.824130, 46741.626785
 843.244868, 46737.450066
 843.665787, 46733.279484
 844.086451, 46729.119369
 844.509440, 46724.944264
 844.931915, 46720.782244
 845.356665, 46716.605907
 845.780195, 46712.449622
 846.201759, 46708.320650
 846.627727, 46704.156667
 847.051793, 46700.019391
 847.479909, 46695.850818
 847.908480, 46691.686096
 848.336497, 46687.535019
 848.768140, 46683.357154
 849.197134, 46679.213261
 849.627247, 46675.066918
 850.059323, 46670.910066
 850.494462, 46666.732283
 850.928488, 46662.573722
 851.363461, 46658.414655
 851.799069, 46654.258100
 852.236170, 46650.095962
 852.674209, 46645.933572
 853.112655, 46641.776055
 853.552647, 46637.612649
 853.990829, 46633.475117
 854.431277, 46629.324986
 854.873327, 46625.168640
 855.314808, 46621.026522
 855.757177, 46616.884974
 856.204987, 46612.701578
 856.648605, 46608.566360
 857.092979, 46604.433108
 857.537479, 46600.307691
 857.982913, 46596.182665
 858.432534, 46592.028067
 858.881689, 46587.887007
 859.332764, 46583.737531
 859.781322, 46579.620451
 860.230861, 46575.503612
 860.682259, 46571.379075
 861.138735, 46567.217634
 861.592531, 46563.090114
 862.050110, 46558.937745
 862.508068, 46554.791575
 862.966584, 46550.650018
 863.424969, 46546.519296
 863.883692, 46542.395213
 864.343997, 46538.266641
 864.806348, 46534.129550
 865.267441, 46530.013525
 865.730754, 46525.887554
 866.192766, 46521.783025
 866.659115, 46517.649966
 867.127012, 46513.513282
 867.596568, 46509.372093
 868.063397, 46505.265071
 868.531464, 46501.157271
 869.003061, 46497.028739
 869.474690, 46492.910236
 869.946228, 46488.802823
 870.417133, 46484.711208
 870.892822, 46480.588472
 871.369229, 46476.470032
 871.846001, 46472.358987
 872.321320, 46468.270970
 872.800908, 46464.156884
 873.281072, 46460.048571
 873.760945, 46455.953456
 874.242469, 46451.855029
 874.725379, 46447.755645
 875.208324, 46443.666824
 875.692177, 46439.581222
 876.178127, 46435.488900
 876.664285, 46431.405843
 877.151312, 46427.326551
 877.638437, 46423.257513
 878.125590, 46419.199330
 878.617736, 46415.110815
 879.108087, 46411.048481
 879.600919, 46406.976923
 880.092396, 46402.927873
 880.585968, 46398.872957
 881.079069, 46394.833305
 881.579020, 46390.749166
 882.074723, 46386.711297
 882.574431, 46382.652475
 883.072548, 46378.618246
 883.572862, 46374.577944
 884.072144, 46370.557699
 884.572938, 46366.537045
 885.074943, 46362.518506
 885.580473, 46358.483727
 886.087434, 46354.449604
 886.592542, 46350.442261
 887.095042, 46346.467535
 887.599213, 46342.491539
 888.108351, 46338.488541
 888.618707, 46334.488237
 889.129283, 46330.498501
 889.642605, 46326.499714
 890.155486, 46322.516793
 890.664578, 46318.575580
 891.180352, 46314.595131
 891.694183, 46310.642175
 892.211233, 46306.677074
 892.724237, 46302.755496
 893.244147, 46298.793836
 893.767112, 46294.821818
 894.289416, 46290.867751
 894.813056, 46286.916548
 895.335292, 46282.988883
 895.861597, 46279.043709
 896.387045, 46275.118078
 896.909365, 46271.228796
 897.436695, 46267.315362
 897.969820, 46263.372344
 898.498884, 46259.472723
 899.030319, 46255.569019
 899.557979, 46251.706337
 900.088296, 46247.837560
 900.624412, 46243.940078
 901.157942, 46240.074985
 901.691203, 46236.225395
 902.225025, 46232.385323
 902.762212, 46228.534763
 903.302523, 46224.675686
 903.842455, 46220.833239
 904.385183, 46216.984910
 904.925423, 46213.168190
 905.468792, 46209.343426
 906.005951, 46205.576237
 906.552134, 46201.759900
 907.094493, 46197.984404
 907.637292, 46194.219924
 908.183858, 46190.443560
 908.736697, 46186.638407
 909.285137, 46182.877988
 909.831594, 46179.145489
 910.381724, 46175.402357
 910.930091, 46171.685658
 911.484163, 46167.944931
 912.033376, 46164.251545
 912.588547, 46160.532791
 913.141240, 46156.845331
 913.696685, 46153.154281
 914.247542, 46149.508360
 914.805780, 46145.828453
 915.363350, 46142.167892
 915.922595, 46138.511349
 916.489566, 46134.819640
 917.050207, 46131.184353
 917.610595, 46127.565816
 918.173724, 46123.944804
 918.738099, 46120.331099
 919.302625, 46116.731772
 919.864504, 46113.164565
 920.430019, 46109.589633
 920.999691, 46106.004008
 921.562004, 46102.480041
 922.133347, 46098.915105
 922.708153, 46095.344455
 923.284672, 46091.779177
 923.856378, 46088.259502
 924.432927, 46084.725994
 925.015008, 46081.174869
 925.584987, 46077.713437
 926.161070, 46074.230886
 926.739502, 46070.750269
 927.318259, 46067.283888
 927.898322, 46063.825942
 928.479857, 46060.375553
 929.058662, 46056.957614
 929.640083, 46053.540549
 930.217495, 46050.163239
 930.802014, 46046.760807
 931.384629, 46043.385920
 931.968263, 46040.021618
 932.554556, 46036.658611
 933.139283, 46033.321178
 933.724097, 46029.999830
 934.312121, 46026.676972
 934.902001, 46023.360477
 935.490696, 46020.067467
 936.083018, 46016.771150
 936.673558, 46013.501699
 937.265079, 46010.243787
 937.860485, 46006.981640
 938.451603, 46003.760013
 939.045076, 46000.542633
 939.638446, 45997.342919
 940.232606, 45994.156086
 940.832680, 45990.954953
 941.425387, 45987.810307
 942.025814, 45984.642118
 942.618353, 45981.532748
 943.222588, 45978.379586
 943.824548, 45975.255966
 944.422720, 45972.169467
 945.028845, 45969.059695
 945.630913, 45965.988454
 946.241438, 45962.892090
 946.849127, 45959.828143
 947.459312, 45956.769707
 948.067687, 45953.738403
 948.675126, 45950.729757
 949.282436, 45947.739730
 949.892751, 45944.753021
 950.501233, 45941.793361
 951.111479, 45938.843253
 951.726616, 45935.887883
 952.339847, 45932.960040
 952.953351, 45930.049257
 953.565823, 45927.161686
 954.177985, 45924.293870
 954.794851, 45921.422520
 955.415311, 45918.553179
 956.028206, 45915.737276
 956.636911, 45912.958780
 957.250538, 45910.176132
 957.874645, 45907.364825
 958.488167, 45904.619745
 959.116916, 45901.825616
 959.738366, 45899.082903
 960.352399, 45896.391465
 960.969994, 45893.703000
 961.587636, 45891.032980
 962.209505, 45888.363524
 962.830711, 45885.715797
 963.452594, 45883.084081
 964.072957, 45880.477643
 964.693170, 45877.890653
 965.318310, 45875.302150
 965.947323, 45872.716906
 966.573608, 45870.162108
 967.195553, 45867.644004
 967.821084, 45865.130477
 968.452357, 45862.613289
 969.085996, 45860.106279
 969.717968, 45857.625444
 970.345444, 45855.181598
 970.977716, 45852.738569
 971.609439, 45850.317211
 972.242743, 45847.909403
 972.874263, 45845.527937
 973.512161, 45843.142247
 974.144581, 45840.796717
 974.782533, 45838.450514
 975.422936, 45836.115348
 976.058938, 45833.816115
 976.697217, 45831.528568
 977.337808, 45829.252804
 977.978709, 45826.996056
 978.616873, 45824.768944
 979.252910, 45822.569110
 979.901759, 45820.345390
 980.550806, 45818.141629
 981.191991, 45815.984831
 981.840950, 45813.822400
 982.486548, 45811.691650
 983.062022, 45809.809555
