Time, Horizontal Forces
   0.000000,    0.000000
   0.000000,    0.000000
   0.000006,    0.000000
   0.000054,    0.000000
   0.001226,    0.000000
   0.005208,    0.000000
   0.012180,    0.000000
   0.022034,    0.000000
   0.034834,    0.000000
   0.050646,    0.000000
   0.069385,    0.000000
   0.091116,    0.000000
   0.116078,    0.000000
   0.144283,    0.000000
   0.175647,    0.000000
   0.210347,    0.000000
   0.247870,    0.000000
   0.289132,    0.000000
   0.334020,    0.000000
   0.382009,    0.000000
   0.433144,    0.000000
   0.487976,    0.000000
   0.546808,    0.000000
   0.610573,    0.000000
   0.678004,    0.000000
   0.749448,    0.000000
   0.825692,    0.000000
   0.904702,    0.000000
   0.988142,    0.000000
   1.075992,    0.000000
   1.168868,    0.000000
   1.266739,    0.000000
   1.367491,    0.000000
   1.474305,    0.000000
   1.587052,    0.000000
   1.703862,    0.000000
   1.826705,    0.000000
   1.954031,    0.000000
   2.087747,    0.000000
   2.228970,    0.000000
   2.372548,    0.000000
   2.522632,    0.000000
   2.679805,    0.000000
   2.841946,    0.000000
   3.012001,    0.000000
   3.187568,    0.000000
   3.369605,    0.000000
   3.561334,    0.000000
   3.758829,    0.000000
   3.960707,    0.000000
   4.172858,    0.000000
   4.387173,    0.000000
   4.613044,    0.000000
   4.846684,    0.000000
   5.080836,    0.000000
   5.328148,    0.000000
   5.582063,    0.000000
   5.842758,    0.000000
   6.109030,    0.000000
   6.390221,    0.000000
   6.673104,    0.000000
   6.972224,    0.000000
   7.278258,    0.000000
   7.589991,    0.000000
   7.912451,    0.000000
   8.242704,    0.000000
   8.582706,    0.000000
   8.933889,    0.000000
   9.291451,    0.000000
   9.660467,    0.000000
  10.036340,    0.000000
  10.421097,    0.000000
  10.816838,    0.000000
  11.228745,    0.000000
  11.648507,    0.000000
  12.074036,    0.000000
  12.515173,    0.000000
  12.964179,    0.000000
  13.423002,    0.000000
  13.895445,    0.000000
  14.381103,    0.000000
  14.873667,    0.000000
  15.372599,    0.000000
  15.885375,    0.000000
  16.413703,    0.000000
  16.948265,    0.000000
  17.496454,    0.000000
  18.061617,    0.000000
  18.635411,    0.000000
  19.229062,    0.000000
  19.828899,    0.000000
  20.445826,    0.000000
  21.066362,    0.000000
  21.703470,    0.000000
  22.354490,    0.000000
  23.024499,    0.000000
  23.698244,    0.000000
  24.387530,    0.000000
  25.088776,    0.000000
  25.117278,    0.000000
  25.204813,    0.000000
  25.215389,    0.000000
  25.217400,    0.000000
  25.219797,    0.000000
  25.220499,    0.000000
  25.220625,    0.000000
  25.220702,    0.000000
  25.220792,    0.000000
  25.221697,    0.000000
  25.230752,    0.000000
  25.274522,    0.000000
  25.415966,    0.000000
  25.802349,    0.000000
  26.472008,    0.000000
  27.136488,    0.000000
  27.809638,    0.000000
  28.499724,    0.000000
  29.192980,    0.000000
  29.901402,    0.000000
  30.618349,    0.000000
  31.347197,    0.000000
  32.088296,    0.000000
  32.845610,    0.000000
  33.610900,    0.000000
  34.388540,    0.000000
  35.176717,    0.000000
  35.978134,    0.000000
  36.795132,    0.000000
  37.620406,    0.000000
  38.455126,    0.000000
  39.306604,    0.000000
  40.173925,    0.000000
  41.051509,    0.000000
  41.937183,    0.000000
  42.838248,    0.000000
  43.750245,    0.000000
  44.677091,    0.000000
  45.618379,    0.000000
  46.573272,    0.000000
  47.545030,    0.000000
  48.531676,    0.000000
  49.522424,    0.000000
  50.545311,    0.000000
  51.566421,    0.000000
  52.593496,    0.000000
  53.648233,    0.000000
  54.715513,    0.000000
  55.801741,    0.000000
  56.897089,    0.000000
  58.005808,    0.000000
  59.122356,    0.000000
  60.256824,    0.000000
  61.412241,    0.000000
  62.574501,    0.000000
  63.753757,    0.000000
  64.951577,    0.000000
  66.169197,    0.000000
  67.396499,    0.000000
  68.632369,    0.000000
  69.892273,    0.000000
  71.174402,    0.000000
  72.465644,    0.000000
  73.766970,    0.000000
  75.086477,    0.000000
  76.419443,    0.000000
  77.769412,    0.000000
  79.136448,    0.000000
  80.524081,    0.000000
  81.920471,    0.000000
  83.331621,    0.000000
  84.764137,    0.000000
  86.206330,    0.000000
  87.668521,    0.000000
  89.158850,    0.000000
  90.655615,    0.000000
  92.174165,    0.000000
  93.701946,    0.000000
  95.251615,    0.000000
  96.816520,    0.000000
  98.398557,    0.000000
  99.994870,    0.000000
 101.613219,    0.000000
 103.252239,    0.000000
 103.583892,    0.000000
 103.801931,    0.000000
 103.948145,    0.000000
 104.062875,    0.000000
 104.156593,    0.000000
 104.239910,    0.000000
 104.304493,    0.000000
 104.357876,    0.000000
 104.417485,    0.000000
 104.471323,    0.000000
 104.481529,    0.000000
 104.493736,    0.000000
 104.507622,    0.000000
 104.510885,    0.000000
 104.517103,    0.000000
 104.518810,    0.000000
 104.519652,    0.000000
 104.520228,    0.000000
 104.520631,    0.000000
 104.520759,    0.000000
 104.520881,    0.000000
 104.522106,    0.000000
 104.533785,    0.000000
 104.603681,    0.000000
 104.897754,    0.000000
 105.942511,    0.000000
 107.472856,    0.000000
 108.978526,    0.000000
 110.502935,    0.000000
 112.042803,    0.000000
 113.584332,    0.000000
 115.147503,    0.000000
 116.725448,    0.000000
 118.316763,    0.000000
 119.921712,    0.000000
 121.538098,    0.000000
 123.172334,    0.000000
 124.824848,    0.000000
 126.489157,    0.000000
 128.166270,    0.000000
 129.855950,    0.000000
 131.563851,    0.000000
 133.280955,    0.000000
 135.018392,    0.000000
 136.769697,    0.000000
 138.533868,    0.000000
 140.312013,    0.000000
 142.112552,    0.000000
 143.933853,    0.000000
 145.769592,    0.000000
 147.612566,    0.000000
 149.477314,    0.000000
 151.365477,    0.000000
 153.256031,    0.000000
 155.159059,    0.000000
 157.086051,    0.000000
 159.021640,    0.000000
 160.978865,    0.000000
 162.949349,    0.000000
 164.938795,    0.000000
 166.947190,    0.000000
 168.967404,    0.000000
 171.010648,    0.000000
 173.054425,    0.000000
 175.131118,    0.000000
 177.217525,    0.000000
 179.322177,    0.000000
 181.446169,    0.000000
 183.581283,    0.000000
 185.728530,    0.000000
 187.901315,    0.000000
 190.093240,    0.000000
 192.294777,    0.000000
 194.517173,    0.000000
 196.755201,    0.000000
 199.008325,    0.000000
 201.279946,    0.000000
 203.563899,    0.000000
 205.872024,    0.000000
 208.200596,    0.000000
 210.541944,    0.000000
 212.903013,    0.000000
 215.278975,    0.000000
 217.670972,    0.000000
 220.083695,    0.000000
 222.512690,    0.000000
 224.962685,    0.000000
 227.427946,    0.000000
 229.904580,    0.000000
 232.392684,    0.000000
 234.911130,    0.000000
 237.446279,    0.000000
 239.997540,    0.000000
 242.564511,    0.000000
 245.152359,    0.000000
 245.675619,    0.000000
 246.035474,    0.000000
 246.285447,    0.000000
 246.323879,    0.000000
 246.363886,    0.000000
 246.406558,    0.000000
 246.457443,    0.000000
 246.460431,    0.000000
 246.462208,    0.000000
 246.463531,    0.000000
 246.464456,    0.000000
 246.465080,    0.000000
 246.465346,    0.000000
 246.465605,    0.000000
 246.468192,    0.000000
 246.493218,    0.000000
 246.692071,    0.000000
 247.407140,    0.000000
 249.878101,    0.000000
 252.171543,    0.000000
 254.480863,    0.000000
 256.811501,    0.000000
 259.148086,    0.000000
 261.498542,    0.000000
 263.871338,    0.000000
 266.253386,    0.000000
 268.650711,    0.000000
 271.067284,    0.000000
 273.491307,    0.000000
 275.921883,    0.000000
 278.368909,    0.000000
 280.840727,    0.000000
 283.320441,    0.000000
 285.820501,    0.000000
 288.332124,    0.000000
 290.856162,    0.000000
 293.394041,    0.000000
 295.948057,    0.000000
 298.516010,    0.000000
 301.106172,    0.000000
 303.709962,    0.000000
 306.324348,    0.000000
 308.953225,    0.000000
 311.598494,    0.000000
 314.261166,    0.000000
 316.943359,    0.000000
 319.634382,    0.000000
 322.347078,    0.000000
 325.062053,    0.000000
 327.797645,    0.000000
 330.552031,    0.000000
 333.314942,    0.000000
 336.097290,    0.000000
 338.902614,    0.000000
 341.719176,    0.000000
 344.551980,    0.000000
 347.394131,    0.000000
 350.251980,    0.000000
 353.123780,    0.000000
 356.017104,    0.000000
 358.925257,    0.000000
 361.846893,    0.000000
 364.774378,    0.000000
 367.733163,    0.000000
 370.698635,    0.000000
 373.676925,    0.000000
 376.675422,    0.000000
 379.693678,    0.000000
 382.725635,    0.000000
 385.773368,    0.000000
 388.833701,    0.000000
 391.914288,    0.000000
 395.008086,    0.000000
 398.113991,    0.000000
 401.240823,    0.000000
 404.384423,    0.000000
 407.538109,    0.000000
 410.714331,    0.000000
 413.911140,    0.000000
 417.116820,    0.000000
 420.341762,    0.000000
 423.577625,    0.000000
 426.831733,    0.000000
 430.099642,    0.000000
 433.384318,    0.000000
 436.684611,    0.000000
 439.999145,    0.000000
 443.340562,    0.000000
 446.696369,    0.000000
 450.069577,    0.000000
 453.451077,    0.000000
 456.847793,    0.000000
 460.263720,    0.000000
 463.701138,    0.000000
 464.392721,    0.000000
 466.953019,    0.000000
 466.980732,    0.000000
 466.990979,    0.000000
 466.993432,    0.000000
 467.011721,    0.000000
 467.028215,    0.000000
 467.136889,    0.000000
 467.761878,    0.000000
 470.660633,    0.000000
 474.110439,    0.000000
 477.586534,    0.000000
 481.083559,    0.000000
 484.596371,    0.000000
 488.134934,    0.000000
 491.681768,    0.000000
 495.241351,    0.000000
 498.831347,    0.000000
 502.428957,    0.000000
 506.042146,    0.000000
 509.678596,    0.000000
 513.340950,    0.000000
 517.004649,    0.000000
 520.694132,    0.000000
 524.401566,    0.000000
 528.122189,    0.000000
 531.853602,    0.000000
 535.613782,    0.000000
 539.389131,    0.000000
 543.177905,    0.000000
 546.992657,    0.000000
 550.816606,    0.000000
 554.649850,    0.000000
 558.504525,    0.000000
 562.379052,    0.000000
 566.268903,    0.000000
 570.184398,    0.000000
 574.108871,    0.000000
 578.054830,    0.000000
 582.012874,    0.000000
 585.996286,    0.000000
 589.989118,    0.000000
 593.996932,    0.000000
 598.027629,    0.000000
 602.073567,    0.000000
 606.142848,    0.000000
 610.224420,    0.000000
 614.328908,    0.000000
 618.447908,    0.000000
 622.592845,    0.000000
 626.754922,    0.000000
 630.928687,    0.000000
 635.118898,    0.000000
 639.328040,    0.000000
 643.552052,    0.000000
 646.210443,    0.000000
 647.795480,    0.000000
 652.051720,    0.000000
 656.332055,    0.000000
 660.636934,    0.000000
 664.964739,    0.000000
 669.314999,    0.000000
 673.684524,    0.000000
 678.067216,    0.000000
 682.479014,    0.000000
 686.908412,    0.000000
 691.352986,    0.000000
 695.816369,    0.000000
 700.305585,    0.000000
 704.799839,    0.000000
 709.316982,    0.000000
 713.850293,    0.000000
 718.397976,    0.000000
 722.974688,    0.000000
 727.555349,    0.000000
 732.156064,    0.000000
 736.768221,    0.000000
 741.385338,    0.000000
 746.021588,    0.000000
 750.665623,    0.000000
 755.320205,    0.000000
 760.004774,    0.000000
 764.688959,    0.000000
 769.387760,    0.000000
 769.707060,   10.218571
 770.026659,   20.672229
 770.346517,   31.360066
 770.666469,   42.276705
 770.985634,   53.391420
 771.305846,   64.767608
 771.626541,   76.386779
 771.946328,   88.198187
 772.266659,  100.254497
 772.588248,  112.584092
 772.909830,  125.139820
 773.230806,  137.897612
 773.552743,  150.919486
 773.875332,  164.194480
 774.197573,  177.681790
 774.519804,  191.394871
 774.843280,  205.387866
 775.166073,  219.578196
 775.489821,  234.037534
 775.814011,  248.744371
 776.138524,  263.693825
 776.462115,  278.828007
 776.787144,  294.256986
 777.112609,  309.935286
 777.437848,  325.831037
 777.763689,  341.984711
 778.088891,  358.334801
 778.414358,  374.925881
 778.740419,  391.775353
 779.067289,  408.895417
 779.394840,  426.280819
 779.721906,  443.869799
 780.049897,  461.738206
 780.376949,  479.784536
 780.705209,  498.126838
 781.034164,  516.738340
 781.362969,  535.571748
 781.692620,  554.684300
 782.021723,  573.995587
 782.350646,  593.526158
 782.681143,  613.380934
 783.011000,  633.428116
 783.341819,  653.764756
 783.673760,  674.402673
 784.005820,  695.280669
 784.337858,  716.389842
 784.670352,  737.760644
 785.003191,  759.386612
 785.333454,  781.075957
 785.666370,  803.170673
 785.999034,  825.480964
 786.332839,  848.100501
 786.667674,  871.023904
 787.001570,  894.116577
 787.337189,  917.562626
 787.671885,  941.178371
 788.007947,  965.124919
 788.343023,  989.235500
 788.679697, 1013.695649
 789.016387, 1038.392366
 789.353037, 1063.321240
 789.690854, 1088.572209
 790.028561, 1114.050962
 790.366997, 1139.821048
 790.706053, 1165.875272
 791.046119, 1192.244917
 791.386438, 1218.872635
 791.727725, 1245.815062
 792.068433, 1272.950742
 792.409917, 1300.387030
 792.478322, 1305.925555
 792.517043, 1309.065720
 792.537470, 1310.723788
 792.540633, 1310.980645
 792.544317, 1311.279849
 792.545586, 1311.382986
 792.546314, 1311.442084
 792.547813, 1311.563878
 792.549170, 1311.674111
 792.560454, 1312.590732
 792.602599, 1316.015714
 792.710364, 1324.784818
 792.968746, 1345.878073
 793.308340, 1373.788548
 793.649570, 1402.070514
 793.990955, 1430.603130
 794.334073, 1459.519688
 794.677987, 1488.743794
 795.020260, 1517.894806
 795.364633, 1547.291542
 795.709446, 1576.792769
 796.055532, 1606.470279
 796.400918, 1636.154866
 796.746847, 1665.953233
 797.091330, 1695.693612
 797.439004, 1725.776840
 797.787248, 1755.977033
 798.133915, 1786.107615
 798.480964, 1816.338342
 798.828145, 1846.647678
 799.177201, 1877.188033
 799.526346, 1907.803632
 799.875722, 1938.507075
 800.226665, 1969.415941
 800.576269, 2000.274460
 800.926826, 2031.284580
 801.278379, 2062.450612
 801.630599, 2093.743789
 801.981956, 2125.027910
 802.332946, 2156.346746
 802.685633, 2187.884676
 803.038650, 2219.519943
 803.393177, 2251.358779
 803.746221, 2283.132296
 804.100481, 2315.083060
 804.455171, 2347.140639
 804.810269, 2379.303217
 805.166256, 2411.614498
 805.522744, 2444.039692
 805.879410, 2476.549393
 806.236138, 2509.132953
 806.593659, 2541.857375
 806.952638, 2574.783975
 807.312098, 2607.823619
 807.671106, 2640.890409
 808.030503, 2674.061709
 808.390534, 2707.360226
 808.748911, 2740.574095
 809.109274, 2774.040471
 809.471228, 2807.723674
 809.833737, 2841.527661
 810.196989, 2875.470388
 810.560507, 2909.507373
 810.923154, 2943.531901
 811.287743, 2977.807938
 811.651321, 3012.058149
 812.015903, 3046.472164
 812.381838, 3081.083513
 812.747179, 3115.708107
 813.112414, 3150.391966
 813.478450, 3185.221132
 813.847418, 3220.399308
 814.216125, 3255.622928
 814.585292, 3290.960584
 814.955972, 3326.513506
 815.325837, 3362.058671
 815.698011, 3397.896432
 816.068632, 3433.655079
 816.441279, 3469.679860
 816.815069, 3505.886148
 817.188759, 3542.153925
 817.561731, 3578.422638
 817.936075, 3614.895550
 818.311440, 3651.539262
 818.685806, 3688.156150
 819.059638, 3724.791356
 819.434660, 3761.613824
 819.813851, 3798.917344
 820.190397, 3836.032017
 820.565060, 3873.031430
 820.942428, 3910.368811
 821.322288, 3948.024353
 821.701660, 3985.703266
 822.081489, 4023.499006
 822.462259, 4061.460188
 822.844283, 4099.618385
 823.227803, 4137.998552
 823.610931, 4176.411709
 823.995716, 4215.063661
 824.241828, 4239.823961
 824.379097, 4253.646901
 824.765990, 4292.656525
 825.148939, 4331.340483
 825.535918, 4370.504201
 825.923351, 4409.786919
 826.311842, 4449.250153
 826.696734, 4488.419960
 827.084876, 4527.993095
 827.474511, 4567.791631
 827.865902, 4607.843281
 828.257528, 4647.992687
 828.648713, 4688.170402
 829.041268, 4728.562512
 829.435240, 4769.174555
 829.829656, 4809.906634
 830.223337, 4850.636619
 830.619137, 4891.660098
 831.014575, 4932.720182
 831.410969, 4973.953993
 831.810259, 5015.563976
 832.207123, 5056.995691
 832.606641, 5098.779318
 833.004960, 5140.512160
 833.405295, 5182.531097
 833.806479, 5224.714288
 834.208358, 5267.045927
 834.612422, 5309.683433
 835.015193, 5352.260067
 835.420266, 5395.155990
 835.824699, 5438.059736
 836.228430, 5480.964366
 836.634547, 5524.198456
 837.042545, 5567.708972
 837.451211, 5611.367414
 837.859787, 5655.092589
 838.268199, 5698.876502
 838.678257, 5742.913323
 839.091143, 5787.331126
 839.503531, 5831.772704
 839.913722, 5876.053764
 840.327181, 5920.764594
 840.741842, 5965.682886
 841.155181, 6010.534904
 841.570043, 6055.629414
 841.988324, 6101.173568
 842.405849, 6146.713304
 842.824130, 6192.413547
 843.244868, 6238.460749
 843.665787, 6284.606440
 844.086451, 6330.802530
 844.509440, 6377.332824
 844.931915, 6423.885398
 845.356665, 6470.767669
 845.780195, 6517.594323
 846.201759, 6564.281530
 846.627727, 6611.535346
 847.051793, 6658.656757
 847.479909, 6706.307571
 847.908480, 6754.088642
 848.336497, 6801.887398
 848.768140, 6850.171175
 849.197134, 6898.238253
 849.627247, 6946.510028
 850.059323, 6995.082098
 850.494462, 7044.079243
 850.928488, 7093.031598
 851.363461, 7142.171188
 851.799069, 7191.463209
 852.236170, 7241.004858
 852.674209, 7290.734073
 853.112655, 7340.590348
 853.552647, 7390.703862
 853.990829, 7440.691973
 854.431277, 7491.019650
 854.873327, 7541.611841
 855.314808, 7592.220205
 855.757177, 7643.011699
 856.204987, 7694.510504
 856.648605, 7745.609048
 857.092979, 7796.875962
 857.537479, 7848.238912
 857.982913, 7899.791122
 858.432534, 7951.910289
 858.881689, 8004.057889
 859.332764, 8056.511224
 859.781322, 8108.753865
 860.230861, 8161.192643
 860.682259, 8213.930443
 861.138735, 8267.345218
 861.592531, 8320.529363
 862.050110, 8374.240738
 862.508068, 8428.080420
 862.966584, 8482.069502
 863.424969, 8536.127010
 863.883692, 8590.307836
 864.343997, 8644.759370
 864.806348, 8699.537113
 865.267441, 8754.249735
 865.730754, 8809.309981
 866.192766, 8864.299478
 866.659115, 8919.889693
 867.127012, 8975.749653
 867.596568, 9031.893342
 868.063397, 9087.795570
 868.531464, 9143.930761
 869.003061, 9200.574843
 869.474690, 9257.308180
 869.946228, 9314.115942
 870.417133, 9370.932348
 870.892822, 9428.411753
 871.369229, 9486.064248
 871.846001, 9543.847059
 872.321320, 9601.539521
 872.800908, 9659.836404
 873.281072, 9718.289951
 873.760945, 9776.794549
 874.242469, 9835.586925
 874.725379, 9894.635413
 875.208324, 9953.774963
 875.692177, 10013.112363
 876.178127, 10072.794036
 876.664285, 10132.588485
 877.151312, 10192.576878
 877.638437, 10252.664374
 878.125590, 10312.842008
 878.617736, 10373.724242
 879.108087, 10434.471881
 879.600919, 10495.614677
 880.092396, 10556.676861
 880.585968, 10618.086699
 881.079069, 10679.525297
 881.579020, 10741.906287
 882.074723, 10803.845354
 882.574431, 10866.373284
 883.072548, 10928.790182
 883.572862, 10991.570803
 884.072144, 11054.309879
 884.572938, 11117.326995
 885.074943, 11180.584638
 885.580473, 11244.375427
 886.087434, 11308.436165
 886.592542, 11372.351444
 887.095042, 11436.024263
 887.599213, 11499.996512
 888.108351, 11564.687566
 888.618707, 11629.622508
 889.129283, 11694.674560
 889.642605, 11760.165929
 890.155486, 11825.690301
 890.664578, 11890.818704
 891.180352, 11956.891044
 891.694183, 12022.803541
 892.211233, 12089.218040
 892.724237, 12155.201185
 893.244147, 12222.161977
 893.767112, 12289.606597
 894.289416, 12357.056285
 894.813056, 12424.768764
 895.335292, 12492.389480
 895.861597, 12560.627301
 896.387045, 12628.844030
 896.909365, 12696.743812
 897.436695, 12765.384386
 897.969820, 12834.870674
 898.498884, 12903.917959
 899.030319, 12973.365153
 899.557979, 13042.408275
 900.088296, 13111.888280
 900.624412, 13182.218892
 901.157942, 13252.300476
 901.691203, 13322.436274
 902.225025, 13392.735359
 902.762212, 13463.567526
 903.302523, 13534.902464
 903.842455, 13606.277773
 904.385183, 13678.113725
 904.925423, 13749.710550
 905.468792, 13821.812477
 906.005951, 13893.179252
 906.552134, 13965.835224
 907.094493, 14038.072060
 907.637292, 14110.456774
 908.183858, 14183.433692
 908.736697, 14257.339335
 909.285137, 14330.747361
 909.831594, 14403.979265
 910.381724, 14477.792956
 910.930091, 14551.459195
 911.484163, 14625.981935
 912.033376, 14699.940016
 912.588547, 14774.790263
 913.141240, 14849.395591
 913.696685, 14924.461814
 914.247542, 14998.995923
 914.805780, 15074.618014
 915.363350, 15150.238963
 915.922595, 15226.176237
 916.489566, 15303.253520
 917.050207, 15379.559809
 917.610595, 15455.920453
 918.173724, 15532.743533
 918.738099, 15609.825680
 919.302625, 15687.017361
 919.864504, 15763.934998
 920.430019, 15841.438601
 920.999691, 15919.601005
 921.562004, 15996.841146
 922.133347, 16075.410112
 922.708153, 16154.544859
 923.284672, 16234.005396
 923.856378, 16312.891206
 924.432927, 16392.534199
 925.015008, 16473.031529
 925.584987, 16551.942657
 926.161070, 16631.786441
 926.739502, 16712.044096
 927.318259, 16792.434832
 927.898322, 16873.094854
 928.479857, 16954.047742
 929.058662, 17034.707641
 929.640083, 17115.819239
 930.217495, 17196.457669
 930.802014, 17278.175483
 931.384629, 17359.713863
 931.968263, 17441.481231
 932.554556, 17523.707651
 933.139283, 17605.800596
 933.724097, 17687.991272
 934.312121, 17770.719031
 934.902001, 17853.794049
 935.490696, 17936.787973
 936.083018, 18020.378957
 936.673558, 18103.803915
 937.265079, 18187.452620
 937.860485, 18271.736164
 938.451603, 18355.497416
 939.045076, 18439.676531
 939.638446, 18523.925154
 940.232606, 18608.369878
 940.832680, 18693.739763
 941.425387, 18778.144728
 942.025814, 18863.733017
 942.618353, 18948.279079
 943.222588, 19034.577959
 943.824548, 19120.635537
 944.422720, 19206.234056
 945.028845, 19293.054047
 945.630913, 19379.375330
 946.241438, 19466.993008
 946.849127, 19554.286739
 947.459312, 19642.022245
 948.067687, 19729.579995
 948.675126, 19817.084781
 949.282436, 19904.652149
 949.892751, 19992.734170
 950.501233, 20080.632486
 951.111479, 20168.866205
 951.726616, 20257.888329
 952.339847, 20346.715421
 952.953351, 20435.662128
 953.565823, 20524.538968
 954.177985, 20613.449838
 954.794851, 20703.123397
 955.415311, 20793.399511
 956.028206, 20882.653294
 956.636911, 20971.373540
 957.250538, 21060.888115
 957.874645, 21152.010253
 958.488167, 21241.663923
 959.116916, 21333.621416
 959.738366, 21424.589312
 960.352399, 21514.546960
 960.969994, 21605.101912
 961.587636, 21695.738754
 962.209505, 21787.071529
 962.830711, 21878.381890
 963.452594, 21969.866701
 964.072957, 22061.201948
 964.693170, 22152.588572
 965.318310, 22244.775204
 965.947323, 22337.607471
 966.573608, 22430.110810
 967.195553, 22522.045632
 967.821084, 22614.582723
 968.452357, 22708.042406
 969.085996, 22801.925759
 969.717968, 22895.634664
 970.345444, 22988.748405
 970.977716, 23082.645405
 971.609439, 23176.531959
 972.242743, 23270.724571
 972.874263, 23364.722091
 973.512161, 23459.739711
 974.144581, 23554.011111
 974.782533, 23649.177185
 975.422936, 23744.778935
 976.058938, 23839.792659
 976.697217, 23935.215464
 977.337808, 24031.052595
 977.978709, 24127.004637
 978.616873, 24222.614380
 979.252910, 24317.972037
 979.901759, 24415.318527
 980.550806, 24512.763037
 981.191991, 24609.093805
 981.840950, 24706.659295
 982.486548, 24803.785651
 983.062022, 24890.417708
