Ground distance, Vertical Forces
   0.000000,    0.000000
   0.000001,    0.000000
   0.000006,    0.000000
   0.000051,    0.000000
   0.000254,    0.000000
   0.000937,    0.000000
   0.003594,    0.000000
   0.008770,    0.000000
   0.016215,    0.000000
   0.025986,    0.000000
   0.038053,    0.000000
   0.052396,    0.000000
   0.069115,    0.000000
   0.088096,    0.000000
   0.109545,    0.000000
   0.133445,    0.000000
   0.159844,    0.000000
   0.188742,    0.000000
   0.220179,    0.000000
   0.254154,    0.000000
   0.290762,    0.000000
   0.329834,    0.000000
   0.371933,    0.000000
   0.416730,    0.000000
   0.464133,    0.000000
   0.514632,    0.000000
   0.568012,    0.000000
   0.623767,    0.000000
   0.683393,    0.000000
   0.746091,    0.000000
   0.811495,    0.000000
   0.879944,    0.000000
   0.952973,    0.000000
   1.028661,    0.000000
   1.108195,    0.000000
   1.190503,    0.000000
   1.276329,    0.000000
   1.366302,    0.000000
   1.460383,    0.000000
   1.557910,    0.000000
   1.658864,    0.000000
   1.765569,    0.000000
   1.876077,    0.000000
   1.991080,    0.000000
   2.108697,    0.000000
   2.232114,    0.000000
   2.358495,    0.000000
   2.491456,    0.000000
   2.627207,    0.000000
   2.766419,    0.000000
   2.910997,    0.000000
   3.061458,    0.000000
   3.214194,    0.000000
   3.373591,    0.000000
   3.537116,    0.000000
   3.707854,    0.000000
   3.881891,    0.000000
   4.060893,    0.000000
   4.246787,    0.000000
   4.436942,    0.000000
   4.635771,    0.000000
   4.839095,    0.000000
   5.046944,    0.000000
   5.262260,    0.000000
   5.479624,    0.000000
   5.704145,    0.000000
   5.932675,    0.000000
   6.172206,    0.000000
   6.417668,    0.000000
   6.664659,    0.000000
   6.919177,    0.000000
   7.182286,    0.000000
   7.451337,    0.000000
   7.728786,    0.000000
   8.011867,    0.000000
   8.300203,    0.000000
   8.595273,    0.000000
   8.898197,    0.000000
   9.208447,    0.000000
   9.524740,    0.000000
   9.847117,    0.000000
  10.178260,    0.000000
  10.517285,    0.000000
  10.863781,    0.000000
  11.215388,    0.000000
  11.577699,    0.000000
  11.947059,    0.000000
  12.323083,    0.000000
  12.706533,    0.000000
  13.101735,    0.000000
  13.498441,    0.000000
  13.905442,    0.000000
  14.322436,    0.000000
  14.746977,    0.000000
  15.179755,    0.000000
  15.615931,    0.000000
  16.065427,    0.000000
  16.521679,    0.000000
  16.989674,    0.000000
  17.467086,    0.000000
  17.948124,    0.000000
  18.442233,    0.000000
  18.943653,    0.000000
  19.455403,    0.000000
  19.971291,    0.000000
  20.503197,    0.000000
  21.039939,    0.000000
  21.591975,    0.000000
  22.154661,    0.000000
  22.722075,    0.000000
  23.294581,    0.000000
  23.879363,    0.000000
  24.470105,    0.000000
  25.080064,    0.000000
  25.104614,    0.000000
  25.110192,    0.000000
  25.111427,    0.000000
  25.113175,    0.000000
  25.113784,    0.000000
  25.114962,    0.000000
  25.115436,    0.000000
  25.115489,    0.000000
  25.115536,    0.000000
  25.116007,    0.000000
  25.120721,    0.000000
  25.146034,    0.000000
  25.240975,    0.000000
  25.544938,    0.000000
  26.122884,    0.000000
  26.701027,    0.000000
  27.285207,    0.000000
  27.878682,    0.000000
  28.479559,    0.000000
  29.087489,    0.000000
  29.709576,    0.000000
  30.339197,    0.000000
  30.977515,    0.000000
  31.624560,    0.000000
  32.281037,    0.000000
  32.946776,    0.000000
  33.624452,    0.000000
  34.313136,    0.000000
  35.009054,    0.000000
  35.708189,    0.000000
  36.418015,    0.000000
  37.136818,    0.000000
  37.867779,    0.000000
  38.610465,    0.000000
  39.366949,    0.000000
  40.124054,    0.000000
  40.893463,    0.000000
  41.674081,    0.000000
  42.464088,    0.000000
  43.263317,    0.000000
  44.070501,    0.000000
  44.886655,    0.000000
  45.715278,    0.000000
  46.555057,    0.000000
  47.404370,    0.000000
  48.265463,    0.000000
  49.125549,    0.000000
  50.002292,    0.000000
  50.891462,    0.000000
  51.789845,    0.000000
  52.700389,    0.000000
  53.620266,    0.000000
  54.548014,    0.000000
  55.488294,    0.000000
  56.438610,    0.000000
  57.408434,    0.000000
  58.385766,    0.000000
  59.370371,    0.000000
  60.365913,    0.000000
  61.379289,    0.000000
  62.389213,    0.000000
  63.423505,    0.000000
  64.463035,    0.000000
  65.513995,    0.000000
  66.577116,    0.000000
  67.651149,    0.000000
  68.734516,    0.000000
  69.826554,    0.000000
  70.926902,    0.000000
  72.041160,    0.000000
  73.167900,    0.000000
  74.306773,    0.000000
  75.467376,    0.000000
  76.633843,    0.000000
  77.809141,    0.000000
  78.997253,    0.000000
  80.197519,    0.000000
  81.410899,    0.000000
  82.633034,    0.000000
  83.870672,    0.000000
  85.116192,    0.000000
  86.373469,    0.000000
  87.642578,    0.000000
  88.921294,    0.000000
  90.211860,    0.000000
  91.522913,    0.000000
  92.844013,    0.000000
  94.177813,    0.000000
  95.524629,    0.000000
  96.890774,    0.000000
  98.258511,    0.000000
  99.637602,    0.000000
 101.033815,    0.000000
 102.439374,    0.000000
 103.861289,    0.000000
 104.147219,    0.000000
 104.341094,    0.000000
 104.495880,    0.000000
 104.518932,    0.000000
 104.524426,    0.000000
 104.526123,    0.000000
 104.526910,    0.000000
 104.527083,    0.000000
 104.527264,    0.000000
 104.529071,    0.000000
 104.545335,    0.000000
 104.639691,    0.000000
 104.976903,    0.000000
 106.129664,    0.000000
 107.448863,    0.000000
 108.782020,    0.000000
 110.126774,    0.000000
 111.485587,    0.000000
 112.857579,    0.000000
 114.232498,    0.000000
 115.627087,    0.000000
 117.025299,    0.000000
 118.429538,    0.000000
 119.849673,    0.000000
 121.280854,    0.000000
 122.724636,    0.000000
 124.175236,    0.000000
 125.645137,    0.000000
 127.123819,    0.000000
 128.606536,    0.000000
 130.101253,    0.000000
 131.612673,    0.000000
 133.134895,    0.000000
 134.662743,    0.000000
 136.203744,    0.000000
 137.761978,    0.000000
 139.327242,    0.000000
 140.902608,    0.000000
 142.494729,    0.000000
 144.099947,    0.000000
 145.710691,    0.000000
 147.333012,    0.000000
 148.962100,    0.000000
 150.611414,    0.000000
 152.268878,    0.000000
 153.933457,    0.000000
 155.615091,    0.000000
 157.310570,    0.000000
 159.024199,    0.000000
 160.742691,    0.000000
 162.471318,    0.000000
 164.211370,    0.000000
 165.965139,    0.000000
 167.730713,    0.000000
 169.504136,    0.000000
 171.289475,    0.000000
 173.092475,    0.000000
 174.905755,    0.000000
 176.736613,    0.000000
 178.577433,    0.000000
 180.426186,    0.000000
 182.292552,    0.000000
 184.168049,    0.000000
 186.052534,    0.000000
 187.953189,    0.000000
 189.864605,    0.000000
 191.788346,    0.000000
 193.723244,    0.000000
 195.670670,    0.000000
 197.631588,    0.000000
 199.600492,    0.000000
 201.578585,    0.000000
 203.575679,    0.000000
 205.591905,    0.000000
 207.624545,    0.000000
 209.671944,    0.000000
 211.722398,    0.000000
 213.780715,    0.000000
 215.852799,    0.000000
 217.930789,    0.000000
 220.026908,    0.000000
 222.141208,    0.000000
 224.269987,    0.000000
 226.407867,    0.000000
 228.556658,    0.000000
 230.718107,    0.000000
 232.896905,    0.000000
 235.094814,    0.000000
 237.303170,    0.000000
 239.512888,    0.000000
 241.745851,    0.000000
 243.989033,    0.000000
 246.242947,    0.000000
 246.696259,    0.000000
 248.417686,    0.000000
 248.435820,    0.000000
 248.441007,    0.000000
 248.449399,    0.000000
 248.452117,    0.000000
 248.457552,    0.000000
 248.458257,    0.000000
 248.458628,    0.000000
 248.458984,    0.000000
 248.459308,    0.000000
 248.462550,    0.000000
 248.494704,    0.000000
 248.719489,    0.000000
 249.725066,    0.000000
 251.719700,    0.000000
 253.779585,    0.000000
 255.845816,    0.000000
 257.926492,    0.000000
 260.018203,    0.000000
 262.117889,    0.000000
 264.225392,    0.000000
 266.347479,    0.000000
 268.479330,    0.000000
 270.619404,    0.000000
 272.778841,    0.000000
 274.941400,    0.000000
 277.112158,    0.000000
 279.296599,    0.000000
 281.490633,    0.000000
 283.701626,    0.000000
 285.922600,    0.000000
 288.150724,    0.000000
 290.393710,    0.000000
 292.643781,    0.000000
 294.906961,    0.000000
 297.183446,    0.000000
 299.465437,    0.000000
 301.764926,    0.000000
 304.067928,    0.000000
 306.389604,    0.000000
 308.720301,    0.000000
 311.065369,    0.000000
 313.420332,    0.000000
 315.784519,    0.000000
 318.159011,    0.000000
 320.545962,    0.000000
 322.943466,    0.000000
 325.352425,    0.000000
 327.766033,    0.000000
 330.197939,    0.000000
 332.633831,    0.000000
 335.088965,    0.000000
 337.555321,    0.000000
 340.031860,    0.000000
 342.519440,    0.000000
 345.023622,    0.000000
 347.538764,    0.000000
 350.058976,    0.000000
 352.593858,    0.000000
 355.142610,    0.000000
 357.699338,    0.000000
 360.270044,    0.000000
 362.850448,    0.000000
 365.446561,    0.000000
 368.049100,    0.000000
 370.663009,    0.000000
 373.293354,    0.000000
 375.929053,    0.000000
 378.574729,    0.000000
 381.235283,    0.000000
 383.903976,    0.000000
 386.590827,    0.000000
 389.287783,    0.000000
 391.994667,    0.000000
 394.706064,    0.000000
 397.440764,    0.000000
 400.181286,    0.000000
 402.936323,    0.000000
 405.704811,    0.000000
 408.488933,    0.000000
 411.284026,    0.000000
 414.084220,    0.000000
 416.889096,    0.000000
 419.708533,    0.000000
 422.545376,    0.000000
 425.398278,    0.000000
 428.257758,    0.000000
 431.132352,    0.000000
 434.019837,    0.000000
 436.919663,    0.000000
 439.821595,    0.000000
 442.743417,    0.000000
 445.676320,    0.000000
 448.620964,    0.000000
 451.574264,    0.000000
 454.535505,    0.000000
 457.511524,    0.000000
 460.507034,    0.000000
 463.511220,    0.000000
 466.526193,    0.000000
 469.548137,    0.000000
 472.589684,    0.000000
 475.638948,    0.000000
 476.251346,    0.000000
 476.720335,    0.000000
 477.065547,    0.000000
 477.120290,    0.000000
 477.136970,    0.000000
 477.165558,    0.000000
 477.175153,    0.000000
 477.176811,    0.000000
 477.178528,    0.000000
 477.195695,    0.000000
 477.346967,    0.000000
 478.209917,    0.000000
 480.851419,    0.000000
 483.929371,    0.000000
 487.011271,    0.000000
 490.096576,    0.000000
 493.199907,    0.000000
 496.318901,    0.000000
 499.445243,    0.000000
 502.589472,    0.000000
 505.741627,    0.000000
 508.909317,    0.000000
 512.088997,    0.000000
 515.278295,    0.000000
 518.478661,    0.000000
 521.689262,    0.000000
 524.917627,    0.000000
 528.156191,    0.000000
 531.404500,    0.000000
 534.665889,    0.000000
 537.942055,    0.000000
 541.228510,    0.000000
 544.523422,    0.000000
 547.837509,    0.000000
 551.167379,    0.000000
 554.502284,    0.000000
 557.850130,    0.000000
 561.210674,    0.000000
 564.587181,    0.000000
 567.973018,    0.000000
 571.371712,    0.000000
 574.776435,    0.000000
 578.195979,    0.000000
 581.627918,    0.000000
 585.077831,    0.000000
 588.539660,    0.000000
 592.010643,    0.000000
 595.491964,    0.000000
 598.985547,    0.000000
 602.491253,    0.000000
 606.006502,    0.000000
 609.534511,    0.000000
 613.078588,    0.000000
 616.637030,    0.000000
 620.210215,    0.000000
 623.792146,    0.000000
 627.388022,    0.000000
 630.987118,    0.000000
 634.607694,    0.000000
 638.239199,    0.000000
 641.885623,    0.000000
 645.541759,    0.000000
 649.206249,    0.000000
 652.891571,    0.000000
 656.587050,    0.000000
 660.292644,    0.000000
 664.016097,    0.000000
 667.742726,    0.000000
 671.481226,    0.000000
 675.242879,    0.000000
 679.003419,    0.000000
 682.786868,    0.000000
 686.585612,    0.000000
 690.392208,    0.000000
 694.213453,    0.000000
 698.039404,    0.000000
 701.880478,    0.000000
 705.740575,    0.000000
 709.601892,    0.000000
 713.488985,    0.000000
 717.379775,    0.000000
 721.284794,    0.000000
 723.174928,    0.000000
 725.212289,    0.000000
 729.149558,   93.761164
 733.087521,  273.553761
 737.042221,  451.059359
 741.008085,  627.023089
 744.992700,  801.202056
 748.983789,  973.941966
 752.991009, 1144.713800
 757.010780, 1313.949195
 761.042227, 1481.503811
 765.083601, 1647.353492
 769.142019, 1811.435661
 773.212553, 1974.056147
 777.292638, 2135.023893
 781.381331, 2294.250506
 785.482819, 2451.712369
 789.591904, 2607.592019
 793.707916, 2761.703135
 797.843449, 2914.029199
 801.990962, 3065.064229
 806.141231, 3214.540810
 810.303845, 3362.127577
 814.479445, 3508.193082
 818.666912, 3652.772851
 822.865317, 3795.839380
 827.070061, 3937.377666
 827.238674, 4081.668698
 827.246700, 4087.396714
 827.252017, 4087.663849
 827.255947, 4087.840335
 827.258260, 4087.971456
 827.259242, 4088.049075
 827.260216, 4088.081471
 827.269963, 4088.104752
 827.367426, 4088.337555
 827.956406, 4091.055487
 830.575043, 4108.413400
 834.897452, 4192.706638
 839.275145, 4333.356562
 843.659444, 4473.939646
 848.060213, 4612.812423
 852.472241, 4750.319517
 856.888696, 4886.311000
 861.321198, 5020.572230
 865.757644, 5153.502144
 870.199087, 5284.736407
 874.655158, 5414.317366
 879.114212, 5542.570305
 883.589951, 5669.142350
 888.073867, 5794.468896
 888.427707, 5924.057827
 888.782141, 5933.733292
 889.136923, 5943.415207
 889.491206, 5953.097703
 889.846349, 5962.754642
 890.201897, 5972.425557
 890.554873, 5982.101493
 890.910129, 5991.690806
 891.265611, 6001.334894
 891.619823, 6010.977109
 891.977112, 6020.568969
 892.329444, 6030.245148
 892.686839, 6039.763471
 893.044582, 6049.415211
 893.403094, 6059.065678
 893.761724, 6068.727693
 894.117184, 6078.387312
 894.473824, 6087.945641
 894.833578, 6097.523094
 895.192512, 6107.179608
 895.552234, 6116.801848
 895.912595, 6126.435377
 896.272848, 6136.076949
 896.634052, 6145.704126
 896.993903, 6155.349854
 897.356115, 6164.944276
 897.717019, 6174.596679
 898.078435, 6184.201661
 898.438850, 6193.812360
 898.802166, 6203.381061
 899.164024, 6213.022825
 899.526519, 6222.612987
 899.891576, 6232.207340
 900.255267, 6241.864910
 900.618874, 6251.474499
 900.982924, 6261.071126
 901.347740, 6270.668983
 901.713311, 6280.277006
 902.077837, 6289.897391
 902.444214, 6299.476235
 902.811420, 6309.095138
 903.174576, 6318.732495
 903.543911, 6328.239464
 903.913543, 6337.906491
 904.282970, 6347.571835
 904.653344, 6357.220070
 905.024120, 6366.883648
 905.394524, 6376.548639
 905.765262, 6386.192813
 906.135364, 6395.836926
 906.506769, 6405.451689
 906.879481, 6415.090232
 907.251440, 6424.755427
 907.625111, 6434.387520
 907.996907, 6444.058817
 908.371556, 6453.664923
 908.746634, 6463.337996
 909.121642, 6473.012675
 909.497222, 6482.674467
 909.871806, 6492.343022
 910.246643, 6501.974093
 910.624630, 6511.597491
 910.999272, 6521.300698
 911.377305, 6530.898573
 911.756325, 6540.576570
 912.136224, 6550.269801
 912.516362, 6559.976126
 912.893904, 6569.682288
 913.275030, 6579.303385
 913.654205, 6589.013437
 914.033172, 6598.661145
 914.416222, 6608.287494
 914.798573, 6618.014062
 915.184103, 6627.707234
 915.567938, 6637.477486
 915.953538, 6647.189657
 916.336457, 6656.942405
 916.723902, 6666.607060
 917.110359, 6676.383442
 917.494901, 6686.125794
 917.881533, 6695.804093
 918.270998, 6705.523725
 918.659624, 6715.309360
 919.051314, 6725.058122
 919.440364, 6734.881292
 919.833531, 6744.618512
 920.225975, 6754.455119
 920.618335, 6764.262292
 921.012752, 6774.053952
 921.406136, 6783.890787
 921.800399, 6793.688762
 922.193525, 6803.500979
 922.588037, 6813.271002
 922.982420, 6823.067195
 923.381475, 6822.515153
 923.778656, 6821.966605
 924.177406, 6821.416797
 924.575422, 6820.868908
 924.975795, 6820.318689
 925.374602, 6819.771534
 925.774533, 6819.223751
 926.176363, 6818.674290
 926.579144, 6818.124458
 926.983324, 6817.573651
 927.386454, 6817.025210
 927.788583, 6816.479060
 928.191887, 6815.932248
 928.595450, 6815.386022
 928.999001, 6814.840747
 929.406835, 6814.290639
 929.815136, 6813.740860
 930.223612, 6813.191806
 930.632141, 6812.643645
 931.040670, 6812.096445
 931.450245, 6811.548811
 931.860590, 6811.001121
 932.271483, 6810.453673
 932.684773, 6809.904015
 933.097207, 6809.356483
 933.512041, 6808.806756
 933.924664, 6808.260949
 934.338568, 6807.714439
 934.753310, 6807.167818
 935.169618, 6806.620136
 935.583686, 6806.076399
 935.999377, 6805.531532
 936.416144, 6804.986263
 936.834283, 6804.440213
 937.251356, 6803.896568
 937.671294, 6803.350213
 938.091619, 6802.804381
 938.510792, 6802.261071
 938.932361, 6801.715687
 939.355886, 6801.168817
 939.777131, 6800.625929
 940.198938, 6800.083354
 940.626280, 6799.534719
 941.053290, 6798.987577
 941.482681, 6798.438458
 941.911990, 6797.890522
 942.342080, 6797.342672
 942.772317, 6796.795717
 943.200525, 6796.252420
 943.633433, 6795.704250
 944.067084, 6795.156243
 944.500022, 6794.610235
 944.935950, 6794.061570
 945.372737, 6793.512943
 945.806127, 6792.969690
 946.242078, 6792.424342
 946.680209, 6791.877391
 947.116636, 6791.333692
 947.554883, 6790.788854
 947.993907, 6790.244184
 948.435051, 6789.698028
 948.876543, 6789.152588
 949.317345, 6788.609149
 949.761195, 6788.063112
 950.202277, 6787.521631
 950.646102, 6786.977943
 951.090247, 6786.435029
 951.535089, 6785.892432
 951.983135, 6785.347110
 952.432596, 6784.801259
 952.881094, 6784.257771
 953.329621, 6783.715438
 953.686757, 6783.284463
 953.779441, 6783.172739
 954.229069, 6782.631472
 954.681064, 6782.088564
 955.134190, 6781.545514
 955.586263, 6781.004940
 956.040319, 6780.463218
 956.496407, 6779.920305
 956.954028, 6779.376810
 957.411783, 6778.834402
 957.868624, 6778.294319
 958.327298, 6777.753321
 958.789548, 6777.209372
 959.249478, 6776.669417
 959.713375, 6776.126081
 960.178795, 6775.582252
 960.641116, 6775.043323
 961.106951, 6774.501589
 961.573676, 6773.960119
 962.043175, 6773.416744
 962.511843, 6772.875645
 962.983070, 6772.332915
 963.455779, 6771.789813
 963.931294, 6771.244836
 964.406131, 6770.701987
 964.879252, 6770.162444
 965.356106, 6769.619999
 965.832316, 6769.079649
 966.308348, 6768.540859
 966.786619, 6768.000904
 967.267595, 6767.459281
 967.745946, 6766.921991
 968.232605, 6766.376780
 968.713563, 6765.839353
 969.198879, 6765.298466
 969.684018, 6764.759193
 970.172349, 6764.217802
 970.658142, 6763.680650
 971.146022, 6763.142619
 971.634951, 6762.604870
 972.123064, 6762.069456
 972.612477, 6761.534058
 973.103168, 6760.998711
 973.595715, 6760.462801
 974.087584, 6759.929090
 974.582448, 6759.393602
 975.077029, 6758.859900
 975.574655, 6758.324403
 976.070816, 6757.791973
 976.567788, 6757.260165
 977.066151, 6756.728369
 977.570050, 6756.192194
 978.071462, 6755.660191
 978.576321, 6755.126069
 979.083620, 6754.590920
 979.590440, 6754.057834
 980.097302, 6753.526263
 980.607767, 6752.992487
 981.116621, 6752.461969
 981.626624, 6751.931831
 982.138630, 6751.401198
 982.652928, 6750.869793
 983.165971, 6750.341286
 983.684627, 6749.808624
 984.199899, 6749.281056
 984.719470, 6748.750721
 985.237264, 6748.223835
 985.757568, 6747.696037
 986.276946, 6747.170824
 986.800995, 6746.642552
 987.322940, 6746.118064
 987.844736, 6745.595385
 988.371539, 6745.069376
 988.894049, 6744.549324
 989.422079, 6744.025470
 989.949881, 6743.503543
 990.477291, 6742.983702
 991.004000, 6742.466247
 991.533703, 6741.947560
 992.062016, 6741.431942
 992.597359, 6740.911204
 993.128712, 6740.396079
 993.661560, 6739.881239
 994.195679, 6739.366914
 994.733163, 6738.851111
 995.273775, 6738.334090
 995.812252, 6737.820891
 996.350989, 6737.309222
 996.888147, 6736.800822
 997.433025, 6736.286922
 997.975057, 6735.777512
 998.517238, 6735.269766
 999.068037, 6734.755794
 999.612490, 6734.249575
1000.157834, 6733.744350
1000.709086, 6733.235508
1001.259750, 6732.729073
1001.814690, 6732.220589
1002.367454, 6731.715980
1002.918572, 6731.214743
1003.472512, 6730.712821
1004.022085, 6730.216722
1004.577029, 6729.717659
1005.135866, 6729.217010
1005.701325, 6728.712385
1006.262943, 6728.213136
1006.827892, 6727.712886
1007.390590, 6727.216583
1007.953454, 6726.722086
1008.519992, 6726.226332
1009.084614, 6725.734224
1009.654522, 6725.239502
1010.216249, 6724.753840
1010.782052, 6724.266623
1011.346028, 6723.782946
1011.921168, 6723.291715
1012.495500, 6722.803212
1013.068191, 6722.318133
1013.640371, 6721.835509
1014.216679, 6721.351448
1014.796198, 6720.866759
1015.375700, 6720.384160
1015.954813, 6719.903959
1016.533807, 6719.425929
1017.115540, 6718.947726
1017.703092, 6718.466864
1018.284496, 6717.993136
1018.870064, 6717.518130
1019.448627, 6717.050890
1020.042827, 6716.573179
1020.626428, 6716.106118
1021.215407, 6715.636890
1021.808628, 6715.166456
1022.394072, 6714.704326
1022.984017, 6714.240792
1023.578012, 6713.776255
1024.171170, 6713.314556
1024.768105, 6712.852118
1025.357569, 6712.397637
1025.951888, 6711.941595
1026.545096, 6711.488589
1027.137802, 6711.038148
1027.737886, 6710.584321
1028.339196, 6710.131809
1028.944378, 6709.678649
1029.548808, 6709.228322
1030.152550, 6708.780773
1030.759652, 6708.333015
1031.356428, 6707.895104
1031.968159, 6707.448516
1032.574940, 6707.007840
1033.186602, 6706.565933
1033.794188, 6706.129274
1034.403532, 6705.693658
1035.013464, 6705.259932
1035.623649, 6704.828340
1036.236332, 6704.397312
1036.858720, 6703.961847
1037.467878, 6703.537972
1038.075324, 6703.117587
1038.695264, 6702.690922
1039.314400, 6702.267198
1039.936889, 6701.843585
1040.558548, 6701.422944
1041.176493, 6701.007200
1041.799582, 6700.590403
1042.419872, 6700.177878
1043.043677, 6699.765433
1043.668437, 6699.354786
1044.291108, 6698.947930
1044.917826, 6698.540869
1045.545708, 6698.135506
1046.168044, 6697.736148
1046.799341, 6697.333504
1047.421559, 6696.939081
1048.058075, 6696.538092
1048.695292, 6696.139190
1049.326978, 6695.746249
1049.960683, 6695.354551
1050.588742, 6694.968814
1051.220444, 6694.583319
1051.853545, 6694.199468
1052.489190, 6693.816588
1053.118265, 6693.440147
1053.756590, 6693.060693
1054.393106, 6692.684844
1055.024297, 6692.314635
1055.663995, 6691.941972
1056.305204, 6691.570991
1056.948529, 6691.201363
1057.583438, 6690.839101
1058.225878, 6690.475103
1058.866560, 6690.114665
1059.505036, 6689.758015
1060.149941, 6689.400357
1060.792393, 6689.046639
1061.429143, 6688.698602
1062.074903, 6688.348224
1062.718199, 6688.001771
1063.370348, 6687.653185
1064.022579, 6687.307210
1064.673238, 6686.964714
1065.324947, 6686.624314
1065.969021, 6686.290506
1066.621680, 6685.954889
1067.274960, 6685.621615
1067.922012, 6685.294144
1068.572086, 6684.967774
1069.220679, 6684.644776
1069.877350, 6684.320430
1070.536469, 6683.997582
1071.190971, 6683.679677
1071.841950, 6683.366135
1072.503817, 6683.050060
1073.160848, 6682.738999
1073.825014, 6682.427297
1074.487188, 6682.119271
1075.146213, 6681.815426
1075.802621, 6681.515481
1076.467050, 6681.214609
1077.130879, 6680.916760
1077.791858, 6680.622921
1078.449150, 6680.333423
1079.117181, 6680.041958
1079.777576, 6679.756561
1080.442601, 6679.471912
1081.105233, 6679.191031
1081.771444, 6678.911394
1082.438004, 6678.634381
1083.102915, 6678.360814
1083.764911, 6678.091185
1084.427113, 6677.824206
1085.090907, 6677.559330
1085.758559, 6677.295685
1086.423760, 6677.035772
1087.092926, 6676.777093
1087.763038, 6676.520845
1088.434593, 6676.266854
1089.105311, 6676.015985
1089.775995, 6675.767932
1090.453977, 6675.520029
1091.129901, 6675.275729
1091.801855, 6675.035685
1092.471112, 6674.799401
1093.143017, 6674.564989
1093.823253, 6674.330534
1094.498574, 6674.100624
1095.180531, 6673.871337
1095.858806, 6673.646160
1096.536888, 6673.423910
1097.214745, 6673.204594
1097.887957, 6672.989612
1098.563990, 6672.776568
1099.242797, 6672.565510
1099.918982, 6672.358119
1100.597884, 6672.152755
1101.279158, 6671.949556
1101.957527, 6671.750092
1102.638912, 6671.552621
1103.317180, 6671.358922
1103.999411, 6671.166975
1104.680024, 6670.978366
1105.360650, 6670.792633
1106.044991, 6670.608788
1106.625829, 6670.455032
