Ground distance, Vertical Forces
   0.000000,    0.000000
   0.000001,    0.000000
   0.000010,    0.000000
   0.000165,    0.000000
   0.000906,    0.000000
   0.003878,    0.000000
   0.009197,    0.000000
   0.016801,    0.000000
   0.026649,    0.000000
   0.038817,    0.000000
   0.053367,    0.000000
   0.070270,    0.000000
   0.089427,    0.000000
   0.111137,    0.000000
   0.135183,    0.000000
   0.161653,    0.000000
   0.190899,    0.000000
   0.222436,    0.000000
   0.256730,    0.000000
   0.293710,    0.000000
   0.332874,    0.000000
   0.374826,    0.000000
   0.420181,    0.000000
   0.468295,    0.000000
   0.519009,    0.000000
   0.573030,    0.000000
   0.629770,    0.000000
   0.689907,    0.000000
   0.752710,    0.000000
   0.819295,    0.000000
   0.888689,    0.000000
   0.961195,    0.000000
   1.037710,    0.000000
   1.117281,    0.000000
   1.200804,    0.000000
   1.288183,    0.000000
   1.379665,    0.000000
   1.473406,    0.000000
   1.570169,    0.000000
   1.671274,    0.000000
   1.776728,    0.000000
   1.887692,    0.000000
   2.002431,    0.000000
   2.121006,    0.000000
   2.244075,    0.000000
   2.371810,    0.000000
   2.504607,    0.000000
   2.640912,    0.000000
   2.782805,    0.000000
   2.928371,    0.000000
   3.078173,    0.000000
   3.235231,    0.000000
   3.397406,    0.000000
   3.562111,    0.000000
   3.732541,    0.000000
   3.907539,    0.000000
   4.091574,    0.000000
   4.278486,    0.000000
   4.470909,    0.000000
   4.667243,    0.000000
   4.870426,    0.000000
   5.079616,    0.000000
   5.294193,    0.000000
   5.514990,    0.000000
   5.740566,    0.000000
   5.971629,    0.000000
   6.208607,    0.000000
   6.456622,    0.000000
   6.706495,    0.000000
   6.963874,    0.000000
   7.226829,    0.000000
   7.496465,    0.000000
   7.774878,    0.000000
   8.059158,    0.000000
   8.349294,    0.000000
   8.649138,    0.000000
   8.952195,    0.000000
   9.261746,    0.000000
   9.582220,    0.000000
   9.907815,    0.000000
  10.239774,    0.000000
  10.583311,    0.000000
  10.928569,    0.000000
  11.281768,    0.000000
  11.642269,    0.000000
  12.010671,    0.000000
  12.389360,    0.000000
  12.771389,    0.000000
  13.161104,    0.000000
  13.567929,    0.000000
  13.977958,    0.000000
  14.393994,    0.000000
  14.821963,    0.000000
  15.256141,    0.000000
  15.698965,    0.000000
  16.150205,    0.000000
  16.612735,    0.000000
  17.082660,    0.000000
  17.557448,    0.000000
  18.043880,    0.000000
  18.534084,    0.000000
  19.035959,    0.000000
  19.545728,    0.000000
  20.066775,    0.000000
  20.593832,    0.000000
  21.131081,    0.000000
  21.681736,    0.000000
  22.244016,    0.000000
  22.811716,    0.000000
  23.386520,    0.000000
  23.973538,    0.000000
  24.577856,    0.000000
  24.698939,    0.000000
  24.798636,    0.000000
  25.103839,    0.000000
  25.108509,    0.000000
  25.112574,    0.000000
  25.113470,    0.000000
  25.113910,    0.000000
  25.114706,    0.000000
  25.114810,    0.000000
  25.114870,    0.000000
  25.114926,    0.000000
  25.115479,    0.000000
  25.120447,    0.000000
  25.152281,    0.000000
  25.279337,    0.000000
  25.673277,    0.000000
  26.264771,    0.000000
  26.844688,    0.000000
  27.429127,    0.000000
  28.028125,    0.000000
  28.629911,    0.000000
  29.245352,    0.000000
  29.870629,    0.000000
  30.503840,    0.000000
  31.146934,    0.000000
  31.800066,    0.000000
  32.458399,    0.000000
  33.123687,    0.000000
  33.801557,    0.000000
  34.488694,    0.000000
  35.186614,    0.000000
  35.893623,    0.000000
  36.614023,    0.000000
  37.335990,    0.000000
  38.071039,    0.000000
  38.814894,    0.000000
  39.565626,    0.000000
  40.327566,    0.000000
  41.102904,    0.000000
  41.887439,    0.000000
  42.675608,    0.000000
  43.478260,    0.000000
  44.292672,    0.000000
  45.113610,    0.000000
  45.941456,    0.000000
  46.785475,    0.000000
  47.638233,    0.000000
  48.501588,    0.000000
  49.372286,    0.000000
  50.254449,    0.000000
  51.142663,    0.000000
  52.046696,    0.000000
  52.962047,    0.000000
  53.880411,    0.000000
  54.809296,    0.000000
  55.751913,    0.000000
  56.705841,    0.000000
  57.671234,    0.000000
  58.650170,    0.000000
  59.633674,    0.000000
  60.632449,    0.000000
  61.644203,    0.000000
  62.669200,    0.000000
  63.702929,    0.000000
  64.749582,    0.000000
  65.804696,    0.000000
  66.866533,    0.000000
  67.944999,    0.000000
  69.025887,    0.000000
  70.124255,    0.000000
  71.232793,    0.000000
  72.352021,    0.000000
  73.487722,    0.000000
  74.634906,    0.000000
  75.790774,    0.000000
  76.959483,    0.000000
  78.144415,    0.000000
  79.341050,    0.000000
  80.543252,    0.000000
  81.756680,    0.000000
  82.983465,    0.000000
  84.219771,    0.000000
  85.468472,    0.000000
  86.731270,    0.000000
  88.011320,    0.000000
  89.305378,    0.000000
  90.606500,    0.000000
  91.914189,    0.000000
  93.232949,    0.000000
  94.573382,    0.000000
  95.917871,    0.000000
  97.278426,    0.000000
  98.652852,    0.000000
 100.033656,    0.000000
 101.432892,    0.000000
 102.847364,    0.000000
 104.274395,    0.000000
 104.331804,    0.000000
 104.380892,    0.000000
 104.428592,    0.000000
 104.486914,    0.000000
 104.499953,    0.000000
 104.515657,    0.000000
 104.518984,    0.000000
 104.520606,    0.000000
 104.523851,    0.000000
 104.524217,    0.000000
 104.524429,    0.000000
 104.526549,    0.000000
 104.529199,    0.000000
 104.555698,    0.000000
 104.704837,    0.000000
 105.233085,    0.000000
 106.462419,    0.000000
 107.789108,    0.000000
 109.127921,    0.000000
 110.475074,    0.000000
 111.833982,    0.000000
 113.196882,    0.000000
 114.578508,    0.000000
 115.970095,    0.000000
 117.373348,    0.000000
 118.784784,    0.000000
 120.209030,    0.000000
 121.639144,    0.000000
 123.084385,    0.000000
 124.538332,    0.000000
 126.008637,    0.000000
 127.486492,    0.000000
 128.971896,    0.000000
 130.473043,    0.000000
 131.982619,    0.000000
 133.501065,    0.000000
 135.035527,    0.000000
 136.577192,    0.000000
 138.130599,    0.000000
 139.702251,    0.000000
 141.282079,    0.000000
 142.877756,    0.000000
 144.477184,    0.000000
 146.086367,    0.000000
 147.715595,    0.000000
 149.357840,    0.000000
 151.004513,    0.000000
 152.673304,    0.000000
 154.347321,    0.000000
 156.035869,    0.000000
 157.733772,    0.000000
 159.438942,    0.000000
 161.152497,    0.000000
 162.887646,    0.000000
 164.631627,    0.000000
 166.389627,    0.000000
 168.158128,    0.000000
 169.936827,    0.000000
 171.736138,    0.000000
 173.543857,    0.000000
 175.364172,    0.000000
 177.188453,    0.000000
 179.026379,    0.000000
 180.883758,    0.000000
 182.752174,    0.000000
 184.631112,    0.000000
 186.523413,    0.000000
 188.423758,    0.000000
 190.341490,    0.000000
 192.268390,    0.000000
 194.209932,    0.000000
 196.159725,    0.000000
 198.119644,    0.000000
 200.095890,    0.000000
 202.085889,    0.000000
 204.089450,    0.000000
 206.106731,    0.000000
 208.129991,    0.000000
 210.162001,    0.000000
 212.219772,    0.000000
 214.282762,    0.000000
 216.360272,    0.000000
 218.450477,    0.000000
 220.557152,    0.000000
 222.678209,    0.000000
 224.805358,    0.000000
 226.940994,    0.000000
 229.097799,    0.000000
 231.264882,    0.000000
 233.449089,    0.000000
 235.642525,    0.000000
 237.845081,    0.000000
 240.064474,    0.000000
 242.293771,    0.000000
 244.541948,    0.000000
 246.797286,    0.000000
 247.252305,    0.000000
 247.562373,    0.000000
 247.808821,    0.000000
 247.981100,    0.000000
 248.110404,    0.000000
 248.241242,    0.000000
 248.351365,    0.000000
 248.383122,    0.000000
 248.430524,    0.000000
 248.440558,    0.000000
 248.444489,    0.000000
 248.452350,    0.000000
 248.452899,    0.000000
 248.453403,    0.000000
 248.458440,    0.000000
 248.500332,    0.000000
 248.758821,    0.000000
 250.153645,    0.000000
 252.204596,    0.000000
 254.270186,    0.000000
 256.341197,    0.000000
 258.419400,    0.000000
 260.509832,    0.000000
 262.613448,    0.000000
 264.723772,    0.000000
 266.851357,    0.000000
 268.987117,    0.000000
 271.126858,    0.000000
 273.278840,    0.000000
 275.443959,    0.000000
 277.624700,    0.000000
 279.809237,    0.000000
 282.010702,    0.000000
 284.224647,    0.000000
 286.448340,    0.000000
 288.676772,    0.000000
 290.923271,    0.000000
 293.173828,    0.000000
 295.438680,    0.000000
 297.712689,    0.000000
 299.999486,    0.000000
 302.292198,    0.000000
 304.606753,    0.000000
 306.923663,    0.000000
 309.255724,    0.000000
 311.602002,    0.000000
 313.952601,    0.000000
 316.316523,    0.000000
 318.696169,    0.000000
 321.083803,    0.000000
 323.482354,    0.000000
 325.888734,    0.000000
 328.309719,    0.000000
 330.744686,    0.000000
 333.189919,    0.000000
 335.645561,    0.000000
 338.111985,    0.000000
 340.591004,    0.000000
 343.077154,    0.000000
 345.570726,    0.000000
 348.092666,    0.000000
 350.620576,    0.000000
 353.147025,    0.000000
 355.694196,    0.000000
 358.251667,    0.000000
 360.822329,    0.000000
 363.398601,    0.000000
 365.995311,    0.000000
 368.597746,    0.000000
 371.208284,    0.000000
 373.833227,    0.000000
 376.480886,    0.000000
 379.135406,    0.000000
 381.799935,    0.000000
 384.471215,    0.000000
 387.154927,    0.000000
 389.853790,    0.000000
 392.562241,    0.000000
 395.285251,    0.000000
 398.019833,    0.000000
 400.770798,    0.000000
 403.520237,    0.000000
 406.280813,    0.000000
 409.065213,    0.000000
 411.863278,    0.000000
 414.668473,    0.000000
 417.473846,    0.000000
 420.303825,    0.000000
 423.148627,    0.000000
 426.000860,    0.000000
 428.861878,    0.000000
 431.733089,    0.000000
 434.622482,    0.000000
 437.516588,    0.000000
 440.428837,    0.000000
 443.347736,    0.000000
 446.279462,    0.000000
 449.227657,    0.000000
 452.189871,    0.000000
 455.155432,    0.000000
 458.135311,    0.000000
 461.128275,    0.000000
 464.134975,    0.000000
 467.155423,    0.000000
 470.191050,    0.000000
 473.231749,    0.000000
 476.281594,    0.000000
 476.895619,    0.000000
 476.995303,    0.000000
 477.104647,    0.000000
 477.129210,    0.000000
 477.145985,    0.000000
 477.154379,    0.000000
 477.160371,    0.000000
 477.163906,    0.000000
 477.166098,    0.000000
 477.168109,    0.000000
 477.188223,    0.000000
 477.350871,    0.000000
 478.348376,    0.000000
 481.049664,    0.000000
 484.130598,    0.000000
 487.208604,    0.000000
 490.305057,    0.000000
 493.410502,    0.000000
 496.531215,    0.000000
 499.664893,    0.000000
 502.808467,    0.000000
 505.962954,    0.000000
 509.127187,    0.000000
 512.306183,    0.000000
 515.498674,    0.000000
 518.698441,    0.000000
 521.908129,    0.000000
 525.128021,    0.000000
 528.363034,    0.000000
 531.615135,    0.000000
 534.872782,    0.000000
 538.149246,    0.000000
 541.433415,    0.000000
 544.734366,    0.000000
 548.044498,    0.000000
 551.372469,    0.000000
 554.706441,    0.000000
 558.055257,    0.000000
 561.412990,    0.000000
 564.784452,    0.000000
 568.169678,    0.000000
 571.570894,    0.000000
 574.975521,    0.000000
 578.402491,    0.000000
 581.835930,    0.000000
 585.279553,    0.000000
 588.734200,    0.000000
 592.198809,    0.000000
 595.687748,    0.000000
 599.177868,    0.000000
 602.686368,    0.000000
 606.203454,    0.000000
 609.734365,    0.000000
 613.279536,    0.000000
 616.837040,    0.000000
 620.408984,    0.000000
 623.987563,    0.000000
 627.583953,    0.000000
 631.188732,    0.000000
 634.806796,    0.000000
 638.434691,    0.000000
 642.085185,    0.000000
 645.742487,    0.000000
 649.412652,    0.000000
 653.093048,    0.000000
 656.787535,    0.000000
 660.501703,    0.000000
 664.218514,    0.000000
 667.942299,    0.000000
 671.684810,    0.000000
 675.442890,    0.000000
 679.203805,    0.000000
 682.986262,    0.000000
 686.775558,    0.000000
 690.585319,    0.000000
 694.399464,    0.000000
 698.238649,    0.000000
 702.077842,    0.000000
 705.929615,    0.000000
 709.795180,    0.000000
 713.678758,    0.000000
 717.574157,    0.000000
 721.482926,    0.000000
 723.135691,    0.000000
 725.400682,    0.000000
 729.338670,  104.225254
 733.283323,  283.918256
 737.242115,  461.594019
 741.216677,  637.605159
 745.199791,  812.032921
 749.190050,  984.570129
 753.197218, 1155.171147
 757.219131, 1324.270188
 761.256429, 1491.780242
 765.301057, 1657.739283
 769.350576, 1821.826043
 773.420338, 1983.953311
 777.496243, 2144.765287
 781.586386, 2303.700299
 785.682760, 2461.100446
 789.788378, 2616.664059
 793.914038, 2770.518480
 798.046655, 2923.096318
 802.194756, 3073.904724
 806.351941, 3223.282024
 810.517342, 3371.004008
 814.699502, 3517.047826
 818.891333, 3661.740559
 823.085526, 3804.847287
 823.926993, 3949.696035
 826.892482, 3975.465076
 827.060721, 4076.924796
 827.113261, 4082.593643
 827.181026, 4084.306905
 827.197118, 4086.594484
 827.227893, 4087.108009
 827.235189, 4088.146692
 827.237378, 4088.392412
 827.239674, 4088.464470
 827.241874, 4088.540306
 827.263873, 4088.592852
 827.415840, 4089.187147
 828.260068, 4093.499094
 831.958842, 4118.417765
 836.332353, 4239.039797
 840.709690, 4380.773806
 845.099718, 4520.696393
 849.495139, 4659.128159
 853.900543, 4795.842256
 858.316265, 4931.005755
 862.750858, 5064.634496
 867.192798, 5197.023083
 871.641970, 5327.824200
 876.091085, 5457.062505
 880.559256, 5584.514182
 885.031210, 5710.790211
 885.382975, 5841.111339
 885.734928, 5850.818561
 886.087516, 5860.520266
 886.440210, 5870.230071
 886.792984, 5879.932710
 887.146018, 5889.627181
 887.497997, 5899.320473
 887.851438, 5908.971326
 888.205480, 5918.653392
 888.558821, 5928.343598
 888.913006, 5938.002423
 889.266662, 5947.676132
 889.620808, 5957.323981
 889.975362, 5966.975240
 890.331203, 5976.626394
 890.686244, 5986.305363
 891.041647, 5995.950907
 891.398286, 6005.595063
 891.754132, 6015.265472
 892.111508, 6024.901163
 892.469453, 6034.569506
 892.827223, 6044.244170
 893.185319, 6053.903332
 893.543068, 6063.562129
 893.901864, 6073.199620
 894.258693, 6082.859349
 894.618256, 6092.449694
 894.975826, 6102.110020
 895.335682, 6111.700911
 895.695000, 6121.346978
 896.055368, 6130.966410
 896.416451, 6140.604377
 896.777956, 6150.251809
 897.140012, 6159.900238
 897.502386, 6169.553634
 897.864320, 6179.206413
 898.227948, 6188.834502
 898.592304, 6198.498867
 898.956059, 6208.174281
 899.320102, 6217.822416
 899.684215, 6227.468379
 900.048312, 6237.106235
 900.413972, 6246.731422
 900.779741, 6256.389833
 901.144334, 6266.042817
 901.511417, 6275.649596
 901.875651, 6285.319348
 902.242637, 6294.896258
 902.608999, 6304.540207
 902.976333, 6314.155454
 903.343890, 6323.787220
 903.712252, 6333.413939
 904.080933, 6343.052349
 904.451014, 6352.687514
 904.822677, 6362.348901
 905.193692, 6372.044507
 905.564663, 6381.712196
 905.935061, 6391.369333
 906.305737, 6401.000264
 906.678574, 6410.625729
 907.051435, 6420.300169
 907.425063, 6429.964037
 907.798709, 6439.638662
 908.172831, 6449.302956
 908.548632, 6458.967729
 908.924829, 6468.667458
 909.300901, 6478.367918
 909.678708, 6488.052351
 910.056997, 6497.772964
 910.434494, 6507.497490
 910.811336, 6517.191210
 911.191724, 6526.852096
 911.571609, 6536.599294
 911.950983, 6546.323331
 912.328403, 6556.026043
 912.707270, 6565.663896
 913.089500, 6575.325930
 913.470657, 6585.069676
 913.853447, 6594.772029
 914.235807, 6604.508562
 914.619333, 6614.221649
 915.005114, 6623.952584
 915.389265, 6633.735778
 915.776099, 6643.461314
 916.163651, 6653.247191
 916.548446, 6663.045629
 916.935766, 6672.756756
 917.323290, 6682.524497
 917.712165, 6692.285452
 918.102244, 6702.070269
 918.492705, 6711.876105
 918.883291, 6721.681436
 919.274574, 6731.478725
 919.665129, 6741.285023
 920.059263, 6751.056713
 920.452256, 6760.914066
 920.845525, 6770.730432
 921.239356, 6780.542856
 921.632306, 6790.360849
 922.026988, 6800.142844
 922.423547, 6809.957375
 922.823887, 6819.805461
 923.220950, 6819.257767
 923.622199, 6818.705211
 924.023055, 6818.154110
 924.422595, 6817.605730
 924.820672, 6817.060264
 925.222130, 6816.511079
 925.624258, 6815.961900
 926.026180, 6815.413926
 926.426575, 6814.868952
 926.827869, 6814.323674
 927.234061, 6813.772677
 927.640966, 6813.221661
 928.047527, 6812.672057
 928.453233, 6812.124555
 928.859082, 6811.577803
 929.268269, 6811.027510
 929.677613, 6810.477969
 930.086949, 6809.929400
 930.497804, 6809.379763
 930.909741, 6808.829654
 931.319848, 6808.282958
 931.730557, 6807.736430
 932.143880, 6807.187405
 932.556376, 6806.640460
 932.970388, 6806.092491
 933.383697, 6805.546439
 933.800193, 6804.997173
 934.214868, 6804.451304
 934.631377, 6803.904022
 935.049715, 6803.355346
 935.469179, 6802.806208
 935.888284, 6802.258558
 936.306764, 6801.712741
 936.726151, 6801.166757
 937.148173, 6800.618372
 937.571890, 6800.068826
 937.992508, 6799.524328
 938.414339, 6798.979291
 938.839923, 6798.430454
 939.264870, 6797.883487
 939.689227, 6797.338328
 940.115893, 6796.791259
 940.544653, 6796.242573
 940.969296, 6795.700211
 941.398984, 6795.152475
 941.829097, 6794.605274
 942.257882, 6794.060838
 942.687766, 6793.516084
 943.120788, 6792.968445
 943.552383, 6792.423699
 943.987011, 6791.876225
 944.422546, 6791.328718
 944.856569, 6790.784216
 945.288499, 6790.243434
 945.726969, 6789.695581
 946.164535, 6789.149981
 946.602116, 6788.605486
 947.041247, 6788.060189
 947.478189, 6787.518735
 947.917362, 6786.975645
 948.356909, 6786.433228
 948.798742, 6785.889134
 949.242603, 6785.343699
 949.686649, 6784.799195
 950.133432, 6784.252506
 950.578494, 6783.709092
 951.025990, 6783.163882
 951.473031, 6782.620407
 951.919768, 6782.078476
 952.368315, 6781.535536
 952.819941, 6780.990068
 953.271706, 6780.445637
 953.524438, 6780.141590
 953.727514, 6779.897555
 954.182145, 6779.352112
 954.637582, 6778.806929
 955.092103, 6778.264063
 955.548638, 6777.720025
 956.004721, 6777.177757
 956.462338, 6776.634903
 956.920968, 6776.092093
 957.380237, 6775.549778
 957.843052, 6775.004539
 958.303260, 6774.463634
 958.766595, 6773.920323
 959.228236, 6773.380267
 959.690822, 6772.840375
 960.155377, 6772.299466
 960.618620, 6771.761363
 961.088124, 6771.217289
 961.557577, 6770.674588
 962.026095, 6770.134275
 962.500044, 6769.589030
 962.971205, 6769.048320
 963.445403, 6768.505462
 963.919821, 6767.963693
 964.394314, 6767.423182
 964.871809, 6766.880610
 965.347278, 6766.341692
 965.823798, 6765.802940
 966.302648, 6765.262920
 966.782245, 6764.723433
 967.263326, 6764.183659
 967.744603, 6763.645050
 968.227736, 6763.105762
 968.710925, 6762.567808
 969.194119, 6762.031248
 969.678291, 6761.495006
 970.161248, 6760.961511
 970.648572, 6760.424610
 971.134714, 6759.890433
 971.627640, 6759.350250
 972.116010, 6758.816500
 972.608697, 6758.279484
 973.102515, 6757.742699
 973.594845, 6757.208993
 974.089951, 6756.673747
 974.582293, 6756.142954
 975.075403, 6755.612795
 975.571624, 6755.080770
 976.071937, 6754.545860
 976.574038, 6754.010557
 977.079582, 6753.473118
 977.579245, 6752.943446
 978.083584, 6752.410347
 978.585216, 6751.881631
 979.089508, 6751.351644
 979.595175, 6750.821755
 980.101907, 6750.292301
 980.611848, 6749.761061
 981.118567, 6749.234735
 981.627539, 6748.707634
 982.141779, 6748.176669
 982.655040, 6747.648312
 983.170482, 6747.119316
 983.683488, 6746.594418
 984.200523, 6746.067012
 984.718742, 6745.540024
 985.239885, 6745.011707
 985.757756, 6744.488339
 986.278289, 6743.963921
 986.800057, 6743.439909
 987.322001, 6742.917377
 987.849432, 6742.391032
 988.374636, 6741.868589
 988.900430, 6741.347240
 989.427797, 6740.826020
 989.953853, 6740.307782
 990.482243, 6739.788940
 991.015238, 6739.267298
 991.544838, 6738.750693
 992.075666, 6738.234604
 992.611684, 6737.715212
 993.148883, 6737.196432
 993.689478, 6736.676150
 994.227523, 6736.160092
 994.767430, 6735.644023
 995.303465, 6735.133417
 995.845183, 6734.619179
 996.386413, 6734.107193
 996.929848, 6733.594922
 997.471647, 6733.085990
 998.020612, 6732.572156
 998.565144, 6732.064294
 999.112900, 6731.555253
 999.661856, 6731.046939
1000.208714, 6730.542401
1000.759761, 6730.035850
1001.313540, 6729.528661
1001.868666, 6729.022123
1002.424235, 6728.517073
1002.980455, 6728.013324
1003.533060, 6727.514727
1004.088805, 6727.015186
1004.649842, 6726.512811
1005.207678, 6726.015215
1005.768767, 6725.516645
1006.326902, 6725.022616
1006.888165, 6724.527747
1007.452275, 6724.032318
1008.018297, 6723.537173
1008.588999, 6723.039929
1009.158490, 6722.545735
1009.720698, 6722.059816
1010.290278, 6721.569508
1010.858968, 6721.081957
1011.431925, 6720.592759
1012.008248, 6720.102726
1012.579086, 6719.619372
1013.153461, 6719.135047
1013.730980, 6718.650119
1014.307830, 6718.167805
1014.892661, 6717.680910
1015.471873, 6717.200770
1016.051067, 6716.722713
1016.636051, 6716.241976
1017.217322, 6715.766380
1017.800367, 6715.291427
1018.379390, 6714.821825
1018.961969, 6714.351427
1019.545026, 6713.882740
1020.130744, 6713.414026
1020.720570, 6712.944166
1021.307312, 6712.478894
1021.898985, 6712.011865
1022.482998, 6711.553003
1023.069764, 6711.094101
1023.668615, 6710.627941
1024.262975, 6710.167468
1024.855853, 6709.710320
1025.457008, 6709.249008
1026.053012, 6708.793856
1026.653453, 6708.337537
1027.257236, 6707.880928
1027.858660, 6707.428344
1028.455746, 6706.981240
1029.065125, 6706.527206
1029.667687, 6706.080512
1030.267345, 6705.638203
1030.869962, 6705.195954
1031.477548, 6704.752335
1032.082187, 6704.313139
1032.687601, 6703.875649
1033.293039, 6703.440413
1033.902759, 6703.004396
1034.507059, 6702.574527
1035.118803, 6702.141670
1035.730158, 6701.711405
1036.343261, 6701.282238
1036.954032, 6700.857021
1037.571160, 6700.429729
1038.181185, 6700.009677
1038.795372, 6699.589091
1039.410357, 6699.170304
1040.024924, 6698.754147
1040.645978, 6698.335979
1041.270659, 6697.917783
1041.892976, 6697.503579
1042.518762, 6697.089490
1043.138471, 6696.681819
1043.765734, 6696.271607
1044.389487, 6695.866115
1045.013560, 6695.462832
1045.641868, 6695.059257
1046.267677, 6694.659724
1046.893941, 6694.262337
1047.522112, 6693.866189
1048.145684, 6693.475366
1048.775224, 6693.083254
1049.403937, 6692.694115
1050.031429, 6692.308182
1050.667550, 6691.919440
1051.302842, 6691.533715
1051.936359, 6691.151567
1052.576158, 6690.768162
1053.207783, 6690.392152
1053.844866, 6690.015406
1054.482191, 6689.641042
1055.123874, 6689.266670
1055.761225, 6688.897361
1056.399647, 6688.529964
1057.039354, 6688.164370
1057.681542, 6687.799919
1058.330652, 6687.434146
1058.979476, 6687.071155
1059.621174, 6686.714726
1060.261545, 6686.361588
1060.898809, 6686.012696
1061.542046, 6685.663096
1062.185850, 6685.315765
1062.832241, 6684.969634
1063.473955, 6684.628579
1064.117347, 6684.289204
1064.777735, 6683.943543
1065.425962, 6683.606887
1066.074781, 6683.272542
1066.721570, 6682.941849
1067.361845, 6682.617052
1068.014643, 6682.288528
1068.669154, 6681.961804
1069.318204, 6681.640439
1069.967005, 6681.321817
1070.614101, 6681.006642
1071.265765, 6680.691875
1071.919116, 6680.378945
1072.571253, 6680.069247
1073.226133, 6679.760908
1073.883209, 6679.454217
1074.539762, 6679.150454
1075.197762, 6678.848712
1075.854768, 6678.550114
1076.524852, 6678.248338
1077.186055, 6677.953300
1077.844731, 6677.662094
1078.506853, 6677.372085
1079.167812, 6677.085304
1079.830883, 6676.800339
1080.494101, 6676.518045
1081.153608, 6676.240044
1081.816698, 6675.963260
1082.482005, 6675.688299
1083.149362, 6675.415255
1083.819105, 6675.144020
1084.491158, 6674.874653
1085.160898, 6674.609007
1085.829751, 6674.346495
1086.498370, 6674.086855
1087.164990, 6673.830758
1087.830779, 6673.577737
1088.505777, 6673.324029
1089.175761, 6673.075006
1089.849606, 6672.827360
1090.524022, 6672.582330
1091.196602, 6672.340782
1091.873113, 6672.100656
1092.545727, 6671.864732
1093.216408, 6671.632285
1093.884577, 6671.403485
1094.561603, 6671.174481
1095.236610, 6670.948992
1095.915447, 6670.725078
1096.594686, 6670.503894
1097.270418, 6670.286693
1097.950084, 6670.071087
1098.628788, 6669.858647
1099.305485, 6669.649680
1099.984266, 6669.442924
1100.659262, 6669.240155
1101.341178, 6669.038176
1102.024600, 6668.838645
1102.709918, 6668.641469
1103.396141, 6668.446950
1104.078284, 6668.256480
1104.763842, 6668.067963
1105.449136, 6667.882429
1105.895417, 6667.763169
