Ground distance, Vertical Forces
   0.000000,    0.000000
   0.000000,    0.000000
   0.000007,    0.000000
   0.000082,    0.000000
   0.000471,    0.000000
   0.002611,    0.000000
   0.007883,    0.000000
   0.016021,    0.000000
   0.027016,    0.000000
   0.040922,    0.000000
   0.057780,    0.000000
   0.077586,    0.000000
   0.100326,    0.000000
   0.125942,    0.000000
   0.154713,    0.000000
   0.186823,    0.000000
   0.222045,    0.000000
   0.260756,    0.000000
   0.302570,    0.000000
   0.347923,    0.000000
   0.396709,    0.000000
   0.449072,    0.000000
   0.505139,    0.000000
   0.565818,    0.000000
   0.629321,    0.000000
   0.696192,    0.000000
   0.767836,    0.000000
   0.842671,    0.000000
   0.922055,    0.000000
   1.006500,    0.000000
   1.095504,    0.000000
   1.189311,    0.000000
   1.287386,    0.000000
   1.389598,    0.000000
   1.495618,    0.000000
   1.607014,    0.000000
   1.724723,    0.000000
   1.846153,    0.000000
   1.972630,    0.000000
   2.107465,    0.000000
   2.244878,    0.000000
   2.390951,    0.000000
   2.541755,    0.000000
   2.696714,    0.000000
   2.860361,    0.000000
   3.029808,    0.000000
   3.206675,    0.000000
   3.388884,    0.000000
   3.575572,    0.000000
   3.771163,    0.000000
   3.972625,    0.000000
   4.179952,    0.000000
   4.393994,    0.000000
   4.613086,    0.000000
   4.840682,    0.000000
   5.075485,    0.000000
   5.320203,    0.000000
   5.568898,    0.000000
   5.828049,    0.000000
   6.097646,    0.000000
   6.369353,    0.000000
   6.654390,    0.000000
   6.944175,    0.000000
   7.242556,    0.000000
   7.553601,    0.000000
   7.870306,    0.000000
   8.195511,    0.000000
   8.527551,    0.000000
   8.870135,    0.000000
   9.222438,    0.000000
   9.587628,    0.000000
   9.959421,    0.000000
  10.339511,    0.000000
  10.731027,    0.000000
  11.132951,    0.000000
  11.543166,    0.000000
  11.961975,    0.000000
  12.395725,    0.000000
  12.834698,    0.000000
  13.285572,    0.000000
  13.747262,    0.000000
  14.217976,    0.000000
  14.698218,    0.000000
  15.197074,    0.000000
  15.699039,    0.000000
  16.215408,    0.000000
  16.748197,    0.000000
  17.289480,    0.000000
  17.843884,    0.000000
  18.404680,    0.000000
  18.988049,    0.000000
  19.574672,    0.000000
  20.173425,    0.000000
  20.783393,    0.000000
  21.401260,    0.000000
  22.039416,    0.000000
  22.688402,    0.000000
  23.350597,    0.000000
  24.023375,    0.000000
  24.708915,    0.000000
  24.848461,    0.000000
  24.918110,    0.000000
  24.960115,    0.000000
  24.987430,    0.000000
  25.081498,    0.000000
  25.082059,    0.000000
  25.082987,    0.000000
  25.083383,    0.000000
  25.083495,    0.000000
  25.083548,    0.000000
  25.083601,    0.000000
  25.084137,    0.000000
  25.088672,    0.000000
  25.116551,    0.000000
  25.219963,    0.000000
  25.527125,    0.000000
  26.141405,    0.000000
  26.785931,    0.000000
  27.447079,    0.000000
  28.115090,    0.000000
  28.795350,    0.000000
  29.485894,    0.000000
  30.187059,    0.000000
  30.898280,    0.000000
  31.625886,    0.000000
  32.364925,    0.000000
  33.122314,    0.000000
  33.887918,    0.000000
  34.664240,    0.000000
  35.453035,    0.000000
  36.253324,    0.000000
  37.061997,    0.000000
  37.887845,    0.000000
  38.726487,    0.000000
  39.568639,    0.000000
  40.432427,    0.000000
  41.301106,    0.000000
  42.184307,    0.000000
  43.076800,    0.000000
  43.989895,    0.000000
  44.913626,    0.000000
  45.848172,    0.000000
  46.797072,    0.000000
  47.758548,    0.000000
  48.728286,    0.000000
  49.715617,    0.000000
  50.715006,    0.000000
  51.729581,    0.000000
  52.759859,    0.000000
  53.800502,    0.000000
  54.861502,    0.000000
  55.940737,    0.000000
  57.025220,    0.000000
  58.120526,    0.000000
  59.239747,    0.000000
  60.369394,    0.000000
  61.517558,    0.000000
  62.678802,    0.000000
  63.844125,    0.000000
  65.034125,    0.000000
  66.232218,    0.000000
  67.455031,    0.000000
  68.684252,    0.000000
  69.936302,    0.000000
  71.197192,    0.000000
  72.473338,    0.000000
  73.766415,    0.000000
  75.076415,    0.000000
  76.403491,    0.000000
  77.734368,    0.000000
  79.090532,    0.000000
  80.452946,    0.000000
  81.833859,    0.000000
  83.234743,    0.000000
  84.649742,    0.000000
  86.076075,    0.000000
  87.529580,    0.000000
  89.002517,    0.000000
  90.487151,    0.000000
  91.983098,    0.000000
  93.490940,    0.000000
  95.029204,    0.000000
  96.585428,    0.000000
  98.148737,    0.000000
  99.729079,    0.000000
 101.324331,    0.000000
 102.941287,    0.000000
 103.265878,    0.000000
 103.458075,    0.000000
 103.568907,    0.000000
 103.670897,    0.000000
 103.750633,    0.000000
 103.815717,    0.000000
 103.862810,    0.000000
 103.908576,    0.000000
 103.960808,    0.000000
 103.970275,    0.000000
 103.972680,    0.000000
 103.973243,    0.000000
 103.973543,    0.000000
 103.973675,    0.000000
 103.973835,    0.000000
 103.975433,    0.000000
 103.991410,    0.000000
 104.104923,    0.000000
 104.512434,    0.000000
 105.920854,    0.000000
 107.399548,    0.000000
 108.888289,    0.000000
 110.397087,    0.000000
 111.913332,    0.000000
 113.444042,    0.000000
 114.980652,    0.000000
 116.546503,    0.000000
 118.122274,    0.000000
 119.709281,    0.000000
 121.305428,    0.000000
 122.924303,    0.000000
 124.551241,    0.000000
 126.193184,    0.000000
 127.856354,    0.000000
 129.529032,    0.000000
 131.216982,    0.000000
 132.918510,    0.000000
 134.630181,    0.000000
 136.359853,    0.000000
 138.111584,    0.000000
 139.881820,    0.000000
 141.656321,    0.000000
 143.451338,    0.000000
 145.260899,    0.000000
 147.084571,    0.000000
 148.920652,    0.000000
 150.771945,    0.000000
 152.644271,    0.000000
 154.530512,    0.000000
 156.437327,    0.000000
 158.353374,    0.000000
 160.280389,    0.000000
 162.228984,    0.000000
 164.199367,    0.000000
 166.177699,    0.000000
 168.179261,    0.000000
 170.188575,    0.000000
 172.217971,    0.000000
 174.265273,    0.000000
 176.323559,    0.000000
 178.395849,    0.000000
 180.478634,    0.000000
 182.589947,    0.000000
 184.709407,    0.000000
 186.847517,    0.000000
 188.999008,    0.000000
 191.170846,    0.000000
 193.354765,    0.000000
 195.557972,    0.000000
 197.785531,    0.000000
 200.028555,    0.000000
 202.289230,    0.000000
 204.561836,    0.000000
 206.857959,    0.000000
 209.160254,    0.000000
 211.485733,    0.000000
 213.824874,    0.000000
 216.184489,    0.000000
 218.564823,    0.000000
 220.954382,    0.000000
 223.374309,    0.000000
 225.802736,    0.000000
 228.246820,    0.000000
 230.714584,    0.000000
 233.196805,    0.000000
 235.698407,    0.000000
 238.223447,    0.000000
 240.757637,    0.000000
 243.307499,    0.000000
 243.819123,    0.000000
 244.160930,    0.000000
 245.234459,    0.000000
 245.255574,    0.000000
 245.260895,    0.000000
 245.269421,    0.000000
 245.270580,    0.000000
 245.271239,    0.000000
 245.271652,    0.000000
 245.272031,    0.000000
 245.275823,    0.000000
 245.308995,    0.000000
 245.489763,    0.000000
 246.397362,    0.000000
 248.642360,    0.000000
 250.910951,    0.000000
 253.194482,    0.000000
 255.489820,    0.000000
 257.796429,    0.000000
 260.112136,    0.000000
 262.444877,    0.000000
 264.792560,    0.000000
 267.152670,    0.000000
 269.527490,    0.000000
 271.920292,    0.000000
 274.327732,    0.000000
 276.754404,    0.000000
 279.196508,    0.000000
 281.639954,    0.000000
 284.109086,    0.000000
 286.587877,    0.000000
 289.079199,    0.000000
 291.592865,    0.000000
 294.118875,    0.000000
 296.647416,    0.000000
 299.192465,    0.000000
 301.757769,    0.000000
 304.342926,    0.000000
 306.942795,    0.000000
 309.557182,    0.000000
 312.176347,    0.000000
 314.815464,    0.000000
 317.466208,    0.000000
 320.132569,    0.000000
 322.817880,    0.000000
 325.520222,    0.000000
 328.230660,    0.000000
 330.963415,    0.000000
 333.704471,    0.000000
 336.468821,    0.000000
 339.248237,    0.000000
 342.033247,    0.000000
 344.844506,    0.000000
 347.663742,    0.000000
 350.492407,    0.000000
 353.334963,    0.000000
 356.196160,    0.000000
 359.073472,    0.000000
 361.965013,    0.000000
 364.876543,    0.000000
 367.798876,    0.000000
 370.741193,    0.000000
 373.695465,    0.000000
 376.672141,    0.000000
 379.647749,    0.000000
 382.645542,    0.000000
 385.664177,    0.000000
 388.695286,    0.000000
 391.744345,    0.000000
 394.807075,    0.000000
 397.895053,    0.000000
 400.984272,    0.000000
 404.087347,    0.000000
 407.216091,    0.000000
 410.358140,    0.000000
 413.516237,    0.000000
 416.692282,    0.000000
 419.882047,    0.000000
 423.087385,    0.000000
 426.311910,    0.000000
 429.545002,    0.000000
 432.802710,    0.000000
 436.070654,    0.000000
 439.358729,    0.000000
 442.666954,    0.000000
 445.986607,    0.000000
 449.316383,    0.000000
 452.668690,    0.000000
 456.031707,    0.000000
 459.419409,    0.000000
 462.816887,    0.000000
 463.500268,    0.000000
 463.991797,    0.000000
 464.329741,    0.000000
 464.642615,    0.000000
 464.904321,    0.000000
 464.952813,    0.000000
 465.008249,    0.000000
 465.020106,    0.000000
 465.031843,    0.000000
 465.035901,    0.000000
 465.037453,    0.000000
 465.039173,    0.000000
 465.056369,    0.000000
 465.197834,    0.000000
 465.963858,    0.000000
 468.810677,    0.000000
 472.227554,    0.000000
 475.673722,    0.000000
 479.138752,    0.000000
 482.604102,    0.000000
 486.092738,    0.000000
 489.599800,    0.000000
 493.128471,    0.000000
 496.674129,    0.000000
 500.224997,    0.000000
 503.801621,    0.000000
 507.396981,    0.000000
 510.995201,    0.000000
 514.609631,    0.000000
 518.246373,    0.000000
 521.897149,    0.000000
 525.566409,    0.000000
 529.253570,    0.000000
 532.958511,    0.000000
 536.673319,    0.000000
 540.412163,    0.000000
 544.167612,    0.000000
 547.932129,    0.000000
 551.718431,    0.000000
 555.522072,    0.000000
 559.340358,    0.000000
 563.178382,    0.000000
 567.036967,    0.000000
 570.907534,    0.000000
 574.798944,    0.000000
 578.708079,    0.000000
 582.627476,    0.000000
 586.567398,    0.000000
 590.532868,    0.000000
 594.507978,    0.000000
 598.500367,    0.000000
 602.505612,    0.000000
 606.535368,    0.000000
 610.575486,    0.000000
 614.631440,    0.000000
 618.706842,    0.000000
 622.797647,    0.000000
 626.902631,    0.000000
 631.027386,    0.000000
 635.183907,    0.000000
 639.346251,    0.000000
 643.521000,    0.000000
 647.714792,    0.000000
 651.924416,    0.000000
 656.166071,    0.000000
 660.409120,    0.000000
 664.678835,    0.000000
 664.967817,    0.000000
 668.963366,    0.000000
 673.262209,  188.711008
 677.582682,  388.901434
 681.917670,  587.110324
 686.289143,  783.015102
 690.675101,  977.619767
 695.073570, 1169.933840
 699.497039, 1359.885886
 703.941253, 1548.035568
 708.395109, 1734.209147
 712.878676, 1917.940978
 717.375034, 2100.094332
 721.883566, 2279.977728
 726.419429, 2457.578693
 730.954866, 2633.540987
 735.508572, 2806.768705
 740.077775, 2978.027001
 744.677960, 3147.210630
 749.282291, 3314.942023
 753.896152, 3480.222583
 758.526265, 3643.277564
 763.166859, 3804.383258
 767.818097, 3963.353586
 772.484386, 4120.215269
 777.155953, 4275.157774
 781.847123, 4427.851642
 786.542973, 4578.830367
 787.485451, 4732.883241
 788.358760, 4762.474897
 788.683032, 4790.503458
 789.007469, 4800.599257
 789.072387, 4811.056353
 789.259250, 4812.901366
 789.262199, 4818.966498
 789.266411, 4819.056284
 789.267314, 4819.191732
 789.267639, 4819.220612
 789.268011, 4819.230675
 789.270482, 4819.239512
 789.283259, 4819.303108
 789.333685, 4819.652170
 789.469207, 4821.112462
 789.690292, 4825.222616
 790.014201, 4831.972206
 790.338547, 4842.049152
 790.663164, 4852.129481
 790.988565, 4862.207112
 791.314197, 4872.299370
 791.639991, 4882.388389
 791.965915, 4892.472029
 792.292226, 4902.548904
 792.617206, 4912.629567
 792.942316, 4922.656779
 793.268711, 4932.676124
 793.595606, 4942.725718
 793.923061, 4952.780216
 794.250741, 4962.841975
 794.578340, 4972.900588
 794.906607, 4982.945265
 795.234999, 4993.000751
 795.563038, 5003.050241
 795.891986, 5013.076849
 796.221244, 5023.121630
 796.550817, 5033.165408
 796.880702, 5043.208364
 797.209856, 5053.251811
 797.539956, 5063.260324
 797.869143, 5073.289695
 798.200018, 5083.277499
 798.531410, 5093.307656
 798.863071, 5103.343394
 799.192981, 5113.379569
 799.525204, 5123.346924
 799.857335, 5133.377037
 800.188822, 5143.394704
 800.521856, 5153.379589
 800.855000, 5163.402592
 801.188162, 5173.418627
 801.521890, 5183.424041
 801.856241, 5193.435957
 802.190830, 5203.456653
 802.524934, 5213.475031
 802.859611, 5223.467008
 803.194311, 5233.466486
 803.528590, 5243.456848
 803.862758, 5253.423871
 804.199411, 5263.373657
 804.535815, 5273.390832
 804.873037, 5283.388676
 805.210660, 5293.400977
 805.547169, 5303.416794
 805.885571, 5313.385018
 806.223888, 5323.401630
 806.562061, 5333.405313
 806.901421, 5343.392525
 807.239101, 5353.408255
 807.577748, 5363.360368
 807.918003, 5373.329718
 808.258604, 5383.337750
 808.599629, 5393.345332
 808.939017, 5403.357783
 809.280545, 5413.306533
 809.622895, 5423.309411
 809.965792, 5433.326262
 810.309339, 5443.348486
 810.649953, 5453.384134
 810.993768, 5463.315190
 811.336323, 5473.335404
 811.680620, 5483.304251
 812.023747, 5493.317385
 812.369246, 5503.281112
 812.712720, 5513.309411
 813.058009, 5523.263115
 813.404167, 5533.260284
 813.750703, 5543.272836
 814.097846, 5553.285469
 814.445955, 5563.304610
 814.794100, 5573.342359
 815.141499, 5583.371726
 815.489020, 5593.367828
 815.839095, 5603.353558
 816.187112, 5613.408632
 816.537315, 5623.388114
 816.888845, 5633.420990
 817.240292, 5643.483230
 817.590644, 5653.533946
 817.942030, 5663.539760
 818.292602, 5673.567181
 818.645283, 5683.556751
 818.999495, 5693.596657
 819.351915, 5703.674243
 819.705468, 5713.686100
 820.055631, 5723.725997
 820.411636, 5733.646185
 820.765108, 5743.733287
 821.121913, 5743.229589
 821.478414, 5742.726931
 821.834556, 5742.225391
 822.191878, 5741.722802
 822.549467, 5741.220451
 822.907309, 5740.718363
 823.266705, 5740.214716
 823.627411, 5739.709860
 823.987385, 5739.206655
 824.347238, 5738.704246
 824.706783, 5738.202893
 825.067265, 5737.700862
 825.428164, 5737.198880
 825.791241, 5736.694508
 826.152910, 5736.192727
 826.517250, 5735.687884
 826.881875, 5735.183291
 827.246017, 5734.680013
 827.610386, 5734.177068
 827.974336, 5733.675348
 828.339939, 5733.171999
 828.706051, 5732.668604
 829.070723, 5732.167841
 829.437443, 5731.664920
 829.804734, 5731.161876
 830.171239, 5730.660568
 830.538886, 5730.158359
 830.906634, 5729.656676
 831.275686, 5729.153882
 831.645262, 5728.651045
 832.015966, 5728.147347
 832.385941, 5727.645315
 832.757302, 5727.142081
 833.128418, 5726.639857
 833.499824, 5726.137921
 833.873455, 5725.633666
 834.247141, 5725.130027
 834.620515, 5724.627496
 834.994111, 5724.125359
 835.367293, 5723.624468
 835.742370, 5723.121729
 836.115558, 5722.622214
 836.490737, 5722.120733
 836.867146, 5721.618309
 837.243819, 5721.116237
 837.623738, 5720.610556
 838.003123, 5720.106301
 838.381957, 5719.603494
 838.761124, 5719.100963
 839.140840, 5718.598423
 839.521059, 5718.095939
 839.904094, 5717.590463
 840.287107, 5717.085751
 840.669194, 5716.582990
 841.052109, 5716.079874
 841.434547, 5715.578118
 841.818844, 5715.074661
 842.203121, 5714.571973
 842.590598, 5714.065850
 842.978239, 5713.560267
 843.365805, 5713.055539
 843.752366, 5712.552873
 844.141553, 5712.047553
 844.531453, 5711.542072
 844.920042, 5711.039055
 845.308530, 5710.536930
 845.699247, 5710.032694
 846.093096, 5709.525197
 846.486041, 5709.019647
 846.878757, 5708.515172
 847.272204, 5708.010543
 847.667664, 5707.504122
 848.063251, 5706.998334
 848.459136, 5706.492959
 848.855046, 5705.988350
 849.249708, 5705.486124
 849.648055, 5704.980012
 850.047655, 5704.473122
 850.448721, 5703.965188
 850.740545, 5703.596121
 850.847552, 5703.460900
 851.248550, 5702.954688
 851.650954, 5702.447529
 852.053005, 5701.941640
 852.456173, 5701.435175
 852.859529, 5700.929307
 853.262937, 5700.424207
 853.664658, 5699.922048
 854.070406, 5699.415695
 854.473980, 5698.912893
 854.880962, 5698.406690
 855.288779, 5697.900304
 855.697257, 5697.393954
 856.104986, 5696.889388
 856.512307, 5696.386183
 856.919107, 5695.884473
 857.330117, 5695.378438
 857.741155, 5694.873239
 858.153223, 5694.367649
 858.566155, 5693.861881
 858.980851, 5693.354837
 859.394845, 5692.849539
 859.809368, 5692.344485
 860.224052, 5691.840123
 860.639071, 5691.336248
 861.054911, 5690.832270
 861.472031, 5690.327643
 861.890595, 5689.822176
 862.310521, 5689.315980
 862.731861, 5688.809001
 863.154442, 5688.301455
 863.576251, 5687.795763
 863.998267, 5687.290750
 864.423658, 5686.782638
 864.847615, 5686.277178
 865.274313, 5685.769397
 865.700553, 5685.263110
 866.126290, 5684.758368
 866.556278, 5684.249547
 866.985867, 5683.742164
 867.415383, 5683.235833
 867.845905, 5682.729285
 868.276104, 5682.224088
 868.708725, 5681.717025
 869.140451, 5681.211991
 869.576537, 5680.702849
 870.012846, 5680.194446
 870.446832, 5679.689743
 870.884445, 5679.181825
 871.319061, 5678.678383
 871.756899, 5678.172214
 872.193985, 5677.667922
 872.632207, 5677.163330
 873.070710, 5676.659428
 873.513333, 5676.151821
 873.956834, 5675.644246
 874.400492, 5675.137530
 874.844860, 5674.631046
 875.289620, 5674.125162
 875.734848, 5673.619793
 876.184686, 5673.110259
 876.633802, 5672.602613
 877.082341, 5672.096685
 877.532087, 5671.590468
 877.982566, 5671.084502
 878.433219, 5670.579419
 878.887957, 5670.070852
 879.339902, 5669.566498
 879.794161, 5669.060657
 880.245220, 5668.559466
 880.701407, 5668.053679
 881.159159, 5667.547271
 881.614355, 5667.044800
 882.072952, 5666.539691
 882.534446, 5666.032526
 882.994437, 5665.528144
 883.457255, 5665.021803
 883.919050, 5664.517724
 884.379512, 5664.016235
 884.844358, 5663.511123
 885.310555, 5663.005704
 885.777754, 5662.500369
 886.245476, 5661.995639
 886.714606, 5661.490568
 887.184203, 5660.986178
 887.652873, 5660.483965
 888.123872, 5659.980444
 888.596293, 5659.476601
 889.069097, 5658.973552
 889.543247, 5658.470278
 890.017522, 5657.968082
 890.493877, 5657.464904
 890.972369, 5656.960699
 891.452438, 5656.456074
 891.931618, 5655.953622
 892.409608, 5655.453653
 892.892330, 5654.949987
 893.374647, 5654.448001
 893.860088, 5653.944033
 894.343580, 5653.443356
 894.831197, 5652.939687
 895.316950, 5652.439225
 895.803820, 5651.938894
 896.293957, 5651.436503
 896.782697, 5650.936841
 897.273072, 5650.436810
 897.764624, 5649.936888
 898.254797, 5649.439675
 898.749174, 5648.939520
 899.243593, 5648.440651
 899.740672, 5647.940438
 900.235296, 5647.444031
 900.730890, 5646.947985
 901.229199, 5646.450569
 901.729354, 5645.952672
 902.228191, 5645.457445
 902.728166, 5644.962449
 903.231582, 5644.465425
 903.733718, 5643.971042
 904.237947, 5643.475985
 904.744920, 5642.979633
 905.249575, 5642.486946
 905.759700, 5641.990334
 906.265723, 5641.499123
 906.776079, 5641.005124
 907.288803, 5640.510269
 907.800335, 5640.018000
 908.313752, 5639.525358
 908.823663, 5639.037512
 909.338923, 5638.545996
 909.852405, 5638.057627
 910.371377, 5637.565506
 910.890248, 5637.074960
 911.411131, 5636.584000
 911.929621, 5636.096777
 912.449235, 5635.609980
 912.969317, 5635.124233
 913.492172, 5634.637396
 914.014535, 5634.152521
 914.539564, 5633.666685
 915.063629, 5633.183257
 915.587586, 5632.701443
 916.113105, 5632.219712
 916.642982, 5631.735529
 917.170475, 5631.255065
 917.702607, 5630.771933
 918.231010, 5630.293733
 918.760753, 5629.815870
 919.299081, 5629.331852
 919.830790, 5628.855359
 920.367982, 5628.375541
 920.900765, 5627.901239
 921.439635, 5627.423117
 921.979190, 5626.945999
 922.519948, 5626.469435
 923.061489, 5625.993807
 923.601951, 5625.520748
 924.147714, 5625.044694
 924.694114, 5624.569739
 925.237346, 5624.099182
 925.784711, 5623.626703
 926.334331, 5623.153952
 926.879394, 5622.686780
 927.430473, 5622.216130
 927.983365, 5621.745630
 928.533587, 5621.279090
 929.085306, 5620.812973
 929.638016, 5620.347719
 930.194363, 5619.881122
 930.748403, 5619.418174
 931.305107, 5618.954724
 931.866458, 5618.489154
 932.427950, 5618.025226
 932.986301, 5617.565638
 933.544443, 5617.107960
 934.109659, 5616.646256
 934.671689, 5616.188923
 935.233143, 5615.733821
 935.798453, 5615.277374
 936.369820, 5614.817852
 936.932199, 5614.367341
 937.501779, 5613.912866
 938.070120, 5613.461189
 938.639947, 5613.010146
 939.211626, 5612.559465
 939.783597, 5612.110386
 940.360123, 5611.659586
 940.933846, 5611.212828
 941.509572, 5610.766364
 942.088454, 5610.319328
 942.670036, 5609.872100
 943.247443, 5609.429961
 943.825673, 5608.989067
 944.403519, 5608.550342
 944.986854, 5608.109351
 945.563568, 5607.675245
 946.152355, 5607.233981
 946.738586, 5606.796568
 947.319510, 5606.365022
 947.905926, 5605.931321
 948.494704, 5605.497820
 949.081513, 5605.067710
 949.670868, 5604.637685
 950.252091, 5604.215510
 950.837512, 5603.792208
 951.426090, 5603.368571
 952.019675, 5602.943307
 952.612582, 5602.520512
 953.208737, 5602.097399
 953.807557, 5601.674412
 954.403160, 5601.255706
 954.995900, 5600.840999
 955.589353, 5600.427779
 956.186068, 5600.014294
 956.783145, 5599.602569
 957.387695, 5599.187743
 957.988632, 5598.777444
 958.589317, 5598.369355
 959.192254, 5597.961788
 959.798146, 5597.554294
 960.405852, 5597.147664
 961.009918, 5596.745541
 961.616263, 5596.343977
 962.223086, 5595.944178
 962.827901, 5595.547777
 963.428300, 5595.156319
 964.036335, 5594.761962
 964.649807, 5594.366201
 965.255081, 5593.977817
 965.867752, 5593.586801
 966.482198, 5593.196789
 967.096803, 5592.808817
 967.711758, 5592.422767
 968.326052, 5592.039273
 968.937397, 5591.659745
 969.556214, 5591.277737
 970.165572, 5590.903691
 970.788245, 5590.523649
 971.400805, 5590.151926
 972.021428, 5589.777483
 972.637726, 5589.407813
 973.255395, 5589.039485
 973.873419, 5588.673113
 974.493826, 5588.307512
 975.117351, 5587.942276
 975.740910, 5587.579229
 976.358558, 5587.221803
 976.984981, 5586.861513
 977.614777, 5586.501532
 978.240673, 5586.146015
 978.871688, 5585.789845
 979.499599, 5585.437676
 980.130994, 5585.085813
 980.762547, 5584.736131
 981.388682, 5584.391690
 982.016994, 5584.048294
 982.646575, 5583.706457
 983.269067, 5583.370688
 983.905965, 5583.029432
 984.540656, 5582.691655
 985.170190, 5582.358889
 985.800926, 5582.027751
 986.440157, 5581.694466
 987.078359, 5581.364038
 987.718820, 5581.034774
 988.353429, 5580.710824
 988.987872, 5580.389252
 989.626455, 5580.067898
 990.268259, 5579.747265
 990.907085, 5579.430451
 991.553088, 5579.112443
 992.200075, 5578.796336
 992.843347, 5578.484410
 993.492028, 5578.172250
 994.139021, 5577.863293
 994.775608, 5577.561635
 995.418036, 5577.259552
 996.062950, 5576.958668
 996.711661, 5576.658407
 997.356270, 5576.362421
 998.004036, 5576.067375
 998.647701, 5575.776567
 999.297063, 5575.485581
 999.943786, 5575.198169
1000.602845, 5574.907730
1001.251571, 5574.624266
1001.901280, 5574.342780
1002.558782, 5574.060369
1003.213927, 5573.781426
1003.863771, 5573.507160
1004.517961, 5573.233495
1005.169035, 5572.963559
1005.820142, 5572.696029
1006.476638, 5572.428736
1007.124224, 5572.167480
1007.784955, 5571.903390
1008.438285, 5571.644708
1009.100166, 5571.385126
1009.714017, 5571.146617
