Ground distance, Vertical Forces
   0.000000, 215309.219737
   0.000000, 215309.219737
   0.000007, 215309.219737
   0.000082, 215309.219737
   0.000471, 215309.219737
   0.002611, 215309.219737
   0.007883, 215309.219737
   0.016021, 215309.219737
   0.027016, 215309.219737
   0.040922, 215309.219737
   0.057780, 215309.219737
   0.077586, 215309.219737
   0.100326, 215309.219737
   0.125942, 215309.219737
   0.154713, 215309.219737
   0.186823, 215309.219737
   0.222045, 215309.219737
   0.260756, 215309.219737
   0.302570, 215309.219737
   0.347923, 215309.219737
   0.396709, 215309.219737
   0.449072, 215309.219737
   0.505139, 215309.219737
   0.565818, 215309.219737
   0.629321, 215309.219737
   0.696192, 215309.219737
   0.767836, 215309.219737
   0.842671, 215309.219737
   0.922055, 215309.219737
   1.006500, 215309.219737
   1.095504, 215309.219737
   1.189311, 215309.219737
   1.287386, 215309.219737
   1.389598, 215309.219737
   1.495618, 215309.219737
   1.607014, 215309.219737
   1.724723, 215309.219737
   1.846153, 215309.219737
   1.972630, 215309.219737
   2.107465, 215309.219737
   2.244878, 215309.219737
   2.390951, 215309.219737
   2.541755, 215309.219737
   2.696714, 215309.219737
   2.860361, 215309.219737
   3.029808, 215309.219737
   3.206675, 215309.219737
   3.388884, 215309.219737
   3.575572, 215309.219737
   3.771163, 215309.219737
   3.972625, 215309.219737
   4.179952, 215309.219737
   4.393994, 215309.219737
   4.613086, 215309.219737
   4.840682, 215309.219737
   5.075485, 215309.219737
   5.320203, 215309.219737
   5.568898, 215309.219737
   5.828049, 215309.219737
   6.097646, 215309.219737
   6.369353, 215309.219737
   6.654390, 215309.219737
   6.944175, 215309.219737
   7.242556, 215309.219737
   7.553601, 215309.219737
   7.870306, 215309.219737
   8.195511, 215309.219737
   8.527551, 215309.219737
   8.870135, 215309.219737
   9.222438, 215309.219737
   9.587628, 215309.219737
   9.959421, 215309.219737
  10.339511, 215309.219737
  10.731027, 215309.219737
  11.132951, 215309.219737
  11.543166, 215309.219737
  11.961975, 215309.219737
  12.395725, 215309.219737
  12.834698, 215309.219737
  13.285572, 215309.219737
  13.747262, 215309.219737
  14.217976, 215309.219737
  14.698218, 215309.219737
  15.197074, 215309.219737
  15.699039, 215309.219737
  16.215408, 215309.219737
  16.748197, 215309.219737
  17.289480, 215309.219737
  17.843884, 215309.219737
  18.404680, 215309.219737
  18.988049, 215309.219737
  19.574672, 215309.219737
  20.173425, 215309.219737
  20.783393, 215309.219737
  21.401260, 215309.219737
  22.039416, 215309.219737
  22.688402, 215309.219737
  23.350597, 215309.219737
  24.023375, 215309.219737
  24.708915, 215309.219737
  24.848461, 215309.219737
  24.918110, 215309.219737
  24.960115, 215309.219737
  24.987430, 215309.219737
  25.081498, 215309.219737
  25.082059, 215309.219737
  25.082987, 215309.219737
  25.083383, 215309.219737
  25.083495, 215309.219737
  25.083548, 215309.219737
  25.083601, 215309.219737
  25.084137, 215309.219737
  25.088672, 215309.219737
  25.116551, 215309.219737
  25.219963, 215309.219737
  25.527125, 215309.219737
  26.141405, 215309.219737
  26.785931, 215309.219737
  27.447079, 215309.219737
  28.115090, 215309.219737
  28.795350, 215309.219737
  29.485894, 215309.219737
  30.187059, 215309.219737
  30.898280, 215309.219737
  31.625886, 215309.219737
  32.364925, 215309.219737
  33.122314, 215309.219737
  33.887918, 215309.219737
  34.664240, 215309.219737
  35.453035, 215309.219737
  36.253324, 215309.219737
  37.061997, 215309.219737
  37.887845, 215309.219737
  38.726487, 215309.219737
  39.568639, 215309.219737
  40.432427, 215309.219737
  41.301106, 215309.219737
  42.184307, 215309.219737
  43.076800, 215309.219737
  43.989895, 215309.219737
  44.913626, 215309.219737
  45.848172, 215309.219737
  46.797072, 215309.219737
  47.758548, 215309.219737
  48.728286, 215309.219737
  49.715617, 215309.219737
  50.715006, 215309.219737
  51.729581, 215309.219737
  52.759859, 215309.219737
  53.800502, 215309.219737
  54.861502, 215309.219737
  55.940737, 215309.219737
  57.025220, 215309.219737
  58.120526, 215309.219737
  59.239747, 215309.219737
  60.369394, 215309.219737
  61.517558, 215309.219737
  62.678802, 215309.219737
  63.844125, 215309.219737
  65.034125, 215309.219737
  66.232218, 215309.219737
  67.455031, 215309.219737
  68.684252, 215309.219737
  69.936302, 215309.219737
  71.197192, 215309.219737
  72.473338, 215309.219737
  73.766415, 215309.219737
  75.076415, 215309.219737
  76.403491, 215309.219737
  77.734368, 215309.219737
  79.090532, 215309.219737
  80.452946, 215309.219737
  81.833859, 215309.219737
  83.234743, 215309.219737
  84.649742, 215309.219737
  86.076075, 215309.219737
  87.529580, 215309.219737
  89.002517, 215309.219737
  90.487151, 215309.219737
  91.983098, 215309.219737
  93.490940, 215309.219737
  95.029204, 215309.219737
  96.585428, 215309.219737
  98.148737, 215309.219737
  99.729079, 215309.219737
 101.324331, 215309.219737
 102.941287, 215309.219737
 103.265878, 215309.219737
 103.458075, 215309.219737
 103.568907, 215309.219737
 103.670897, 215309.219737
 103.750633, 215309.219737
 103.815717, 215309.219737
 103.862810, 215309.219737
 103.908576, 215309.219737
 103.960808, 215309.219737
 103.970275, 215309.219737
 103.972680, 215309.219737
 103.973243, 215309.219737
 103.973543, 215309.219737
 103.973675, 215309.219737
 103.973835, 215309.219737
 103.975433, 215309.219737
 103.991410, 215309.219737
 104.104923, 215309.219737
 104.512434, 215309.219737
 105.920854, 215309.219737
 107.399548, 215309.219737
 108.888289, 215309.219737
 110.397087, 215309.219737
 111.913332, 215309.219737
 113.444042, 215309.219737
 114.980652, 215309.219737
 116.546503, 215309.219737
 118.122274, 215309.219737
 119.709281, 215309.219737
 121.305428, 215309.219737
 122.924303, 215309.219737
 124.551241, 215309.219737
 126.193184, 215309.219737
 127.856354, 215309.219737
 129.529032, 215309.219737
 131.216982, 215309.219737
 132.918510, 215309.219737
 134.630181, 215309.219737
 136.359853, 215309.219737
 138.111584, 215309.219737
 139.881820, 215309.219737
 141.656321, 215309.219737
 143.451338, 215309.219737
 145.260899, 215309.219737
 147.084571, 215309.219737
 148.920652, 215309.219737
 150.771945, 215309.219737
 152.644271, 215309.219737
 154.530512, 215309.219737
 156.437327, 215309.219737
 158.353374, 215309.219737
 160.280389, 215309.219737
 162.228984, 215309.219737
 164.199367, 215309.219737
 166.177699, 215309.219737
 168.179261, 215309.219737
 170.188575, 215309.219737
 172.217971, 215309.219737
 174.265273, 215309.219737
 176.323559, 215309.219737
 178.395849, 215309.219737
 180.478634, 215309.219737
 182.589947, 215309.219737
 184.709407, 215309.219737
 186.847517, 215309.219737
 188.999008, 215309.219737
 191.170846, 215309.219737
 193.354765, 215309.219737
 195.557972, 215309.219737
 197.785531, 215309.219737
 200.028555, 215309.219737
 202.289230, 215309.219737
 204.561836, 215309.219737
 206.857959, 215309.219737
 209.160254, 215309.219737
 211.485733, 215309.219737
 213.824874, 215309.219737
 216.184489, 215309.219737
 218.564823, 215309.219737
 220.954382, 215309.219737
 223.374309, 215309.219737
 225.802736, 215309.219737
 228.246820, 215309.219737
 230.714584, 215309.219737
 233.196805, 215309.219737
 235.698407, 215309.219737
 238.223447, 215309.219737
 240.757637, 215309.219737
 243.307499, 215309.219737
 243.819123, 215309.219737
 244.160930, 215309.219737
 245.234459, 215309.219737
 245.255574, 215309.219737
 245.260895, 215309.219737
 245.269421, 215309.219737
 245.270580, 215309.219737
 245.271239, 215309.219737
 245.271652, 215309.219737
 245.272031, 215309.219737
 245.275823, 215309.219737
 245.308995, 215309.219737
 245.489763, 215309.219737
 246.397362, 215309.219737
 248.642360, 215309.219737
 250.910951, 215309.219737
 253.194482, 215309.219737
 255.489820, 215309.219737
 257.796429, 215309.219737
 260.112136, 215309.219737
 262.444877, 215309.219737
 264.792560, 215309.219737
 267.152670, 215309.219737
 269.527490, 215309.219737
 271.920292, 215309.219737
 274.327732, 215309.219737
 276.754404, 215309.219737
 279.196508, 215309.219737
 281.639954, 215309.219737
 284.109086, 215309.219737
 286.587877, 215309.219737
 289.079199, 215309.219737
 291.592865, 215309.219737
 294.118875, 215309.219737
 296.647416, 215309.219737
 299.192465, 215309.219737
 301.757769, 215309.219737
 304.342926, 215309.219737
 306.942795, 215309.219737
 309.557182, 215309.219737
 312.176347, 215309.219737
 314.815464, 215309.219737
 317.466208, 215309.219737
 320.132569, 215309.219737
 322.817880, 215309.219737
 325.520222, 215309.219737
 328.230660, 215309.219737
 330.963415, 215309.219737
 333.704471, 215309.219737
 336.468821, 215309.219737
 339.248237, 215309.219737
 342.033247, 215309.219737
 344.844506, 215309.219737
 347.663742, 215309.219737
 350.492407, 215309.219737
 353.334963, 215309.219737
 356.196160, 215309.219737
 359.073472, 215309.219737
 361.965013, 215309.219737
 364.876543, 215309.219737
 367.798876, 215309.219737
 370.741193, 215309.219737
 373.695465, 215309.219737
 376.672141, 215309.219737
 379.647749, 215309.219737
 382.645542, 215309.219737
 385.664177, 215309.219737
 388.695286, 215309.219737
 391.744345, 215309.219737
 394.807075, 215309.219737
 397.895053, 215309.219737
 400.984272, 215309.219737
 404.087347, 215309.219737
 407.216091, 215309.219737
 410.358140, 215309.219737
 413.516237, 215309.219737
 416.692282, 215309.219737
 419.882047, 215309.219737
 423.087385, 215309.219737
 426.311910, 215309.219737
 429.545002, 215309.219737
 432.802710, 215309.219737
 436.070654, 215309.219737
 439.358729, 215309.219737
 442.666954, 215309.219737
 445.986607, 215309.219737
 449.316383, 215309.219737
 452.668690, 215309.219737
 456.031707, 215309.219737
 459.419409, 215309.219737
 462.816887, 215309.219737
 463.500268, 215309.219737
 463.991797, 215309.219737
 464.329741, 215309.219737
 464.642615, 215309.219737
 464.904321, 215309.219737
 464.952813, 215309.219737
 465.008249, 215309.219737
 465.020106, 215309.219737
 465.031843, 215309.219737
 465.035901, 215309.219737
 465.037453, 215309.219737
 465.039173, 215309.219737
 465.056369, 215309.219737
 465.197834, 215309.219737
 465.963858, 215309.219737
 468.810677, 215309.219737
 472.227554, 215309.219737
 475.673722, 215309.219737
 479.138752, 215309.219737
 482.604102, 215309.219737
 486.092738, 215309.219737
 489.599800, 215309.219737
 493.128471, 215309.219737
 496.674129, 215309.219737
 500.224997, 215309.219737
 503.801621, 215309.219737
 507.396981, 215309.219737
 510.995201, 215309.219737
 514.609631, 215309.219737
 518.246373, 215309.219737
 521.897149, 215309.219737
 525.566409, 215309.219737
 529.253570, 215309.219737
 532.958511, 215309.219737
 536.673319, 215309.219737
 540.412163, 215309.219737
 544.167612, 215309.219737
 547.932129, 215309.219737
 551.718431, 215309.219737
 555.522072, 215309.219737
 559.340358, 215309.219737
 563.178382, 215309.219737
 567.036967, 215309.219737
 570.907534, 215309.219737
 574.798944, 215309.219737
 578.708079, 215309.219737
 582.627476, 215309.219737
 586.567398, 215309.219737
 590.532868, 215309.219737
 594.507978, 215309.219737
 598.500367, 215309.219737
 602.505612, 215309.219737
 606.535368, 215309.219737
 610.575486, 215309.219737
 614.631440, 215309.219737
 618.706842, 215309.219737
 622.797647, 215309.219737
 626.902631, 215309.219737
 631.027386, 215309.219737
 635.183907, 215309.219737
 639.346251, 215309.219737
 643.521000, 215309.219737
 647.714792, 215309.219737
 651.924416, 215309.219737
 656.166071, 215309.219737
 660.409120, 215309.219737
 664.678835, 215309.219737
 664.967817, 215309.219737
 668.963366, 215309.219737
 673.262209, 215309.219737
 677.582682, 215309.219737
 681.917670, 215309.219737
 686.289143, 215309.219737
 690.675101, 215309.219737
 695.073570, 215309.219737
 699.497039, 215309.219737
 703.941253, 215309.219737
 708.395109, 215309.219737
 712.878676, 215309.219737
 717.375034, 215309.219737
 721.883566, 215309.219737
 726.419429, 215309.219737
 730.954866, 215309.219737
 735.508572, 215309.219737
 740.077775, 215309.219737
 744.677960, 215309.219737
 749.282291, 215309.219737
 753.896152, 215309.219737
 758.526265, 215309.219737
 763.166859, 215309.219737
 767.818097, 215309.219737
 772.484386, 215309.219737
 777.155953, 215309.219737
 781.847123, 215309.219737
 786.542973, 215309.219737
 787.485451, 215309.219737
 788.358760, 215309.219737
 788.683032, 215309.219645
 789.007469, 215309.219356
 789.072387, 215309.219271
 789.259250, 215309.218979
 789.262199, 215309.218974
 789.266411, 215309.218967
 789.267314, 215309.218965
 789.267639, 215309.218964
 789.268011, 215309.218964
 789.270482, 215309.218959
 789.283259, 215309.218936
 789.333685, 215309.218841
 789.469207, 215309.218557
 789.690292, 215309.218001
 790.014201, 215309.216967
 790.338547, 215309.215648
 790.663164, 215309.214022
 790.988565, 215309.212060
 791.314197, 215309.209740
 791.639991, 215309.207037
 791.965915, 215309.203926
 792.292226, 215309.200376
 792.617206, 215309.196381
 792.942316, 215309.191898
 793.268711, 215309.186881
 793.595606, 215309.181308
 793.923061, 215309.175145
 794.250741, 215309.168366
 794.578340, 215309.160947
 794.906607, 215309.152836
 795.234999, 215309.144011
 795.563038, 215309.134453
 795.891986, 215309.124089
 796.221244, 215309.112899
 796.550817, 215309.100845
 796.880702, 215309.087888
 797.209856, 215309.074034
 797.539956, 215309.059173
 797.869143, 215309.043352
 798.200018, 215309.026402
 798.531410, 215309.008333
 798.863071, 215308.989114
 799.192981, 215308.968828
 799.525204, 215308.947181
 799.857335, 215308.924273
 800.188822, 215308.900105
 800.521856, 215308.874466
 800.855000, 215308.847412
 801.188162, 215308.818903
 801.521890, 215308.788843
 801.856241, 215308.757170
 802.190830, 215308.723866
 802.524934, 215308.688957
 802.859611, 215308.652281
 803.194311, 215308.613844
 803.528590, 215308.573648
 803.862758, 215308.531609
 804.199411, 215308.487331
 804.535815, 215308.441097
 804.873037, 215308.392703
 805.210660, 215308.342141
 805.547169, 215308.289588
 805.885571, 215308.234512
 806.223888, 215308.177158
 806.562061, 215308.117479
 806.901421, 215308.055173
 807.239101, 215307.990708
 807.577748, 215307.923528
 807.918003, 215307.853417
 808.258604, 215307.780548
 808.599629, 215307.704832
 808.939017, 215307.626675
 809.280545, 215307.545140
 809.622895, 215307.460437
 809.965792, 215307.372548
 810.309339, 215307.281364
 810.649953, 215307.187794
 810.993768, 215307.090086
 811.336323, 215306.989408
 811.680620, 215306.884800
 812.023747, 215306.777065
 812.369246, 215306.665004
 812.712720, 215306.549959
 813.058009, 215306.430578
 813.404167, 215306.307066
 813.750703, 215306.179503
 814.097846, 215306.047709
 814.445955, 215305.911444
 814.794100, 215305.770971
 815.141499, 215305.626539
 815.489020, 215305.477719
 815.839095, 215305.323340
 816.187112, 215305.165338
 816.537315, 215305.001706
 816.888845, 215304.832689
 817.240292, 215304.658849
 817.590644, 215304.480625
 817.942030, 215304.296851
 818.292602, 215304.108396
 818.645283, 215303.913578
 818.999495, 215303.712542
 819.351915, 215303.507082
 819.705468, 215303.295422
 820.055631, 215303.080222
 820.411636, 215302.855672
 820.765108, 215302.626866
 821.121913, 215302.391280
 821.478414, 215302.151232
 821.834556, 215301.906744
 822.191878, 215301.656718
 822.549467, 215301.401735
 822.907309, 215301.141771
 823.266705, 215300.875816
 823.627411, 215300.603964
 823.987385, 215300.327716
 824.347238, 215300.046593
 824.706783, 215299.760724
 825.067265, 215299.469076
 825.428164, 215299.172016
 825.791241, 215298.868012
 826.152910, 215298.560021
 826.517250, 215298.244515
 826.881875, 215297.923468
 827.246017, 215297.597532
 827.610386, 215297.266050
 827.974336, 215296.929584
 828.339939, 215296.586163
 828.706051, 215296.236786
 829.070723, 215295.883305
 829.437443, 215295.522295
 829.804734, 215295.155123
 830.171239, 215294.783123
 830.538886, 215294.404298
 830.906634, 215294.019665
 831.275686, 215293.627904
 831.645262, 215293.229769
 832.015966, 215292.824542
 832.385941, 215292.414214
 832.757302, 215291.996393
 833.128418, 215291.572857
 833.499824, 215291.142964
 833.873455, 215290.704385
 834.247141, 215290.259578
 834.620515, 215289.808957
 834.994111, 215289.351850
 835.367293, 215288.889010
 835.742370, 215288.417503
 836.115558, 215287.942058
 836.490737, 215287.457699
 836.867146, 215286.965293
 837.243819, 215286.466034
 837.623738, 215285.955850
 838.003123, 215285.439711
 838.381957, 215284.917639
 838.761124, 215284.388390
 839.140840, 215283.851607
 839.521059, 215283.307295
 839.904094, 215282.752020
 840.287107, 215282.189788
 840.669194, 215281.621922
 841.052109, 215281.045783
 841.434547, 215280.463293
 841.818844, 215279.870822
 842.203121, 215279.271185
 842.590598, 215278.659234
 842.978239, 215278.039633
 843.365805, 215277.412730
 843.752366, 215276.780027
 844.141553, 215276.135499
 844.531453, 215275.482182
 844.920042, 215274.823454
 845.308530, 215274.157270
 845.699247, 215273.479537
 846.093096, 215272.788496
 846.486041, 215272.091127
 846.878757, 215271.386228
 847.272204, 215270.672030
 847.667664, 215269.946084
 848.063251, 215269.211752
 848.459136, 215268.468669
 848.855046, 215267.717301
 849.249708, 215266.960066
 849.648055, 215266.187388
 850.047655, 215265.403793
 850.448721, 215264.608737
 850.740545, 215264.024813
 850.847552, 215263.809548
 851.248550, 215262.997368
 851.650954, 215262.173590
 852.053005, 215261.341739
 852.456173, 215260.498712
 852.859529, 215259.646374
 853.262937, 215258.784965
 853.664658, 215257.918218
 854.070406, 215257.033688
 854.473980, 215256.144791
 854.880962, 215255.239153
 855.288779, 215254.322321
 855.697257, 215253.394594
 856.104986, 215252.459137
 856.512307, 215251.515174
 856.919107, 215250.562958
 857.330117, 215249.591248
 857.741155, 215248.609742
 858.153223, 215247.615970
 858.566155, 215246.610231
 858.980851, 215245.590191
 859.394845, 215244.561843
 859.809368, 215243.522095
 860.224052, 215242.471802
 860.639071, 215241.410469
 861.054911, 215240.336767
 861.472031, 215239.249395
 861.890595, 215238.147783
 862.310521, 215237.032002
 862.731861, 215235.901764
 863.154442, 215234.757392
 863.576251, 215233.604276
 863.998267, 215232.439724
 864.423658, 215231.254809
 864.847615, 215230.062810
 865.274313, 215228.851896
 865.700553, 215227.631013
 866.126290, 215226.400283
 866.556278, 215225.145770
 866.985867, 215223.880845
 867.415383, 215222.604521
 867.845905, 215221.313514
 868.276104, 215220.011736
 868.708725, 215218.690751
 869.140451, 215217.360582
 869.576537, 215216.004847
 870.012846, 215214.636170
 870.446832, 215213.262585
 870.884445, 215211.865159
 871.319061, 215210.464971
 871.756899, 215209.041932
 872.193985, 215207.608809
 872.632207, 215206.159345
 873.070710, 215204.696267
 873.513333, 215203.206525
 873.956834, 215201.700768
 874.400492, 215200.181347
 874.844860, 215198.646286
 875.289620, 215197.096590
 875.734848, 215195.531899
 876.184686, 215193.937392
 876.633802, 215192.331736
 877.082341, 215190.714425
 877.532087, 215189.078950
 877.982566, 215187.426899
 878.433219, 215185.760227
 878.887957, 215184.064227
 879.339902, 215182.364442
 879.794161, 215180.641632
 880.245220, 215178.916710
 880.701407, 215177.157681
 881.159159, 215175.377918
 881.614355, 215173.593441
 882.072952, 215171.780805
 882.534446, 215169.941649
 882.994437, 215168.093385
 883.457255, 215166.218499
 883.919050, 215164.332451
 884.379512, 215162.436568
 884.844358, 215160.507112
 885.310555, 215158.556328
 885.777754, 215156.585512
 886.245476, 215154.596547
 886.714606, 215152.585520
 887.184203, 215150.556319
 887.652873, 215148.514941
 888.123872, 215146.447069
 888.596293, 215144.356444
 889.069097, 215142.247513
 889.543247, 215140.115836
 890.017522, 215137.966770
 890.493877, 215135.791285
 890.972369, 215133.588843
 891.452438, 215131.361762
 891.931618, 215129.121385
 892.409608, 215126.869192
 892.892330, 215124.577016
 893.374647, 215122.268965
 893.860088, 215119.927942
 894.343580, 215117.578289
 894.831197, 215115.190305
 895.316950, 215112.793148
 895.803820, 215110.372079
 896.293957, 215107.916110
 896.782697, 215105.448440
 897.273072, 215102.953695
 897.764624, 215100.433982
 898.254797, 215097.902356
 898.749174, 215095.329764
 899.243593, 215092.737558
 899.740672, 215090.111791
 900.235296, 215087.479413
 900.730890, 215084.822223
 901.229199, 215082.130585
 901.729354, 215079.408873
 902.228191, 215076.674198
 902.728166, 215073.913055
 903.231582, 215071.112387
 903.733718, 215068.298264
 904.237947, 215065.451675
 904.744920, 215062.568580
 905.249575, 215059.677684
 905.759700, 215056.734118
 906.265723, 215053.792965
 906.776079, 215050.805119
 907.288803, 215047.781602
 907.800335, 215044.743267
 908.313752, 215041.671732
 908.823663, 215038.599293
 909.338923, 215035.472412
 909.852405, 215032.334052
 910.371377, 215029.139474
 910.890248, 215025.922691
 911.411131, 215022.670404
 911.929621, 215019.410084
 912.449235, 215016.119634
 912.969317, 215012.803038
 913.492172, 215009.445321
 914.014535, 215006.067229
 914.539564, 215002.648126
 915.063629, 214999.211482
 915.587586, 214995.751687
 916.113105, 214992.257547
 916.642982, 214988.710001
 917.170475, 214985.153992
 917.702607, 214981.541952
 918.231010, 214977.930544
 918.760753, 214974.285240
 919.299081, 214970.555410
 919.830790, 214966.846196
 920.367982, 214963.073187
 920.900765, 214959.305724
 921.439635, 214955.469389
 921.979190, 214951.602094
 922.519948, 214947.699921
 923.061489, 214943.765694
 923.601951, 214939.812887
 924.147714, 214935.794466
 924.694114, 214931.744259
 925.237346, 214927.690598
 925.784711, 214923.578860
 926.334331, 214919.422605
 926.879394, 214915.273458
 927.430473, 214911.050746
 927.983365, 214906.786027
 928.533587, 214902.513862
 929.085306, 214898.201930
 929.638016, 214893.853928
 930.194363, 214889.448611
 930.748403, 214885.032868
 931.305107, 214880.567003
 931.866458, 214876.034443
 932.427950, 214871.471142
 932.986301, 214866.903937
 933.544443, 214862.309035
 934.109659, 214857.625879
 934.671689, 214852.939085
 935.233143, 214848.227132
 935.798453, 214843.452478
 936.369820, 214838.595681
 936.932199, 214833.784781
 937.501779, 214828.881371
 938.070120, 214823.957557
 938.639947, 214818.989637
 939.211626, 214813.974081
 939.783597, 214808.924320
 940.360123, 214803.802246
 940.933846, 214798.673024
 941.509572, 214793.493666
 942.088454, 214788.253311
 942.670036, 214782.955507
 943.247443, 214777.662951
 943.825673, 214772.330032
 944.403519, 214766.967791
 944.986854, 214761.521203
 945.563568, 214756.103371
 946.152355, 214750.538148
 946.738586, 214744.962905
 947.319510, 214739.404416
 947.905926, 214733.759278
 948.494704, 214728.056852
 949.081513, 214722.338979
 949.670868, 214716.561555
 950.252091, 214710.829682
 950.837512, 214705.022029
 951.426090, 214699.148221
 952.019675, 214693.188991
 952.612582, 214687.200955
 953.208737, 214681.144160
 953.807557, 214675.023924
 954.403160, 214668.900357
 954.995900, 214662.770285
 955.589353, 214656.596856
 956.186068, 214650.353143
 956.783145, 214644.069067
 957.387695, 214637.669002
 957.988632, 214631.269901
 958.589317, 214624.836237
 959.192254, 214618.340958
 959.798146, 214611.775929
 960.405852, 214605.152985
 961.009918, 214598.531688
 961.616263, 214591.847208
 962.223086, 214585.119071
 962.827901, 214578.374927
 963.428300, 214571.642175
 964.036335, 214564.785271
 964.649807, 214557.827720
 965.255081, 214550.924352
 965.867752, 214543.897301
 966.482198, 214536.810122
 967.096803, 214529.681183
 967.711758, 214522.508147
 968.326052, 214515.302798
 968.937397, 214508.092232
 969.556214, 214500.753042
 970.165572, 214493.486164
 970.788245, 214486.019559
 971.400805, 214478.633788
 972.021428, 214471.109820
 972.637726, 214463.597418
 973.255395, 214456.027374
 973.873419, 214448.411913
 974.493826, 214440.725717
 975.117351, 214432.959049
 975.740910, 214425.149955
 976.358558, 214417.373419
 976.984981, 214409.444171
 977.614777, 214401.429314
 978.240673, 214393.421386
 978.871688, 214385.304819
 979.499599, 214377.185103
 980.130994, 214368.976950
 980.762547, 214360.723174
 981.388682, 214352.497121
 982.016994, 214344.199285
 982.646575, 214335.841242
 983.269067, 214327.534498
 983.905965, 214318.991412
 984.540656, 214310.433463
 985.170190, 214301.901173
 985.800926, 214293.308704
 986.440157, 214284.555634
 987.078359, 214275.771525
 987.718820, 214266.910937
 988.353429, 214258.086424
 988.987872, 214249.219478
 989.626455, 214240.249453
 990.268259, 214231.188430
 990.907085, 214222.123823
 991.553088, 214212.911064
 992.200075, 214203.637532
 992.843347, 214194.370813
 993.492028, 214184.979230
 994.139021, 214175.565083
 994.775608, 214166.256489
 995.418036, 214156.816309
 996.062950, 214147.292905
 996.711661, 214137.666176
 997.356270, 214128.053329
 998.004036, 214118.346167
 998.647701, 214108.653504
 999.297063, 214098.827589
 999.943786, 214088.994161
1000.602845, 214078.924417
1001.251571, 214068.964444
1001.901280, 214058.941505
1002.558782, 214048.749503
1003.213927, 214038.545150
1003.863771, 214028.375097
1004.517961, 214018.088442
1005.169035, 214007.802320
1005.820142, 213997.467314
1006.476638, 213986.997729
1007.124224, 213976.621961
1007.784955, 213965.986138
1008.438285, 213955.420304
1009.100166, 213944.666297
1009.714017, 213934.647775
