Ground distance, Vertical Forces
   0.000000, 215309.219737
   0.000001, 215309.219737
   0.000010, 215309.219737
   0.000165, 215309.219737
   0.000906, 215309.219737
   0.003878, 215309.219737
   0.009197, 215309.219737
   0.016801, 215309.219737
   0.026649, 215309.219737
   0.038817, 215309.219737
   0.053367, 215309.219737
   0.070270, 215309.219737
   0.089427, 215309.219737
   0.111137, 215309.219737
   0.135183, 215309.219737
   0.161653, 215309.219737
   0.190899, 215309.219737
   0.222436, 215309.219737
   0.256730, 215309.219737
   0.293710, 215309.219737
   0.332874, 215309.219737
   0.374826, 215309.219737
   0.420181, 215309.219737
   0.468295, 215309.219737
   0.519009, 215309.219737
   0.573030, 215309.219737
   0.629770, 215309.219737
   0.689907, 215309.219737
   0.752710, 215309.219737
   0.819295, 215309.219737
   0.888689, 215309.219737
   0.961195, 215309.219737
   1.037710, 215309.219737
   1.117281, 215309.219737
   1.200804, 215309.219737
   1.288183, 215309.219737
   1.379665, 215309.219737
   1.473406, 215309.219737
   1.570169, 215309.219737
   1.671274, 215309.219737
   1.776728, 215309.219737
   1.887692, 215309.219737
   2.002431, 215309.219737
   2.121006, 215309.219737
   2.244075, 215309.219737
   2.371810, 215309.219737
   2.504607, 215309.219737
   2.640912, 215309.219737
   2.782805, 215309.219737
   2.928371, 215309.219737
   3.078173, 215309.219737
   3.235231, 215309.219737
   3.397406, 215309.219737
   3.562111, 215309.219737
   3.732541, 215309.219737
   3.907539, 215309.219737
   4.091574, 215309.219737
   4.278486, 215309.219737
   4.470909, 215309.219737
   4.667243, 215309.219737
   4.870426, 215309.219737
   5.079616, 215309.219737
   5.294193, 215309.219737
   5.514990, 215309.219737
   5.740566, 215309.219737
   5.971629, 215309.219737
   6.208607, 215309.219737
   6.456622, 215309.219737
   6.706495, 215309.219737
   6.963874, 215309.219737
   7.226829, 215309.219737
   7.496465, 215309.219737
   7.774878, 215309.219737
   8.059158, 215309.219737
   8.349294, 215309.219737
   8.649138, 215309.219737
   8.952195, 215309.219737
   9.261746, 215309.219737
   9.582220, 215309.219737
   9.907815, 215309.219737
  10.239774, 215309.219737
  10.583311, 215309.219737
  10.928569, 215309.219737
  11.281768, 215309.219737
  11.642269, 215309.219737
  12.010671, 215309.219737
  12.389360, 215309.219737
  12.771389, 215309.219737
  13.161104, 215309.219737
  13.567929, 215309.219737
  13.977958, 215309.219737
  14.393994, 215309.219737
  14.821963, 215309.219737
  15.256141, 215309.219737
  15.698965, 215309.219737
  16.150205, 215309.219737
  16.612735, 215309.219737
  17.082660, 215309.219737
  17.557448, 215309.219737
  18.043880, 215309.219737
  18.534084, 215309.219737
  19.035959, 215309.219737
  19.545728, 215309.219737
  20.066775, 215309.219737
  20.593832, 215309.219737
  21.131081, 215309.219737
  21.681736, 215309.219737
  22.244016, 215309.219737
  22.811716, 215309.219737
  23.386520, 215309.219737
  23.973538, 215309.219737
  24.577856, 215309.219737
  24.698939, 215309.219737
  24.798636, 215309.219737
  25.103839, 215309.219737
  25.108509, 215309.219737
  25.112574, 215309.219737
  25.113470, 215309.219737
  25.113910, 215309.219737
  25.114706, 215309.219737
  25.114810, 215309.219737
  25.114870, 215309.219737
  25.114926, 215309.219737
  25.115479, 215309.219737
  25.120447, 215309.219737
  25.152281, 215309.219737
  25.279337, 215309.219737
  25.673277, 215309.219737
  26.264771, 215309.219737
  26.844688, 215309.219737
  27.429127, 215309.219737
  28.028125, 215309.219737
  28.629911, 215309.219737
  29.245352, 215309.219737
  29.870629, 215309.219737
  30.503840, 215309.219737
  31.146934, 215309.219737
  31.800066, 215309.219737
  32.458399, 215309.219737
  33.123687, 215309.219737
  33.801557, 215309.219737
  34.488694, 215309.219737
  35.186614, 215309.219737
  35.893623, 215309.219737
  36.614023, 215309.219737
  37.335990, 215309.219737
  38.071039, 215309.219737
  38.814894, 215309.219737
  39.565626, 215309.219737
  40.327566, 215309.219737
  41.102904, 215309.219737
  41.887439, 215309.219737
  42.675608, 215309.219737
  43.478260, 215309.219737
  44.292672, 215309.219737
  45.113610, 215309.219737
  45.941456, 215309.219737
  46.785475, 215309.219737
  47.638233, 215309.219737
  48.501588, 215309.219737
  49.372286, 215309.219737
  50.254449, 215309.219737
  51.142663, 215309.219737
  52.046696, 215309.219737
  52.962047, 215309.219737
  53.880411, 215309.219737
  54.809296, 215309.219737
  55.751913, 215309.219737
  56.705841, 215309.219737
  57.671234, 215309.219737
  58.650170, 215309.219737
  59.633674, 215309.219737
  60.632449, 215309.219737
  61.644203, 215309.219737
  62.669200, 215309.219737
  63.702929, 215309.219737
  64.749582, 215309.219737
  65.804696, 215309.219737
  66.866533, 215309.219737
  67.944999, 215309.219737
  69.025887, 215309.219737
  70.124255, 215309.219737
  71.232793, 215309.219737
  72.352021, 215309.219737
  73.487722, 215309.219737
  74.634906, 215309.219737
  75.790774, 215309.219737
  76.959483, 215309.219737
  78.144415, 215309.219737
  79.341050, 215309.219737
  80.543252, 215309.219737
  81.756680, 215309.219737
  82.983465, 215309.219737
  84.219771, 215309.219737
  85.468472, 215309.219737
  86.731270, 215309.219737
  88.011320, 215309.219737
  89.305378, 215309.219737
  90.606500, 215309.219737
  91.914189, 215309.219737
  93.232949, 215309.219737
  94.573382, 215309.219737
  95.917871, 215309.219737
  97.278426, 215309.219737
  98.652852, 215309.219737
 100.033656, 215309.219737
 101.432892, 215309.219737
 102.847364, 215309.219737
 104.274395, 215309.219737
 104.331804, 215309.219737
 104.380892, 215309.219737
 104.428592, 215309.219737
 104.486914, 215309.219737
 104.499953, 215309.219737
 104.515657, 215309.219737
 104.518984, 215309.219737
 104.520606, 215309.219737
 104.523851, 215309.219737
 104.524217, 215309.219737
 104.524429, 215309.219737
 104.526549, 215309.219737
 104.529199, 215309.219737
 104.555698, 215309.219737
 104.704837, 215309.219737
 105.233085, 215309.219737
 106.462419, 215309.219737
 107.789108, 215309.219737
 109.127921, 215309.219737
 110.475074, 215309.219737
 111.833982, 215309.219737
 113.196882, 215309.219737
 114.578508, 215309.219737
 115.970095, 215309.219737
 117.373348, 215309.219737
 118.784784, 215309.219737
 120.209030, 215309.219737
 121.639144, 215309.219737
 123.084385, 215309.219737
 124.538332, 215309.219737
 126.008637, 215309.219737
 127.486492, 215309.219737
 128.971896, 215309.219737
 130.473043, 215309.219737
 131.982619, 215309.219737
 133.501065, 215309.219737
 135.035527, 215309.219737
 136.577192, 215309.219737
 138.130599, 215309.219737
 139.702251, 215309.219737
 141.282079, 215309.219737
 142.877756, 215309.219737
 144.477184, 215309.219737
 146.086367, 215309.219737
 147.715595, 215309.219737
 149.357840, 215309.219737
 151.004513, 215309.219737
 152.673304, 215309.219737
 154.347321, 215309.219737
 156.035869, 215309.219737
 157.733772, 215309.219737
 159.438942, 215309.219737
 161.152497, 215309.219737
 162.887646, 215309.219737
 164.631627, 215309.219737
 166.389627, 215309.219737
 168.158128, 215309.219737
 169.936827, 215309.219737
 171.736138, 215309.219737
 173.543857, 215309.219737
 175.364172, 215309.219737
 177.188453, 215309.219737
 179.026379, 215309.219737
 180.883758, 215309.219737
 182.752174, 215309.219737
 184.631112, 215309.219737
 186.523413, 215309.219737
 188.423758, 215309.219737
 190.341490, 215309.219737
 192.268390, 215309.219737
 194.209932, 215309.219737
 196.159725, 215309.219737
 198.119644, 215309.219737
 200.095890, 215309.219737
 202.085889, 215309.219737
 204.089450, 215309.219737
 206.106731, 215309.219737
 208.129991, 215309.219737
 210.162001, 215309.219737
 212.219772, 215309.219737
 214.282762, 215309.219737
 216.360272, 215309.219737
 218.450477, 215309.219737
 220.557152, 215309.219737
 222.678209, 215309.219737
 224.805358, 215309.219737
 226.940994, 215309.219737
 229.097799, 215309.219737
 231.264882, 215309.219737
 233.449089, 215309.219737
 235.642525, 215309.219737
 237.845081, 215309.219737
 240.064474, 215309.219737
 242.293771, 215309.219737
 244.541948, 215309.219737
 246.797286, 215309.219737
 247.252305, 215309.219737
 247.562373, 215309.219737
 247.808821, 215309.219737
 247.981100, 215309.219737
 248.110404, 215309.219737
 248.241242, 215309.219737
 248.351365, 215309.219737
 248.383122, 215309.219737
 248.430524, 215309.219737
 248.440558, 215309.219737
 248.444489, 215309.219737
 248.452350, 215309.219737
 248.452899, 215309.219737
 248.453403, 215309.219737
 248.458440, 215309.219737
 248.500332, 215309.219737
 248.758821, 215309.219737
 250.153645, 215309.219737
 252.204596, 215309.219737
 254.270186, 215309.219737
 256.341197, 215309.219737
 258.419400, 215309.219737
 260.509832, 215309.219737
 262.613448, 215309.219737
 264.723772, 215309.219737
 266.851357, 215309.219737
 268.987117, 215309.219737
 271.126858, 215309.219737
 273.278840, 215309.219737
 275.443959, 215309.219737
 277.624700, 215309.219737
 279.809237, 215309.219737
 282.010702, 215309.219737
 284.224647, 215309.219737
 286.448340, 215309.219737
 288.676772, 215309.219737
 290.923271, 215309.219737
 293.173828, 215309.219737
 295.438680, 215309.219737
 297.712689, 215309.219737
 299.999486, 215309.219737
 302.292198, 215309.219737
 304.606753, 215309.219737
 306.923663, 215309.219737
 309.255724, 215309.219737
 311.602002, 215309.219737
 313.952601, 215309.219737
 316.316523, 215309.219737
 318.696169, 215309.219737
 321.083803, 215309.219737
 323.482354, 215309.219737
 325.888734, 215309.219737
 328.309719, 215309.219737
 330.744686, 215309.219737
 333.189919, 215309.219737
 335.645561, 215309.219737
 338.111985, 215309.219737
 340.591004, 215309.219737
 343.077154, 215309.219737
 345.570726, 215309.219737
 348.092666, 215309.219737
 350.620576, 215309.219737
 353.147025, 215309.219737
 355.694196, 215309.219737
 358.251667, 215309.219737
 360.822329, 215309.219737
 363.398601, 215309.219737
 365.995311, 215309.219737
 368.597746, 215309.219737
 371.208284, 215309.219737
 373.833227, 215309.219737
 376.480886, 215309.219737
 379.135406, 215309.219737
 381.799935, 215309.219737
 384.471215, 215309.219737
 387.154927, 215309.219737
 389.853790, 215309.219737
 392.562241, 215309.219737
 395.285251, 215309.219737
 398.019833, 215309.219737
 400.770798, 215309.219737
 403.520237, 215309.219737
 406.280813, 215309.219737
 409.065213, 215309.219737
 411.863278, 215309.219737
 414.668473, 215309.219737
 417.473846, 215309.219737
 420.303825, 215309.219737
 423.148627, 215309.219737
 426.000860, 215309.219737
 428.861878, 215309.219737
 431.733089, 215309.219737
 434.622482, 215309.219737
 437.516588, 215309.219737
 440.428837, 215309.219737
 443.347736, 215309.219737
 446.279462, 215309.219737
 449.227657, 215309.219737
 452.189871, 215309.219737
 455.155432, 215309.219737
 458.135311, 215309.219737
 461.128275, 215309.219737
 464.134975, 215309.219737
 467.155423, 215309.219737
 470.191050, 215309.219737
 473.231749, 215309.219737
 476.281594, 215309.219737
 476.895619, 215309.219737
 476.995303, 215309.219737
 477.104647, 215309.219737
 477.129210, 215309.219737
 477.145985, 215309.219737
 477.154379, 215309.219737
 477.160371, 215309.219737
 477.163906, 215309.219737
 477.166098, 215309.219737
 477.168109, 215309.219737
 477.188223, 215309.219737
 477.350871, 215309.219737
 478.348376, 215309.219737
 481.049664, 215309.219737
 484.130598, 215309.219737
 487.208604, 215309.219737
 490.305057, 215309.219737
 493.410502, 215309.219737
 496.531215, 215309.219737
 499.664893, 215309.219737
 502.808467, 215309.219737
 505.962954, 215309.219737
 509.127187, 215309.219737
 512.306183, 215309.219737
 515.498674, 215309.219737
 518.698441, 215309.219737
 521.908129, 215309.219737
 525.128021, 215309.219737
 528.363034, 215309.219737
 531.615135, 215309.219737
 534.872782, 215309.219737
 538.149246, 215309.219737
 541.433415, 215309.219737
 544.734366, 215309.219737
 548.044498, 215309.219737
 551.372469, 215309.219737
 554.706441, 215309.219737
 558.055257, 215309.219737
 561.412990, 215309.219737
 564.784452, 215309.219737
 568.169678, 215309.219737
 571.570894, 215309.219737
 574.975521, 215309.219737
 578.402491, 215309.219737
 581.835930, 215309.219737
 585.279553, 215309.219737
 588.734200, 215309.219737
 592.198809, 215309.219737
 595.687748, 215309.219737
 599.177868, 215309.219737
 602.686368, 215309.219737
 606.203454, 215309.219737
 609.734365, 215309.219737
 613.279536, 215309.219737
 616.837040, 215309.219737
 620.408984, 215309.219737
 623.987563, 215309.219737
 627.583953, 215309.219737
 631.188732, 215309.219737
 634.806796, 215309.219737
 638.434691, 215309.219737
 642.085185, 215309.219737
 645.742487, 215309.219737
 649.412652, 215309.219737
 653.093048, 215309.219737
 656.787535, 215309.219737
 660.501703, 215309.219737
 664.218514, 215309.219737
 667.942299, 215309.219737
 671.684810, 215309.219737
 675.442890, 215309.219737
 679.203805, 215309.219737
 682.986262, 215309.219737
 686.775558, 215309.219737
 690.585319, 215309.219737
 694.399464, 215309.219737
 698.238649, 215309.219737
 702.077842, 215309.219737
 705.929615, 215309.219737
 709.795180, 215309.219737
 713.678758, 215309.219737
 717.574157, 215309.219737
 721.482926, 215309.219737
 723.135691, 215309.219737
 725.400682, 215309.219737
 729.338670, 215309.219737
 733.283323, 215309.219737
 737.242115, 215309.219737
 741.216677, 215309.219737
 745.199791, 215309.219737
 749.190050, 215309.219737
 753.197218, 215309.219737
 757.219131, 215309.219737
 761.256429, 215309.219737
 765.301057, 215309.219737
 769.350576, 215309.219737
 773.420338, 215309.219737
 777.496243, 215309.219737
 781.586386, 215309.219737
 785.682760, 215309.219737
 789.788378, 215309.219737
 793.914038, 215309.219737
 798.046655, 215309.219737
 802.194756, 215309.219737
 806.351941, 215309.219737
 810.517342, 215309.219737
 814.699502, 215309.219737
 818.891333, 215309.219737
 823.085526, 215309.219737
 823.926993, 215309.219737
 826.892482, 215309.219737
 827.060721, 215309.219737
 827.113261, 215309.219737
 827.181026, 215309.219737
 827.197118, 215309.219737
 827.227893, 215309.219737
 827.235189, 215309.219737
 827.237378, 215309.219737
 827.239674, 215309.219737
 827.241874, 215309.219737
 827.263873, 215309.219737
 827.415840, 215309.219737
 828.260068, 215309.219737
 831.958842, 215309.219737
 836.332353, 215309.219737
 840.709690, 215309.219737
 845.099718, 215309.219737
 849.495139, 215309.219737
 853.900543, 215309.219737
 858.316265, 215309.219737
 862.750858, 215309.219737
 867.192798, 215309.219737
 871.641970, 215309.219737
 876.091085, 215309.219737
 880.559256, 215309.219737
 885.031210, 215309.219737
 885.382975, 215309.219480
 885.734928, 215309.218689
 886.087516, 215309.217328
 886.440210, 215309.215365
 886.792984, 215309.212766
 887.146018, 215309.209495
 887.497997, 215309.205533
 887.851438, 215309.200813
 888.205480, 215309.195306
 888.558821, 215309.188995
 888.913006, 215309.181815
 889.266662, 215309.173754
 889.620808, 215309.164752
 889.975362, 215309.154768
 890.331203, 215309.143730
 890.686244, 215309.131660
 891.041647, 215309.118480
 891.398286, 215309.104106
 891.754132, 215309.088577
 892.111508, 215309.071744
 892.469453, 215309.053597
 892.827223, 215309.034126
 893.185319, 215309.013257
 893.543068, 215308.990984
 893.901864, 215308.967169
 894.258693, 215308.941969
 894.618256, 215308.915000
 894.975826, 215308.886563
 895.335682, 215308.856266
 895.695000, 215308.824283
 896.055368, 215308.790420
 896.416451, 215308.754643
 896.777956, 215308.716917
 897.140012, 215308.677170
 897.502386, 215308.635364
 897.864320, 215308.591533
 898.227948, 215308.545352
 898.592304, 215308.496866
 898.956059, 215308.446191
 899.320102, 215308.393149
 899.684215, 215308.337709
 900.048312, 215308.279825
 900.413972, 215308.219169
 900.779741, 215308.155904
 901.144334, 215308.090201
 901.511417, 215308.021325
 901.875651, 215307.950213
 902.242637, 215307.875715
 902.608999, 215307.798424
 902.976333, 215307.717933
 903.343890, 215307.634326
 903.712252, 215307.547391
 904.080933, 215307.457160
 904.451014, 215307.363276
 904.822677, 215307.265583
 905.193692, 215307.164582
 905.564663, 215307.060046
 905.935061, 215306.952060
 906.305737, 215306.840308
 906.678574, 215306.724114
 907.051435, 215306.604033
 907.425063, 215306.479738
 907.798709, 215306.351387
 908.172831, 215306.218739
 908.548632, 215306.081254
 908.924829, 215305.939283
 909.300901, 215305.792938
 909.678708, 215305.641385
 910.056997, 215305.485004
 910.434494, 215305.324240
 910.811336, 215305.158979
 911.191724, 215304.987244
 911.571609, 215304.810709
 911.950983, 215304.629313
 912.328403, 215304.443705
 912.707270, 215304.252140
 913.089500, 215304.053463
 913.470657, 215303.849832
 913.853447, 215303.639702
 914.235807, 215303.424083
 914.619333, 215303.201967
 915.005114, 215302.972550
 915.389265, 215302.738025
 915.776099, 215302.495645
 916.163651, 215302.246454
 916.548446, 215301.992632
 916.935766, 215301.730612
 917.323290, 215301.461786
 917.712165, 215301.185220
 918.102244, 215300.900845
 918.492705, 215300.609113
 918.883291, 215300.310093
 919.274574, 215300.003219
 919.665129, 215299.689500
 920.059263, 215299.365292
 920.452256, 215299.034286
 920.845525, 215298.695207
 921.239356, 215298.347669
 921.632306, 215297.992842
 922.026988, 215297.628228
 922.423547, 215297.253468
 922.823887, 215296.866465
 923.220950, 215296.475878
 923.622199, 215296.074310
 924.023055, 215295.666217
 924.422595, 215295.252554
 924.820672, 215294.833514
 925.222130, 215294.403917
 925.624258, 215293.966529
 926.026180, 215293.522260
 926.426575, 215293.072586
 926.827869, 215292.614767
 927.234061, 215292.144056
 927.640966, 215291.665119
 928.047527, 215291.179161
 928.453233, 215290.686791
 928.859082, 215290.186788
 929.268269, 215289.675088
 929.677613, 215289.155539
 930.086949, 215288.628315
 930.497804, 215288.091374
 930.909741, 215287.545181
 931.319848, 215286.993588
 931.730557, 215286.433325
 932.143880, 215285.861524
 932.556376, 215285.282861
 932.970388, 215284.693995
 933.383697, 215284.098027
 933.800193, 215283.489242
 934.214868, 215282.874885
 934.631377, 215282.249510
 935.049715, 215281.612981
 935.469179, 215280.966243
 935.888284, 215280.311530
 936.306764, 215279.649255
 936.726151, 215278.976950
 937.148173, 215278.291700
 937.571890, 215277.594868
 937.992508, 215276.894342
 938.414339, 215276.182968
 938.839923, 215275.456272
 939.264870, 215274.721616
 939.689227, 215273.978923
 940.115893, 215273.223030
 940.544653, 215272.454140
 940.969296, 215271.683423
 941.398984, 215270.894184
 941.829097, 215270.094692
 942.257882, 215269.288203
 942.687766, 215268.470124
 943.120788, 215267.636396
 943.552383, 215266.795716
 943.987011, 215265.939304
 944.422546, 215265.071183
 944.856569, 215264.196156
 945.288499, 215263.315482
 945.726969, 215262.411370
 946.164535, 215261.498936
 946.602116, 215260.576260
 947.041247, 215259.640010
 947.478189, 215258.698146
 947.917362, 215257.741100
 948.356909, 215256.772792
 948.798742, 215255.788874
 949.242603, 215254.789732
 949.686649, 215253.779390
 950.133432, 215252.751901
 950.578494, 215251.717440
 951.025990, 215250.666286
 951.473031, 215249.605114
 951.919768, 215248.533549
 952.368315, 215247.446433
 952.819941, 215246.340463
 953.271706, 215245.222678
 953.524438, 215244.592331
 953.727514, 215244.083218
 954.182145, 215242.934983
 954.637582, 215241.772941
 955.092103, 215240.601442
 955.548638, 215239.412860
 956.004721, 215238.213509
 956.462338, 215236.998085
 956.920968, 215235.767828
 957.380237, 215234.523638
 957.843052, 215233.257427
 958.303260, 215231.985955
 958.766595, 215230.693315
 959.228236, 215229.392855
 959.690822, 215228.077132
 960.155377, 215226.743075
 960.618620, 215225.400034
 961.088124, 215224.025807
 961.557577, 215222.638568
 962.026095, 215221.240926
 962.500044, 215219.813659
 962.971205, 215218.381363
 963.445403, 215216.926274
 963.919821, 215215.456852
 964.394314, 215213.973490
 964.871809, 215212.466864
 965.347278, 215210.952745
 965.823798, 215209.421341
 966.302648, 215207.868344
 966.782245, 215206.298708
 967.263326, 215204.709876
 967.744603, 215203.105982
 968.227736, 215201.481362
 968.710925, 215199.841928
 969.194119, 215198.187810
 969.678291, 215196.515588
 970.161248, 215194.832800
 970.648572, 215193.119808
 971.134714, 215191.395925
 971.627640, 215189.632594
 972.116010, 215187.870228
 972.608697, 215186.076777
 973.102515, 215184.263529
 973.594845, 215182.440078
 974.089951, 215180.590516
 974.582293, 215178.735494
 975.075403, 215176.861751
 975.571624, 215174.960154
 976.071937, 215173.026544
 976.574038, 215171.069490
 977.079582, 215169.082229
 977.579245, 215167.101489
 978.083584, 215165.085432
 978.585216, 215163.063422
 979.089508, 215161.013782
 979.595175, 215158.941481
 980.101907, 215156.847620
 980.611848, 215154.723068
 981.118567, 215152.594573
 981.627539, 215150.439136
 982.141779, 215148.243545
 982.655040, 215146.034211
 983.170482, 215143.797407
 983.683488, 215141.553138
 984.200523, 215139.272982
 984.718742, 215136.969161
 985.239885, 215134.633672
 985.757756, 215132.294242
 986.278289, 215129.924052
 986.800057, 215127.529335
 987.322001, 215125.114830
 987.849432, 215122.655597
 988.374636, 215120.187374
 988.900430, 215117.696968
 989.427797, 215115.179543
 989.953853, 215112.648806
 990.482243, 215110.087106
 991.015238, 215107.482995
 991.544838, 215104.875438
 992.075666, 215102.241740
 992.611684, 215099.561830
 993.148883, 215096.855330
 993.689478, 215094.110760
 994.227523, 215091.358207
 994.767430, 215088.575081
 995.303465, 215085.791012
 995.845183, 215082.956208
 996.386413, 215080.102598
 996.929848, 215077.215833
 997.471647, 215074.316233
 998.020612, 215071.356295
 998.565144, 215068.398353
 999.112900, 215065.400819
 999.661856, 215062.374457
1000.208714, 215059.337446
1000.759761, 215056.254683
1001.313540, 215053.133843
1001.868666, 215049.982425
1002.424235, 215046.805399
1002.980455, 215043.601436
1003.533060, 215040.395248
1004.088805, 215037.147621
1004.649842, 215033.845395
1005.207678, 215030.538357
1005.768767, 215027.188203
1006.326902, 215023.831909
1006.888165, 215020.432837
1007.452275, 215016.992251
1008.018297, 215013.515488
1008.588999, 215009.985064
1009.158490, 215006.437132
1009.720698, 215002.910022
1010.290278, 214999.311735
1010.858968, 214995.693979
1011.431925, 214992.023666
1012.008248, 214988.306009
1012.579086, 214984.598183
1013.153461, 214980.841656
1013.730980, 214977.038500
1014.307830, 214973.213599
1014.892661, 214969.309037
1015.471873, 214965.415392
1016.051067, 214961.495352
1016.636051, 214957.509148
1017.217322, 214953.521325
1017.800367, 214949.494337
1018.379390, 214945.468300
1018.961969, 214941.390505
1019.545026, 214937.282160
1020.130744, 214933.127603
1020.720570, 214928.916045
1021.307312, 214924.698702
1021.898985, 214920.417780
1022.482998, 214916.164518
1023.069764, 214911.863376
1023.668615, 214907.444818
1024.262975, 214903.030554
1024.855853, 214898.598604
1025.457008, 214894.075472
1026.053012, 214889.561908
1026.653453, 214884.985282
1027.257236, 214880.353332
1027.858660, 214875.709642
1028.455746, 214871.069945
1029.065125, 214866.304363
1029.667687, 214861.561870
1030.267345, 214856.812343
1030.869962, 214852.009283
1031.477548, 214847.136021
1032.082187, 214842.255846
1032.687601, 214837.338820
1033.293039, 214832.390931
1033.902759, 214827.377004
1034.507059, 214822.376836
1035.118803, 214817.283794
1035.730158, 214812.162484
1036.343261, 214806.994853
1036.954032, 214801.815278
1037.571160, 214796.549708
1038.181185, 214791.312988
1038.795372, 214786.008589
1039.410357, 214780.665131
1040.024924, 214775.293094
1040.645978, 214769.831593
1041.270659, 214764.304914
1041.892976, 214758.765905
1042.518762, 214753.162507
1043.138471, 214747.580364
1043.765734, 214741.896499
1044.389487, 214736.210818
1045.013560, 214730.488589
1045.641868, 214724.693507
1046.267677, 214718.887478
1046.893941, 214713.043226
1047.522112, 214707.146959
1048.145684, 214701.259896
1048.775224, 214695.282128
1049.403937, 214689.277703
1050.031429, 214683.250497
1050.667550, 214677.105242
1051.302842, 214670.932599
1051.936359, 214664.741945
1052.576158, 214658.454109
1053.207783, 214652.211277
1053.844866, 214645.878891
1054.482191, 214639.508267
1055.123874, 214633.057821
1055.761225, 214626.614869
1056.399647, 214620.125017
1057.039354, 214613.585841
1057.681542, 214606.984758
1058.330652, 214600.275242
1058.979476, 214593.531207
1059.621174, 214586.824324
1060.261545, 214580.094672
1060.898809, 214573.361292
1061.542046, 214566.527954
1062.185850, 214559.651482
1062.832241, 214552.709985
1063.473955, 214545.781617
1064.117347, 214538.797960
1064.777735, 214531.591091
1065.425962, 214524.478720
1066.074781, 214517.321915
1066.721570, 214510.149662
1067.361845, 214503.012411
1068.014643, 214495.697380
1068.669154, 214488.324398
1069.318204, 214480.974587
1069.967005, 214473.589378
1070.614101, 214466.185488
1071.265765, 214458.690860
1071.919116, 214451.138010
1072.571253, 214443.560427
1073.226133, 214435.911926
1073.883209, 214428.198438
1074.539762, 214420.451695
1075.197762, 214412.648322
1075.854768, 214404.817200
1076.524852, 214396.789463
1077.186055, 214388.827768
1077.844731, 214380.856607
1078.506853, 214372.803583
1079.167812, 214364.724501
1079.830883, 214356.579239
1080.494101, 214348.391668
1081.153608, 214340.209715
1081.816698, 214331.942890
1082.482005, 214323.607638
1083.149362, 214315.205629
1083.819105, 214306.732210
1084.491158, 214298.187865
1085.160898, 214289.631346
1085.829751, 214281.044708
1086.498370, 214272.419628
1087.164990, 214263.779062
1087.830779, 214255.108124
1088.505777, 214246.275227
1089.175761, 214237.466084
1089.849606, 214228.564076
1090.524022, 214219.612244
1091.196602, 214210.642632
1091.873113, 214201.578099
1092.545727, 214192.523508
1093.216408, 214183.452949
1093.884577, 214174.374643
1094.561603, 214165.133509
1095.236610, 214155.877337
1095.915447, 214146.525724
1096.594686, 214137.125491
1097.270418, 214127.730983
1097.950084, 214118.238707
1098.628788, 214108.716746
1099.305485, 214099.180029
1099.984266, 214089.570858
1100.659262, 214079.972485
1101.341178, 214070.232356
1102.024600, 214060.427000
1102.709918, 214050.550463
1103.396141, 214040.616756
1104.078284, 214030.698320
1104.763842, 214020.686255
1105.449136, 214010.633946
1105.895417, 214004.063923
