Ground distance, Vertical Forces
   0.000000, 215314.096506
   0.000001, 215314.096506
   0.000006, 215314.096506
   0.000051, 215314.096506
   0.000254, 215314.096506
   0.000937, 215314.096506
   0.003594, 215314.096506
   0.008770, 215314.096506
   0.016215, 215314.096506
   0.025986, 215314.096506
   0.038053, 215314.096506
   0.052396, 215314.096506
   0.069115, 215314.096506
   0.088096, 215314.096506
   0.109545, 215314.096506
   0.133445, 215314.096506
   0.159844, 215314.096506
   0.188742, 215314.096506
   0.220179, 215314.096506
   0.254154, 215314.096506
   0.290762, 215314.096506
   0.329834, 215314.096506
   0.371933, 215314.096506
   0.416730, 215314.096506
   0.464133, 215314.096506
   0.514632, 215314.096506
   0.568012, 215314.096506
   0.623767, 215314.096506
   0.683393, 215314.096506
   0.746091, 215314.096506
   0.811495, 215314.096506
   0.879944, 215314.096506
   0.952973, 215314.096506
   1.028661, 215314.096506
   1.108195, 215314.096506
   1.190503, 215314.096506
   1.276329, 215314.096506
   1.366302, 215314.096506
   1.460383, 215314.096506
   1.557910, 215314.096506
   1.658864, 215314.096506
   1.765569, 215314.096506
   1.876077, 215314.096506
   1.991080, 215314.096506
   2.108697, 215314.096506
   2.232114, 215314.096506
   2.358495, 215314.096506
   2.491456, 215314.096506
   2.627207, 215314.096506
   2.766419, 215314.096506
   2.910997, 215314.096506
   3.061458, 215314.096506
   3.214194, 215314.096506
   3.373591, 215314.096506
   3.537116, 215314.096506
   3.707854, 215314.096506
   3.881891, 215314.096506
   4.060893, 215314.096506
   4.246787, 215314.096506
   4.436942, 215314.096506
   4.635771, 215314.096506
   4.839095, 215314.096506
   5.046944, 215314.096506
   5.262260, 215314.096506
   5.479624, 215314.096506
   5.704145, 215314.096506
   5.932675, 215314.096506
   6.172206, 215314.096506
   6.417668, 215314.096506
   6.664659, 215314.096506
   6.919177, 215314.096506
   7.182286, 215314.096506
   7.451337, 215314.096506
   7.728786, 215314.096506
   8.011867, 215314.096506
   8.300203, 215314.096506
   8.595273, 215314.096506
   8.898197, 215314.096506
   9.208447, 215314.096506
   9.524740, 215314.096506
   9.847117, 215314.096506
  10.178260, 215314.096506
  10.517285, 215314.096506
  10.863781, 215314.096506
  11.215388, 215314.096506
  11.577699, 215314.096506
  11.947059, 215314.096506
  12.323083, 215314.096506
  12.706533, 215314.096506
  13.101735, 215314.096506
  13.498441, 215314.096506
  13.905442, 215314.096506
  14.322436, 215314.096506
  14.746977, 215314.096506
  15.179755, 215314.096506
  15.615931, 215314.096506
  16.065427, 215314.096506
  16.521679, 215314.096506
  16.989674, 215314.096506
  17.467086, 215314.096506
  17.948124, 215314.096506
  18.442233, 215314.096506
  18.943653, 215314.096506
  19.455403, 215314.096506
  19.971291, 215314.096506
  20.503197, 215314.096506
  21.039939, 215314.096506
  21.591975, 215314.096506
  22.154661, 215314.096506
  22.722075, 215314.096506
  23.294581, 215314.096506
  23.879363, 215314.096506
  24.470105, 215314.096506
  25.080064, 215314.096506
  25.104614, 215314.096506
  25.110192, 215314.096506
  25.111427, 215314.096506
  25.113175, 215314.096506
  25.113784, 215314.096506
  25.114962, 215314.096506
  25.115436, 215314.096506
  25.115489, 215314.096506
  25.115536, 215314.096506
  25.116007, 215314.096506
  25.120721, 215314.096506
  25.146034, 215314.096506
  25.240975, 215314.096506
  25.544938, 215314.096506
  26.122884, 215314.096506
  26.701027, 215314.096506
  27.285207, 215314.096506
  27.878682, 215314.096506
  28.479559, 215314.096506
  29.087489, 215314.096506
  29.709576, 215314.096506
  30.339197, 215314.096506
  30.977515, 215314.096506
  31.624560, 215314.096506
  32.281037, 215314.096506
  32.946776, 215314.096506
  33.624452, 215314.096506
  34.313136, 215314.096506
  35.009054, 215314.096506
  35.708189, 215314.096506
  36.418015, 215314.096506
  37.136818, 215314.096506
  37.867779, 215314.096506
  38.610465, 215314.096506
  39.366949, 215314.096506
  40.124054, 215314.096506
  40.893463, 215314.096506
  41.674081, 215314.096506
  42.464088, 215314.096506
  43.263317, 215314.096506
  44.070501, 215314.096506
  44.886655, 215314.096506
  45.715278, 215314.096506
  46.555057, 215314.096506
  47.404370, 215314.096506
  48.265463, 215314.096506
  49.125549, 215314.096506
  50.002292, 215314.096506
  50.891462, 215314.096506
  51.789845, 215314.096506
  52.700389, 215314.096506
  53.620266, 215314.096506
  54.548014, 215314.096506
  55.488294, 215314.096506
  56.438610, 215314.096506
  57.408434, 215314.096506
  58.385766, 215314.096506
  59.370371, 215314.096506
  60.365913, 215314.096506
  61.379289, 215314.096506
  62.389213, 215314.096506
  63.423505, 215314.096506
  64.463035, 215314.096506
  65.513995, 215314.096506
  66.577116, 215314.096506
  67.651149, 215314.096506
  68.734516, 215314.096506
  69.826554, 215314.096506
  70.926902, 215314.096506
  72.041160, 215314.096506
  73.167900, 215314.096506
  74.306773, 215314.096506
  75.467376, 215314.096506
  76.633843, 215314.096506
  77.809141, 215314.096506
  78.997253, 215314.096506
  80.197519, 215314.096506
  81.410899, 215314.096506
  82.633034, 215314.096506
  83.870672, 215314.096506
  85.116192, 215314.096506
  86.373469, 215314.096506
  87.642578, 215314.096506
  88.921294, 215314.096506
  90.211860, 215314.096506
  91.522913, 215314.096506
  92.844013, 215314.096506
  94.177813, 215314.096506
  95.524629, 215314.096506
  96.890774, 215314.096506
  98.258511, 215314.096506
  99.637602, 215314.096506
 101.033815, 215314.096506
 102.439374, 215314.096506
 103.861289, 215314.096506
 104.147219, 215314.096506
 104.341094, 215314.096506
 104.495880, 215314.096506
 104.518932, 215314.096506
 104.524426, 215314.096506
 104.526123, 215314.096506
 104.526910, 215314.096506
 104.527083, 215314.096506
 104.527264, 215314.096506
 104.529071, 215314.096506
 104.545335, 215314.096506
 104.639691, 215314.096506
 104.976903, 215314.096506
 106.129664, 215314.096506
 107.448863, 215314.096506
 108.782020, 215314.096506
 110.126774, 215314.096506
 111.485587, 215314.096506
 112.857579, 215314.096506
 114.232498, 215314.096506
 115.627087, 215314.096506
 117.025299, 215314.096506
 118.429538, 215314.096506
 119.849673, 215314.096506
 121.280854, 215314.096506
 122.724636, 215314.096506
 124.175236, 215314.096506
 125.645137, 215314.096506
 127.123819, 215314.096506
 128.606536, 215314.096506
 130.101253, 215314.096506
 131.612673, 215314.096506
 133.134895, 215314.096506
 134.662743, 215314.096506
 136.203744, 215314.096506
 137.761978, 215314.096506
 139.327242, 215314.096506
 140.902608, 215314.096506
 142.494729, 215314.096506
 144.099947, 215314.096506
 145.710691, 215314.096506
 147.333012, 215314.096506
 148.962100, 215314.096506
 150.611414, 215314.096506
 152.268878, 215314.096506
 153.933457, 215314.096506
 155.615091, 215314.096506
 157.310570, 215314.096506
 159.024199, 215314.096506
 160.742691, 215314.096506
 162.471318, 215314.096506
 164.211370, 215314.096506
 165.965139, 215314.096506
 167.730713, 215314.096506
 169.504136, 215314.096506
 171.289475, 215314.096506
 173.092475, 215314.096506
 174.905755, 215314.096506
 176.736613, 215314.096506
 178.577433, 215314.096506
 180.426186, 215314.096506
 182.292552, 215314.096506
 184.168049, 215314.096506
 186.052534, 215314.096506
 187.953189, 215314.096506
 189.864605, 215314.096506
 191.788346, 215314.096506
 193.723244, 215314.096506
 195.670670, 215314.096506
 197.631588, 215314.096506
 199.600492, 215314.096506
 201.578585, 215314.096506
 203.575679, 215314.096506
 205.591905, 215314.096506
 207.624545, 215314.096506
 209.671944, 215314.096506
 211.722398, 215314.096506
 213.780715, 215314.096506
 215.852799, 215314.096506
 217.930789, 215314.096506
 220.026908, 215314.096506
 222.141208, 215314.096506
 224.269987, 215314.096506
 226.407867, 215314.096506
 228.556658, 215314.096506
 230.718107, 215314.096506
 232.896905, 215314.096506
 235.094814, 215314.096506
 237.303170, 215314.096506
 239.512888, 215314.096506
 241.745851, 215314.096506
 243.989033, 215314.096506
 246.242947, 215314.096506
 246.696259, 215314.096506
 248.417686, 215314.096506
 248.435820, 215314.096506
 248.441007, 215314.096506
 248.449399, 215314.096506
 248.452117, 215314.096506
 248.457552, 215314.096506
 248.458257, 215314.096506
 248.458628, 215314.096506
 248.458984, 215314.096506
 248.459308, 215314.096506
 248.462550, 215314.096506
 248.494704, 215314.096506
 248.719489, 215314.096506
 249.725066, 215314.096506
 251.719700, 215314.096506
 253.779585, 215314.096506
 255.845816, 215314.096506
 257.926492, 215314.096506
 260.018203, 215314.096506
 262.117889, 215314.096506
 264.225392, 215314.096506
 266.347479, 215314.096506
 268.479330, 215314.096506
 270.619404, 215314.096506
 272.778841, 215314.096506
 274.941400, 215314.096506
 277.112158, 215314.096506
 279.296599, 215314.096506
 281.490633, 215314.096506
 283.701626, 215314.096506
 285.922600, 215314.096506
 288.150724, 215314.096506
 290.393710, 215314.096506
 292.643781, 215314.096506
 294.906961, 215314.096506
 297.183446, 215314.096506
 299.465437, 215314.096506
 301.764926, 215314.096506
 304.067928, 215314.096506
 306.389604, 215314.096506
 308.720301, 215314.096506
 311.065369, 215314.096506
 313.420332, 215314.096506
 315.784519, 215314.096506
 318.159011, 215314.096506
 320.545962, 215314.096506
 322.943466, 215314.096506
 325.352425, 215314.096506
 327.766033, 215314.096506
 330.197939, 215314.096506
 332.633831, 215314.096506
 335.088965, 215314.096506
 337.555321, 215314.096506
 340.031860, 215314.096506
 342.519440, 215314.096506
 345.023622, 215314.096506
 347.538764, 215314.096506
 350.058976, 215314.096506
 352.593858, 215314.096506
 355.142610, 215314.096506
 357.699338, 215314.096506
 360.270044, 215314.096506
 362.850448, 215314.096506
 365.446561, 215314.096506
 368.049100, 215314.096506
 370.663009, 215314.096506
 373.293354, 215314.096506
 375.929053, 215314.096506
 378.574729, 215314.096506
 381.235283, 215314.096506
 383.903976, 215314.096506
 386.590827, 215314.096506
 389.287783, 215314.096506
 391.994667, 215314.096506
 394.706064, 215314.096506
 397.440764, 215314.096506
 400.181286, 215314.096506
 402.936323, 215314.096506
 405.704811, 215314.096506
 408.488933, 215314.096506
 411.284026, 215314.096506
 414.084220, 215314.096506
 416.889096, 215314.096506
 419.708533, 215314.096506
 422.545376, 215314.096506
 425.398278, 215314.096506
 428.257758, 215314.096506
 431.132352, 215314.096506
 434.019837, 215314.096506
 436.919663, 215314.096506
 439.821595, 215314.096506
 442.743417, 215314.096506
 445.676320, 215314.096506
 448.620964, 215314.096506
 451.574264, 215314.096506
 454.535505, 215314.096506
 457.511524, 215314.096506
 460.507034, 215314.096506
 463.511220, 215314.096506
 466.526193, 215314.096506
 469.548137, 215314.096506
 472.589684, 215314.096506
 475.638948, 215314.096506
 476.251346, 215314.096506
 476.720335, 215314.096506
 477.065547, 215314.096506
 477.120290, 215314.096506
 477.136970, 215314.096506
 477.165558, 215314.096506
 477.175153, 215314.096506
 477.176811, 215314.096506
 477.178528, 215314.096506
 477.195695, 215314.096506
 477.346967, 215314.096506
 478.209917, 215314.096506
 480.851419, 215314.096506
 483.929371, 215314.096506
 487.011271, 215314.096506
 490.096576, 215314.096506
 493.199907, 215314.096506
 496.318901, 215314.096506
 499.445243, 215314.096506
 502.589472, 215314.096506
 505.741627, 215314.096506
 508.909317, 215314.096506
 512.088997, 215314.096506
 515.278295, 215314.096506
 518.478661, 215314.096506
 521.689262, 215314.096506
 524.917627, 215314.096506
 528.156191, 215314.096506
 531.404500, 215314.096506
 534.665889, 215314.096506
 537.942055, 215314.096506
 541.228510, 215314.096506
 544.523422, 215314.096506
 547.837509, 215314.096506
 551.167379, 215314.096506
 554.502284, 215314.096506
 557.850130, 215314.096506
 561.210674, 215314.096506
 564.587181, 215314.096506
 567.973018, 215314.096506
 571.371712, 215314.096506
 574.776435, 215314.096506
 578.195979, 215314.096506
 581.627918, 215314.096506
 585.077831, 215314.096506
 588.539660, 215314.096506
 592.010643, 215314.096506
 595.491964, 215314.096506
 598.985547, 215314.096506
 602.491253, 215314.096506
 606.006502, 215314.096506
 609.534511, 215314.096506
 613.078588, 215314.096506
 616.637030, 215314.096506
 620.210215, 215314.096506
 623.792146, 215314.096506
 627.388022, 215314.096506
 630.987118, 215314.096506
 634.607694, 215314.096506
 638.239199, 215314.096506
 641.885623, 215314.096506
 645.541759, 215314.096506
 649.206249, 215314.096506
 652.891571, 215314.096506
 656.587050, 215314.096506
 660.292644, 215314.096506
 664.016097, 215314.096506
 667.742726, 215314.096506
 671.481226, 215314.096506
 675.242879, 215314.096506
 679.003419, 215314.096506
 682.786868, 215314.096506
 686.585612, 215314.096506
 690.392208, 215314.096506
 694.213453, 215314.096506
 698.039404, 215314.096506
 701.880478, 215314.096506
 705.740575, 215314.096506
 709.601892, 215314.096506
 713.488985, 215314.096506
 717.379775, 215314.096506
 721.284794, 215314.096506
 723.174928, 215314.096506
 725.212289, 215314.096506
 729.149558, 215314.096506
 733.087521, 215314.096506
 737.042221, 215314.096506
 741.008085, 215314.096506
 744.992700, 215314.096506
 748.983789, 215314.096506
 752.991009, 215314.096506
 757.010780, 215314.096506
 761.042227, 215314.096506
 765.083601, 215314.096506
 769.142019, 215314.096506
 773.212553, 215314.096506
 777.292638, 215314.096506
 781.381331, 215314.096506
 785.482819, 215314.096506
 789.591904, 215314.096506
 793.707916, 215314.096506
 797.843449, 215314.096506
 801.990962, 215314.096506
 806.141231, 215314.096506
 810.303845, 215314.096506
 814.479445, 215314.096506
 818.666912, 215314.096506
 822.865317, 215314.096506
 827.070061, 215314.096506
 827.238674, 215314.096506
 827.246700, 215314.096506
 827.252017, 215314.096506
 827.255947, 215314.096506
 827.258260, 215314.096506
 827.259242, 215314.096506
 827.260216, 215314.096506
 827.269963, 215314.096506
 827.367426, 215314.096506
 827.956406, 215314.096506
 830.575043, 215314.096506
 834.897452, 215314.096506
 839.275145, 215314.096506
 843.659444, 215314.096506
 848.060213, 215314.096506
 852.472241, 215314.096506
 856.888696, 215314.096506
 861.321198, 215314.096506
 865.757644, 215314.096506
 870.199087, 215314.096506
 874.655158, 215314.096506
 879.114212, 215314.096506
 883.589951, 215314.096506
 888.073867, 215314.096506
 888.427707, 215314.096148
 888.782141, 215314.095046
 889.136923, 215314.093161
 889.491206, 215314.090460
 889.846349, 215314.086890
 890.201897, 215314.082412
 890.554873, 215314.077033
 890.910129, 215314.070637
 891.265611, 215314.063211
 891.619823, 215314.054747
 891.977112, 215314.045092
 892.329444, 215314.034426
 892.686839, 215314.022404
 893.044582, 215314.009110
 893.403094, 215313.994477
 893.761724, 215313.978479
 894.117184, 215313.961233
 894.473824, 215313.942493
 894.833578, 215313.922084
 895.192512, 215313.900162
 895.552234, 215313.876582
 895.912595, 215313.851291
 896.272848, 215313.824287
 896.634052, 215313.795431
 896.993903, 215313.764857
 897.356115, 215313.732189
 897.717019, 215313.697695
 898.078435, 215313.661151
 898.438850, 215313.622658
 898.802166, 215313.581730
 899.164024, 215313.538784
 899.526519, 215313.493523
 899.891576, 215313.445618
 900.255267, 215313.395512
 900.618874, 215313.342982
 900.982924, 215313.287887
 901.347740, 215313.230106
 901.713311, 215313.169561
 902.077837, 215313.106487
 902.444214, 215313.040314
 902.811420, 215312.971130
 903.174576, 215312.899822
 903.543911, 215312.824297
 903.913543, 215312.745607
 904.282970, 215312.663787
 904.653344, 215312.578504
 905.024120, 215312.489793
 905.394524, 215312.397769
 905.765262, 215312.302183
 906.135364, 215312.203217
 906.506769, 215312.100272
 906.879481, 215311.993232
 907.251440, 215311.882604
 907.625111, 215311.767566
 907.996907, 215311.649144
 908.371556, 215311.525744
 908.746634, 215311.398028
 909.121642, 215311.266080
 909.497222, 215311.129585
 909.871806, 215310.989037
 910.246643, 215310.843901
 910.624630, 215310.692913
 910.999272, 215310.538580
 911.377305, 215310.378050
 911.756325, 215310.212170
 912.136224, 215310.040864
 912.516362, 215309.864308
 912.893904, 215309.683775
 913.275030, 215309.496207
 913.654205, 215309.304197
 914.033172, 215309.106819
 914.416222, 215308.901669
 914.798573, 215308.691131
 915.184103, 215308.472924
 915.567938, 215308.249668
 915.953538, 215308.019257
 916.336457, 215307.784265
 916.723902, 215307.540136
 917.110359, 215307.290148
 917.494901, 215307.034871
 917.881533, 215306.771547
 918.270998, 215306.499441
 918.659624, 215306.220954
 919.051314, 215305.933129
 919.440364, 215305.640029
 919.833531, 215305.336426
 920.225975, 215305.025842
 920.618335, 215304.707685
 921.012752, 215304.380052
 921.406136, 215304.045360
 921.800399, 215303.701878
 922.193525, 215303.351252
 922.588037, 215302.991112
 922.982420, 215302.622682
 923.381475, 215302.243124
 923.778656, 215301.858559
 924.177406, 215301.465633
 924.575422, 215301.066564
 924.975795, 215300.658180
 925.374602, 215300.244432
 925.774533, 215299.822511
 926.176363, 215299.391488
 926.579144, 215298.952276
 926.983324, 215298.504289
 927.386454, 215298.050205
 927.788583, 215297.589991
 928.191887, 215297.121122
 928.595450, 215296.644594
 928.999001, 215296.160687
 929.406835, 215295.664104
 929.815136, 215295.159326
 930.223612, 215294.646665
 930.632141, 215294.126236
 931.040670, 215293.598073
 931.450245, 215293.060761
 931.860590, 215292.514580
 932.271483, 215291.959755
 932.684773, 215291.393669
 933.097207, 215290.820704
 933.512041, 215290.236255
 933.924664, 215289.646783
 934.338568, 215289.047293
 934.753310, 215288.438331
 935.169618, 215287.818721
 935.583686, 215287.194118
 935.999377, 215286.558679
 936.416144, 215285.913126
 936.834283, 215285.256891
 937.251356, 215284.593759
 937.671294, 215283.917392
 938.091619, 215283.231642
 938.510792, 215282.539015
 938.932361, 215281.833570
 939.355886, 215281.115877
 939.777131, 215280.393086
 940.198938, 215279.660344
 940.626280, 215278.908780
 941.053290, 215278.148510
 941.482681, 215277.374600
 941.911990, 215276.591377
 942.342080, 215275.797212
 942.772317, 215274.993203
 943.200525, 215274.183449
 943.633433, 215273.355096
 944.067084, 215272.515499
 944.500022, 215271.667435
 944.935950, 215270.803540
 945.372737, 215269.927867
 945.806127, 215269.048998
 946.242078, 215268.154846
 946.680209, 215267.245985
 947.116636, 215266.330423
 947.554883, 215265.400725
 947.993907, 215264.458976
 948.435051, 215263.502150
 948.876543, 215262.533966
 949.317345, 215261.556677
 949.761195, 215260.561872
 950.202277, 215259.562535
 950.646102, 215258.546146
 951.090247, 215257.518102
 951.535089, 215256.477457
 951.983135, 215255.418159
 952.432596, 215254.344228
 952.881094, 215253.261288
 953.329621, 215252.166942
 953.686757, 215251.287444
 953.779441, 215251.058014
 954.229069, 215249.938088
 954.681064, 215248.800663
 955.134190, 215247.648676
 955.586263, 215246.487635
 956.040319, 215245.309672
 956.496407, 215244.114456
 956.954028, 215242.903120
 957.411783, 215241.679255
 957.868624, 215240.445653
 958.327298, 215239.194824
 958.789548, 215237.921749
 959.249478, 215236.642581
 959.713375, 215235.339719
 960.178795, 215234.019763
 960.641116, 215232.695846
 961.106951, 215231.348969
 961.573676, 215229.986492
 962.043175, 215228.602722
 962.511843, 215227.208158
 962.983070, 215225.792596
 963.455779, 215224.359056
 963.931294, 215222.903292
 964.406131, 215221.435836
 964.879252, 215219.959958
 965.356106, 215218.458523
 965.832316, 215216.945137
 966.308348, 215215.418309
 966.786619, 215213.870153
 967.267595, 215212.298898
 967.745946, 215210.721902
 968.232605, 215209.102823
 968.713563, 215207.488102
 969.198879, 215205.843987
 969.684018, 215204.185604
 970.172349, 215202.501251
 970.658142, 215200.810617
 971.146022, 215199.097575
 971.634951, 215197.365585
 972.123064, 215195.621193
 972.612477, 215193.856767
 973.103168, 215192.072217
 973.595715, 215190.265250
 974.087584, 215188.445056
 974.582448, 215186.597884
 975.077029, 215184.735795
 975.574655, 215182.846072
 976.070816, 215180.945722
 976.567788, 215179.026012
 977.066151, 215177.084542
 977.570050, 215175.104779
 978.071462, 215173.118037
 978.576321, 215171.100711
 979.083620, 215169.056475
 979.590440, 215166.996945
 980.097302, 215164.919981
 980.607767, 215162.810746
 981.116621, 215160.690636
 981.626624, 215158.548125
 982.138630, 215156.379413
 982.652928, 215154.182998
 983.165971, 215151.973924
 983.684627, 215149.722344
 984.199899, 215147.467139
 984.719470, 215145.174582
 985.237264, 215142.871299
 985.757568, 215140.538128
 986.276946, 215138.190346
 986.800995, 215135.802387
 987.322940, 215133.404938
 987.844736, 215130.989088
 988.371539, 215128.530651
 988.894049, 215126.072928
 989.422079, 215123.569649
 989.949881, 215121.047708
 990.477291, 215118.507879
 991.004000, 215115.951657
 991.533703, 215113.360926
 992.062016, 215110.756987
 992.597359, 215108.097969
 993.128712, 215105.438369
 993.661560, 215102.750836
 994.195679, 215100.036278
 994.733163, 215097.283737
 995.273775, 215094.493988
 995.812252, 215091.694085
 996.350989, 215088.871628
 996.888147, 215086.036271
 997.433025, 215083.138516
 997.975057, 215080.234211
 998.517238, 215077.307418
 999.068037, 215074.311828
 999.612490, 215071.328640
1000.157834, 215068.318472
1000.709086, 215065.253168
1001.259750, 215062.168465
1001.814690, 215059.036831
1002.367454, 215055.894491
1002.918572, 215052.738614
1003.472512, 215049.543487
1004.022085, 215046.350619
1004.577029, 215043.103317
1005.135866, 215039.809595
1005.701325, 215036.452632
1006.262943, 215033.094313
1006.827892, 215029.691729
1007.390590, 215026.278369
1007.953454, 215022.839658
1008.519992, 215019.353849
1009.084614, 215015.855169
1009.654522, 215012.298718
1010.216249, 215008.768658
1010.782052, 215005.188190
1011.346028, 215001.594462
1011.921168, 214997.904017
1012.495500, 214994.192914
1013.068191, 214990.466663
1013.640371, 214986.717983
1014.216679, 214982.916193
1014.796198, 214979.066778
1015.375700, 214975.190910
1015.954813, 214971.291036
1016.533807, 214967.365327
1017.115540, 214963.394168
1017.703092, 214959.355866
1018.284496, 214955.332653
1018.870064, 214951.253246
1019.448627, 214947.195598
1020.042827, 214943.000250
1020.626428, 214938.852025
1021.215407, 214934.637671
1021.808628, 214930.364584
1022.394072, 214926.119520
1022.984017, 214921.813641
1023.578012, 214917.449571
1024.171170, 214913.062911
1024.768105, 214908.619279
1025.357569, 214904.202609
1025.951888, 214899.720694
1026.545096, 214895.218182
1027.137802, 214890.690526
1027.737886, 214886.076966
1028.339196, 214881.424102
1028.944378, 214876.711030
1029.548808, 214871.973454
1030.152550, 214867.210947
1030.759652, 214862.391294
1031.356428, 214857.623634
1031.968159, 214852.705581
1032.574940, 214847.796353
1033.186602, 214842.816349
1033.794188, 214837.838388
1034.403532, 214832.814798
1035.013464, 214827.754977
1035.623649, 214822.661587
1036.236332, 214817.515627
1036.858720, 214812.255552
1037.467878, 214807.075415
1038.075324, 214801.878384
1038.695264, 214796.542027
1039.314400, 214791.179828
1039.936889, 214785.755540
1040.558548, 214780.305341
1041.176493, 214774.854841
1041.799582, 214769.325733
1042.419872, 214763.788253
1043.043677, 214758.185929
1043.668437, 214752.541348
1044.291108, 214746.882043
1044.917826, 214741.152024
1045.545708, 214735.377189
1046.168044, 214729.619559
1046.799341, 214723.744575
1047.421559, 214717.920087
1048.058075, 214711.926778
1048.695292, 214705.891393
1049.326978, 214699.873303
1049.960683, 214693.800817
1050.588742, 214687.747641
1051.220444, 214681.624362
1051.853545, 214675.452269
1052.489190, 214669.219813
1053.118265, 214663.016643
1053.756590, 214656.686495
1054.393106, 214650.338353
1055.024297, 214644.007850
1055.663995, 214637.555941
1056.305204, 214631.052284
1056.948529, 214624.490376
1057.583438, 214617.978147
1058.225878, 214611.352055
1058.866560, 214604.707365
1059.505036, 214598.049019
1060.149941, 214591.286563
1060.792393, 214584.512739
1061.429143, 214577.762458
1062.074903, 214570.879432
1062.718199, 214563.985361
1063.370348, 214556.958340
1064.022579, 214549.892056
1064.673238, 214542.804523
1065.324947, 214535.667183
1065.969021, 214528.575688
1066.621680, 214521.351307
1067.274960, 214514.081362
1067.922012, 214506.842521
1068.572086, 214499.531535
1069.220679, 214492.198882
1069.877350, 214484.735850
1070.536469, 214477.205467
1071.190971, 214469.688575
1071.841950, 214462.173322
1072.503817, 214454.492636
1073.160848, 214446.828408
1073.825014, 214439.040736
1074.487188, 214431.236150
1075.146213, 214423.428695
1075.802621, 214415.612584
1076.467050, 214407.660593
1077.130879, 214399.675208
1077.791858, 214391.683772
1078.449150, 214383.696945
1079.117181, 214375.538787
1079.777576, 214367.433365
1080.442601, 214359.230376
1081.105233, 214351.016204
1081.771444, 214342.716691
1082.438004, 214334.371666
1083.102915, 214326.006253
1083.764911, 214317.636748
1084.427113, 214309.223934
1085.090907, 214300.749996
1085.758559, 214292.185486
1086.423760, 214283.611165
1087.092926, 214274.944164
1087.763038, 214266.223092
1088.434593, 214257.441254
1089.105311, 214248.628369
1089.775995, 214239.773943
1090.453977, 214230.780463
1091.129901, 214221.771523
1091.801855, 214212.773154
1092.471112, 214203.768909
1093.143017, 214194.686863
1093.823253, 214185.449147
1094.498574, 214176.235289
1095.180531, 214166.887504
1095.858806, 214157.546915
1096.536888, 214148.165844
1097.214745, 214138.744741
1097.887957, 214129.345490
1098.563990, 214119.864010
1099.242797, 214110.300393
1099.918982, 214100.730662
1100.597884, 214091.079197
1101.279158, 214081.350414
1101.957527, 214071.619721
1102.638912, 214061.802133
1103.317180, 214051.986049
1103.999411, 214042.068872
1104.680024, 214032.131517
1105.360650, 214022.150317
1106.044991, 214012.070592
1106.625829, 214003.480723
