Speed, Forces
 139.951918, 2631.193261
 141.344531, 2612.079596
 142.737143, 2592.866758
 144.129756, 2574.760378
 145.522368, 2557.687989
 146.914980, 2541.601403
 148.307593, 2526.961543
 149.700205, 2513.192543
 151.092817, 2500.213726
 152.485430, 2488.404197
 153.878042, 2477.583066
 155.270654, 2467.368650
 156.663267, 2458.364721
 158.055879, 2450.100737
 159.448492, 2442.462415
 160.841104, 2436.035013
 162.233716, 2429.902255
 163.626329, 2425.058775
 165.018941, 2420.522491
 166.411553, 2417.049938
 167.804166, 2413.977110
 169.196778, 2411.877026
 170.589391, 2410.127597
 171.982003, 2409.399180
 173.374615, 2408.826053
 174.767228, 2409.466151
 176.159840, 2410.111369
 177.552452, 2411.918305
 178.945065, 2413.937194
 180.337677, 2416.586621
 181.730290, 2419.970946
 183.122902, 2423.381305
 184.515514, 2428.031871
 185.908127, 2432.806954
 187.300739, 2437.929827
 188.693351, 2444.056315
 190.085964, 2450.228186
 191.478576, 2456.927514
 192.871189, 2464.444211
 194.263801, 2472.015379
 195.656413, 2480.052408
 197.049026, 2488.958695
 198.441638, 2497.928149
 199.834250, 2507.050047
 201.226863, 2517.341784
 202.619475, 2527.704993
 204.012088, 2538.139675
 205.404700, 2549.314374
 206.797312, 2561.063288
 208.189925, 2572.891589
 209.582537, 2584.799276
 210.975149, 2597.699289
 212.367762, 2610.909247
 213.760374, 2624.206115
 215.152986, 2637.589892
 216.545599, 2651.864266
 217.938211, 2666.534441
 219.330824, 2681.298657
 220.723436, 2696.156916
 222.116048, 2711.431230
 223.508661, 2727.556102
 224.901273, 2743.781757
 226.293885, 2760.108194
 227.686498, 2776.535415
 229.079110, 2793.553916
 230.471723, 2811.230405
 231.864335, 2829.014026
 233.256947, 2846.904780
 234.649560, 2864.902666
 236.042172, 2883.182046
 237.434784, 2902.407162
 238.827397, 2921.745369
 240.220009, 2941.196668
 241.612622, 2960.761058
 243.005234, 2980.438540
 244.397846, 3000.547695
 245.790459, 3021.431241
 247.183071, 3042.433446
 248.575683, 3063.554310
 249.968296, 3084.793834
 251.360908, 3106.152016
 252.753521, 3127.628858
 254.146133, 3150.006034
 255.538745, 3172.667476
 256.931358, 3195.452754
 258.323970, 3218.361868
 259.716582, 3241.394818
 261.109195, 3264.551603
 262.501807, 3287.832224
 263.894420, 3311.735821
 265.287032, 3336.173321
 266.679644, 3360.739442
 268.072257, 3385.434184
 269.464869, 3410.257548
 270.857481, 3435.209532
 272.250094, 3460.290138
 273.642706, 3485.499364
 275.035319, 3511.116356
 276.427931, 3537.452876
 277.820543, 3563.922412
