Speed, Forces
 139.951918, 2631.193261
 141.611794, 2608.149096
 143.271670, 2585.572041
 144.931546, 2564.665203
 146.591422, 2545.352604
 148.251298, 2527.554934
 149.911174, 2511.189547
 151.571050, 2496.170465
 153.230926, 2482.408373
 154.890802, 2469.990464
 156.550678, 2459.095648
 158.210554, 2449.255669
 159.870430, 2440.369547
 161.530306, 2432.941457
 163.190182, 2426.580136
 164.850058, 2420.941625
 166.509934, 2416.803516
 168.169810, 2413.427392
 169.829686, 2410.916853
 171.489562, 2409.657432
 173.149438, 2408.783979
 174.809314, 2409.485575
 176.469190, 2410.358791
 178.129066, 2412.752317
 179.788942, 2415.260237
 181.448818, 2419.284816
 183.108694, 2423.346381
 184.768570, 2428.896897
 186.428446, 2434.600275
 188.088322, 2441.389050
 189.748198, 2448.727087
 191.408074, 2456.548426
 193.067950, 2465.510635
 194.727826, 2474.550229
 196.387702, 2484.721405
 198.047578, 2495.383706
 199.707454, 2506.135745
 201.367330, 2518.383842
 203.027206, 2530.752677
 204.687082, 2543.291117
 206.346958, 2557.255148
 208.006834, 2571.331960
 209.666710, 2585.521555
 211.326586, 2601.024731
 212.986462, 2616.805964
 214.646338, 2632.710666
 216.306214, 2649.351995
 217.966090, 2666.829089
 219.625966, 2684.439785
 221.285842, 2702.184082
 222.945719, 2721.025734
 224.605595, 2740.328308
 226.265471, 2759.774061
 227.925347, 2779.362993
 229.585223, 2799.965629
 231.245099, 2821.093166
 232.904975, 2842.372903
 234.564851, 2863.804839
 236.224727, 2885.695783
 237.884603, 2908.641097
 239.544479, 2931.747076
 241.204355, 2955.013720
 242.864231, 2978.441029
 244.524107, 3002.436195
 246.183983, 3027.354007
 247.843859, 3052.440394
 249.503735, 3077.695356
 251.163611, 3103.118892
 252.823487, 3128.711003
 254.483363, 3155.482278
 256.143239, 3182.542704
 257.803115, 3209.779059
 259.462991, 3237.191343
 261.122867, 3264.779555
 262.782743, 3292.543696
 264.442619, 3321.340243
 266.102495, 3350.542732
 267.762371, 3379.927949
 269.422247, 3409.495893
 271.082123, 3439.246564
 272.741999, 3469.179962
 274.401875, 3499.296087
 276.061751, 3530.514933
 277.721627, 3562.037903
 279.381503, 3593.749843
 281.041379, 3625.650754
 282.701255, 3657.740634
 284.361131, 3690.019484
 286.021007, 3722.487304
 287.680883, 3755.144095
 289.340759, 3788.974014
 291.000635, 3823.002942
 292.660511, 3857.226528
 294.320387, 3891.644771
 295.980263, 3926.257672
 297.640139, 3961.065229
 299.300015, 3996.067444
 300.959891, 4031.264315
 302.619767, 4066.655844
 304.279643, 4103.042745
