Speed, Forces
 156.471002, 3288.991576
 157.964018, 3266.150126
 159.457035, 3243.031151
 160.950051, 3221.142935
 162.443068, 3200.396381
 163.936084, 3181.148282
 165.429101, 3163.220998
 166.922118, 3146.234324
 168.415134, 3130.369007
 169.908151, 3115.979682
 171.401167, 3102.313284
 172.894184, 3089.832373
 174.387200, 3078.517577
 175.880217, 3067.691391
 177.373234, 3058.580328
 178.866250, 3049.836170
 180.359267, 3042.368477
 181.852283, 3035.557716
 183.345300, 3029.738176
 184.838317, 3024.704089
 186.331333, 3020.534787
 187.824350, 3017.112557
 189.317366, 3014.592883
 190.810383, 3012.609604
 192.303399, 3011.736247
 193.796416, 3011.010919
 195.289433, 3011.777874
 196.782449, 3012.550715
 198.275466, 3014.519971
 199.768482, 3016.936663
 201.261499, 3019.753953
 202.754515, 3023.802647
 204.247532, 3027.881264
 205.740549, 3032.926596
 207.233565, 3038.634012
 208.726582, 3044.382694
 210.219598, 3051.394172
 211.712615, 3058.764853
 213.205631, 3066.187697
 214.698648, 3074.887238
 216.191665, 3083.921684
 217.684681, 3093.018739
 219.177698, 3103.112078
 220.670714, 3113.806743
 222.163731, 3124.574011
 223.656747, 3135.750702
 225.149764, 3148.097992
 226.642781, 3160.527432
 228.135797, 3173.039022
 229.628814, 3186.449117
 231.121830, 3200.528640
 232.614847, 3214.699410
 234.107864, 3228.961426
 235.600880, 3244.203003
 237.093897, 3260.016368
 238.586913, 3275.929628
 240.079930, 3291.942781
 241.572946, 3308.586941
 243.065963, 3326.130364
 244.558980, 3343.781879
 246.051996, 3361.541485
 247.545013, 3379.409183
 249.038029, 3398.396661
 250.531046, 3417.776802
 252.024062, 3437.272782
 253.517079, 3456.884602
 255.010096, 3476.612261
 256.503112, 3497.391876
 257.996129, 3518.608758
 259.489145, 3539.948777
 260.982162, 3561.411934
 262.475178, 3582.998229
 263.968195, 3604.978343
 265.461212, 3628.025245
 266.954228, 3651.202133
 268.447245, 3674.509009
 269.940261, 3697.945871
 271.433278, 3721.512719
 272.926295, 3745.357843
 274.419311, 3770.357688
 275.912328, 3795.493919
 277.405344, 3820.766536
 278.898361, 3846.175539
 280.391377, 3871.720928
 281.884394, 3897.402704
 283.377411, 3923.617327
 284.870427, 3950.704143
 286.363444, 3977.933296
 287.856460, 4005.304785
 289.349477, 4032.818610
 290.842493, 4060.474771
 292.335510, 4088.273268
 293.828527, 4116.214101
 295.321543, 4145.124127
 296.814560, 4174.440354
 298.307576, 4203.904417
 299.800593, 4233.516317
 301.293609, 4263.276054
 302.786626, 4293.183626
 304.279643, 4323.239035
