Speed, Forces
 144.259334, 2795.650523
 145.608437, 2776.649877
 146.957540, 2757.352505
 148.306643, 2739.041007
 149.655746, 2721.640288
 151.004849, 2705.618077
 152.353953, 2690.526222
 153.703056, 2676.175520
 155.052159, 2662.975889
 156.401262, 2650.745821
 157.750365, 2639.073697
 159.099468, 2628.694850
 160.448571, 2618.935676
 161.797674, 2609.924692
 163.146778, 2601.964582
 164.495881, 2594.328623
 165.844984, 2588.047084
 167.194087, 2581.895423
 168.543190, 2577.061043
 169.892293, 2572.338057
 171.241396, 2568.875508
 172.590499, 2565.442720
 173.939603, 2563.350721
 175.288706, 2561.242434
 176.637809, 2560.338113
 177.986912, 2559.607625
 179.336015, 2559.680307
 180.685118, 2560.321565
 182.034221, 2561.211115
 183.383324, 2563.215865
 184.732428, 2565.235418
 186.081531, 2568.113326
 187.430634, 2571.495544
 188.779737, 2574.902195
 190.128840, 2579.559796
 191.477943, 2584.325349
 192.827046, 2589.231155
 194.176149, 2595.340012
 195.525253, 2601.491462
 196.874356, 2607.738155
 198.223459, 2615.223640
 199.572562, 2622.760246
 200.921665, 2630.347971
 202.270768, 2638.960525
 203.619871, 2647.878243
 204.968974, 2656.855241
 206.318078, 2666.280691
 207.667181, 2676.572172
 209.016284, 2686.930730
 210.365387, 2697.356363
 211.714490, 2708.548933
 213.063593, 2720.278031
 214.412696, 2732.081633
 215.761799, 2743.959738
 217.110903, 2756.580921
 218.460006, 2769.747801
 219.809109, 2782.996246
 221.158212, 2796.326255
 222.507315, 2810.015519
 223.856418, 2824.615944
 225.205521, 2839.304626
 226.554624, 2854.081566
 227.903728, 2868.946763
 229.252831, 2884.481681
 230.601934, 2900.601591
 231.951037, 2916.816084
 233.300140, 2933.125161
 234.649243, 2949.528822
 235.998346, 2966.446722
 237.347449, 2984.084987
 238.696553, 3001.823795
 240.045656, 3019.663146
 241.394759, 3037.603040
 242.743862, 3055.643477
 244.092965, 3074.558198
 245.442068, 3093.814318
 246.791171, 3113.176573
 248.140274, 3132.644964
 249.489378, 3152.219490
 250.838481, 3171.900152
 252.187584, 3192.219155
 253.536687, 3213.091440
 254.885790, 3234.075085
 256.234893, 3255.170091
 257.583996, 3276.376458
 258.933099, 3297.694185
 260.282203, 3319.123272
 261.631306, 3341.258835
 262.980409, 3363.855205
 264.329512, 3386.567794
 265.678615, 3409.396601
 267.027718, 3432.341628
 268.376821, 3455.402873
 269.725924, 3478.580336
 271.075028, 3501.874018
 272.424131, 3526.088055
 273.773234, 3550.523297
 275.122337, 3575.079250
 276.471440, 3599.755912
 277.820543, 3624.553284
