Speed, Forces
 148.441426, 2960.092419
 149.748286, 2941.240852
 151.055145, 2921.888441
 152.362005, 2903.395127
 153.668865, 2885.974772
 154.975725, 2869.750904
 156.282584, 2854.216081
 157.589444, 2839.636394
 158.896304, 2826.181331
 160.203164, 2813.232518
 161.510024, 2801.488153
 162.816883, 2790.411161
 164.123743, 2780.037110
 165.430603, 2770.718088
 166.737463, 2761.720500
 168.044322, 2754.039398
 169.351182, 2746.439841
 170.658042, 2740.252924
 171.964902, 2734.043737
 173.271761, 2729.228230
 174.578621, 2724.376266
 175.885481, 2720.826618
 177.192341, 2717.355051
 178.499201, 2714.901120
 179.806060, 2712.805766
 181.112920, 2711.296504
 182.419780, 2710.571114
 183.726640, 2709.849270
 185.033499, 2710.485527
 186.340359, 2711.126294
 187.647219, 2712.375175
 188.954079, 2714.376587
 190.260939, 2716.391889
 191.567798, 2719.407221
 192.874658, 2722.779411
 194.181518, 2726.174527
 195.488378, 2730.739637
 196.795237, 2735.485128
 198.102097, 2740.262237
 199.408957, 2746.148053
 200.715817, 2752.266268
 202.022676, 2758.424449
 203.329536, 2765.389500
 204.636396, 2772.876763
 205.943256, 2780.411994
 207.250116, 2788.202408
 208.556975, 2797.051942
 209.863835, 2805.957103
 211.170695, 2814.917891
 212.477555, 2824.508538
 213.784414, 2834.773408
 215.091274, 2845.101219
 216.398134, 2855.491972
 217.704994, 2866.555942
 219.011854, 2878.237111
 220.318713, 2889.988191
 221.625573, 2901.809182
 222.932433, 2913.998901
 224.239293, 2927.093198
 225.546152, 2940.264032
 226.853012, 2953.511402
 228.159872, 2966.835309
 229.466732, 2980.958752
 230.773591, 2995.541693
 232.080451, 3010.207450
 233.387311, 3024.956024
 234.694171, 3039.787415
 236.001031, 3055.401055
 237.307890, 3071.473074
 238.614750, 3087.633847
 239.921610, 3103.883372
 241.228470, 3120.221651
 242.535329, 3136.850961
 243.842189, 3154.407329
 245.149049, 3172.058042
 246.455909, 3189.803100
 247.762768, 3207.642503
 249.069628, 3225.576252
 250.376488, 3243.812776
 251.683348, 3262.943189
 252.990208, 3282.173194
 254.297067, 3301.502791
 255.603927, 3320.931982
 256.910787, 3340.460765
 258.217647, 3360.089142
 259.524506, 3380.399977
 260.831366, 3401.203673
 262.138226, 3422.111865
 263.445086, 3443.124552
 264.751946, 3464.241736
 266.058805, 3485.463415
 267.365665, 3506.789590
 268.672525, 3528.460225
 269.979385, 3550.934865
 271.286244, 3573.518560
 272.593104, 3596.211309
 273.899964, 3619.013112
 275.206824, 3641.923970
 276.513683, 3664.943882
 277.820543, 3688.072849
