Speed, Forces
 152.509255, 3124.549681
 154.042289, 3101.604476
 155.575323, 3078.577589
 157.108357, 3056.900445
 158.641392, 3036.486669
 160.174426, 3017.247042
 161.707460, 2999.707632
 163.240494, 2983.303649
 164.773529, 2967.872384
 166.306563, 2953.694330
 167.839597, 2940.876998
 169.372631, 2928.813415
 170.905665, 2918.000935
 172.438700, 2908.304453
 173.971734, 2899.130409
 175.504768, 2891.665462
 177.037802, 2884.581375
 178.570837, 2878.762751
 180.103871, 2873.623553
 181.636905, 2869.451253
 183.169939, 2866.098154
 184.702973, 2863.574528
 186.236008, 2861.840203
 187.769042, 2860.964759
 189.302076, 2860.673355
 190.835110, 2861.442755
 192.368145, 2862.409885
 193.901179, 2864.817948
 195.434213, 2867.245125
 196.967247, 2870.888398
 198.500281, 2874.957648
 200.033316, 2879.440786
 201.566350, 2885.139767
 203.099384, 2890.882257
 204.632418, 2897.563946
 206.165453, 2904.932468
 207.698487, 2912.355985
 209.231521, 2920.967323
 210.764555, 2930.009381
 212.297589, 2939.117447
 213.830624, 2949.372469
 215.363658, 2960.087792
 216.896692, 2970.879664
 218.429726, 2982.475341
 219.962761, 2994.859395
 221.495795, 3007.330061
 223.028829, 3019.946305
 224.561863, 3033.990287
 226.094897, 3048.130472
 227.627932, 3062.366861
 229.160966, 3077.120972
 230.694000, 3092.917135
 232.227034, 3108.818619
 233.760068, 3124.825423
 235.293103, 3141.300694
 236.826137, 3158.848991
 238.359171, 3176.511252
 239.892205, 3194.287476
 241.425240, 3212.177663
 242.958274, 3231.333459
 244.491308, 3250.750288
 246.024342, 3270.289250
 247.557376, 3289.950343
 249.090411, 3309.872643
 250.623445, 3331.032144
 252.156479, 3352.321472
 253.689513, 3373.740628
 255.222548, 3395.289611
 256.755582, 3416.968421
 258.288616, 3439.829372
 259.821650, 3462.988058
 261.354684, 3486.283791
 262.887719, 3509.716574
 264.420753, 3533.286404
 265.953787, 3557.086671
 267.486821, 3582.104463
 269.019856, 3607.266050
 270.552890, 3632.571432
 272.085924, 3658.020609
 273.618958, 3683.613582
 275.151992, 3709.350350
 276.685027, 3735.963617
 278.218061, 3763.123290
 279.751095, 3790.433032
 281.284129, 3817.892842
 282.817164, 3845.502720
 284.350198, 3873.262667
 285.883232, 3901.172682
 287.416266, 3929.714573
 288.949300, 3959.014854
 290.482335, 3988.471002
 292.015369, 4018.083018
 293.548403, 4047.850902
 295.081437, 4077.774653
 296.614472, 4107.854271
 298.147506, 4138.089758
 299.680540, 4168.790445
 301.213574, 4200.381299
 302.746608, 4232.133346
 304.279643, 4264.046585
