Speed, Forces
 144.259334, 2795.650523
 145.875701, 2772.600918
 147.492067, 2749.842504
 149.108434, 2728.654085
 150.724801, 2708.955814
 152.341168, 2690.664685
 153.957534, 2673.694527
 155.573901, 2657.956011
 157.190268, 2643.834258
 158.806635, 2630.955172
 160.423001, 2619.105735
 162.039368, 2608.302392
 163.655735, 2599.091257
 165.272102, 2590.688286
 166.888468, 2583.212745
 168.504835, 2577.199021
 170.121202, 2571.752480
 171.737569, 2567.595166
 173.353935, 2564.260892
 174.970302, 2561.741482
 176.586669, 2560.365694
 178.203036, 2559.490086
 179.819402, 2559.909519
 181.435769, 2560.680447
 183.052136, 2562.722352
 184.668503, 2565.139391
 186.284869, 2568.621535
 187.901236, 2572.681098
 189.517603, 2577.411763
 191.133970, 2583.107101
 192.750336, 2588.885085
 194.366703, 2596.206289
 195.983070, 2603.588631
 197.599437, 2611.754906
 199.215803, 2620.762285
 200.832170, 2629.843045
 202.448537, 2640.132205
 204.064904, 2650.832958
 205.681270, 2661.618807
 207.297637, 2673.746481
 208.914004, 2686.143064
 210.530371, 2698.635933
 212.146738, 2712.298780
 213.763104, 2726.388908
 215.379471, 2740.585983
 216.995838, 2755.461695
 218.612205, 2771.238341
 220.228571, 2787.132068
 221.844938, 2803.142878
 223.461305, 2820.330761
 225.077672, 2837.908845
 226.694038, 2855.613619
 228.310405, 2873.445083
 229.926772, 2892.522519
 231.543139, 2911.903692
 233.159505, 2931.420636
 234.775872, 2951.073350
 236.392239, 2971.586107
 238.008606, 2992.765697
 239.624972, 3014.089612
 241.241339, 3035.557852
 242.857706, 3057.170417
 244.474073, 3079.987094
 246.090439, 3103.106459
 247.706806, 3126.378176
 249.323173, 3149.802246
 250.939540, 3173.378669
 252.555906, 3197.906507
 254.172273, 3222.963330
 255.788640, 3248.180007
 257.405007, 3273.556536
 259.021373, 3299.092919
 260.637740, 3324.789154
 262.254107, 3351.675802
 263.870474, 3378.826691
 265.486840, 3406.144406
 267.103207, 3433.628948
 268.719574, 3461.280317
 270.335941, 3489.098513
 271.952307, 3517.570781
 273.568674, 3546.810506
 275.185041, 3576.223504
 276.801408, 3605.809775
 278.417775, 3635.569320
 280.034141, 3665.502138
 281.650508, 3695.608229
 283.266875, 3726.034298
 284.883242, 3757.527337
 286.499608, 3789.199570
 288.115975, 3821.050996
 289.732342, 3853.081615
 291.348709, 3885.291427
 292.965075, 3917.680433
 294.581442, 3950.248631
 296.197809, 3982.996023
 297.814176, 4016.702605
 299.430542, 4050.804720
 301.046909, 4085.091421
 302.663276, 4119.562708
 304.279643, 4154.218581
