Speed, Forces
 139.951918, 5663.197407
 141.344531, 5631.597008
 142.737143, 5599.996610
 144.129756, 5568.396212
 145.522368, 5536.795814
 146.914980, 5505.195416
 148.307593, 5473.595018
 149.700205, 5441.994620
 151.092817, 5410.394222
 152.485430, 5378.793824
 153.878042, 5347.193426
 155.270654, 5315.593027
 156.663267, 5290.184705
 158.055879, 5265.480927
 159.448492, 5240.777150
 160.841104, 5216.073372
 162.233716, 5191.369595
 163.626329, 5166.665817
 165.018941, 5141.962040
 166.411553, 5117.258262
 167.804166, 5092.554485
 169.196778, 5067.850708
 170.589391, 5043.146930
 171.982003, 5018.443153
 173.374615, 4993.739375
 174.767228, 4969.035598
 176.159840, 4944.331820
 177.552452, 4919.628043
 178.945065, 4894.924265
 180.337677, 4870.220488
 181.730290, 4845.516710
 183.122902, 4820.812933
 184.515514, 4796.109155
 185.908127, 4771.405378
 187.300739, 4749.800996
 188.693351, 4730.457473
 190.085964, 4711.113949
 191.478576, 4691.770425
 192.871189, 4672.426901
 194.263801, 4653.083377
 195.656413, 4633.739853
 197.049026, 4614.396329
 198.441638, 4595.052805
 199.834250, 4575.709281
 201.226863, 4556.365758
 202.619475, 4537.022234
 204.012088, 4517.678710
 205.404700, 4498.335186
 206.797312, 4478.991662
 208.189925, 4459.648138
 209.582537, 4440.304614
 210.975149, 4420.961090
 212.367762, 4401.617567
 213.760374, 4382.274043
 215.152986, 4362.930519
 216.545599, 4343.586995
 217.938211, 4325.077004
 219.330824, 4308.956804
 220.723436, 4292.836603
 222.116048, 4276.716402
 223.508661, 4260.596201
 224.901273, 4244.476000
 226.293885, 4228.355800
 227.686498, 4212.235599
 229.079110, 4196.115398
 230.471723, 4179.995197
 231.864335, 4163.874996
 233.256947, 4147.754796
 234.649560, 4131.634595
 236.042172, 4115.514394
 237.434784, 4099.394193
 238.827397, 4083.273992
 240.220009, 4067.153791
 241.612622, 4051.033591
 243.005234, 4034.913390
 244.397846, 4018.793189
 245.790459, 4002.672988
 247.183071, 3986.552787
 248.575683, 3970.432587
 249.968296, 3957.034311
 251.360908, 3943.812950
 252.753521, 3930.591588
 254.146133, 3917.370227
 255.538745, 3904.148866
 256.931358, 3890.927505
 258.323970, 3877.706143
 259.716582, 3864.484782
 261.109195, 3851.263421
 262.501807, 3838.042059
 263.894420, 3824.820698
 265.287032, 3811.599337
 266.679644, 3798.377975
 268.072257, 3785.156614
 269.464869, 3771.935253
 270.857481, 3758.713891
 272.250094, 3745.492530
 273.642706, 3732.271169
 275.035319, 3719.049807
 276.427931, 3705.828446
 277.820543, 3692.607085
