Time, Speed
   0.000100,    0.000281
   0.000584,    0.001639
   0.002073,    0.005817
   0.007621,    0.021384
   0.022321,    0.062622
   0.049722,    0.139480
   0.081356,    0.228184
   0.113166,    0.317356
   0.145277,    0.407344
   0.177393,    0.497319
   0.209532,    0.587330
   0.241854,    0.677825
   0.274280,    0.768587
   0.306882,    0.859810
   0.339730,    0.951694
   0.372575,    1.043540
   0.405964,    1.136878
   0.439430,    1.230403
   0.472825,    1.323699
   0.506325,    1.417258
   0.540098,    1.511550
   0.574229,    1.606809
   0.609346,    1.704788
   0.644354,    1.802432
   0.679669,    1.900897
   0.715179,    1.999874
   0.750675,    2.098777
   0.785860,    2.196782
   0.821893,    2.297112
   0.857909,    2.397362
   0.894515,    2.499219
   0.931043,    2.600821
   0.968537,    2.705076
   1.005886,    2.808888
   1.044333,    2.915713
   1.082764,    3.022455
   1.121413,    3.129764
   1.161278,    3.240405
   1.200983,    3.350562
   1.241003,    3.461548
   1.281467,    3.573722
   1.322069,    3.686234
   1.362716,    3.798828
   1.404287,    3.913936
   1.445182,    4.027126
   1.487010,    4.142851
   1.528752,    4.258291
   1.571489,    4.376437
   1.614202,    4.494467
   1.657967,    4.615351
   1.701698,    4.736091
   1.745542,    4.857094
   1.789414,    4.978120
   1.834346,    5.102017
   1.879129,    5.225449
   1.924414,    5.350209
   1.970399,    5.476843
   2.017542,    5.606605
   2.064104,    5.734709
   2.111435,    5.864869
   2.158594,    5.994497
   2.206390,    6.125814
   2.254473,    6.257860
   2.302484,    6.389644
   2.351116,    6.523068
   2.399608,    6.656045
   2.448748,    6.790737
   2.498052,    6.925810
   2.547871,    7.062228
   2.598380,    7.200468
   2.649071,    7.339135
   2.700299,    7.479202
   2.750985,    7.617716
   2.802877,    7.759457
   2.854696,    7.900924
   2.907415,    8.044772
   2.959664,    8.187265
   3.012867,    8.332284
   3.066210,    8.477608
   3.119630,    8.623063
   3.173988,    8.770994
   3.227889,    8.917601
   3.282497,    9.066051
   3.336984,    9.214093
   3.392637,    9.365219
   3.447887,    9.515168
   3.503542,    9.666130
   3.559556,    9.817983
   3.616151,    9.971325
   3.672641,   10.124295
   3.729920,   10.279314
   3.787722,   10.435657
   3.845655,   10.592263
   3.903844,   10.749472
   3.962158,   10.906922
   4.020726,   11.064967
   4.079826,   11.224352
   4.138894,   11.383559
   4.198709,   11.544680
   4.259339,   11.707898
   4.261732,   11.714337
   4.263376,   11.718761
   4.264846,   11.722717
   4.266029,   11.725900
   4.267395,   11.729575
   4.268425,   11.732348
   4.268643,   11.732935
   4.268936,   11.733721
   4.268999,   11.733892
   4.269101,   11.734167
   4.269134,   11.734256
   4.269141,   11.734275
   4.269155,   11.734313
   4.269297,   11.734694
   4.270417,   11.737709
   4.275457,   11.751270
   4.292645,   11.797513
   4.335010,   11.911446
   4.388526,   12.055281
   4.442973,   12.201513
   4.497748,   12.348522
   4.552408,   12.495118
   4.607470,   12.642686
   4.663114,   12.791706
   4.718737,   12.940562
   4.774412,   13.089446
   4.830740,   13.239968
   4.887156,   13.390614
   4.943781,   13.541704
   5.000516,   13.692976
   5.057691,   13.845308
   5.115276,   13.998615
   5.172681,   14.151330
   5.230246,   14.304353
   5.287799,   14.457228
   5.346022,   14.611762
   5.404634,   14.767212
   5.463307,   14.922705
   5.522280,   15.078867
   5.581576,   15.235766
   5.641038,   15.392977
   5.701063,   15.551553
   5.760788,   15.709213
   5.820606,   15.866991
   5.881098,   16.026421
   5.941476,   16.185421
   6.002515,   16.346034
   6.063594,   16.506622
   6.124919,   16.667725
   6.186398,   16.829100
   6.247619,   16.989667
   6.309897,   17.152871
   6.372032,   17.315569
   6.434853,   17.479922
   6.497487,   17.643649
   6.560135,   17.807277
   6.623474,   17.972572
   6.686793,   18.137672
   6.750442,   18.303494
   6.814215,   18.469493
   6.877942,   18.635236
   6.942629,   18.803327
   7.007074,   18.970644
   7.071978,   19.139010
   7.136997,   19.307523
   7.202150,   19.476236
   7.267139,   19.644378
   7.332824,   19.814171
   7.398377,   19.983476
   7.464226,   20.153390
   7.530701,   20.324768
   7.597320,   20.496363
   7.664215,   20.668513
   7.731196,   20.840731
   7.798631,   21.013956
   7.865891,   21.186572
   7.933280,   21.359364
   8.000869,   21.532509
   8.068602,   21.705864
   8.137049,   21.880886
   8.205340,   22.055345
   8.274102,   22.230844
   8.343123,   22.406838
   8.412167,   22.582726
   8.481110,   22.758192
   8.550446,   22.934489
   8.620046,   23.111292
   8.690094,   23.289062
   8.760025,   23.466367
   8.760583,   23.467782
   8.760711,   23.468106
   8.760765,   23.468241
   8.760871,   23.468511
   8.760883,   23.468542
   8.760890,   23.468560
   8.760901,   23.468586
   8.761005,   23.468850
   8.762046,   23.471488
   8.768146,   23.486945
   8.788762,   23.539175
   8.838617,   23.665401
   8.901477,   23.824398
   8.964032,   23.982451
   9.027050,   24.141502
   9.089980,   24.300157
   9.153001,   24.458867
   9.216338,   24.618199
   9.280075,   24.778362
   9.343747,   24.938182
   9.407314,   25.097564
   9.471508,   25.258340
   9.535590,   25.418653
   9.599870,   25.579286
   9.664424,   25.740419
   9.729177,   25.901869
   9.793985,   26.063273
   9.858985,   26.224972
   9.924385,   26.387481
   9.989800,   26.549841
  10.055364,   26.712385
  10.121031,   26.874999
  10.186767,   27.037595
  10.253013,   27.201264
  10.319102,   27.364357
  10.385218,   27.527326
  10.451713,   27.691041
  10.518584,   27.855487
  10.585689,   28.020315
  10.652664,   28.184632
  10.719871,   28.349324
  10.786986,   28.513593
  10.854623,   28.678947
  10.922088,   28.843683
  10.989977,   29.009259
  11.057713,   29.174262
  11.125725,   29.339740
  11.193926,   29.505479
  11.262169,   29.671122
  11.330929,   29.837817
  11.399607,   30.004110
  11.468377,   30.170426
  11.537439,   30.337244
  11.606572,   30.504029
  11.675659,   30.670498
  11.745265,   30.838015
  11.814940,   31.005488
  11.884953,   31.173567
  11.954992,   31.341501
  12.025201,   31.509630
  12.095311,   31.677315
  12.165734,   31.845539
  12.236348,   32.014006
  12.307019,   32.182400
  12.377985,   32.351283
  12.449122,   32.520357
  12.520551,   32.689912
  12.591971,   32.859228
  12.663224,   33.027936
  12.734765,   33.197109
  12.806686,   33.366961
  12.878724,   33.536875
  12.951162,   33.707507
  13.023347,   33.877327
  13.095648,   34.047200
  13.168206,   34.217454
  13.240875,   34.387749
  13.313840,   34.558514
  13.386788,   34.729016
  13.460238,   34.900466
  13.533769,   35.071878
  13.548545,   35.106295
  13.558164,   35.128698
  13.565430,   35.145616
  13.571280,   35.159236
  13.576999,   35.172550
  13.582791,   35.186032
  13.587035,   35.195909
  13.587790,   35.197666
  13.588741,   35.199879
  13.589851,   35.202462
  13.589913,   35.202608
  13.589951,   35.202695
  13.589978,   35.202759
  13.590001,   35.202811
  13.590008,   35.202827
  13.590015,   35.202845
  13.590088,   35.203015
  13.590718,   35.204481
  13.594722,   35.213799
  13.609897,   35.249105
  13.661568,   35.369231
  13.725456,   35.517560
  13.789945,   35.667066
  13.854426,   35.816328
  13.919196,   35.966036
  13.983766,   36.115059
  14.048667,   36.264622
  14.113674,   36.414207
  14.178717,   36.563646
  14.243987,   36.713383
  14.309339,   36.863080
  14.374654,   37.012467
  14.440255,   37.162280
  14.505934,   37.312045
  14.571876,   37.462180
  14.637860,   37.612178
  14.703855,   37.761975
  14.769972,   37.911818
  14.836330,   38.061976
  14.902604,   38.211712
  14.969066,   38.361643
  15.035784,   38.511919
  15.102643,   38.662277
  15.169427,   38.812235
  15.236500,   38.962606
  15.303596,   39.112795
  15.370850,   39.263103
  15.438251,   39.413501
  15.505609,   39.563568
  15.573112,   39.713724
  15.640913,   39.864304
  15.708836,   40.014915
  15.776790,   40.165359
  15.844768,   40.315616
  15.912918,   40.466013
  15.981328,   40.616743
  16.049689,   40.767127
  16.118299,   40.917814
  16.187145,   41.068779
  16.256094,   41.219726
  16.324967,   41.370262
  16.394038,   41.520989
  16.463189,   41.671647
  16.532509,   41.822428
  16.602093,   41.973535
  16.671547,   42.124115
  16.741036,   42.274527
  16.810682,   42.425032
  16.880394,   42.575434
  16.950334,   42.726082
  17.020257,   42.876444
  17.090429,   43.027094
  17.160952,   43.178247
  17.231269,   43.328709
  17.301920,   43.479635
  17.372595,   43.630362
  17.443469,   43.781264
  17.514489,   43.932222
  17.585532,   44.082976
  17.656536,   44.233396
  17.727801,   44.384117
  17.799501,   44.535502
  17.870856,   44.685905
  17.942631,   44.836938
  18.014268,   44.987425
  18.086135,   45.138139
  18.158237,   45.289089
  18.230292,   45.439685
  18.302423,   45.590183
  18.374675,   45.740676
  18.447159,   45.891394
  18.519768,   46.042112
  18.592329,   46.192474
  18.665294,   46.343411
  18.738072,   46.493701
  18.811104,   46.644256
  18.884234,   46.794753
  18.898885,   46.824872
  18.949814,   46.929490
  18.952736,   46.935488
  18.953239,   46.936521
  18.953452,   46.936959
  18.953508,   46.937074
  18.953541,   46.937142
  18.953579,   46.937219
  18.953956,   46.937993
  18.956648,   46.943518
  18.974442,   46.980036
  19.052213,   47.139451
  19.125225,   47.288844
  19.198472,   47.438454
  19.271808,   47.587982
  19.345310,   47.737586
  19.418896,   47.887095
  19.492550,   48.036477
  19.566208,   48.185605
  19.640256,   48.335254
  19.714222,   48.484474
  19.788416,   48.633887
  19.862617,   48.783047
  19.936878,   48.932061
  20.011333,   49.081198
  20.086035,   49.230560
  20.160678,   49.379536
  20.235439,   49.528480
  20.310249,   49.677250
  20.385193,   49.826022
  20.460414,   49.975071
  20.535681,   50.123940
  20.611020,   50.272681
  20.686603,   50.421633
  20.762273,   50.570483
  20.838004,   50.719180
  20.913812,   50.867758
  20.989552,   51.015930
  21.065520,   51.164274
  21.141666,   51.312693
  21.217863,   51.460938
  21.294062,   51.608914
  21.370428,   51.756940
  21.447001,   51.905091
  21.523602,   52.053023
  21.600422,   52.201100
  21.677465,   52.349333
  21.754504,   52.497278
  21.831640,   52.645135
  21.908849,   52.792852
  21.986223,   52.940610
  22.063752,   53.088383
  22.141408,   53.236121
  22.219220,   53.383875
  22.296996,   53.531282
  22.374981,   53.678804
  22.452979,   53.826070
  22.531031,   53.973162
  22.609294,   54.120368
  22.687637,   54.267444
  22.766179,   54.414611
  22.844803,   54.561650
  22.923621,   54.708770
  23.002508,   54.855734
  23.043817,   54.932579
  23.081417,   55.002458
  23.160468,   55.149192
  23.239533,   55.295731
  23.318947,   55.442696
  23.398465,   55.589618
  23.478213,   55.736707
  23.557896,   55.883421
  23.637608,   56.029929
  23.717738,   56.176934
  23.798066,   56.324003
  23.878346,   56.470687
  23.958845,   56.617473
  24.039417,   56.764083
  24.119967,   56.910312
  24.200732,   57.056592
  24.281554,   57.202635
  24.362343,   57.348276
  24.443226,   57.493709
  24.524295,   57.639097
  24.605270,   57.783941
  24.686181,   57.928292
  24.767184,   58.072406
  24.848154,   58.216051
  24.929227,   58.359468
  25.010132,   58.502178
  25.091006,   58.644422
  25.094248,   58.650111
  25.098612,   58.657769
  25.102907,   58.665305
  25.104037,   58.667287
  25.105470,   58.669802
  25.105811,   58.670399
  25.106320,   58.671292
  25.106356,   58.671355
  25.106370,   58.671380
  25.106385,   58.671407
  25.106535,   58.671670
  25.108035,   58.674301
  25.116815,   58.689698
  25.151641,   58.750737
  25.235294,   58.897084
  25.319622,   59.044155
  25.325225,   59.053776
  25.330817,   59.063370
  25.336429,   59.072993
  25.342040,   59.082605
  25.347658,   59.092223
  25.353275,   59.101832
  25.358887,   59.111423
  25.364516,   59.121038
  25.370148,   59.130650
  25.375783,   59.140257
  25.381398,   59.149824
  25.387014,   59.159386
  25.392660,   59.168989
  25.398300,   59.178575
  25.403950,   59.188170
  25.409594,   59.197744
  25.415226,   59.207292
  25.420890,   59.216884
  25.426562,   59.226482
  25.432232,   59.236068
  25.437852,   59.245561
  25.443492,   59.255078
  25.449164,   59.264641
  25.454857,   59.274229
  25.460496,   59.283719
  25.466160,   59.293242
  25.471835,   59.302774
  25.477505,   59.312288
  25.483206,   59.321845
  25.488889,   59.331362
  25.494598,   59.340915
  25.500318,   59.350476
  25.506039,   59.360028
  25.511774,   59.369595
  25.517521,   59.379172
  25.523267,   59.388738
  25.528998,   59.398268
  25.534747,   59.407818
  25.540508,   59.417380
  25.546274,   59.426938
  25.552026,   59.436462
  25.557806,   59.446023
  25.563553,   59.455521
  25.569312,   59.465027
  25.575086,   59.474546
  25.580889,   59.484105
  25.586681,   59.493632
  25.592480,   59.503162
  25.598266,   59.512659
  25.604073,   59.522180
  25.609837,   59.531619
  25.615624,   59.541085
  25.621439,   59.550587
  25.627271,   59.560105
  25.633096,   59.569600
  25.638939,   59.579112
  25.644755,   59.588570
  25.650622,   59.598098
  25.656481,   59.607604
  25.662363,   59.617134
  25.668245,   59.626651
  25.674133,   59.636167
  25.680025,   59.645677
  25.685907,   59.655162
  25.691831,   59.664704
  25.697701,   59.674151
  25.703601,   59.683637
  25.709514,   59.693135
  25.715420,   59.702610
  25.721365,   59.712140
  25.727302,   59.721646
  25.733187,   59.731062
  25.739144,   59.740581
  25.745107,   59.750101
  25.751044,   59.759569
  25.757011,   59.769076
  25.762978,   59.778572
  25.768945,   59.788060
  25.774885,   59.797495
  25.780880,   59.807006
  25.786861,   59.816486
  25.792864,   59.825989
  25.798835,   59.835434
  25.804858,   59.844950
  25.810888,   59.854467
  25.816906,   59.863956
  25.822929,   59.873441
  25.828968,   59.882942
  25.834989,   59.892403
  25.841013,   59.901861
  25.847064,   59.911349
  25.853127,   59.920846
  25.859167,   59.930298
  25.865227,   59.939770
  25.871316,   59.949277
  25.877401,   59.958767
  25.883508,   59.968280
  25.889585,   59.977736
  25.895695,   59.987234
  25.901805,   59.996720
  25.907923,   60.006207
  25.914048,   60.015696
  25.920163,   60.025159
  25.926284,   60.034618
  25.932431,   60.044108
  25.938592,   60.053610
  25.944772,   60.063129
  25.950932,   60.072605
  25.957106,   60.082093
  25.963299,   60.091598
  25.969503,   60.101109
  25.975729,   60.110643
  25.981943,   60.120147
  25.988168,   60.129656
  25.994396,   60.139159
  26.000630,   60.148660
  26.006863,   60.158147
  26.013097,   60.167624
  26.019355,   60.177127
  26.025623,   60.186634
  26.031890,   60.196128
  26.038148,   60.205595
  26.044451,   60.215119
  26.050760,   60.224640
  26.057072,   60.234155
  26.063347,   60.243601
  26.069610,   60.253018
  26.075948,   60.262535
  26.082289,   60.272045
  26.088618,   60.281526
  26.094965,   60.291020
  26.101346,   60.300554
  26.107735,   60.310086
  26.114114,   60.319593
  26.120491,   60.329084
  26.126880,   60.338580
  26.133298,   60.348108
  26.139711,   60.357614
  26.146141,   60.367133
  26.152582,   60.376657
  26.159013,   60.386153
  26.165490,   60.395704
  26.171947,   60.405213
  26.178412,   60.414720
  26.180025,   60.417091
  26.184885,   60.424227
  26.191388,   60.433765
  26.197895,   60.443295
  26.204379,   60.452779
  26.210889,   60.462288
  26.217389,   60.471769
  26.223919,   60.481282
  26.230461,   60.490797
  26.237031,   60.500341
  26.243594,   60.509860
  26.250218,   60.519455
  26.256791,   60.528963
  26.263397,   60.538503
  26.270007,   60.548037
  26.276629,   60.557574
  26.283241,   60.567083
  26.289898,   60.576642
  26.296484,   60.586087
  26.303158,   60.595644
  26.309793,   60.605130
  26.316470,   60.614662
  26.323132,   60.624160
  26.329856,   60.633731
  26.336585,   60.643294
  26.343310,   60.652839
  26.350051,   60.662390
  26.356796,   60.671934
  26.363586,   60.681526
  26.370389,   60.691123
  26.377168,   60.700670
  26.383948,   60.710204
  26.390780,   60.719796
  26.397554,   60.729291
  26.404379,   60.738844
  26.411203,   60.748380
  26.418064,   60.757952
  26.424917,   60.767499
  26.431807,   60.777080
  26.438671,   60.786611
  26.445554,   60.796153
  26.452483,   60.805744
  26.459403,   60.815306
  26.466321,   60.824850
  26.473273,   60.834425
  26.480202,   60.843952
  26.487145,   60.853482
  26.494091,   60.863001
  26.501087,   60.872573
  26.508107,   60.882162
  26.515100,   60.891697
  26.522117,   60.901249
  26.529161,   60.910821
  26.536241,   60.920426
  26.543285,   60.929965
  26.550363,   60.939534
  26.557440,   60.949084
  26.564539,   60.958649
  26.571629,   60.968184
  26.578778,   60.977780
  26.585902,   60.987328
  26.593034,   60.996868
  26.600228,   61.006475
  26.607371,   61.015994
  26.614571,   61.025574
  26.621782,   61.035150
  26.629012,   61.044735
  26.636242,   61.054302
  26.643470,   61.063848
  26.650699,   61.073378
  26.657945,   61.082913
  26.665209,   61.092454
  26.672534,   61.102056
  26.679829,   61.111601
  26.687193,   61.121219
  26.694513,   61.130760
  26.701868,   61.140328
  26.709213,   61.149866
  26.716606,   61.159446
  26.724011,   61.169024
  26.731374,   61.178528
  26.738741,   61.188020
  26.746146,   61.197541
  26.753521,   61.207005
  26.761011,   61.216597
  26.768457,   61.226114
  26.775938,   61.235656
  26.783423,   61.245184
  26.790973,   61.254775
  26.798551,   61.264381
  26.806111,   61.273946
  26.813602,   61.283403
  26.821185,   61.292957
  26.828760,   61.302479
  26.836375,   61.312033
  26.843943,   61.321508
  26.851535,   61.330992
  26.859210,   61.340559
  26.866804,   61.350005
  26.874496,   61.359553
  26.882158,   61.369043
  26.889852,   61.378551
  26.897593,   61.388096
  26.905318,   61.397600
  26.913087,   61.407138
  26.920878,   61.416681
  26.928651,   61.426180
  26.936454,   61.435694
  26.944286,   61.445223
  26.952135,   61.454749
  26.959984,   61.464254
  26.967846,   61.473754
  26.975723,   61.483248
  26.983567,   61.492681
  26.991438,   61.502125
  26.999291,   61.511524
  27.007248,   61.521025
  27.015178,   61.530472
  27.023099,   61.539885
  27.031078,   61.549344
  27.038996,   61.558710
  27.046965,   61.568111
  27.054961,   61.577522
  27.062975,   61.586931
  27.071026,   61.596359
  27.079033,   61.605713
  27.087064,   61.615072
  27.095102,   61.624415
  27.103206,   61.633811
  27.111317,   61.643191
  27.119431,   61.652551
  27.127629,   61.661983
  27.135818,   61.671381
  27.143996,   61.680741
  27.152183,   61.690088
  27.160355,   61.699392
  27.168575,   61.708726
  27.176813,   61.718056
  27.185085,   61.727400
  27.193355,   61.736716
  27.201634,   61.746016
  27.209942,   61.755324
  27.218253,   61.764610
  27.226590,   61.773899
  27.235029,   61.783276
  27.243381,   61.792530
  27.251777,   61.801806
  27.260152,   61.811033
  27.268561,   61.820272
  27.276955,   61.829467
  27.285439,   61.838735
  27.293878,   61.847927
  27.302391,   61.857172
  27.310884,   61.866369
  27.319361,   61.875520
  27.327940,   61.884756
  27.336492,   61.893935
  27.345099,   61.903144
  27.353614,   61.912229
  27.362129,   61.921285
  27.370682,   61.930354
  27.379220,   61.939380
  27.387895,   61.948523
  27.396563,   61.957630
  27.405196,   61.966672
  27.413797,   61.975653
  27.422488,   61.984698
  27.431256,   61.993795
  27.440001,   62.002839
  27.448743,   62.011851
  27.457478,   62.020826
  27.466253,   62.029814
  27.475057,   62.038801
  27.483782,   62.047678
  27.492570,   62.056591
  27.501372,   62.065488
  27.510258,   62.074440
  27.519089,   62.083305
  27.527941,   62.092163
  27.536880,   62.101076
  27.545747,   62.109888
  27.554668,   62.118722
  27.563571,   62.127509
  27.572536,   62.136325
  27.581514,   62.145124
  27.590483,   62.153882
  27.599507,   62.162663
  27.608491,   62.171373
  27.617502,   62.180078
  27.626519,   62.188757
  27.635518,   62.197388
  27.644580,   62.206047
  27.653600,   62.214633
  27.662711,   62.223275
  27.671892,   62.231951
  27.681023,   62.240546
  27.690159,   62.249114
  27.699339,   62.257690
  27.708497,   62.266212
  27.717663,   62.274709
  27.726860,   62.283202
  27.736052,   62.291657
  27.745269,   62.300102
  27.754387,   62.308423
  27.763591,   62.316789
  27.772876,   62.325196
  27.782074,   62.333490
  27.791399,   62.341864
  27.800760,   62.350236
  27.810062,   62.358521
  27.819400,   62.366803
  27.828729,   62.375044
  27.838074,   62.383264
  27.847481,   62.391503
  27.856860,   62.399683
  27.866309,   62.407889
  27.875638,   62.415956
  27.885053,   62.424061
  27.894537,   62.432191
  27.903958,   62.440231
  27.913407,   62.448259
  27.922906,   62.456294
  27.932390,   62.464280
  27.941895,   62.472248
  27.951424,   62.480199
  27.960984,   62.488141
  27.970484,   62.495996
  27.980021,   62.503844
  27.989542,   62.511644
  27.999086,   62.519426
  28.008690,   62.527219
  28.018275,   62.534961
  28.027923,   62.542715
  28.037539,   62.550407
  28.047168,   62.558072
  28.056806,   62.565706
  28.066518,   62.573362
  28.076220,   62.580970
  28.085971,   62.588579
  28.095740,   62.596164
  28.105490,   62.603696
  28.115314,   62.611245
  28.125190,   62.618795
  28.135081,   62.626317
  28.144863,   62.633717
  28.154633,   62.641068
  28.164593,   62.648523
  28.174448,   62.655860
  28.184265,   62.663129
  28.194118,   62.670384
  28.203925,   62.677567
  28.213753,   62.684726
  28.223727,   62.691950
  28.233613,   62.699071
  28.243549,   62.706188
  28.253399,   62.713202
  28.263410,   62.720292
  28.273428,   62.727344
  28.283385,   62.734313
  28.293289,   62.741205
  28.303199,   62.748060
  28.313231,   62.754959
  28.323188,   62.761765
  28.333258,   62.768607
  28.343279,   62.775374
  28.353361,   62.782141
  28.363443,   62.788866
  28.373436,   62.795490
  28.383415,   62.802062
  28.393536,   62.808688
  28.403627,   62.815251
  28.413807,   62.821829
  28.423864,   62.828286
  28.434079,   62.834802
  28.444164,   62.841191
  28.454354,   62.847605
  28.464509,   62.853954
  28.474587,   62.860213
  28.484765,   62.866491
  28.494900,   62.872699
  28.505124,   62.878919
  28.515254,   62.885038
  28.525426,   62.891140
  28.535606,   62.897204
  28.545869,   62.903273
  28.556096,   62.909278
  28.566378,   62.915270
  28.576603,   62.921186
  28.586965,   62.927137
  28.597164,   62.932950
  28.607353,   62.938714
  28.617611,   62.944473
  28.627979,   62.950250
  28.638356,   62.955986
  28.648581,   62.961594
  28.658917,   62.967218
  28.669356,   62.972854
  28.679713,   62.978399
  28.690122,   62.983928
  28.700483,   62.989385
  28.710796,   62.994773
  28.721247,   63.000187
  28.731646,   63.005528
  28.742088,   63.010846
  28.752553,   63.016130
  28.763052,   63.021385
  28.773588,   63.026611
  28.784053,   63.031756
  28.794629,   63.036909
  28.805058,   63.041943
  28.815529,   63.046953
  28.826004,   63.051917
  28.836472,   63.056832
  28.847023,   63.061740
  28.857534,   63.066581
  28.868039,   63.071374
  28.870581,   63.072527
