V/VsTO, Thrust - Yawing Moment
   0.326770, 147531.777907
   0.329996, 147426.939317
   0.333221, 147322.100728
   0.336447, 147217.262138
   0.339673, 147112.423549
   0.342899, 147007.584959
   0.346125, 146902.746370
   0.349351, 146797.907780
   0.352576, 146693.069191
   0.355802, 146588.230601
   0.359028, 146483.392012
   0.362254, 146378.553423
   0.365480, 146273.714833
   0.368705, 146168.876244
   0.371931, 146064.037654
   0.375157, 145959.199065
   0.378383, 145854.360475
   0.381609, 145749.521886
   0.384835, 145644.683296
   0.388060, 145539.844707
   0.391286, 145435.006117
   0.394512, 145330.167528
   0.397738, 145225.328938
   0.400964, 145120.490349
   0.404190, 145015.651760
   0.407415, 144910.813170
   0.410641, 144805.974581
   0.413867, 144701.135991
   0.417093, 144596.297402
   0.420319, 144491.458812
   0.423544, 144386.620223
   0.426770, 144281.781633
   0.429996, 144176.943044
   0.433222, 144072.104454
   0.436448, 143967.265865
   0.439674, 143862.427276
   0.442899, 143757.588686
   0.446125, 143652.750097
   0.449351, 143547.911507
   0.452577, 143425.416052
   0.455803, 143289.955046
   0.459029, 143154.494041
   0.462254, 143019.033035
   0.465480, 142883.572030
   0.468706, 142748.111024
   0.471932, 142612.650019
   0.475158, 142477.189013
   0.478383, 142341.728008
   0.481609, 142206.267002
   0.484835, 142070.805997
   0.488061, 141935.344991
   0.491287, 141799.883986
   0.494513, 141664.422980
   0.497738, 141528.961975
   0.500964, 141393.500969
   0.504190, 141258.039964
   0.507416, 141122.578958
   0.510642, 140987.117953
   0.513868, 140851.656947
   0.517093, 140716.195941
   0.520319, 140580.734936
   0.523545, 140445.273930
   0.526771, 140309.812925
   0.529997, 140174.351919
   0.533222, 140038.890914
   0.536448, 139903.429908
   0.539674, 139767.968903
   0.542900, 139632.507897
   0.546126, 139497.046892
   0.549352, 139361.585886
   0.552577, 139226.124881
   0.555803, 139090.663875
   0.559029, 138955.202870
   0.562255, 138819.741864
   0.565481, 138684.280859
   0.568707, 138548.819853
   0.571932, 138413.358848
   0.575158, 138277.897842
   0.578384, 138142.436837
   0.581610, 138006.975831
   0.584836, 137871.514826
   0.588062, 137736.053820
   0.591287, 137600.592815
   0.594513, 137465.131809
   0.597739, 137329.670804
   0.600965, 137194.209798
   0.604191, 137058.748793
   0.607416, 136923.287787
   0.610642, 136787.826782
   0.613868, 136652.365776
   0.617094, 136516.904771
   0.620320, 136381.443765
   0.623546, 136245.982760
   0.626771, 136110.521754
   0.629997, 135975.060749
   0.633223, 135839.599743
   0.636449, 135704.138738
   0.639675, 135568.677732
   0.642901, 135433.216727
   0.646126, 135297.755721
   0.649352, 135162.294716
   0.652578, 135026.833710
   0.655804, 134891.372705
   0.659030, 134755.911699
   0.662255, 134620.450694
   0.665481, 134484.989688
   0.668707, 134349.528683
   0.671933, 134214.067677
   0.675159, 134078.606671
   0.678385, 133912.187768
   0.681610, 133733.481185
   0.684836, 133554.774601
   0.688062, 133376.068018
   0.691288, 133197.361435
   0.694514, 133018.654851
   0.697740, 132839.948268
   0.700965, 132661.241685
   0.704191, 132482.535101
   0.707417, 132303.828518
   0.710643, 132125.121935
   0.713869, 131946.415351
   0.717094, 131767.708768
   0.720320, 131589.002185
   0.723546, 131410.295601
   0.726772, 131231.589018
   0.729998, 131052.882434
   0.733224, 130874.175851
   0.736449, 130695.469268
   0.739675, 130516.762684
   0.742901, 130338.056101
   0.746127, 130159.349518
   0.749353, 129980.642934
   0.752579, 129801.936351
   0.755804, 129623.229768
   0.759030, 129444.523184
   0.762256, 129265.816601
   0.765482, 129087.110018
   0.768708, 128908.403434
   0.771933, 128729.696851
   0.775159, 128550.990268
   0.778385, 128372.283684
   0.781611, 128193.577101
   0.784837, 128014.870517
   0.788063, 127836.163934
   0.791288, 127657.457351
   0.794514, 127478.750767
   0.797740, 127300.044184
   0.800966, 127121.337601
   0.804192, 126942.631017
   0.807418, 126763.924434
   0.810643, 126585.217851
   0.813869, 126406.511267
   0.817095, 126227.804684
   0.820321, 126049.098101
   0.823547, 125870.391517
   0.826773, 125691.684934
   0.829998, 125512.978351
   0.833224, 125334.271767
   0.836450, 125155.565184
   0.839676, 124976.858600
   0.842902, 124798.152017
   0.846127, 124619.445434
   0.849353, 124440.738850
   0.852579, 124262.032267
   0.855805, 124083.325684
   0.859031, 123904.619100
   0.862257, 123725.912517
   0.865482, 123547.205934
   0.868708, 123368.499350
   0.871934, 123189.792767
   0.875160, 123011.086184
   0.878386, 122832.379600
   0.881612, 122653.673017
   0.884837, 122474.966433
   0.888063, 122296.259850
   0.891289, 122117.553267
   0.894515, 121938.846683
   0.897741, 121760.140100
   0.900966, 121581.433517
   0.904192, 121400.934086
   0.907418, 121220.130952
   0.910644, 121039.327817
   0.913870, 120858.524683
   0.917096, 120677.721548
   0.920321, 120496.918413
   0.923547, 120316.115279
   0.926773, 120135.312144
   0.929999, 119954.509010
   0.933225, 119773.705875
   0.936451, 119592.902741
   0.939676, 119412.099606
   0.942902, 119231.296472
   0.946128, 119050.493337
   0.949354, 118869.690203
   0.952580, 118688.887068
   0.955805, 118508.083934
   0.959031, 118327.280799
   0.962257, 118146.477665
   0.965483, 117965.674530
   0.968709, 117784.871396
   0.971935, 117604.068261
   0.975160, 117423.265127
   0.978386, 117242.461992
   0.981612, 117061.658857
   0.984838, 116880.855723
   0.988064, 116700.052588
   0.991290, 116519.249454
   0.994515, 116338.446319
   0.997741, 116157.643185
   1.000967, 115976.840050
   1.004193, 115796.036916
   1.007419, 115615.233781
   1.010644, 115434.430647
   1.013870, 115253.627512
   1.017096, 115072.824378
   1.020322, 114892.021243
   1.023548, 114711.218109
   1.026774, 114530.414974
   1.029999, 114349.611840
   1.033225, 114168.808705
   1.036451, 113988.005571
   1.039677, 113807.202436
   1.042903, 113626.399301
   1.046129, 113445.596167
   1.049354, 113264.793032
   1.052580, 113083.989898
   1.055806, 112903.186763
   1.059032, 112722.383629
   1.062258, 112541.580494
   1.065484, 112360.777360
   1.068709, 112179.974225
   1.071935, 111999.171091
   1.075161, 111818.367956
   1.078387, 111637.564822
   1.081613, 111456.761687
   1.084838, 111275.958553
   1.088064, 111095.155418
   1.091290, 110914.352284
   1.094516, 110733.549149
   1.097742, 110552.746015
   1.100968, 110371.942880
   1.104193, 110191.139745
   1.107419, 110010.336611
   1.110645, 109829.533476
   1.113871, 109648.730342
   1.117097, 109467.927207
   1.120323, 109287.124073
   1.123548, 109106.320938
   1.126774, 108925.517804
   1.130000, 108758.838701
