Speed, Forces
 152.830626, 5959.394387
 154.175369, 5745.661333
 155.520113, 5422.291658
 156.864856, 5233.805089
 158.209600, 5049.040511
 159.554343, 4937.356727
 160.899087, 4824.727675
 162.243830, 4711.884209
 163.588574, 4636.144187
 164.933317, 4559.778991
 166.278061, 4482.788621
 167.622804, 4408.246643
 168.967548, 4348.351121
 170.312291, 4287.977011
 171.657035, 4227.124313
 173.001778, 4165.793026
 174.346522, 4112.907723
 175.691265, 4063.139152
 177.036009, 4012.988188
 178.380752, 3962.454831
 179.725496, 3911.539081
 181.070239, 3868.460804
 182.414983, 3827.927455
 183.759726, 3787.094193
 185.104470, 3745.961019
 186.449213, 3704.527931
 187.793957, 3664.092919
 189.138700, 3631.734526
 190.483444, 3599.145250
 191.828187, 3566.325090
 193.172931, 3533.274047
 194.517674, 3499.992121
 195.862418, 3466.479311
 197.207161, 3439.943407
 198.551905, 3415.654353
 199.896648, 3391.200235
 201.241392, 3366.581055
 202.586135, 3341.796813
 203.930879, 3316.847507
 205.275622, 3291.733139
 206.620366, 3270.359364
 207.965109, 3255.075453
 209.309853, 3239.692392
 210.654596, 3224.210182
 211.999340, 3208.628823
 213.344083, 3192.948315
 214.688827, 3177.168657
 216.033570, 3161.289850
 217.378314, 3145.311893
 218.723057, 3135.851060
 220.067801, 3128.293769
 221.412544, 3120.690157
 222.757288, 3113.040224
 224.102031, 3105.343969
 225.446775, 3097.601394
 226.791518, 3089.812498
 228.136262, 3081.977280
 229.481005, 3074.095742
 230.825749, 3066.167883
 232.170492, 3061.965056
 233.515236, 3061.445890
 234.859979, 3060.923725
 236.204723, 3060.398563
 237.549466, 3059.870402
 238.894210, 3059.339242
 240.238953, 3058.805084
 241.583697, 3058.267928
 242.928440, 3057.727774
 244.273184, 3057.184621
 245.617927, 3056.638470
 246.962671, 3056.089320
 248.307414, 3055.537172
 249.652158, 3062.016964
 250.996901, 3068.680741
 252.341645, 3075.380315
 253.686388, 3082.115688
 255.031132, 3088.886858
 256.375875, 3095.693826
 257.720619, 3102.536592
 259.065362, 3109.415156
 260.410106, 3116.329518
 261.754849, 3123.279677
 263.099592, 3130.265635
 264.444336, 3137.287390
 265.789079, 3144.344942
 267.133823, 3151.438293
 268.478566, 3158.567442
 269.823310, 3167.449259
 271.168053, 3182.281408
 272.512797, 3197.187294
 273.857540, 3212.166916
 275.202284, 3227.220275
 276.547027, 3242.347371
 277.891771, 3257.548203
 279.236514, 3272.822772
 280.581258, 3288.171077
 281.926001, 3303.593119
 283.270745, 3319.088898
 284.615488, 3334.658413
 285.960232, 3350.301665
