Speed, Forces
 117.337811, 5959.394387
 119.226118, 5454.366955
 121.114424, 5108.909071
 123.002730, 4882.636297
 124.891036, 4688.028526
 126.779343, 4548.667591
 128.667649, 4409.810084
 130.555955, 4299.923411
 132.444261, 4188.435805
 134.332567, 4090.027612
 136.220874, 3998.390562
 138.109180, 3905.474365
 139.997486, 3830.059683
 141.885792, 3755.178476
 143.774099, 3679.294027
 145.662405, 3617.603686
 147.550711, 3557.640547
 149.439017, 3496.905076
 151.327324, 3441.846274
 153.215630, 3397.321053
 155.103936, 3352.243679
 156.992242, 3306.614150
 158.880549, 3266.742547
 160.768855, 3238.670627
 162.657161, 3210.267042
 164.545467, 3181.531790
 166.433774, 3152.464874
 168.322080, 3132.969236
 170.210386, 3119.079733
 172.098692, 3105.035281
 173.986999, 3090.835880
 175.875305, 3076.481530
 177.763611, 3062.209639
 179.651917, 3061.260425
 181.540224, 3060.301180
 183.428530, 3059.331905
 185.316836, 3058.352601
 187.205142, 3057.363267
 189.093448, 3056.363903
 190.981755, 3057.569832
 192.870061, 3069.740893
 194.758367, 3082.031702
 196.646673, 3094.442258
 198.534980, 3106.972562
 200.423286, 3119.622614
 202.311592, 3132.392414
 204.199898, 3145.281961
 206.088205, 3158.291256
 207.976511, 3179.165263
 209.864817, 3206.455225
 211.753123, 3233.991845
 213.641430, 3261.775122
 215.529736, 3289.805056
 217.418042, 3318.081648
 219.306348, 3346.604896
 221.194655, 3375.374802
 223.082961, 3404.391366
 224.971267, 3433.654586
 226.859573, 3463.164464
 228.747880, 3495.768530
 230.636186, 3536.624593
 232.524492, 3577.816535
 234.412798, 3619.344355
 236.301105, 3661.208056
 238.189411, 3703.407635
 240.077717, 3745.943093
 241.966023, 3788.814430
 243.854329, 3832.021647
 245.742636, 3875.564743
 247.630942, 3919.443717
 249.519248, 3963.658571
 251.407554, 4008.209304
 253.295861, 4053.095916
 255.184167, 4098.318408
 257.072473, 4143.876778
 258.960779, 4194.539963
 260.849086, 4249.693520
 262.737392, 4305.247787
 264.625698, 4361.202766
 266.514004, 4417.558456
 268.402311, 4474.314858
 270.290617, 4531.471970
 272.178923, 4589.029793
 274.067229, 4646.988328
 275.955536, 4705.347574
 277.843842, 4764.107531
 279.732148, 4823.268199
 281.620454, 4882.829578
 283.508761, 4942.791669
 285.397067, 5003.154470
 287.285373, 5063.917983
 289.173679, 5125.082207
 291.061986, 5186.647142
 292.950292, 5248.612788
 294.838598, 5310.979145
 296.726904, 5373.746214
 298.615210, 5436.913994
 300.503517, 5500.482484
 302.391823, 5564.451686
 304.280129, 5632.202552
