Speed, Forces
 117.337811, 9194.007915
 119.226118, 9117.324986
 121.114424, 9040.642058
 123.002730, 8963.959130
 124.891036, 8887.276201
 126.779343, 8810.593273
 128.667649, 8733.910344
 130.555955, 8657.227416
 132.444261, 8580.544487
 134.332567, 8503.861559
 136.220874, 8427.178630
 138.109180, 8356.389989
 139.997486, 8288.600234
 141.885792, 8220.810480
 143.774099, 8153.020725
 145.662405, 8085.230971
 147.550711, 8017.441216
 149.439017, 7949.651462
 151.327324, 7881.861707
 153.215630, 7814.071953
 155.103936, 7746.282198
 156.992242, 7678.492444
 158.880549, 7610.702689
 160.768855, 7547.202617
 162.657161, 7486.765857
 164.545467, 7426.329097
 166.433774, 7365.892338
 168.322080, 7305.455578
 170.210386, 7245.018818
 172.098692, 7184.582058
 173.986999, 7124.145299
 175.875305, 7063.708539
 177.763611, 7003.271779
 179.651917, 6942.835019
 181.540224, 6882.398260
 183.428530, 6825.423288
 185.316836, 6771.855263
 187.205142, 6718.287239
 189.093448, 6664.719214
 190.981755, 6611.151189
 192.870061, 6557.583165
 194.758367, 6504.015140
 196.646673, 6450.447116
 198.534980, 6396.879091
 200.423286, 6343.311066
 202.311592, 6289.743042
 204.199898, 6236.175017
 206.088205, 6185.291285
 207.976511, 6138.045239
 209.864817, 6090.799194
 211.753123, 6043.553148
 213.641430, 5996.307103
 215.529736, 5949.061057
 217.418042, 5901.815012
 219.306348, 5854.568966
 221.194655, 5807.322921
 223.082961, 5760.076875
 224.971267, 5712.830830
 226.859573, 5665.584784
 228.747880, 5620.372888
 230.636186, 5579.019664
 232.524492, 5537.666439
 234.412798, 5496.313214
 236.301105, 5454.959989
 238.189411, 5413.606764
 240.077717, 5372.253539
 241.966023, 5330.900315
 243.854329, 5289.547090
 245.742636, 5248.193865
 247.630942, 5206.840640
 249.519248, 5165.487415
 251.407554, 5125.174719
 253.295861, 5087.736258
 255.184167, 5050.297797
 257.072473, 5012.859336
 258.960779, 4975.420875
 260.849086, 4937.982414
 262.737392, 4900.543953
 264.625698, 4863.105492
 266.514004, 4825.667031
 268.402311, 4788.228570
 270.290617, 4750.790109
 272.178923, 4713.351648
 274.067229, 4676.376620
 275.955536, 4641.424515
 277.843842, 4606.472409
 279.732148, 4571.520304
 281.620454, 4536.568199
 283.508761, 4501.616094
 285.397067, 4466.663989
 287.285373, 4431.711884
 289.173679, 4396.759779
 291.061986, 4361.807673
 292.950292, 4326.855568
 294.838598, 4291.903463
 296.726904, 4256.956370
 298.615210, 4222.051113
 300.503517, 4187.145856
 302.391823, 4152.240598
 304.280129, 4117.335341
