Speed, Forces
 124.979743, 8500.342631
 126.745628, 8436.411752
 128.511513, 8372.480873
 130.277398, 8308.549994
 132.043283, 8244.619115
 133.809168, 8180.688236
 135.575053, 8121.057619
 137.340938, 8067.509170
 139.106824, 8013.960720
 140.872709, 7960.412270
 142.638594, 7906.863821
 144.404479, 7853.315371
 146.170364, 7799.766921
 147.936249, 7746.218472
 149.702134, 7692.670022
 151.468019, 7639.121572
 153.233904, 7585.573123
 154.999789, 7532.024673
 156.765674, 7478.476224
 158.531560, 7428.077251
 160.297445, 7379.110114
 162.063330, 7330.142976
 163.829215, 7281.175838
 165.595100, 7232.208700
 167.360985, 7183.241562
 169.126870, 7134.274424
 170.892755, 7085.307286
 172.658640, 7036.340148
 174.424525, 6987.373010
 176.190410, 6938.405872
 177.956296, 6889.438734
 179.722181, 6840.471596
 181.488066, 6794.549690
 183.253951, 6748.752252
 185.019836, 6702.954814
 186.785721, 6657.157376
 188.551606, 6611.359938
 190.317491, 6565.562500
 192.083376, 6519.765063
 193.849261, 6473.967625
 195.615146, 6428.170187
 197.381031, 6382.372749
 199.146917, 6336.575311
 200.912802, 6290.777873
 202.678687, 6245.497689
 204.444572, 6201.910671
 206.210457, 6158.323652
 207.976342, 6114.736633
 209.742227, 6071.149614
 211.508112, 6027.562595
 213.273997, 5983.975576
 215.039882, 5940.388557
 216.805767, 5896.801538
 218.571653, 5853.214519
 220.337538, 5809.627500
 222.103423, 5766.040481
 223.869308, 5722.453462
 225.635193, 5681.660230
 227.401078, 5643.580688
 229.166963, 5605.501146
 230.932848, 5567.421604
 232.698733, 5529.342062
 234.464618, 5491.262519
 236.230503, 5453.182977
 237.996389, 5415.103435
 239.762274, 5377.023893
 241.528159, 5338.944351
 243.294044, 5300.864808
 245.059929, 5262.785266
 246.825814, 5224.705724
 248.591699, 5189.805467
 250.357584, 5155.799073
 252.123469, 5121.792680
 253.889354, 5087.786287
 255.655239, 5053.779894
 257.421124, 5019.773500
 259.187010, 4985.767107
 260.952895, 4951.760714
 262.718780, 4917.754320
 264.484665, 4883.747927
 266.250550, 4849.741534
 268.016435, 4815.735141
 269.782320, 4781.889719
 271.548205, 4750.874731
 273.314090, 4719.859743
 275.079975, 4688.844754
 276.845860, 4657.829766
 278.611746, 4626.814778
 280.377631, 4595.799789
 282.143516, 4564.784801
 283.909401, 4533.769813
 285.675286, 4502.754824
 287.441171, 4471.739836
 289.207056, 4440.724848
 290.972941, 4409.709859
 292.738826, 4378.997327
 294.504711, 4348.907036
 296.270596, 4318.816744
 298.036482, 4288.726452
 299.802367, 4258.636161
