Ground Distance, Angles
   0.000000,    0.000000
   0.000000,    0.000000
   0.000006,    0.000000
   0.000054,    0.000000
   0.001226,    0.000000
   0.005208,    0.000000
   0.012180,    0.000000
   0.022034,    0.000000
   0.034834,    0.000000
   0.050646,    0.000000
   0.069385,    0.000000
   0.091116,    0.000000
   0.116078,    0.000000
   0.144283,    0.000000
   0.175647,    0.000000
   0.210347,    0.000000
   0.247870,    0.000000
   0.289132,    0.000000
   0.334020,    0.000000
   0.382009,    0.000000
   0.433144,    0.000000
   0.487976,    0.000000
   0.546808,    0.000000
   0.610573,    0.000000
   0.678004,    0.000000
   0.749448,    0.000000
   0.825692,    0.000000
   0.904702,    0.000000
   0.988142,    0.000000
   1.075992,    0.000000
   1.168868,    0.000000
   1.266739,    0.000000
   1.367491,    0.000000
   1.474305,    0.000000
   1.587052,    0.000000
   1.703862,    0.000000
   1.826705,    0.000000
   1.954031,    0.000000
   2.087747,    0.000000
   2.228970,    0.000000
   2.372548,    0.000000
   2.522632,    0.000000
   2.679805,    0.000000
   2.841946,    0.000000
   3.012001,    0.000000
   3.187568,    0.000000
   3.369605,    0.000000
   3.561334,    0.000000
   3.758829,    0.000000
   3.960707,    0.000000
   4.172858,    0.000000
   4.387173,    0.000000
   4.613044,    0.000000
   4.846684,    0.000000
   5.080836,    0.000000
   5.328148,    0.000000
   5.582063,    0.000000
   5.842758,    0.000000
   6.109030,    0.000000
   6.390221,    0.000000
   6.673104,    0.000000
   6.972224,    0.000000
   7.278258,    0.000000
   7.589991,    0.000000
   7.912451,    0.000000
   8.242704,    0.000000
   8.582706,    0.000000
   8.933889,    0.000000
   9.291451,    0.000000
   9.660467,    0.000000
  10.036340,    0.000000
  10.421097,    0.000000
  10.816838,    0.000000
  11.228745,    0.000000
  11.648507,    0.000000
  12.074036,    0.000000
  12.515173,    0.000000
  12.964179,    0.000000
  13.423002,    0.000000
  13.895445,    0.000000
  14.381103,    0.000000
  14.873667,    0.000000
  15.372599,    0.000000
  15.885375,    0.000000
  16.413703,    0.000000
  16.948265,    0.000000
  17.496454,    0.000000
  18.061617,    0.000000
  18.635411,    0.000000
  19.229062,    0.000000
  19.828899,    0.000000
  20.445826,    0.000000
  21.066362,    0.000000
  21.703470,    0.000000
  22.354490,    0.000000
  23.024499,    0.000000
  23.698244,    0.000000
  24.387530,    0.000000
  25.088776,    0.000000
  25.117278,    0.000000
  25.204813,    0.000000
  25.215389,    0.000000
  25.217400,    0.000000
  25.219797,    0.000000
  25.220499,    0.000000
  25.220625,    0.000000
  25.220702,    0.000000
  25.220792,    0.000000
  25.221697,    0.000000
  25.230752,    0.000000
  25.274522,    0.000000
  25.415966,    0.000000
  25.802349,    0.000000
  26.472008,    0.000000
  27.136488,    0.000000
  27.809638,    0.000000
  28.499724,    0.000000
  29.192980,    0.000000
  29.901402,    0.000000
  30.618349,    0.000000
  31.347197,    0.000000
  32.088296,    0.000000
  32.845610,    0.000000
  33.610900,    0.000000
  34.388540,    0.000000
  35.176717,    0.000000
  35.978134,    0.000000
  36.795132,    0.000000
  37.620406,    0.000000
  38.455126,    0.000000
  39.306604,    0.000000
  40.173925,    0.000000
  41.051509,    0.000000
  41.937183,    0.000000
  42.838248,    0.000000
  43.750245,    0.000000
  44.677091,    0.000000
  45.618379,    0.000000
  46.573272,    0.000000
  47.545030,    0.000000
  48.531676,    0.000000
  49.522424,    0.000000
  50.545311,    0.000000
  51.566421,    0.000000
  52.593496,    0.000000
  53.648233,    0.000000
  54.715513,    0.000000
  55.801741,    0.000000
  56.897089,    0.000000
  58.005808,    0.000000
  59.122356,    0.000000
  60.256824,    0.000000
  61.412241,    0.000000
  62.574501,    0.000000
  63.753757,    0.000000
  64.951577,    0.000000
  66.169197,    0.000000
  67.396499,    0.000000
  68.632369,    0.000000
  69.892273,    0.000000
  71.174402,    0.000000
  72.465644,    0.000000
  73.766970,    0.000000
  75.086477,    0.000000
  76.419443,    0.000000
  77.769412,    0.000000
  79.136448,    0.000000
  80.524081,    0.000000
  81.920471,    0.000000
  83.331621,    0.000000
  84.764137,    0.000000
  86.206330,    0.000000
  87.668521,    0.000000
  89.158850,    0.000000
  90.655615,    0.000000
  92.174165,    0.000000
  93.701946,    0.000000
  95.251615,    0.000000
  96.816520,    0.000000
  98.398557,    0.000000
  99.994870,    0.000000
 101.613219,    0.000000
 103.252239,    0.000000
 103.583892,    0.000000
 103.801931,    0.000000
 103.948145,    0.000000
 104.062875,    0.000000
 104.156593,    0.000000
 104.239910,    0.000000
 104.304493,    0.000000
 104.357876,    0.000000
 104.417485,    0.000000
 104.471323,    0.000000
 104.481529,    0.000000
 104.493736,    0.000000
 104.507622,    0.000000
 104.510885,    0.000000
 104.517103,    0.000000
 104.518810,    0.000000
 104.519652,    0.000000
 104.520228,    0.000000
 104.520631,    0.000000
 104.520759,    0.000000
 104.520881,    0.000000
 104.522106,    0.000000
 104.533785,    0.000000
 104.603681,    0.000000
 104.897754,    0.000000
 105.942511,    0.000000
 107.472856,    0.000000
 108.978526,    0.000000
 110.502935,    0.000000
 112.042803,    0.000000
 113.584332,    0.000000
 115.147503,    0.000000
 116.725448,    0.000000
 118.316763,    0.000000
 119.921712,    0.000000
 121.538098,    0.000000
 123.172334,    0.000000
 124.824848,    0.000000
 126.489157,    0.000000
 128.166270,    0.000000
 129.855950,    0.000000
 131.563851,    0.000000
 133.280955,    0.000000
 135.018392,    0.000000
 136.769697,    0.000000
 138.533868,    0.000000
 140.312013,    0.000000
 142.112552,    0.000000
 143.933853,    0.000000
 145.769592,    0.000000
 147.612566,    0.000000
 149.477314,    0.000000
 151.365477,    0.000000
 153.256031,    0.000000
 155.159059,    0.000000
 157.086051,    0.000000
 159.021640,    0.000000
 160.978865,    0.000000
 162.949349,    0.000000
 164.938795,    0.000000
 166.947190,    0.000000
 168.967404,    0.000000
 171.010648,    0.000000
 173.054425,    0.000000
 175.131118,    0.000000
 177.217525,    0.000000
 179.322177,    0.000000
 181.446169,    0.000000
 183.581283,    0.000000
 185.728530,    0.000000
 187.901315,    0.000000
 190.093240,    0.000000
 192.294777,    0.000000
 194.517173,    0.000000
 196.755201,    0.000000
 199.008325,    0.000000
 201.279946,    0.000000
 203.563899,    0.000000
 205.872024,    0.000000
 208.200596,    0.000000
 210.541944,    0.000000
 212.903013,    0.000000
 215.278975,    0.000000
 217.670972,    0.000000
 220.083695,    0.000000
 222.512690,    0.000000
 224.962685,    0.000000
 227.427946,    0.000000
 229.904580,    0.000000
 232.392684,    0.000000
 234.911130,    0.000000
 237.446279,    0.000000
 239.997540,    0.000000
 242.564511,    0.000000
 245.152359,    0.000000
 245.675619,    0.000000
 246.035474,    0.000000
 246.285447,    0.000000
 246.323879,    0.000000
 246.363886,    0.000000
 246.406558,    0.000000
 246.457443,    0.000000
 246.460431,    0.000000
 246.462208,    0.000000
 246.463531,    0.000000
 246.464456,    0.000000
 246.465080,    0.000000
 246.465346,    0.000000
 246.465605,    0.000000
 246.468192,    0.000000
 246.493218,    0.000000
 246.692071,    0.000000
 247.407140,    0.000000
 249.878101,    0.000000
 252.171543,    0.000000
 254.480863,    0.000000
 256.811501,    0.000000
 259.148086,    0.000000
 261.498542,    0.000000
 263.871338,    0.000000
 266.253386,    0.000000
 268.650711,    0.000000
 271.067284,    0.000000
 273.491307,    0.000000
 275.921883,    0.000000
 278.368909,    0.000000
 280.840727,    0.000000
 283.320441,    0.000000
 285.820501,    0.000000
 288.332124,    0.000000
 290.856162,    0.000000
 293.394041,    0.000000
 295.948057,    0.000000
 298.516010,    0.000000
 301.106172,    0.000000
 303.709962,    0.000000
 306.324348,    0.000000
 308.953225,    0.000000
 311.598494,    0.000000
 314.261166,    0.000000
 316.943359,    0.000000
 319.634382,    0.000000
 322.347078,    0.000000
 325.062053,    0.000000
 327.797645,    0.000000
 330.552031,    0.000000
 333.314942,    0.000000
 336.097290,    0.000000
 338.902614,    0.000000
 341.719176,    0.000000
 344.551980,    0.000000
 347.394131,    0.000000
 350.251980,    0.000000
 353.123780,    0.000000
 356.017104,    0.000000
 358.925257,    0.000000
 361.846893,    0.000000
 364.774378,    0.000000
 367.733163,    0.000000
 370.698635,    0.000000
 373.676925,    0.000000
 376.675422,    0.000000
 379.693678,    0.000000
 382.725635,    0.000000
 385.773368,    0.000000
 388.833701,    0.000000
 391.914288,    0.000000
 395.008086,    0.000000
 398.113991,    0.000000
 401.240823,    0.000000
 404.384423,    0.000000
 407.538109,    0.000000
 410.714331,    0.000000
 413.911140,    0.000000
 417.116820,    0.000000
 420.341762,    0.000000
 423.577625,    0.000000
 426.831733,    0.000000
 430.099642,    0.000000
 433.384318,    0.000000
 436.684611,    0.000000
 439.999145,    0.000000
 443.340562,    0.000000
 446.696369,    0.000000
 450.069577,    0.000000
 453.451077,    0.000000
 456.847793,    0.000000
 460.263720,    0.000000
 463.701138,    0.000000
 464.392721,    0.000000
 466.953019,    0.000000
 466.980732,    0.000000
 466.990979,    0.000000
 466.993432,    0.000000
 467.011721,    0.000000
 467.028215,    0.000000
 467.136889,    0.000000
 467.761878,    0.000000
 470.660633,    0.000000
 474.110439,    0.000000
 477.586534,    0.000000
 481.083559,    0.000000
 484.596371,    0.000000
 488.134934,    0.000000
 491.681768,    0.000000
 495.241351,    0.000000
 498.831347,    0.000000
 502.428957,    0.000000
 506.042146,    0.000000
 509.678596,    0.000000
 513.340950,    0.000000
 517.004649,    0.000000
 520.694132,    0.000000
 524.401566,    0.000000
 528.122189,    0.000000
 531.853602,    0.000000
 535.613782,    0.000000
 539.389131,    0.000000
 543.177905,    0.000000
 546.992657,    0.000000
 550.816606,    0.000000
 554.649850,    0.000000
 558.504525,    0.000000
 562.379052,    0.000000
 566.268903,    0.000000
 570.184398,    0.000000
 574.108871,    0.000000
 578.054830,    0.000000
 582.012874,    0.000000
 585.996286,    0.000000
 589.989118,    0.000000
 593.996932,    0.000000
 598.027629,    0.000000
 602.073567,    0.000000
 606.142848,    0.000000
 610.224420,    0.000000
 614.328908,    0.000000
 618.447908,    0.000000
 622.592845,    0.000000
 626.754922,    0.000000
 630.928687,    0.000000
 635.118898,    0.000000
 639.328040,    0.000000
 643.552052,    0.000000
 646.210443,    0.000000
 647.795480,    0.000000
 652.051720,    0.088109
 656.332055,    0.323425
 660.636934,    0.557195
 664.964739,    0.789441
 669.314999,    1.020072
 673.684524,    1.249065
 678.067216,    1.476255
 682.479014,    1.701337
 686.908412,    1.925139
 691.352986,    2.147073
 695.816369,    2.367031
 700.305585,    2.585207
 704.799839,    2.801949
 709.316982,    3.016263
 713.850293,    3.229022
 718.397976,    3.439916
 722.974688,    3.648877
 727.555349,    3.856586
 732.156064,    4.061913
 736.768221,    4.265604
 741.385338,    4.467291
 746.021588,    4.666715
 750.665623,    4.864512
 755.320205,    5.060213
 760.004774,    5.253959
 764.688959,    5.446570
 769.387760,    5.636807
 769.707060,    5.825308
 770.026659,    5.837975
 770.346517,    5.850644
 770.666469,    5.863313
 770.985634,    5.875975
 771.305846,    5.888596
 771.626541,    5.901247
 771.946328,    5.913907
 772.266659,    5.926521
 772.588248,    5.939145
 772.909830,    5.951809
 773.230806,    5.964462
 773.552743,    5.977081
 773.875332,    5.989727
 774.197573,    6.002388
 774.519804,    6.015025
 774.843280,    6.027651
 775.166073,    6.040315
 775.489821,    6.052942
 775.814011,    6.065595
 776.138524,    6.078256
 776.462115,    6.090918
 776.787144,    6.103534
 777.112609,    6.116196
 777.437848,    6.128863
 777.763689,    6.141512
 778.088891,    6.154173
 778.414358,    6.166799
 778.740419,    6.179425
 779.067289,    6.192063
 779.394840,    6.204722
 779.721906,    6.217396
 780.049897,    6.230041
 780.376949,    6.242712
 780.705209,    6.255335
 781.034164,    6.267994
 781.362969,    6.280670
 781.692620,    6.293329
 782.021723,    6.306010
 782.350646,    6.318659
 782.681143,    6.331291
 783.011000,    6.343972
 783.341819,    6.356619
 783.673760,    6.369291
 784.005820,    6.381996
 784.337858,    6.394694
 784.670352,    6.407381
 785.003191,    6.420075
 785.333454,    6.432771
 785.666370,    6.445358
 785.999034,    6.458035
 786.332839,    6.470692
 786.667674,    6.483382
 787.001570,    6.496100
 787.337189,    6.508772
 787.671885,    6.521498
 788.007947,    6.534178
 788.343023,    6.546899
 788.679697,    6.559573
 789.016387,    6.572295
 789.353037,    6.585008
 789.690854,    6.597708
 790.028561,    6.610442
 790.366997,    6.623160
 790.706053,    6.635895
 791.046119,    6.648642
 791.386438,    6.661416
 791.727725,    6.674189
 792.068433,    6.686987
 792.409917,    6.699752
 792.478322,    6.712536
 792.517043,    6.715094
 792.537470,    6.716543
 792.540633,    6.717306
 792.544317,    6.717425
 792.545586,    6.717562
 792.546314,    6.717610
 792.547813,    6.717637
 792.549170,    6.717693
 792.560454,    6.717744
 792.602599,    6.718166
 792.710364,    6.719742
 792.968746,    6.723771
 793.308340,    6.733428
 793.649570,    6.746111
 793.990955,    6.758845
 794.334073,    6.771574
 794.677987,    6.784357
 795.020260,    6.784357
 795.364633,    6.784357
 795.709446,    6.784357
 796.055532,    6.784357
 796.400918,    6.784357
 796.746847,    6.784357
 797.091330,    6.784357
 797.439004,    6.784357
 797.787248,    6.784357
 798.133915,    6.784357
 798.480964,    6.784357
 798.828145,    6.784357
 799.177201,    6.784357
 799.526346,    6.784357
 799.875722,    6.784357
 800.226665,    6.784357
 800.576269,    6.784357
 800.926826,    6.784357
 801.278379,    6.784357
 801.630599,    6.784357
 801.981956,    6.784357
 802.332946,    6.784357
 802.685633,    6.784357
 803.038650,    6.784357
 803.393177,    6.784357
 803.746221,    6.784357
 804.100481,    6.784357
 804.455171,    6.784357
 804.810269,    6.784357
 805.166256,    6.784357
 805.522744,    6.784357
 805.879410,    6.784357
 806.236138,    6.784357
 806.593659,    6.784357
 806.952638,    6.784357
 807.312098,    6.784357
 807.671106,    6.784357
 808.030503,    6.784357
 808.390534,    6.784357
 808.748911,    6.784357
 809.109274,    6.784357
 809.471228,    6.784357
 809.833737,    6.784357
 810.196989,    6.784357
 810.560507,    6.784357
 810.923154,    6.784357
 811.287743,    6.784357
 811.651321,    6.784357
 812.015903,    6.784357
 812.381838,    6.784357
 812.747179,    6.784357
 813.112414,    6.784357
 813.478450,    6.784357
 813.847418,    6.784357
 814.216125,    6.784357
 814.585292,    6.784357
 814.955972,    6.784357
 815.325837,    6.784357
 815.698011,    6.784357
 816.068632,    6.784357
 816.441279,    6.784357
 816.815069,    6.784357
 817.188759,    6.784357
 817.561731,    6.784357
 817.936075,    6.784357
 818.311440,    6.784357
 818.685806,    6.784357
 819.059638,    6.784357
 819.434660,    6.784357
 819.813851,    6.784357
 820.190397,    6.784357
 820.565060,    6.784357
 820.942428,    6.784357
 821.322288,    6.784357
 821.701660,    6.784357
 822.081489,    6.784357
 822.462259,    6.784357
 822.844283,    6.784357
 823.227803,    6.784357
 823.610931,    6.784357
 823.995716,    6.784357
 824.241828,    6.784357
 824.379097,    6.784357
 824.765990,    6.784357
 825.148939,    6.784357
 825.535918,    6.784357
 825.923351,    6.784357
 826.311842,    6.784357
 826.696734,    6.784357
 827.084876,    6.784357
 827.474511,    6.784357
 827.865902,    6.784357
 828.257528,    6.784357
 828.648713,    6.784357
 829.041268,    6.784357
 829.435240,    6.784357
 829.829656,    6.784357
 830.223337,    6.784357
 830.619137,    6.784357
 831.014575,    6.784357
 831.410969,    6.784357
 831.810259,    6.784357
 832.207123,    6.784357
 832.606641,    6.784357
 833.004960,    6.784357
 833.405295,    6.784357
 833.806479,    6.784357
 834.208358,    6.784357
 834.612422,    6.784357
 835.015193,    6.784357
 835.420266,    6.784357
 835.824699,    6.784357
 836.228430,    6.784357
 836.634547,    6.784357
 837.042545,    6.784357
 837.451211,    6.784357
 837.859787,    6.784357
 838.268199,    6.784357
 838.678257,    6.784357
 839.091143,    6.784357
 839.503531,    6.784357
 839.913722,    6.784357
 840.327181,    6.784357
 840.741842,    6.784357
 841.155181,    6.784357
 841.570043,    6.784357
 841.988324,    6.784357
 842.405849,    6.784357
 842.824130,    6.784357
 843.244868,    6.784357
 843.665787,    6.784357
 844.086451,    6.784357
 844.509440,    6.784357
 844.931915,    6.784357
 845.356665,    6.784357
 845.780195,    6.784357
 846.201759,    6.784357
 846.627727,    6.784357
 847.051793,    6.784357
 847.479909,    6.784357
 847.908480,    6.784357
 848.336497,    6.784357
 848.768140,    6.784357
 849.197134,    6.784357
 849.627247,    6.784357
 850.059323,    6.784357
 850.494462,    6.784357
 850.928488,    6.784357
 851.363461,    6.784357
 851.799069,    6.784357
 852.236170,    6.784357
 852.674209,    6.784357
 853.112655,    6.784357
 853.552647,    6.784357
 853.990829,    6.784357
 854.431277,    6.784357
 854.873327,    6.784357
 855.314808,    6.784357
 855.757177,    6.784357
 856.204987,    6.784357
 856.648605,    6.784357
 857.092979,    6.784357
 857.537479,    6.784357
 857.982913,    6.784357
 858.432534,    6.784357
 858.881689,    6.784357
 859.332764,    6.784357
 859.781322,    6.784357
 860.230861,    6.784357
 860.682259,    6.784357
 861.138735,    6.784357
 861.592531,    6.784357
 862.050110,    6.784357
 862.508068,    6.784357
 862.966584,    6.784357
 863.424969,    6.784357
 863.883692,    6.784357
 864.343997,    6.784357
 864.806348,    6.784357
 865.267441,    6.784357
 865.730754,    6.784357
 866.192766,    6.784357
 866.659115,    6.784357
 867.127012,    6.784357
 867.596568,    6.784357
 868.063397,    6.784357
 868.531464,    6.784357
 869.003061,    6.784357
 869.474690,    6.784357
 869.946228,    6.784357
 870.417133,    6.784357
 870.892822,    6.784357
 871.369229,    6.784357
 871.846001,    6.784357
 872.321320,    6.784357
 872.800908,    6.784357
 873.281072,    6.784357
 873.760945,    6.784357
 874.242469,    6.784357
 874.725379,    6.784357
 875.208324,    6.784357
 875.692177,    6.784357
 876.178127,    6.784357
 876.664285,    6.784357
 877.151312,    6.784357
 877.638437,    6.784357
 878.125590,    6.784357
 878.617736,    6.784357
 879.108087,    6.784357
 879.600919,    6.784357
 880.092396,    6.784357
 880.585968,    6.784357
 881.079069,    6.784357
 881.579020,    6.784357
 882.074723,    6.784357
 882.574431,    6.784357
 883.072548,    6.784357
 883.572862,    6.784357
 884.072144,    6.784357
 884.572938,    6.784357
 885.074943,    6.784357
 885.580473,    6.784357
 886.087434,    6.784357
 886.592542,    6.784357
 887.095042,    6.784357
 887.599213,    6.784357
 888.108351,    6.784357
 888.618707,    6.784357
 889.129283,    6.784357
 889.642605,    6.784357
 890.155486,    6.784357
 890.664578,    6.784357
 891.180352,    6.784357
 891.694183,    6.784357
 892.211233,    6.784357
 892.724237,    6.784357
 893.244147,    6.784357
 893.767112,    6.784357
 894.289416,    6.784357
 894.813056,    6.784357
 895.335292,    6.784357
 895.861597,    6.784357
 896.387045,    6.784357
 896.909365,    6.784357
 897.436695,    6.784357
 897.969820,    6.784357
 898.498884,    6.784357
 899.030319,    6.784357
 899.557979,    6.784357
 900.088296,    6.784357
 900.624412,    6.784357
 901.157942,    6.784357
 901.691203,    6.784357
 902.225025,    6.784357
 902.762212,    6.784357
 903.302523,    6.784357
 903.842455,    6.784357
 904.385183,    6.784357
 904.925423,    6.784357
 905.468792,    6.784357
 906.005951,    6.784357
 906.552134,    6.784357
 907.094493,    6.784357
 907.637292,    6.784357
 908.183858,    6.784357
 908.736697,    6.784357
 909.285137,    6.784357
 909.831594,    6.784357
 910.381724,    6.784357
 910.930091,    6.784357
 911.484163,    6.784357
 912.033376,    6.784357
 912.588547,    6.784357
 913.141240,    6.784357
 913.696685,    6.784357
 914.247542,    6.784357
 914.805780,    6.784357
 915.363350,    6.784357
 915.922595,    6.784357
 916.489566,    6.784357
 917.050207,    6.784357
 917.610595,    6.784357
 918.173724,    6.784357
 918.738099,    6.784357
 919.302625,    6.784357
 919.864504,    6.784357
 920.430019,    6.784357
 920.999691,    6.784357
 921.562004,    6.784357
 922.133347,    6.784357
 922.708153,    6.784357
 923.284672,    6.784357
 923.856378,    6.784357
 924.432927,    6.784357
 925.015008,    6.784357
 925.584987,    6.784357
 926.161070,    6.784357
 926.739502,    6.784357
 927.318259,    6.784357
 927.898322,    6.784357
 928.479857,    6.784357
 929.058662,    6.784357
 929.640083,    6.784357
 930.217495,    6.784357
 930.802014,    6.784357
 931.384629,    6.784357
 931.968263,    6.784357
 932.554556,    6.784357
 933.139283,    6.784357
 933.724097,    6.784357
 934.312121,    6.784357
 934.902001,    6.784357
 935.490696,    6.784357
 936.083018,    6.784357
 936.673558,    6.784357
 937.265079,    6.784357
 937.860485,    6.784357
 938.451603,    6.784357
 939.045076,    6.784357
 939.638446,    6.784357
 940.232606,    6.784357
 940.832680,    6.784357
 941.425387,    6.784357
 942.025814,    6.784357
 942.618353,    6.784357
 943.222588,    6.784357
 943.824548,    6.784357
 944.422720,    6.784357
 945.028845,    6.784357
 945.630913,    6.784357
 946.241438,    6.784357
 946.849127,    6.784357
 947.459312,    6.784357
 948.067687,    6.784357
 948.675126,    6.784357
 949.282436,    6.784357
 949.892751,    6.784357
 950.501233,    6.784357
 951.111479,    6.784357
 951.726616,    6.784357
 952.339847,    6.784357
 952.953351,    6.784357
 953.565823,    6.784357
 954.177985,    6.784357
 954.794851,    6.784357
 955.415311,    6.784357
 956.028206,    6.784357
 956.636911,    6.784357
 957.250538,    6.784357
 957.874645,    6.784357
 958.488167,    6.784357
 959.116916,    6.784357
 959.738366,    6.784357
 960.352399,    6.784357
 960.969994,    6.784357
 961.587636,    6.784357
 962.209505,    6.784357
 962.830711,    6.784357
 963.452594,    6.784357
 964.072957,    6.784357
 964.693170,    6.784357
 965.318310,    6.784357
 965.947323,    6.784357
 966.573608,    6.784357
 967.195553,    6.784357
 967.821084,    6.784357
 968.452357,    6.784357
 969.085996,    6.784357
 969.717968,    6.784357
 970.345444,    6.784357
 970.977716,    6.784357
 971.609439,    6.784357
 972.242743,    6.784357
 972.874263,    6.784357
 973.512161,    6.784357
 974.144581,    6.784357
 974.782533,    6.784357
 975.422936,    6.784357
 976.058938,    6.784357
 976.697217,    6.784357
 977.337808,    6.784357
 977.978709,    6.784357
 978.616873,    6.784357
 979.252910,    6.784357
 979.901759,    6.784357
 980.550806,    6.784357
 981.191991,    6.784357
 981.840950,    6.784357
 982.486548,    6.784357
 983.062022,    6.784357
