Ground Distance, Angles
   0.000000,    0.000000
   0.000001,    0.000000
   0.000016,    0.000000
   0.000166,    0.000000
   0.000948,    0.000000
   0.004115,    0.000000
   0.010459,    0.000000
   0.019733,    0.000000
   0.031935,    0.000000
   0.046993,    0.000000
   0.065192,    0.000000
   0.086350,    0.000000
   0.110542,    0.000000
   0.137959,    0.000000
   0.168466,    0.000000
   0.202232,    0.000000
   0.239210,    0.000000
   0.279628,    0.000000
   0.323564,    0.000000
   0.370628,    0.000000
   0.421244,    0.000000
   0.476046,    0.000000
   0.534959,    0.000000
   0.598249,    0.000000
   0.663896,    0.000000
   0.733546,    0.000000
   0.807410,    0.000000
   0.885622,    0.000000
   0.968847,    0.000000
   1.056665,    0.000000
   1.148748,    0.000000
   1.245987,    0.000000
   1.347158,    0.000000
   1.453876,    0.000000
   1.565600,    0.000000
   1.683839,    0.000000
   1.806753,    0.000000
   1.934815,    0.000000
   2.066967,    0.000000
   2.207164,    0.000000
   2.350338,    0.000000
   2.500345,    0.000000
   2.654515,    0.000000
   2.817646,    0.000000
   2.986714,    0.000000
   3.161304,    0.000000
   3.343784,    0.000000
   3.529668,    0.000000
   3.722019,    0.000000
   3.923470,    0.000000
   4.132050,    0.000000
   4.349354,    0.000000
   4.574586,    0.000000
   4.803295,    0.000000
   5.038716,    0.000000
   5.283103,    0.000000
   5.535463,    0.000000
   5.795003,    0.000000
   6.065521,    0.000000
   6.344349,    0.000000
   6.633503,    0.000000
   6.933613,    0.000000
   7.238243,    0.000000
   7.547975,    0.000000
   7.866449,    0.000000
   8.191869,    0.000000
   8.529436,    0.000000
   8.874817,    0.000000
   9.230740,    0.000000
   9.596767,    0.000000
   9.972573,    0.000000
  10.354572,    0.000000
  10.750946,    0.000000
  11.156850,    0.000000
  11.569699,    0.000000
  12.001515,    0.000000
  12.438757,    0.000000
  12.884098,    0.000000
  13.343635,    0.000000
  13.811482,    0.000000
  14.293954,    0.000000
  14.788135,    0.000000
  15.292523,    0.000000
  15.804256,    0.000000
  16.329247,    0.000000
  16.864248,    0.000000
  17.409365,    0.000000
  17.970832,    0.000000
  18.543058,    0.000000
  19.126443,    0.000000
  19.724283,    0.000000
  20.337978,    0.000000
  20.961326,    0.000000
  21.601383,    0.000000
  22.244956,    0.000000
  22.911324,    0.000000
  23.592490,    0.000000
  24.281835,    0.000000
  24.987356,    0.000000
  25.129685,    0.000000
  25.213871,    0.000000
  25.215885,    0.000000
  25.218257,    0.000000
  25.218875,    0.000000
  25.220101,    0.000000
  25.220472,    0.000000
  25.220594,    0.000000
  25.220646,    0.000000
  25.220728,    0.000000
  25.221547,    0.000000
  25.227194,    0.000000
  25.255294,    0.000000
  25.360787,    0.000000
  25.653410,    0.000000
  26.311598,    0.000000
  26.967907,    0.000000
  27.633371,    0.000000
  28.313190,    0.000000
  29.006208,    0.000000
  29.709823,    0.000000
  30.428390,    0.000000
  31.154165,    0.000000
  31.887183,    0.000000
  32.634056,    0.000000
  33.396192,    0.000000
  34.167543,    0.000000
  34.954273,    0.000000
  35.742644,    0.000000
  36.546325,    0.000000
  37.368799,    0.000000
  38.204438,    0.000000
  39.050348,    0.000000
  39.910123,    0.000000
  40.781792,    0.000000
  41.667578,    0.000000
  42.566529,    0.000000
  43.477406,    0.000000
  44.393741,    0.000000
  45.330817,    0.000000
  46.284688,    0.000000
  47.242698,    0.000000
  48.217331,    0.000000
  49.217187,    0.000000
  50.217583,    0.000000
  51.244013,    0.000000
  52.269990,    0.000000
  53.315550,    0.000000
  54.381051,    0.000000
  55.448079,    0.000000
  56.534358,    0.000000
  57.636008,    0.000000
  58.760200,    0.000000
  59.892082,    0.000000
  61.048205,    0.000000
  62.216962,    0.000000
  63.396380,    0.000000
  64.590300,    0.000000
  65.797882,    0.000000
  67.032296,    0.000000
  68.261000,    0.000000
  69.522026,    0.000000
  70.789127,    0.000000
  72.082383,    0.000000
  73.385896,    0.000000
  74.704813,    0.000000
  76.034198,    0.000000
  77.384962,    0.000000
  78.748871,    0.000000
  80.129566,    0.000000
  81.528239,    0.000000
  82.942052,    0.000000
  84.367908,    0.000000
  85.816948,    0.000000
  87.280325,    0.000000
  88.761734,    0.000000
  90.258599,    0.000000
  91.774509,    0.000000
  93.302054,    0.000000
  94.837338,    0.000000
  96.399981,    0.000000
  97.973642,    0.000000
  99.560832,    0.000000
 101.174737,    0.000000
 102.809890,    0.000000
 104.462656,    0.000000
 104.475944,    0.000000
 104.490933,    0.000000
 104.510175,    0.000000
 104.513834,    0.000000
 104.518925,    0.000000
 104.519291,    0.000000
 104.519453,    0.000000
 104.519619,    0.000000
 104.521277,    0.000000
 104.536079,    0.000000
 104.631974,    0.000000
 105.028701,    0.000000
 106.357748,    0.000000
 107.851850,    0.000000
 109.354319,    0.000000
 110.878898,    0.000000
 112.413897,    0.000000
 113.972922,    0.000000
 115.547976,    0.000000
 117.128154,    0.000000
 118.725253,    0.000000
 120.333194,    0.000000
 121.959136,    0.000000
 123.592780,    0.000000
 125.244614,    0.000000
 126.911813,    0.000000
 128.593430,    0.000000
 130.287064,    0.000000
 132.002419,    0.000000
 133.728721,    0.000000
 135.467860,    0.000000
 137.220893,    0.000000
 138.994212,    0.000000
 140.784975,    0.000000
 142.596603,    0.000000
 144.417167,    0.000000
 146.249583,    0.000000
 148.094683,    0.000000
 149.955610,    0.000000
 151.840339,    0.000000
 153.734394,    0.000000
 155.650830,    0.000000
 157.571469,    0.000000
 159.518454,    0.000000
 161.480672,    0.000000
 163.454366,    0.000000
 165.447592,    0.000000
 167.462226,    0.000000
 169.492733,    0.000000
 171.538871,    0.000000
 173.594710,    0.000000
 175.668740,    0.000000
 177.757892,    0.000000
 179.863736,    0.000000
 181.988083,    0.000000
 184.140491,    0.000000
 186.295717,    0.000000
 188.471494,    0.000000
 190.673404,    0.000000
 192.886272,    0.000000
 195.112828,    0.000000
 197.354508,    0.000000
 199.607121,    0.000000
 201.888973,    0.000000
 204.188884,    0.000000
 206.494484,    0.000000
 208.822449,    0.000000
 211.167672,    0.000000
 213.533987,    0.000000
 215.921709,    0.000000
 218.323734,    0.000000
 220.741057,    0.000000
 223.178000,    0.000000
 225.629230,    0.000000
 228.096802,    0.000000
 230.585806,    0.000000
 233.090999,    0.000000
 235.602815,    0.000000
 238.145559,    0.000000
 240.700760,    0.000000
 243.282550,    0.000000
 245.886903,    0.000000
 246.407860,    0.000000
 246.420215,    0.000000
 246.436538,    0.000000
 246.441840,    0.000000
 246.449261,    0.000000
 246.451955,    0.000000
 246.457288,    0.000000
 246.457793,    0.000000
 246.458021,    0.000000
 246.458235,    0.000000
 246.460381,    0.000000
 246.481835,    0.000000
 246.602607,    0.000000
 247.159348,    0.000000
 249.044223,    0.000000
 251.333014,    0.000000
 253.634607,    0.000000
 255.951323,    0.000000
 258.288324,    0.000000
 260.636799,    0.000000
 263.001934,    0.000000
 265.382312,    0.000000
 267.769884,    0.000000
 270.165372,    0.000000
 272.590040,    0.000000
 275.028535,    0.000000
 277.464938,    0.000000
 279.927735,    0.000000
 282.400215,    0.000000
 284.892182,    0.000000
 287.395698,    0.000000
 289.918334,    0.000000
 292.459794,    0.000000
 295.015932,    0.000000
 297.579173,    0.000000
 300.157760,    0.000000
 302.748750,    0.000000
 305.351287,    0.000000
 307.973675,    0.000000
 310.618269,    0.000000
 313.274420,    0.000000
 315.953015,    0.000000
 318.646901,    0.000000
 321.350577,    0.000000
 324.071239,    0.000000
 326.802729,    0.000000
 329.554962,    0.000000
 332.315799,    0.000000
 335.090195,    0.000000
 337.881754,    0.000000
 340.687260,    0.000000
 343.509826,    0.000000
 346.351550,    0.000000
 349.207124,    0.000000
 352.073927,    0.000000
 354.965333,    0.000000
 357.863262,    0.000000
 360.772334,    0.000000
 363.696490,    0.000000
 366.648239,    0.000000
 369.613522,    0.000000
 372.592925,    0.000000
 375.588926,    0.000000
 378.596845,    0.000000
 381.625246,    0.000000
 384.666806,    0.000000
 387.721545,    0.000000
 390.792286,    0.000000
 393.886315,    0.000000
 396.990849,    0.000000
 400.108467,    0.000000
 403.238422,    0.000000
 406.394283,    0.000000
 409.565211,    0.000000
 412.751127,    0.000000
 415.958702,    0.000000
 419.181738,    0.000000
 422.415639,    0.000000
 425.660802,    0.000000
 428.922778,    0.000000
 432.210329,    0.000000
 435.512211,    0.000000
 438.828443,    0.000000
 442.156990,    0.000000
 445.501022,    0.000000
 448.866264,    0.000000
 452.251416,    0.000000
 455.653446,    0.000000
 459.077195,    0.000000
 462.505596,    0.000000
 465.950288,    0.000000
 466.642389,    0.000000
 466.732287,    0.000000
 466.828939,    0.000000
 466.928994,    0.000000
 466.950055,    0.000000
 466.956938,    0.000000
 466.962619,    0.000000
 466.965328,    0.000000
 466.967171,    0.000000
 466.969465,    0.000000
 466.992403,    0.000000
 467.141003,    0.000000
 467.928433,    0.000000
 470.506422,    0.000000
 473.970485,    0.000000
 477.443252,    0.000000
 480.944874,    0.000000
 484.457802,    0.000000
 487.992228,    0.000000
 491.547542,    0.000000
 495.118559,    0.000000
 498.702873,    0.000000
 502.303937,    0.000000
 505.922116,    0.000000
 509.563376,    0.000000
 513.222557,    0.000000
 516.888220,    0.000000
 520.568269,    0.000000
 524.278134,    0.000000
 528.001059,    0.000000
 531.737299,    0.000000
 535.489397,    0.000000
 539.263469,    0.000000
 543.057790,    0.000000
 546.870920,    0.000000
 550.689036,    0.000000
 554.534697,    0.000000
 558.396310,    0.000000
 562.273154,    0.000000
 566.165422,    0.000000
 570.070840,    0.000000
 573.999568,    0.000000
 577.951221,    0.000000
 581.913913,    0.000000
 585.896590,    0.000000
 589.899747,    0.000000
 593.911120,    0.000000
 597.945675,    0.000000
 601.994505,    0.000000
 606.059494,    0.000000
 610.142421,    0.000000
 614.241918,    0.000000
 618.365546,    0.000000
 622.490816,    0.000000
 626.636508,    0.000000
 630.810800,    0.000000
 635.005321,    0.000000
 639.216734,    0.000000
 642.846059,    0.000000
 643.439016,    0.000000
 647.689666,    0.033043
 651.944501,    0.269228
 656.231044,    0.502764
 660.532776,    0.735178
 664.854747,    0.965571
 669.199667,    1.194222
 673.571258,    1.421280
 677.959512,    1.646936
 682.364953,    1.870675
 686.798225,    2.092535
 691.241189,    2.313058
 695.706313,    2.531346
 700.176970,    2.748028
 704.676487,    2.962312
 709.185365,    3.175334
 713.720652,    3.386175
 718.267033,    3.595645
 722.819375,    3.803046
 727.402027,    4.008167
 732.001790,    4.212121
 736.609332,    4.414320
 741.232098,    4.614371
 745.854314,    4.812620
 750.507280,    5.008414
 755.163493,    5.203102
 759.832078,    5.395538
 764.521661,    5.586128
 769.209590,    5.775237
 769.529750,    5.965136
 769.850138,    5.980975
 770.169961,    5.996866
 770.490199,    6.012789
 770.811454,    6.028787
 771.132283,    6.044870
 771.453918,    6.060995
 771.775917,    6.077205
 772.097638,    6.093475
 772.418155,    6.109769
 772.740506,    6.126087
 773.063674,    6.142535
 773.386576,    6.159062
 773.710239,    6.175637
 774.034130,    6.192295
 774.357634,    6.209006
 774.681280,    6.225753
 775.005647,    6.242564
 775.330101,    6.259455
 775.655418,    6.276409
 775.980976,    6.293451
 776.305323,    6.310535
 776.630853,    6.327638
 776.957034,    6.344845
 777.283910,    6.362138
 777.610013,    6.379496
 777.936866,    6.396885
 778.263028,    6.414343
 778.590175,    6.431838
 778.917281,    6.449421
 779.245250,    6.467065
 779.574419,    6.484811
 779.903713,    6.502656
 780.232240,    6.520543
 780.562316,    6.538477
 780.892294,    6.556518
 781.222356,    6.574608
 781.550873,    6.592725
 781.881837,    6.610874
 782.211229,    6.629140
 782.541879,    6.647418
 782.873690,    6.665815
 783.205519,    6.684307
 783.537284,    6.702849
 783.868341,    6.721426
 784.201057,    6.740057
 784.535508,    6.758833
 784.868919,    6.777707
 785.203613,    6.796617
 785.537971,    6.815619
 785.873901,    6.834691
 786.209894,    6.853874
 786.545305,    6.873099
 786.881090,    6.892361
 787.218006,    6.911711
 787.555168,    6.931159
 787.892466,    6.950672
 788.229455,    6.970234
 788.567301,    6.989854
 788.906038,    7.009576
 789.244506,    7.029377
 789.582240,    7.049204
 789.921807,    7.069094
 790.262277,    7.089125
 790.603838,    7.109264
 790.945621,    7.129502
 791.287713,    7.149807
 791.630749,    7.170196
 791.975011,    7.190702
 792.319080,    7.211301
 792.387497,    7.225649
 792.585118,    7.232708
 792.598932,    7.233024
 792.607335,    7.233216
 792.613848,    7.233365
 792.618276,    7.233467
 792.619322,    7.233490
 792.620164,    7.233510
 792.620998,    7.233529
 792.627211,    7.233671
 792.649671,    7.234185
 792.729530,    7.236013
 792.919242,    7.240360
 793.261671,    7.248221
 793.603833,    7.256092
 793.946742,    7.263999
 794.291285,    7.271960
 794.636659,    7.279959
 794.982287,    7.287982
 795.328189,    7.296028
 795.675556,    7.304127
 796.022517,    7.312234
 796.370392,    7.320381
 796.719155,    7.328566
 797.067344,    7.336755
 797.414142,    7.344930
 797.763354,    7.353179
 798.112974,    7.361456
 798.461223,    7.369718
 798.808690,    7.377980
 799.158200,    7.386308
 799.508992,    7.394684
 799.861095,    7.403110
 800.211710,    7.411518
 800.563374,    7.419969
 800.915649,    7.428453
 801.269665,    7.436997
 801.624243,    7.445572
 801.976136,    7.454101
 802.329282,    7.462677
 802.684301,    7.471318
 803.038006,    7.479944
 803.394043,    7.488646
 803.748659,    7.497330
 804.104738,    7.506069
 804.461753,    7.514849
 804.818292,    7.523635
 805.175422,    7.532453
 805.533643,    7.541317
 805.891976,    7.550202
 806.251216,    7.559128
 806.611115,    7.568088
 806.972057,    7.577092
 807.331683,    7.586082
 807.693357,    7.595141
 808.054862,    7.604215
 808.417462,    7.613334
 808.781543,    7.622509
 809.145122,    7.631690
 809.508727,    7.640890
 809.873221,    7.650131
 810.237838,    7.659393
 810.602080,    7.668664
 810.966684,    7.677963
 811.331753,    7.687292
 811.695238,    7.696598
 812.064138,    7.706062
 812.431723,    7.715511
 812.800964,    7.725021
 813.170250,    7.734551
 813.540392,    7.744121
 813.910837,    7.753718
 814.280511,    7.763314
 814.652191,    7.772980
 815.024523,    7.782683
 815.396444,    7.792393
 815.770803,    7.802185
 816.144800,    7.811987
 816.519673,    7.821831
 816.893006,    7.831653
 817.268827,    7.841560
 817.644762,    7.851488
 818.021350,    7.861453
 818.399807,    7.871486
 818.779633,    7.881574
 819.159001,    7.891670
 819.537374,    7.901758
 819.916018,    7.911872
 820.296672,    7.922059
 820.677543,    7.932270
 821.057877,    7.942487
 821.439668,    7.952761
 821.820470,    7.963028
 822.118801,    7.971085
 822.203702,    7.973380
 822.586579,    7.983741
 822.972432,    7.994202
 823.358208,    8.004681
 823.745208,    8.015212
 824.133281,    8.025791
 824.523297,    8.036443
 824.910190,    8.047030
 825.299905,    8.057713
 825.687856,    8.068367
 826.076675,    8.079064
 826.468234,    8.089856
 826.859299,    8.100654
 827.251778,    8.111511
 827.645409,    8.122419
 828.038553,    8.133333
 828.434383,    8.144342
 828.829225,    8.155343
 829.225233,    8.166396
 829.621403,    8.177474
 830.019989,    8.188639
 830.418141,    8.199811
 830.817902,    8.211049
 831.218451,    8.222329
 831.618779,    8.233623
 832.021297,    8.244998
 832.422758,    8.256364
 832.824294,    8.267752
 833.226758,    8.279186
 833.630760,    8.290684
 834.035946,    8.302236
 834.437898,    8.313716
 834.845151,    8.325367
 835.251776,    8.337020
 835.659299,    8.348720
 836.066559,    8.360432
 836.475412,    8.372210
 836.886451,    8.384071
 837.295909,    8.395908
 837.706995,    8.407812
 838.118287,    8.419742
 838.529435,    8.431688
 838.942205,    8.443702
 839.357773,    8.455817
 839.773809,    8.467968
 840.189223,    8.480120
 840.607696,    8.492383
 841.024799,    8.504626
 841.441856,    8.516889
 841.863380,    8.529304
 842.281691,    8.541645
 842.702021,    8.554066
 843.123523,    8.566543
 843.543763,    8.579003
 843.968396,    8.591614
 844.393930,    8.604273
 844.820103,    8.616972
 845.246631,    8.629703
 845.676115,    8.642544
 846.102915,    8.655325
 846.528912,    8.668103
 846.961012,    8.681086
 847.392182,    8.694062
 847.822857,    8.707045
 848.255914,    8.720120
 848.691609,    8.733297
 849.126792,    8.746480
 849.559366,    8.759605
 849.996864,    8.772901
 850.434131,    8.786212
 850.869398,    8.799483
 851.307663,    8.812867
 851.744349,    8.826224
 852.184924,    8.839722
 852.626172,    8.853263
 853.065689,    8.866771
 853.508031,    8.880388
 853.950606,    8.894034
 854.396722,    8.907812
 854.842359,    8.921596
 855.288247,    8.935410
 855.735638,    8.949292
 856.184237,    8.963234
 856.633197,    8.977209
 857.082238,    8.991208
 857.533536,    9.005300
 857.982206,    9.019332
 858.435723,    9.033538
 858.888751,    9.047750
 859.343082,    9.062025
 859.798845,    9.076368
 860.255234,    9.090753
 860.712481,    9.105187
 861.172480,    9.119730
 861.634796,    9.134369
 862.094033,    9.148933
 862.550450,    9.163430
 863.007535,    9.177970
 863.473627,    9.192819
 863.937328,    9.207615
 864.403437,    9.222510
 864.868066,    9.237380
 865.334101,    9.252318
 865.800912,    9.267304
 866.273395,    9.282494
 866.742356,    9.297594
 867.210889,    9.312703
 867.680553,    9.327871
 868.153818,    9.343178
 868.626256,    9.358481
 869.101126,    9.373886
 869.575854,    9.389309
 870.049116,    9.404708
 870.527516,    9.420296
 871.007861,    9.435971
 871.484934,    9.451562
 871.964057,    9.467243
 872.446131,    9.483044
 872.925122,    9.498767
 873.408186,    9.514647
 873.894382,    9.530652
 874.380300,    9.546672
 874.867401,    9.562755
 875.353955,    9.578842
 875.843750,    9.595061
 876.336035,    9.611385
 876.827344,    9.627701
 877.312632,    9.643839
 877.802417,    9.660150
 878.296683,    9.676634
 878.794725,    9.693268
 879.287274,    9.709742
 879.781643,    9.726300
 880.278242,    9.742956
 880.775584,    9.759660
 881.276536,    9.776510
 881.774761,    9.793291
 882.277237,    9.810240
 882.782129,    9.827293
 883.286250,    9.844345
 883.787549,    9.861325
 884.294406,    9.878516
 884.800521,    9.895707
 885.307438,    9.912948
 885.818286,    9.930348
 886.325614,    9.947651
 886.837054,    9.965118
 887.346028,    9.982525
 887.855308,    9.999966
 888.365783,   10.017471
 888.881979,   10.035197
 889.396103,   10.052876
 889.915852,   10.070772
 890.432727,   10.088593
 890.952139,   10.106526
 891.471918,   10.124496
 891.991880,   10.142496
 892.517245,   10.160708
 893.040347,   10.178865
 893.560755,   10.196953
 894.086892,   10.215264
 894.609785,   10.233486
 895.138872,   10.251948
 895.667745,   10.270427
 896.195858,   10.288904
 896.724966,   10.307440
 897.258300,   10.326148
 897.792785,   10.344921
 898.326022,   10.363675
 898.862751,   10.382576
 899.399838,   10.401514
 899.930709,   10.420257
 900.469164,   10.439292
 901.009502,   10.458418
 901.549124,   10.477544
 902.088772,   10.496694
 902.630381,   10.515938
 903.176318,   10.535361
 903.719417,   10.554708
 904.258529,   10.573936
 904.803312,   10.593391
 905.355010,   10.613117
 905.900156,   10.632634
 906.450273,   10.652353
 906.994208,   10.671875
 907.543597,   10.691616
 908.097307,   10.711537
 908.645102,   10.731270
 909.197878,   10.751207
 909.753346,   10.771265
 910.306221,   10.791253
 910.863216,   10.811415
 911.417862,   10.831516
 911.973991,   10.851696
 912.531764,   10.871959
 913.091323,   10.892311
 913.656537,   10.912893
 914.223862,   10.933578
 914.789122,   10.954211
 915.351682,   10.974770
 915.909981,   10.995198
 916.476203,   11.015939
 917.041798,   11.036682
 917.607180,   11.057441
 918.169425,   11.078109
 918.739324,   11.099082
 919.310196,   11.120115
 919.880698,   11.141159
 920.456309,   11.162416
 921.024850,   11.183436
 921.598964,   11.204685
 922.166435,   11.225713
 922.744605,   11.247161
 923.317553,   11.268439
 923.895598,   11.289931
 924.478250,   11.311618
 925.058242,   11.333230
 925.637971,   11.354857
 926.216449,   11.376461
 926.797933,   11.398200
 927.373833,   11.419755
 927.953063,   11.441458
 928.529453,   11.463077
 929.111086,   11.484917
 929.694252,   11.506837
 930.276797,   11.528758
 930.860586,   11.550749
 931.442902,   11.572708
 932.034018,   11.595022
 932.616042,   11.617016
 933.206601,   11.639356
 933.793802,   11.661592
 934.385395,   11.684018
 934.976571,   11.706452
 935.573376,   11.729122
 936.171477,   11.751865
 936.765251,   11.774468
 937.360777,   11.797160
 937.954818,   11.819818
 938.556293,   11.842783
 939.154654,   11.865653
 939.753631,   11.888569
 940.347881,   11.911327
 940.946534,   11.934277
 941.546242,   11.957290
 942.152745,   11.980586
 942.752753,   12.003656
 943.353178,   12.026764
 943.956949,   12.050024
 944.560217,   12.073287
 945.165980,   12.096669
 945.775685,   12.120226
 946.384508,   12.143771
 946.986792,   12.167085
 947.595435,   12.190668
 948.199807,   12.214108
 948.804063,   12.237565
 949.422034,   12.261577
 950.027628,   12.285130
 950.646554,   12.309223
 951.254715,   12.332920
 951.869542,   12.356898
 952.478676,   12.380676
 953.088025,   12.404484
 953.702591,   12.428518
 954.323286,   12.452813
 954.937522,   12.476876
 955.552747,   12.501000
 956.174037,   12.525384
 956.787840,   12.549495
 957.400705,   12.573589
 958.021863,   12.598032
 958.638907,   12.622333
 959.259250,   12.646786
 959.878751,   12.671226
 960.501222,   12.695805
 961.125641,   12.720481
 961.745088,   12.744982
 962.368412,   12.769656
 962.997541,   12.794582
 963.625740,   12.819491
 964.245783,   12.844097
 964.872718,   12.868998
 965.500042,   12.893934
 966.131776,   12.919066
 966.757409,   12.943976
 967.388123,   12.969108
 968.024630,   12.994491
 968.655993,   13.019690
 969.286658,   13.044881
 969.922143,   13.070284
 970.558670,   13.095749
 971.185207,   13.120834
 971.820973,   13.146308
 972.457379,   13.171827
 973.090496,   13.197234
 973.725348,   13.222730
 974.361036,   13.248279
 975.001404,   13.274036
 975.642521,   13.299842
 976.276290,   13.325371
 976.910525,   13.350938
 977.549792,   13.376726
 978.190626,   13.402597
 978.826392,   13.428282
 979.466809,   13.454173
 980.102580,   13.479895
 980.309396,   13.488266
