Time, Horizontal Forces
   0.000000, 6459.276592
   0.000001, 6459.276585
   0.000012, 6459.276503
   0.000135, 6459.275619
   0.000915, 6459.270005
   0.004219, 6459.246235
   0.010572, 6459.200531
   0.019800, 6459.134172
   0.031927, 6459.046995
   0.046996, 6458.938700
   0.064921, 6458.809917
   0.085749, 6458.660319
   0.109559, 6458.489357
   0.136486, 6458.296079
   0.166503, 6458.080685
   0.199843, 6457.841520
   0.236175, 6457.580977
   0.275330, 6457.300279
   0.318312, 6456.992239
   0.364604, 6456.660578
   0.414745, 6456.301463
   0.468586, 6455.915976
   0.525938, 6455.505482
   0.586872, 6455.069498
   0.652939, 6454.596938
   0.721590, 6454.106067
   0.794453, 6453.585261
   0.872036, 6453.030898
   0.953074, 6452.452049
   1.039252, 6451.836705
   1.129368, 6451.193469
   1.224132, 6450.517290
   1.324732, 6449.799729
   1.429687, 6449.051380
   1.538928, 6448.272751
   1.653443, 6447.456836
   1.773410, 6446.602392
   1.898292, 6445.713272
   2.028986, 6444.783132
   2.163403, 6443.826864
   2.303028, 6442.833920
   2.452499, 6441.771367
   2.604993, 6440.687758
   2.764313, 6439.556095
   2.928292, 6438.391804
   3.097363, 6437.191843
   3.274231, 6435.937042
   3.455462, 6434.651819
   3.645180, 6433.306967
   3.841800, 6431.913765
   4.045529, 6430.470803
   4.253507, 6428.998363
   4.470932, 6427.459705
   4.697136, 6425.859616
   4.928239, 6424.225586
   5.167064, 6422.537701
   5.415638, 6420.781700
   5.670661, 6418.980946
   5.931020, 6417.143349
   6.201701, 6415.233761
   6.484330, 6413.240815
   6.769296, 6411.232314
   7.063445, 6409.160056
   7.369037, 6407.008206
   7.680549, 6404.815707
   8.000346, 6402.565971
   8.333094, 6400.226260
   8.670872, 6397.852335
   9.015643, 6395.430445
   9.373847, 6392.915427
   9.739325, 6390.350617
  10.115325, 6387.713285
  10.502762, 6384.997110
  10.898650, 6382.223105
  11.309562, 6379.345312
  11.723095, 6376.450665
  12.151239, 6373.455297
  12.589539, 6370.390496
  13.042743, 6367.223168
  13.501724, 6364.017181
  13.969515, 6360.751414
  14.447036, 6357.419504
  14.933443, 6354.027432
  15.436088, 6350.524034
  15.946910, 6346.965599
  16.472018, 6343.309668
  17.004809, 6339.602321
  17.549558, 6335.813881
  18.104569, 6331.956244
  18.673584, 6328.003516
  19.251349, 6323.992290
  19.842601, 6319.889784
  20.444240, 6315.717604
  21.068181, 6311.393299
  21.702044, 6307.002815
  22.346132, 6302.544152
  22.997381, 6298.038586
  23.670388, 6293.385277
  24.354055, 6288.661113
  25.046885, 6283.876529
  25.075272, 6283.680551
  25.079260, 6283.653020
  25.080239, 6283.646263
  25.082040, 6283.633828
  25.082558, 6283.630248
  25.082851, 6283.628231
  25.083058, 6283.626800
  25.083179, 6283.625962
  25.083232, 6283.625600
  25.083282, 6283.625249
  25.083790, 6283.621747
  25.088864, 6283.586718
  25.115593, 6283.402195
  25.220908, 6282.675214
  25.513315, 6280.657203
  26.205952, 6275.879654
  26.855464, 6271.402850
  27.516974, 6266.846582
  28.194193, 6262.185444
  28.879557, 6257.471642
  29.575180, 6252.690731
  30.279253, 6247.855243
  30.999757, 6242.910511
  31.734490, 6237.871831
  32.474684, 6232.799445
  33.224287, 6227.666367
  33.995706, 6222.387826
  34.769792, 6217.095004
  35.554961, 6211.730406
  36.356586, 6206.257506
  37.165371, 6200.739884
  37.992328, 6195.102587
  38.825228, 6189.429112
  39.673605, 6183.654631
  40.532072, 6177.815973
  41.402047, 6171.903613
  42.285500, 6165.904311
  43.187414, 6159.784427
  44.103530, 6153.573085
  45.031021, 6147.289596
  45.966457, 6140.957309
  46.920687, 6134.502941
  47.888354, 6127.962934
  48.861794, 6121.389199
  49.850937, 6114.714797
  50.851226, 6107.970637
  51.874909, 6101.074372
  52.913786, 6094.081511
  53.962015, 6087.031520
  55.017279, 6079.940073
  56.089095, 6072.743335
  57.172304, 6065.476147
  58.284358, 6058.021685
  59.404665, 6050.518248
  60.532370, 6042.971633
  61.673689, 6035.340364
  62.828192, 6027.627478
  63.998182, 6019.817785
  65.185913, 6011.896449
  66.391873, 6003.860466
  67.618039, 5995.696937
  68.843001, 5987.548503
  70.093529, 5979.237238
  71.360039, 5970.827136
  72.644659, 5962.304294
  73.934447, 5953.754729
  75.248291, 5945.053419
  76.576559, 5936.264427
  77.921811, 5927.371027
  79.283044, 5918.380072
  80.650525, 5909.355985
  82.039997, 5900.195058
  83.447811, 5890.921632
  84.869158, 5881.567608
  86.310042, 5872.093695
  87.767561, 5862.519235
  89.241016, 5852.849044
  90.733537, 5843.062814
  92.240928, 5833.188305
  93.763202, 5823.225625
  95.305327, 5813.142506
  96.863413, 5802.964633
  98.438739, 5792.683891
 100.029611, 5782.311547
 101.635365, 5771.852150
 103.253558, 5761.321776
 103.581066, 5759.191748
 103.762966, 5758.008886
 103.897282, 5757.135542
 103.917637, 5757.003197
 103.945181, 5756.824108
 103.951166, 5756.785196
 103.959688, 5756.729786
 103.962367, 5756.712371
 103.966441, 5756.685881
 103.967669, 5756.677897
 103.968388, 5756.673227
 103.968589, 5756.671914
 103.968775, 5756.670709
 103.970628, 5756.658662
 103.987619, 5756.548193
 104.071714, 5756.001460
 104.431274, 5753.664216
 105.414169, 5747.278276
 106.880610, 5737.759282
 108.364841, 5728.135207
 109.868417, 5718.396280
 111.380626, 5708.612110
 112.918992, 5698.669608
 114.464783, 5688.690111
 116.021198, 5678.653084
 117.593088, 5668.527450
 119.187069, 5658.270904
 120.778826, 5648.040046
 122.397364, 5637.648621
 124.025527, 5627.207096
 125.671544, 5616.662907
 127.327429, 5606.067431
 128.997775, 5595.391464
 130.676672, 5584.672936
 132.382177, 5573.796875
 134.096232, 5562.878726
 135.826009, 5551.872998
 137.573923, 5540.764598
 139.331457, 5529.607876
 141.108277, 5518.341707
 142.904044, 5506.968572
 144.714608, 5495.515036
 146.531067, 5484.037557
 148.361251, 5472.486782
 150.209303, 5460.836831
 152.080660, 5449.053788
 153.959600, 5437.236908
 155.861038, 5425.292627
 157.776309, 5413.275693
 159.698624, 5401.228845
 161.641109, 5389.070031
 163.603960, 5376.798387
 165.583903, 5364.434708
 167.570907, 5352.041810
 169.581974, 5339.513905
 171.605650, 5326.922670
 173.642080, 5314.267385
 175.700122, 5301.493308
 177.778143, 5288.610933
 179.867663, 5275.673095
 181.971792, 5262.660743
 184.092972, 5249.559026
 186.239603, 5236.316462
 188.398550, 5223.014397
 190.566431, 5209.673811
 192.756026, 5196.216322
 194.962668, 5182.670949
 197.184956, 5169.046563
 199.427970, 5155.312341
 201.682836, 5141.522883
 203.956197, 5127.637822
 206.247501, 5113.660839
 208.554667, 5099.604916
 210.867141, 5085.534486
 213.204612, 5071.330001
 215.571092, 5056.967604
 217.952408, 5042.533706
 220.348165, 5028.030942
 222.755181, 5013.478761
 225.183265, 4998.818132
 227.625700, 4984.089912
 230.080543, 4969.306024
 232.559028, 4954.399133
 235.065384, 4939.344279
 237.590186, 4924.198525
 240.123722, 4909.020330
 242.674518, 4893.758808
 243.188950, 4890.683373
 243.711944, 4887.557581
 244.054051, 4885.513357
 245.105824, 4879.230855
 245.205125, 4878.637880
 245.223817, 4878.526264
 245.229539, 4878.492097
 245.240983, 4878.423761
 245.241583, 4878.420176
 245.241917, 4878.418183
 245.242220, 4878.416372
 245.245254, 4878.398258
 245.270557, 4878.247165
 245.415657, 4877.380799
 246.122048, 4873.164240
 248.379929, 4859.699714
 250.648427, 4846.191902
 252.933678, 4832.604531
 255.228451, 4818.980834
 257.539104, 4805.283295
 259.864390, 4791.519603
 262.200267, 4777.713910
 264.552752, 4763.830900
 266.920504, 4749.878810
 269.307254, 4735.835999
 271.707768, 4721.733586
 274.117494, 4707.598508
 276.537595, 4693.424093
 278.971844, 4679.188457
 281.423066, 4664.875389
 283.893405, 4650.472728
 286.377669, 4636.011090
 288.881559, 4621.457604
 291.391435, 4606.891796
 293.915768, 4592.264651
 296.454258, 4577.578183
 299.003783, 4562.850678
 301.571818, 4548.039232
 304.155290, 4533.161907
 306.747511, 4518.257431
 309.351852, 4503.306579
 311.984053, 4488.219417
 314.624957, 4473.106120
 317.282803, 4457.919764
 319.954610, 4442.677671
 322.638476, 4427.390937
 325.337681, 4412.041122
 328.048539, 4396.649429
 330.776919, 4381.182805
 333.515340, 4365.683918
 336.281054, 4350.055500
 339.052486, 4334.419791
 341.844347, 4318.694030
 344.648135, 4302.926413
 347.476298, 4287.047314
 350.313948, 4271.140646
 353.170369, 4255.154635
 356.042668, 4239.105811
 358.924300, 4223.030965
 361.822245, 4206.891370
 364.728474, 4190.731958
 367.662109, 4174.446761
 370.602625, 4158.150055
 373.567231, 4141.746758
 376.544404, 4125.300993
 379.537554, 4108.794193
 382.543133, 4092.246169
 385.565849, 4075.631272
 388.611581, 4058.917616
 391.662548, 4042.203018
 394.733479, 4025.406998
 397.810035, 4008.608200
 400.909682, 3991.711513
 404.038186, 3974.686086
 407.172029, 3957.660229
 410.321304, 3940.579258
 413.481056, 3923.470277
 416.657370, 3906.300558
 419.851121, 3889.065710
 423.062384, 3871.765663
 426.285899, 3854.429028
 429.531030, 3837.005768
 432.796702, 3819.502097
 436.072113, 3801.976184
 439.360805, 3784.409260
 442.666061, 3766.784049
 445.988275, 3749.098774
 449.335113, 3731.313055
 452.694137, 3713.493352
 456.063738, 3695.648373
 459.450425, 3677.743887
 462.862593, 3659.735953
 463.544216, 3656.142390
 464.053587, 3653.457767
 464.480875, 3651.206291
 464.801703, 3649.516103
 464.858921, 3649.214692
 464.878552, 3649.111287
 464.909381, 3648.948891
 464.917819, 3648.904443
 464.922592, 3648.879302
 464.925437, 3648.864318
 464.927716, 3648.852314
 464.929774, 3648.841473
 464.950357, 3648.733054
 465.095369, 3647.969248
 465.826797, 3644.117541
 468.591449, 3629.571904
 472.026390, 3611.528308
 475.472068, 3593.460050
 478.941102, 3575.301293
 482.412758, 3557.160773
 485.905565, 3538.941857
 489.414272, 3520.672302
 492.939142, 3502.351028
 496.474226, 3484.009182
 500.030557, 3465.589804
 503.607317, 3447.097551
 507.200444, 3428.553793
 510.810227, 3409.957338
 514.438413, 3391.299528
 518.080695, 3372.602807
 521.752803, 3353.786886
 525.432923, 3334.963917
 529.121919, 3316.129556
 532.830572, 3297.229000
 536.557730, 3278.268509
 540.301933, 3259.255833
 544.060720, 3240.203764
 547.832156, 3221.122328
 551.623763, 3201.973765
 555.430094, 3182.785913
 559.257775, 3163.525717
 563.097331, 3144.241155
 566.963961, 3124.856270
 570.846761, 3105.426167
 574.748868, 3085.935490
 578.655731, 3066.457082
 582.581488, 3046.920635
 586.528794, 3027.313332
 590.489450, 3007.676226
 594.471644, 2987.969040
 598.471074, 2968.213444
 602.482326, 2948.436419
 606.520133, 2928.565694
 610.574295, 2908.651896
 614.635957, 2888.738694
 618.718565, 2868.760389
 622.818177, 2848.736638
 626.936769, 2828.658124
 631.072138, 2808.535913
 635.228289, 2788.350873
 639.395434, 2768.150815
 643.579062, 2747.909348
 647.782025, 2727.612999
 652.006071, 2707.253725
 656.243767, 2686.867653
 660.500971, 2666.426905
 660.760539, 2665.181865
 664.770455, 2645.966450
 669.066173, 2552.904011
 673.376567, 2454.717450
 677.712371, 2356.285330
 682.064580, 2257.468574
 686.443628, 2158.379337
 690.840746, 2058.883162
 695.254050, 1959.149522
 699.688606, 1859.192557
 704.131845, 1758.999372
 708.594363, 1658.731615
 713.076847, 1558.207286
 717.579065, 1457.425281
 722.097645, 1356.416328
 726.625511, 1255.283477
 731.177029, 1154.062635
 735.736346, 1052.618879
 740.324165,  951.094794
 744.912392,  849.330811
 749.514797,  747.700462
 754.139380,  645.934702
 758.762984,  544.064928
 763.404750,  442.339137
 768.066265,  340.448985
 772.725509,  238.518722
 777.405282,  136.745616
 782.088901,   34.897649
 786.789429,  -66.853735
 787.729793,    0.000000
 788.055474,    0.000000
 788.380889,    0.000000
 788.707079,    0.000000
 788.772105,    0.000000
 788.912502,    0.000000
 788.923067,    0.000000
 788.930022,    0.000000
 788.935507,    0.000000
 788.939658,    0.000000
 788.943646,    0.000000
 788.947786,    0.000000
 788.948610,    0.000000
 788.949032,    0.000000
 788.949437,    0.000000
 788.951823,    0.000000
 788.967284,    0.000000
 789.011629,    0.000000
 789.118876,    0.000000
 789.349417,    0.000000
 789.654991,    0.000000
 789.981612,    0.000000
 790.308343,    0.000000
 790.635502,    0.000000
 790.961800,    0.000000
 791.288263,    0.000000
 791.615948,    0.000000
 791.943254,    0.000000
 792.271698,    0.000000
 792.599969,    0.000000
 792.927197,    0.000000
 793.256214,    0.000000
 793.585409,    0.000000
 793.914162,    0.000000
 794.243208,    0.000000
 794.573368,    0.000000
 794.902679,    0.000000
 795.232165,    0.000000
 795.562562,    0.000000
 795.893978,    0.000000
 796.225019,    0.000000
 796.556072,    0.000000
 796.887734,    0.000000
 797.220005,    0.000000
 797.551966,    0.000000
 797.884722,    0.000000
 798.217205,    0.000000
 798.548902,    0.000000
 798.882067,    0.000000
 799.215708,    0.000000
 799.550366,    0.000000
 799.885304,    0.000000
 800.220035,    0.000000
 800.553093,    0.000000
 800.888014,    0.000000
 801.224565,    0.000000
 801.560337,    0.000000
 801.896052,    0.000000
 802.233065,    0.000000
 802.569017,    0.000000
 802.905714,    0.000000
 803.242925,    0.000000
 803.581952,    0.000000
 803.919815,    0.000000
 804.258270,    0.000000
 804.598300,    0.000000
 804.938410,    0.000000
 805.278333,    0.000000
 805.618176,    0.000000
 805.958456,    0.000000
 806.298377,    0.000000
 806.640494,    0.000000
 806.982987,    0.000000
 807.324966,    0.000000
 807.667775,    0.000000
 808.009471,    0.000000
 808.352045,    0.000000
 808.696479,    0.000000
 809.040634,    0.000000
 809.386148,    0.000000
 809.731223,    0.000000
 810.076534,    0.000000
 810.423641,    0.000000
 810.770436,    0.000000
 811.114178,    0.000000
 811.460206,    0.000000
 811.808352,    0.000000
 812.157221,    0.000000
 812.506829,    0.000000
 812.853805,    0.000000
 813.203946,    0.000000
 813.553799,    0.000000
 813.904029,    0.000000
 814.255696,    0.000000
 814.607472,    0.000000
 814.959058,    0.000000
 815.312510,    0.000000
 815.664433,    0.000000
 816.018404,    0.000000
 816.373833,    0.000000
 816.729044,    0.000000
 817.084150,    0.000000
 817.440149,    0.000000
 817.794474,    0.000000
 818.147557,    0.000000
 818.503380,    0.000000
 818.858885,    0.000000
 819.217052,    0.000000
 819.574951,    0.000000
 819.929870,    0.000000
 820.286654,    0.000000
 820.646808,    0.000000
 821.006808,    0.000000
 821.365236,    0.000000
 821.725346,    0.000000
 822.084654,    0.000000
 822.446590,    0.000000
 822.808114,    0.000000
 823.168352,    0.000000
 823.530660,    0.000000
 823.893545,    0.000000
 824.257111,    0.000000
 824.621311,    0.000000
 824.985728,    0.000000
 825.350725,    0.000000
 825.714152,    0.000000
 826.078211,    0.000000
 826.443783,    0.000000
 826.810358,    0.000000
 827.179814,    0.000000
 827.548536,    0.000000
 827.917371,    0.000000
 828.287017,    0.000000
 828.655262,    0.000000
 829.025488,    0.000000
 829.395674,    0.000000
 829.765970,    0.000000
 830.137589,    0.000000
 830.508642,    0.000000
 830.881481,    0.000000
 831.255225,    0.000000
 831.629320,    0.000000
 832.002945,    0.000000
 832.377731,    0.000000
 832.751601,    0.000000
 833.126949,    0.000000
 833.503624,    0.000000
 833.880460,    0.000000
 834.257007,    0.000000
 834.633792,    0.000000
 835.010875,    0.000000
 835.391528,    0.000000
 835.771245,    0.000000
 836.151996,    0.000000
 836.531711,    0.000000
 836.911051,    0.000000
 837.294302,    0.000000
 837.675664,    0.000000
 838.058836,    0.000000
 838.442615,    0.000000
 838.827543,    0.000000
 839.212546,    0.000000
 839.597660,    0.000000
 839.982992,    0.000000
 840.369410,    0.000000
 840.756861,    0.000000
 841.145509,    0.000000
 841.535635,    0.000000
 841.924789,    0.000000
 842.312326,    0.000000
 842.702992,    0.000000
 843.094815,    0.000000
 843.487762,    0.000000
 843.879402,    0.000000
 844.271708,    0.000000
 844.664993,    0.000000
 845.059731,    0.000000
 845.217930,    0.000000
 845.454309,    0.000000
 845.849718,    0.000000
 846.246383,    0.000000
 846.643691,    0.000000
 847.041117,    0.000000
 847.438671,    0.000000
 847.837962,    0.000000
 848.237362,    0.000000
 848.638976,    0.000000
 849.039702,    0.000000
 849.442567,    0.000000
 849.845868,    0.000000
 850.249868,    0.000000
 850.654800,    0.000000
 851.059166,    0.000000
 851.463620,    0.000000
 851.871018,    0.000000
 852.278589,    0.000000
 852.685615,    0.000000
 853.093868,    0.000000
 853.505217,    0.000000
 853.914981,    0.000000
 854.325817,    0.000000
 854.737165,    0.000000
 855.150695,    0.000000
 855.566704,    0.000000
 855.981998,    0.000000
 856.399023,    0.000000
 856.812315,    0.000000
 857.229405,    0.000000
 857.646257,    0.000000
 858.064682,    0.000000
 858.482024,    0.000000
 858.900116,    0.000000
 859.321906,    0.000000
 859.741478,    0.000000
 860.163548,    0.000000
 860.588749,    0.000000
 861.014808,    0.000000
 861.438534,    0.000000
 861.864477,    0.000000
 862.292842,    0.000000
 862.719126,    0.000000
 863.146719,    0.000000
 863.573842,    0.000000
 864.001573,    0.000000
 864.431283,    0.000000
 864.861452,    0.000000
 865.294501,    0.000000
 865.726577,    0.000000
 866.160327,    0.000000
 866.594229,    0.000000
 867.028654,    0.000000
 867.466744,    0.000000
 867.905563,    0.000000
 868.343581,    0.000000
 868.780927,    0.000000
 869.220589,    0.000000
 869.661200,    0.000000
 870.103969,    0.000000
 870.544898,    0.000000
 870.986934,    0.000000
 871.429468,    0.000000
 871.873099,    0.000000
 872.321067,    0.000000
 872.768617,    0.000000
 873.219733,    0.000000
 873.667264,    0.000000
 874.113693,    0.000000
 874.563259,    0.000000
 875.016376,    0.000000
 875.469881,    0.000000
 875.922679,    0.000000
 876.373070,    0.000000
 876.827871,    0.000000
 877.284365,    0.000000
 877.741930,    0.000000
 878.199144,    0.000000
 878.657888,    0.000000
 879.118926,    0.000000
 879.581361,    0.000000
 880.043060,    0.000000
 880.508013,    0.000000
 880.972799,    0.000000
 881.439481,    0.000000
 881.905971,    0.000000
 882.369328,    0.000000
 882.833669,    0.000000
 883.302118,    0.000000
 883.774300,    0.000000
 884.245060,    0.000000
 884.717103,    0.000000
 885.190956,    0.000000
 885.664577,    0.000000
 886.141309,    0.000000
 886.617793,    0.000000
 887.096098,    0.000000
 887.571810,    0.000000
 888.049373,    0.000000
 888.528284,    0.000000
 889.007593,    0.000000
 889.485787,    0.000000
 889.966348,    0.000000
 890.450176,    0.000000
 890.936823,    0.000000
 891.424542,    0.000000
 891.912716,    0.000000
 892.398967,    0.000000
 892.883589,    0.000000
 893.375574,    0.000000
 893.864675,    0.000000
 894.357112,    0.000000
 894.849697,    0.000000
 895.343432,    0.000000
 895.836658,    0.000000
 896.329467,    0.000000
 896.828148,    0.000000
 897.327639,    0.000000
 897.827458,    0.000000
 898.322664,    0.000000
 898.824824,    0.000000
 899.323953,    0.000000
 899.831009,    0.000000
 900.332432,    0.000000
 900.835959,    0.000000
 901.340326,    0.000000
 901.845250,    0.000000
 902.350551,    0.000000
 902.855533,    0.000000
 903.362565,    0.000000
 903.869550,    0.000000
 904.384016,    0.000000
 904.896693,    0.000000
 905.412345,    0.000000
 905.927550,    0.000000
 906.442792,    0.000000
 906.962370,    0.000000
 907.480448,    0.000000
 907.998875,    0.000000
 908.514045,    0.000000
 909.031974,    0.000000
 909.553916,    0.000000
 910.072013,    0.000000
 910.593950,    0.000000
 911.117747,    0.000000
 911.640746,    0.000000
 912.162793,    0.000000
 912.690635,    0.000000
 913.221148,    0.000000
 913.752744,    0.000000
 914.286102,    0.000000
 914.820857,    0.000000
 915.356494,    0.000000
 915.892879,    0.000000
 916.425764,    0.000000
 916.960224,    0.000000
 917.497257,    0.000000
 918.038862,    0.000000
 918.583279,    0.000000
 919.122937,    0.000000
 919.662893,    0.000000
 920.205204,    0.000000
 920.747089,    0.000000
 921.289816,    0.000000
 921.832501,    0.000000
 922.378685,    0.000000
 922.930687,    0.000000
 923.484534,    0.000000
 924.030248,    0.000000
 924.581989,    0.000000
 925.136504,    0.000000
 925.684609,    0.000000
 926.238600,    0.000000
 926.797847,    0.000000
 927.355959,    0.000000
 927.915646,    0.000000
 928.474155,    0.000000
 929.035045,    0.000000
 929.592812,    0.000000
 930.153196,    0.000000
 930.714668,    0.000000
 931.280179,    0.000000
 931.840884,    0.000000
 932.406441,    0.000000
 932.968276,    0.000000
 933.530068,    0.000000
 934.097709,    0.000000
 934.668350,    0.000000
 935.236584,    0.000000
 935.802096,    0.000000
 936.373807,    0.000000
 936.944279,    0.000000
 937.521880,    0.000000
 938.100796,    0.000000
 938.676314,    0.000000
 939.249501,    0.000000
 939.827310,    0.000000
 940.398067,    0.000000
 940.974506,    0.000000
 941.550558,    0.000000
 942.132021,    0.000000
 942.714089,    0.000000
 943.297750,    0.000000
 943.882168,    0.000000
 944.463593,    0.000000
 945.049391,    0.000000
 945.631737,    0.000000
 946.220796,    0.000000
 946.806591,    0.000000
 947.394230,    0.000000
 947.984729,    0.000000
 948.574957,    0.000000
 949.165518,    0.000000
 949.756971,    0.000000
 950.347999,    0.000000
 950.938105,    0.000000
 951.530985,    0.000000
 952.125956,    0.000000
 952.725381,    0.000000
 953.325625,    0.000000
 953.924144,    0.000000
 954.524063,    0.000000
 955.121494,    0.000000
 955.724224,    0.000000
 956.318595,    0.000000
 956.928450,    0.000000
 957.530626,    0.000000
 958.137049,    0.000000
 958.740187,    0.000000
 959.353494,    0.000000
 959.959767,    0.000000
 960.568879,    0.000000
 961.173706,    0.000000
 961.784628,    0.000000
 962.391793,    0.000000
 963.000310,    0.000000
 963.612856,    0.000000
 964.224050,    0.000000
 964.829250,    0.000000
 965.448186,    0.000000
 966.059942,    0.000000
 966.678666,    0.000000
 967.290874,    0.000000
 967.915572,    0.000000
 968.532052,    0.000000
 969.142185,    0.000000
 969.757293,    0.000000
 970.375395,    0.000000
 970.994216,    0.000000
 971.613781,    0.000000
 972.235928,    0.000000
 972.855033,    0.000000
 973.473821,    0.000000
 974.100844,    0.000000
 974.727521,    0.000000
 975.346710,    0.000000
 975.975875,    0.000000
 976.605207,    0.000000
 977.235472,    0.000000
 977.867590,    0.000000
 978.496094,    0.000000
 979.130582,    0.000000
 979.767487,    0.000000
 980.404148,    0.000000
 981.032887,    0.000000
 981.666606,    0.000000
 982.300703,    0.000000
 982.940210,    0.000000
 983.572719,    0.000000
 984.211260,    0.000000
 984.845621,    0.000000
 985.482220,    0.000000
 986.119755,    0.000000
 986.764228,    0.000000
 987.404315,    0.000000
 988.046749,    0.000000
 988.692067,    0.000000
 989.327229,    0.000000
 989.964572,    0.000000
 990.606413,    0.000000
 991.247608,    0.000000
 991.888253,    0.000000
 992.530399,    0.000000
 993.175676,    0.000000
 993.824991,    0.000000
 994.475397,    0.000000
 995.118433,    0.000000
 995.765727,    0.000000
 996.410142,    0.000000
 997.062896,    0.000000
 997.713518,    0.000000
 998.363241,    0.000000
 999.015734,    0.000000
 999.666067,    0.000000
1000.320179,    0.000000
1000.973809,    0.000000
1001.631924,    0.000000
1002.281209,    0.000000
1002.939634,    0.000000
1003.594472,    0.000000
1004.246774,    0.000000
1004.811029,    0.000000
