Time, Altitude
   0.000100,    0.000000
   0.000632,    0.000000
   0.002218,    0.000000
   0.007077,    0.000000
   0.016932,    0.000000
   0.033662,    0.000000
   0.058512,    0.000000
   0.087458,    0.000000
   0.116303,    0.000000
   0.145366,    0.000000
   0.174441,    0.000000
   0.203588,    0.000000
   0.232909,    0.000000
   0.262299,    0.000000
   0.291871,    0.000000
   0.321316,    0.000000
   0.351004,    0.000000
   0.380597,    0.000000
   0.410762,    0.000000
   0.440644,    0.000000
   0.471076,    0.000000
   0.501615,    0.000000
   0.532006,    0.000000
   0.562763,    0.000000
   0.593681,    0.000000
   0.624600,    0.000000
   0.656013,    0.000000
   0.687658,    0.000000
   0.719786,    0.000000
   0.751814,    0.000000
   0.784227,    0.000000
   0.816741,    0.000000
   0.849643,    0.000000
   0.882412,    0.000000
   0.915618,    0.000000
   0.949000,    0.000000
   0.982734,    0.000000
   1.016581,    0.000000
   1.050738,    0.000000
   1.085043,    0.000000
   1.119784,    0.000000
   1.154759,    0.000000
   1.190225,    0.000000
   1.226161,    0.000000
   1.262379,    0.000000
   1.298572,    0.000000
   1.334699,    0.000000
   1.371762,    0.000000
   1.408680,    0.000000
   1.445733,    0.000000
   1.482969,    0.000000
   1.520248,    0.000000
   1.557873,    0.000000
   1.596460,    0.000000
   1.635326,    0.000000
   1.673656,    0.000000
   1.712445,    0.000000
   1.751185,    0.000000
   1.790480,    0.000000
   1.830122,    0.000000
   1.870346,    0.000000
   1.910553,    0.000000
   1.951079,    0.000000
   1.992188,    0.000000
   2.033930,    0.000000
   2.075686,    0.000000
   2.117167,    0.000000
   2.159066,    0.000000
   2.201369,    0.000000
   2.243683,    0.000000
   2.286842,    0.000000
   2.329881,    0.000000
   2.373328,    0.000000
   2.417343,    0.000000
   2.461260,    0.000000
   2.505257,    0.000000
   2.549760,    0.000000
   2.594599,    0.000000
   2.639517,    0.000000
   2.684373,    0.000000
   2.730016,    0.000000
   2.775929,    0.000000
   2.821576,    0.000000
   2.867938,    0.000000
   2.914524,    0.000000
   2.961161,    0.000000
   3.007760,    0.000000
   3.054346,    0.000000
   3.101862,    0.000000
   3.149295,    0.000000
   3.196986,    0.000000
   3.245242,    0.000000
   3.293617,    0.000000
   3.342336,    0.000000
   3.391454,    0.000000
   3.440379,    0.000000
   3.489363,    0.000000
   3.538787,    0.000000
   3.588350,    0.000000
   3.638050,    0.000000
   3.688589,    0.000000
   3.739293,    0.000000
   3.789874,    0.000000
   3.841149,    0.000000
   3.892142,    0.000000
   3.943302,    0.000000
   3.994663,    0.000000
   4.046067,    0.000000
   4.098274,    0.000000
   4.150657,    0.000000
   4.202913,    0.000000
   4.255790,    0.000000
   4.308740,    0.000000
   4.362333,    0.000000
   4.364484,    0.000000
   4.364869,    0.000000
   4.365322,    0.000000
   4.365847,    0.000000
   4.365953,    0.000000
   4.366125,    0.000000
   4.366145,    0.000000
   4.366166,    0.000000
   4.366185,    0.000000
   4.366376,    0.000000
   4.367803,    0.000000
   4.374519,    0.000000
   4.396405,    0.000000
   4.441382,    0.000000
   4.490729,    0.000000
   4.540319,    0.000000
   4.590063,    0.000000
   4.639970,    0.000000
   4.689936,    0.000000
   4.740244,    0.000000
   4.790663,    0.000000
   4.841315,    0.000000
   4.892000,    0.000000
   4.943181,    0.000000
   4.994401,    0.000000
   5.045824,    0.000000
   5.097109,    0.000000
   5.148344,    0.000000
   5.200012,    0.000000
   5.251978,    0.000000
   5.304411,    0.000000
   5.356924,    0.000000
   5.409358,    0.000000
   5.461929,    0.000000
   5.514730,    0.000000
   5.568069,    0.000000
   5.621442,    0.000000
   5.674481,    0.000000
   5.727951,    0.000000
   5.782095,    0.000000
   5.836095,    0.000000
   5.890245,    0.000000
   5.944498,    0.000000
   5.999100,    0.000000
   6.053986,    0.000000
   6.108635,    0.000000
   6.163799,    0.000000
   6.218899,    0.000000
   6.274055,    0.000000
   6.329569,    0.000000
   6.385452,    0.000000
   6.441373,    0.000000
   6.497327,    0.000000
   6.553451,    0.000000
   6.609855,    0.000000
   6.666761,    0.000000
   6.723169,    0.000000
   6.780033,    0.000000
   6.837017,    0.000000
   6.893892,    0.000000
   6.951029,    0.000000
   7.008534,    0.000000
   7.066398,    0.000000
   7.124275,    0.000000
   7.182399,    0.000000
   7.240490,    0.000000
   7.298703,    0.000000
   7.357130,    0.000000
   7.415748,    0.000000
   7.474744,    0.000000
   7.533600,    0.000000
   7.592540,    0.000000
   7.652043,    0.000000
   7.711576,    0.000000
   7.771108,    0.000000
   7.831182,    0.000000
   7.890883,    0.000000
   7.950833,    0.000000
   8.011051,    0.000000
   8.071419,    0.000000
   8.132021,    0.000000
   8.192433,    0.000000
   8.253376,    0.000000
   8.314123,    0.000000
   8.375301,    0.000000
   8.436530,    0.000000
   8.497769,    0.000000
   8.558925,    0.000000
   8.620532,    0.000000
   8.682220,    0.000000
   8.744135,    0.000000
   8.806265,    0.000000
   8.868658,    0.000000
   8.931284,    0.000000
   8.943810,    0.000000
   8.952451,    0.000000
   8.959285,    0.000000
   8.983431,    0.000000
   8.983938,    0.000000
   8.984508,    0.000000
   8.984628,    0.000000
   8.984837,    0.000000
   8.984898,    0.000000
   8.985010,    0.000000
   8.985036,    0.000000
   8.985050,    0.000000
   8.985056,    0.000000
   8.985062,    0.000000
   8.985120,    0.000000
   8.985587,    0.000000
   8.988133,    0.000000
   8.997849,    0.000000
   9.030135,    0.000000
   9.085668,    0.000000
   9.143015,    0.000000
   9.200356,    0.000000
   9.257994,    0.000000
   9.315591,    0.000000
   9.373540,    0.000000
   9.431503,    0.000000
   9.489503,    0.000000
   9.547358,    0.000000
   9.605610,    0.000000
   9.663919,    0.000000
   9.722408,    0.000000
   9.780720,    0.000000
   9.839438,    0.000000
   9.898322,    0.000000
   9.957245,    0.000000
  10.016390,    0.000000
  10.075705,    0.000000
  10.135223,    0.000000
  10.194830,    0.000000
  10.254330,    0.000000
  10.314054,    0.000000
  10.373988,    0.000000
  10.434182,    0.000000
  10.494340,    0.000000
  10.554496,    0.000000
  10.614852,    0.000000
  10.675502,    0.000000
  10.735977,    0.000000
  10.796382,    0.000000
  10.857327,    0.000000
  10.918219,    0.000000
  10.979244,    0.000000
  11.040275,    0.000000
  11.101573,    0.000000
  11.162791,    0.000000
  11.224604,    0.000000
  11.286345,    0.000000
  11.347999,    0.000000
  11.409934,    0.000000
  11.471914,    0.000000
  11.534058,    0.000000
  11.596522,    0.000000
  11.658699,    0.000000
  11.721046,    0.000000
  11.783485,    0.000000
  11.846054,    0.000000
  11.908838,    0.000000
  11.971772,    0.000000
  12.034635,    0.000000
  12.097630,    0.000000
  12.160739,    0.000000
  12.224052,    0.000000
  12.287535,    0.000000
  12.351098,    0.000000
  12.414670,    0.000000
  12.478586,    0.000000
  12.542516,    0.000000
  12.606529,    0.000000
  12.670728,    0.000000
  12.735065,    0.000000
  12.799409,    0.000000
  12.863739,    0.000000
  12.928110,    0.000000
  12.992762,    0.000000
  13.057461,    0.000000
  13.122301,    0.000000
  13.187081,    0.000000
  13.252015,    0.000000
  13.316954,    0.000000
  13.382107,    0.000000
  13.447404,    0.000000
  13.512813,    0.000000
  13.578512,    0.000000
  13.644017,    0.000000
  13.709788,    0.000000
  13.775731,    0.000000
  13.841639,    0.000000
  13.907742,    0.000000
  13.974067,    0.000000
  13.987331,    0.000000
  13.997606,    0.000000
  14.004429,    0.000000
  14.009633,    0.000000
  14.010523,    0.000000
  14.010743,    0.000000
  14.011097,    0.000000
  14.011187,    0.000000
  14.011368,    0.000000
  14.011427,    0.000000
  14.011433,    0.000000
  14.011439,    0.000000
  14.011495,    0.000000
  14.012037,    0.000000
  14.016046,    0.000000
  14.038658,    0.000000
  14.098070,    0.000000
  14.157592,    0.000000
  14.217218,    0.000000
  14.276867,    0.000000
  14.336595,    0.000000
  14.396356,    0.000000
  14.456385,    0.000000
  14.516434,    0.000000
  14.576499,    0.000000
  14.636655,    0.000000
  14.696908,    0.000000
  14.757185,    0.000000
  14.817507,    0.000000
  14.878023,    0.000000
  14.938506,    0.000000
  14.999281,    0.000000
  15.060239,    0.000000
  15.121200,    0.000000
  15.182024,    0.000000
  15.243050,    0.000000
  15.304132,    0.000000
  15.365234,    0.000000
  15.426481,    0.000000
  15.487876,    0.000000
  15.549356,    0.000000
  15.610866,    0.000000
  15.672419,    0.000000
  15.734225,    0.000000
  15.796102,    0.000000
  15.858178,    0.000000
  15.920204,    0.000000
  15.982294,    0.000000
  16.044409,    0.000000
  16.106669,    0.000000
  16.169061,    0.000000
  16.231560,    0.000000
  16.294076,    0.000000
  16.356717,    0.000000
  16.419446,    0.000000
  16.482399,    0.000000
  16.545419,    0.000000
  16.608300,    0.000000
  16.671297,    0.000000
  16.734333,    0.000000
  16.797583,    0.000000
  16.860971,    0.000000
  16.924275,    0.000000
  16.987921,    0.000000
  17.051577,    0.000000
  17.115187,    0.000000
  17.178917,    0.000000
  17.242619,    0.000000
  17.306469,    0.000000
  17.370501,    0.000000
  17.434520,    0.000000
  17.498597,    0.000000
  17.562712,    0.000000
  17.626985,    0.000000
  17.691450,    0.000000
  17.755942,    0.000000
  17.820405,    0.000000
  17.885264,    0.000000
  17.949991,    0.000000
  18.014923,    0.000000
  18.079837,    0.000000
  18.144838,    0.000000
  18.209886,    0.000000
  18.275034,    0.000000
  18.340328,    0.000000
  18.405683,    0.000000
  18.471125,    0.000000
  18.536555,    0.000000
  18.602220,    0.000000
  18.667702,    0.000000
  18.733370,    0.000000
  18.799165,    0.000000
  18.865063,    0.000000
  18.930923,    0.000000
  18.996927,    0.000000
  19.063127,    0.000000
  19.129225,    0.000000
  19.195513,    0.000000
  19.261800,    0.000000
  19.328185,    0.000000
  19.394669,    0.000000
  19.461150,    0.000000
  19.527920,    0.000000
  19.594693,    0.000000
  19.661644,    0.000000
  19.675033,    0.000000
  19.685567,    0.000000
  19.694118,    0.000000
  19.701645,    0.000000
  19.708033,    0.000000
  19.713601,    0.000000
  19.714517,    0.000000
  19.715569,    0.000000
  19.717235,    0.000000
  19.717388,    0.000000
  19.717455,    0.000000
  19.717517,    0.000000
  19.718133,    0.000000
  19.722664,    0.000000
  19.767969,    0.000000
  19.834747,    0.000000
  19.901660,    0.000000
  19.968625,    0.000000
  20.035574,    0.000000
  20.102680,    0.000000
  20.169782,    0.000000
  20.236975,    0.000000
  20.304287,    0.000000
  20.371670,    0.000000
  20.439175,    0.000000
  20.506853,    0.000000
  20.574441,    0.000000
  20.642270,    0.000000
  20.710028,    0.000000
  20.777905,    0.000000
  20.845864,    0.000000
  20.913955,    0.000000
  20.982124,    0.000000
  21.050265,    0.000000
  21.118651,    0.000000
  21.187101,    0.000000
  21.255519,    0.000000
  21.324087,    0.000000
  21.392662,    0.000000
  21.461353,    0.000000
  21.530044,    0.000000
  21.599018,    0.000000
  21.667922,    0.000000
  21.737006,    0.000000
  21.806117,    0.000000
  21.875216,    0.000000
  21.944363,    0.000000
  22.013598,    0.000000
  22.083019,    0.000000
  22.152482,    0.000000
  22.221901,    0.000000
  22.291615,    0.000000
  22.361376,    0.000000
  22.431150,    0.000000
  22.501065,    0.000000
  22.570933,    0.000000
  22.640903,    0.000000
  22.711127,    0.000000
  22.781286,    0.000000
  22.851601,    0.000000
  22.921880,    0.000000
  22.992335,    0.000000
  23.062919,    0.000000
  23.133447,    0.000000
  23.204171,    0.000000
  23.275003,    0.000000
  23.345759,    0.000000
  23.416597,    0.000000
  23.487569,    0.000000
  23.558475,    0.000000
  23.629604,    0.000000
  23.700689,    0.000000
  23.771974,    0.000000
  23.843304,    0.000000
  23.914799,    0.000000
  23.986327,    0.000000
  24.057858,    0.000000
  24.129555,    0.000000
  24.201342,    0.000000
  24.273097,    0.000000
  24.345049,    0.000000
  24.416914,    0.000000
  24.489031,    0.000000
  24.561103,    0.000000
  24.633332,    0.000000
  24.705493,    0.000000
  24.777789,    0.000000
  24.850255,    0.000000
  24.922755,    0.000000
  24.995338,    0.000000
  25.059089,    0.000000
  25.067965,    0.000000
  25.140524,    0.000000
  25.213319,    0.000000
  25.286233,    0.000000
  25.359232,    0.000000
  25.432201,    0.000000
  25.505311,    0.000000
  25.578432,    0.000000
  25.651549,    0.000000
  25.724781,    0.000000
  25.798200,    0.000000
  25.871590,    0.000000
  25.945076,    0.000000
  26.018770,    0.000000
  26.092399,    0.000000
  26.166060,    0.000000
  26.239795,    0.000000
  26.313596,    0.000000
  26.387375,    0.000000
  26.461231,    0.000000
  26.476009,    0.000000
  26.487506,    0.000000
  26.497390,    0.000000
  26.505296,    0.000000
  26.507231,    0.000000
  26.510645,    0.000000
  26.511259,    0.000000
  26.512147,    0.000000
  26.512400,    0.000000
  26.512452,    0.000000
  26.512484,    0.000000
  26.512513,    0.000000
  26.512809,    0.000000
  26.515281,    0.000000
  26.527420,    0.000000
  26.598668,    0.000000
  26.675234,    0.000000
  26.751797,    0.000000
  26.828228,    0.000000
  26.904737,    0.000000
  26.981399,    0.000000
  27.057991,    0.000000
  27.134579,    0.000000
  27.211281,    0.000000
  27.287928,    0.000000
  27.364502,    0.000000
  27.441011,    0.000000
  27.517733,    0.000000
  27.594581,    0.000000
  27.671263,    0.000000
  27.747885,    0.000000
  27.824699,    0.000000
  27.901283,    0.000000
  27.907207,    0.000009
  27.913139,    0.000036
  27.919040,    0.000081
  27.924975,    0.000144
  27.930914,    0.000227
  27.936838,    0.000329
  27.942771,    0.000451
  27.948687,    0.000593
  27.954624,    0.000756
  27.960582,    0.000940
  27.966547,    0.001146
  27.972513,    0.001374
  27.978491,    0.001625
  27.984464,    0.001898
  27.990437,    0.002194
  27.996407,    0.002513
  28.002355,    0.002855
  28.008352,    0.003224
  28.014331,    0.003616
  28.020332,    0.004035
  28.026332,    0.004479
  28.032332,    0.004949
  28.038353,    0.005447
  28.044365,    0.005972
  28.050392,    0.006524
  28.056421,    0.007104
  28.062451,    0.007713
  28.068463,    0.008348
  28.074507,    0.009015
  28.080561,    0.009712
  28.086580,    0.010435
  28.092641,    0.011194
  28.098711,    0.011983
  28.104776,    0.012804
  28.110808,    0.013651
  28.116879,    0.014535
  28.122973,    0.015455
  28.129069,    0.016409
  28.135135,    0.017390
  28.141251,    0.018414
  28.147339,    0.019467
  28.153462,    0.020560
  28.159598,    0.021692
  28.165732,    0.022858
  28.171868,    0.024061
  28.178018,    0.025304
  28.184145,    0.026579
  28.190292,    0.027895
  28.196450,    0.029251
  28.202560,    0.030635
  28.208729,    0.032071
  28.214872,    0.033541
  28.221036,    0.035054
  28.227252,    0.036621
  28.233438,    0.038222
  28.239658,    0.039872
  28.245886,    0.041567
  28.252110,    0.043304
  28.258312,    0.045077
  28.264541,    0.046901
  28.270750,    0.048762
  28.276981,    0.050675
  28.283233,    0.052639
  28.289482,    0.054647
  28.295767,    0.056713
  28.302061,    0.058829
  28.308368,    0.060997
  28.314637,    0.063199
  28.320932,    0.065458
  28.327219,    0.067762
  28.333513,    0.070119
  28.339834,    0.072535
  28.346177,    0.075010
  28.352500,    0.077528
  28.358827,    0.080099
  28.365160,    0.082725
  28.371523,    0.085415
  28.377876,    0.088154
  28.384218,    0.090941
  28.390581,    0.093792
  28.396984,    0.096716
  28.403387,    0.099695
  28.409784,    0.102727
  28.416171,    0.105810
  28.422606,    0.108974
  28.429034,    0.112193
  28.435498,    0.115489
  28.441940,    0.118832
  28.448402,    0.122245
  28.454911,    0.125744
  28.461394,    0.129290
  28.467890,    0.132906
  28.474395,    0.136588
  28.480931,    0.140351
  28.487497,    0.144196
  28.494048,    0.148096
  28.500574,    0.152044
  28.507138,    0.156079
  28.513695,    0.160175
  28.520234,    0.164324
  28.526793,    0.168551
  28.533372,    0.172855
  28.539962,    0.177231
  28.546573,    0.181688
  28.553177,    0.186207
  28.559758,    0.190776
  28.566407,    0.195459
  28.573063,    0.200215
  28.579717,    0.205037
  28.586359,    0.209917
  28.593002,    0.214867
  28.599672,    0.219905
  28.606344,    0.225013
  28.613062,    0.230226
  28.619783,    0.235511
  28.626472,    0.240841
  28.633165,    0.246243
  28.639928,    0.251774
  28.646664,    0.257352
  28.653419,    0.263018
  28.660193,    0.268772
  28.666998,    0.274624
  28.673746,    0.280500
  28.680546,    0.286493
  28.687312,    0.292530
  28.694129,    0.298685
  28.700952,    0.304918
  28.707783,    0.311234
  28.714624,    0.317633
  28.721490,    0.324131
  28.728369,    0.330717
  28.735237,    0.337368
  28.742134,    0.344124
  28.749035,    0.350960
  28.755970,    0.357906
  28.762896,    0.364922
  28.769814,    0.372007
  28.776746,    0.379184
  28.783674,    0.386435
  28.790581,    0.393741
  28.797546,    0.401188
  28.804519,    0.408724
  28.811526,    0.416375
  28.818534,    0.424108
  28.825505,    0.431882
  28.832544,    0.439811
  28.839537,    0.447770
  28.846522,    0.455801
  28.853603,    0.464024
  28.860666,    0.472310
  28.867708,    0.480653
  28.874818,    0.489161
  28.881917,    0.497740
  28.889017,    0.506404
  28.896168,    0.515216
  28.903315,    0.524109
  28.910483,    0.533114
  28.917621,    0.542168
  28.924779,    0.551333
  28.932013,    0.560684
  28.939232,    0.570103
  28.946450,    0.579610
  28.953696,    0.589243
  28.960906,    0.598917
  28.968135,    0.608705
  28.974395,    0.617254
  28.975380,    0.618606
  28.982639,    0.628614
  28.989942,    0.638775
  28.997289,    0.649090
  29.004625,    0.659482
  29.011936,    0.669931
  29.019294,    0.680541
  29.026623,    0.691202
  29.034040,    0.702087
  29.041439,    0.713039
  29.048874,    0.724141
  29.056306,    0.735337
  29.063755,    0.746653
  29.071222,    0.758094
  29.078698,    0.769648
  29.086219,    0.781370
  29.093739,    0.793190
  29.101309,    0.805191
  29.108809,    0.817179
  29.116356,    0.829343
  29.123906,    0.841613
  29.131468,    0.854004
  29.139025,    0.866488
  29.146609,    0.879120
  29.154223,    0.891905
  29.161839,    0.904797
  29.169510,    0.917887
  29.177229,    0.931166
  29.184891,    0.944453
  29.192587,    0.957904
  29.200272,    0.971444
  29.207993,    0.985155
  29.215694,    0.998937
  29.223438,    1.012907
  29.231254,    1.027115
  29.239047,    1.041393
  29.246871,    1.055839
  29.254666,    1.070343
  29.262500,    1.085031
  29.270322,    1.099808
  29.278147,    1.114704
  29.285988,    1.129744
  29.293877,    1.144990
  29.301811,    1.160438
  29.309764,    1.176042
  29.317730,    1.191788
  29.325695,    1.207648
  29.333649,    1.223606
  29.341590,    1.239656
  29.349583,    1.255927
  29.357594,    1.272356
  29.365623,    1.288943
  29.373673,    1.305695
  29.381712,    1.322545
  29.389770,    1.339555
  29.397888,    1.356819
  29.405995,    1.374181
  29.414106,    1.391677
  29.422312,    1.409503
  29.430490,    1.427397
  29.438713,    1.445516
  29.446860,    1.463595
  29.455059,    1.481917
  29.463242,    1.500334
  29.471444,    1.518919
  29.479718,    1.537799
  29.487990,    1.556805
  29.496253,    1.575922
  29.504526,    1.595194
  29.512786,    1.614567
  29.521093,    1.634182
  29.529463,    1.654082
  29.537835,    1.674123
  29.546306,    1.694539
  29.554674,    1.714844
  29.563085,    1.735388
  29.571555,    1.756219
  29.579988,    1.777097
  29.588516,    1.798352
  29.597043,    1.819745
  29.605538,    1.841201
  29.613994,    1.862699
  29.622449,    1.884335
  29.631044,    1.906474
  29.639652,    1.928793
  29.648193,    1.951082
  29.656817,    1.973737
  29.665396,    1.996418
  29.674054,    2.019455
  29.682771,    2.042801
  29.691527,    2.066403
  29.700197,    2.089925
  29.708850,    2.113548
  29.717559,    2.137478
  29.726339,    2.161757
  29.735152,    2.186281
  29.743942,    2.210898
  29.752814,    2.235902
  29.761584,    2.260775
  29.770382,    2.285884
  29.779283,    2.311445
  29.788183,    2.337162
  29.796943,    2.362634
  29.805867,    2.388742
  29.814761,    2.414923
  29.823756,    2.441565
  29.832661,    2.468107
  29.841622,    2.494974
  29.850626,    2.522139
  29.859562,    2.549263
  29.868483,    2.576503
  29.877550,    2.604358
  29.886628,    2.632415
  29.895718,    2.660678
  29.904815,    2.689137
  29.913935,    2.717838
  29.922969,    2.746439
  29.932058,    2.775381
  29.941289,    2.804954
  29.950354,    2.834168
  29.959575,    2.864060
  29.968842,    2.894280
  29.978064,    2.924528
  29.987332,    2.955109
  29.996534,    2.985649
  30.005829,    3.016679
  30.015158,    3.048003
  30.024481,    3.079492
  30.033766,    3.111032
  30.043057,    3.142774
  30.052511,    3.175260
  30.061830,    3.207471
  30.071169,    3.239931
  30.080486,    3.272499
  30.089971,    3.305844
  30.099386,    3.339132
  30.108779,    3.372531
  30.118183,    3.406157
  30.127607,    3.440044
  30.137065,    3.474241
  30.146582,    3.508849
  30.156166,    3.543891
  30.165685,    3.578896
  30.175273,    3.614350
  30.184821,    3.649850
  30.194414,    3.685715
  30.203936,    3.721512
  30.213503,    3.757674
  30.223194,    3.794507
  30.232878,    3.831516
  30.242505,    3.868507
  30.252127,    3.905682
  30.261727,    3.942971
  30.271437,    3.980891
  30.281296,    4.019603
  30.291000,    4.057915
  30.300751,    4.096617
  30.310426,    4.135221
  30.320194,    4.174409
  30.329922,    4.213638
  30.339688,    4.253231
  30.349477,    4.293130
  30.359241,    4.333132
  30.369245,    4.374339
  30.379041,    4.414900
  30.388895,    4.455916
  30.398844,    4.497544
  30.408686,    4.538941
  30.418545,    4.580624
  30.428450,    4.622714
  30.438407,    4.665249
  30.448271,    4.707600
  30.458184,    4.750382
  30.468130,    4.793528
  30.478101,    4.836999
  30.488134,    4.880967
  30.498069,    4.924722
  30.508073,    4.969007
  30.518168,    5.013922
  30.528128,    5.058462
  30.538111,    5.103323
  30.548163,    5.148723
  30.558249,    5.194502
  30.568362,    5.240634
  30.578444,    5.286858
  30.588564,    5.333482
  30.598717,    5.380491
  30.609006,    5.428368
  30.619202,    5.476044
  30.629383,    5.523891
  30.639417,    5.571269
  30.649534,    5.619276
  30.659765,    5.668058
  30.670121,    5.717678
  30.680221,    5.766305
  30.690368,    5.815396
  30.700629,    5.865272
  30.710796,    5.914928
  30.721100,    5.965497
  30.731393,    6.016250
  30.741638,    6.067009
  30.751945,    6.118320
  30.762202,    6.169621
  30.772558,    6.221662
  30.782886,    6.273803
  30.793173,    6.325988
  30.803498,    6.378607
  30.813836,    6.431535
  30.824110,    6.484384
  30.834435,    6.537733
  30.844868,    6.591897
  30.855275,    6.646172
  30.865729,    6.700945
  30.876110,    6.755589
  30.886487,    6.810453
  30.897020,    6.866405
  30.907490,    6.922274
  30.917966,    6.978428
  30.928450,    7.034880
  30.939008,    7.091990
  30.949500,    7.148998
  30.959966,    7.206124
  30.970416,    7.263413
  30.980897,    7.321128
  30.991428,    7.379377
  31.001984,    7.438022
  31.012555,    7.497015
  31.023231,    7.556854
  31.033805,    7.616384
  31.044378,    7.676177
  31.054893,    7.735896
  31.065512,    7.796469
  31.076056,    7.856875
  31.086750,    7.918409
  31.097362,    7.979736
  31.107965,    8.041277
  31.118620,    8.103386
  31.129266,    8.165705
  31.139858,    8.227972
  31.150587,    8.291319
  31.161312,    8.354912
  31.171962,    8.418332
  31.182692,    8.482495
  31.193348,    8.546482
  31.204016,    8.610812
  31.214716,    8.675608
  31.225415,    8.740670
  31.236126,    8.806071
  31.246958,    8.872490
  31.257734,    8.938844
  31.268533,    9.005611
  31.279260,    9.072212
  31.289972,    9.138988
  31.300751,    9.206463
  31.311467,    9.273812
  31.322177,    9.341394
  31.333002,    9.409986
  31.343847,    9.478975
  31.354776,    9.548791
  31.365729,    9.619042
  31.376603,    9.689069
  31.387475,    9.759365
  31.398427,    9.830470
  31.409401,    9.901995
  31.420199,    9.972657
  31.431072,   10.044096
  31.441751,   10.114535
  31.452620,   10.186503
  31.463522,   10.258976
  31.474506,   10.332277
  31.485323,   10.404750
  31.496246,   10.478218
  31.507285,   10.552756
  31.518247,   10.627063
  31.524268,   10.668000
