Ground distance, Vertical Forces
   0.000000,    0.000000
   0.000002,    0.000000
   0.000020,    0.000000
   0.000267,    0.000000
   0.002293,    0.000000
   0.011378,    0.000000
   0.030457,    0.000000
   0.058924,    0.000000
   0.097099,    0.000000
   0.144760,    0.000000
   0.201944,    0.000000
   0.269024,    0.000000
   0.345964,    0.000000
   0.433052,    0.000000
   0.530664,    0.000000
   0.638166,    0.000000
   0.757591,    0.000000
   0.887552,    0.000000
   1.027472,    0.000000
   1.178098,    0.000000
   1.340360,    0.000000
   1.514952,    0.000000
   1.705723,    0.000000
   1.907138,    0.000000
   2.121675,    0.000000
   2.348901,    0.000000
   2.587560,    0.000000
   2.835495,    0.000000
   3.101120,    0.000000
   3.378479,    0.000000
   3.672517,    0.000000
   3.978115,    0.000000
   4.304465,    0.000000
   4.642290,    0.000000
   5.003336,    0.000000
   5.377695,    0.000000
   5.767754,    0.000000
   6.184331,    0.000000
   6.613627,    0.000000
   7.060837,    0.000000
   7.527825,    0.000000
   8.011365,    0.000000
   8.510458,    0.000000
   9.036428,    0.000000
   9.569152,    0.000000
  10.129735,    0.000000
  10.704994,    0.000000
  11.310352,    0.000000
  11.931912,    0.000000
  12.585931,    0.000000
  13.256776,    0.000000
  13.946754,    0.000000
  14.654576,    0.000000
  15.397560,    0.000000
  16.156249,    0.000000
  16.941870,    0.000000
  17.758612,    0.000000
  18.615743,    0.000000
  19.482003,    0.000000
  20.382617,    0.000000
  21.300067,    0.000000
  22.250368,    0.000000
  23.227163,    0.000000
  24.223255,    0.000000
  25.253386,    0.000000
  26.301741,    0.000000
  27.385702,    0.000000
  28.495083,    0.000000
  29.638243,    0.000000
  30.819994,    0.000000
  32.029021,    0.000000
  33.274288,    0.000000
  34.529539,    0.000000
  35.838536,    0.000000
  37.169749,    0.000000
  38.548738,    0.000000
  39.940000,    0.000000
  41.381748,    0.000000
  42.852704,    0.000000
  44.351258,    0.000000
  45.902284,    0.000000
  47.466314,    0.000000
  49.077288,    0.000000
  50.711205,    0.000000
  52.407392,    0.000000
  54.118581,    0.000000
  55.869768,    0.000000
  57.660099,    0.000000
  59.497335,    0.000000
  61.359540,    0.000000
  63.276706,    0.000000
  65.240895,    0.000000
  67.239266,    0.000000
  69.276450,    0.000000
  71.348065,    0.000000
  73.459036,    0.000000
  75.619959,    0.000000
  77.810609,    0.000000
  80.060362,    0.000000
  82.373047,    0.000000
  82.464978,    0.000000
  82.528172,    0.000000
  82.584706,    0.000000
  82.630209,    0.000000
  82.682746,    0.000000
  82.722415,    0.000000
  82.730814,    0.000000
  82.742058,    0.000000
  82.744500,    0.000000
  82.748434,    0.000000
  82.749713,    0.000000
  82.749971,    0.000000
  82.750516,    0.000000
  82.755967,    0.000000
  82.799115,    0.000000
  82.993301,    0.000000
  83.657283,    0.000000
  85.304944,    0.000000
  87.408976,    0.000000
  89.575477,    0.000000
  91.781402,    0.000000
  94.009013,    0.000000
  96.279594,    0.000000
  98.601223,    0.000000
 100.949193,    0.000000
 103.326500,    0.000000
 105.759384,    0.000000
 108.223956,    0.000000
 110.725641,    0.000000
 113.260361,    0.000000
 115.843209,    0.000000
 118.473432,    0.000000
 121.124297,    0.000000
 123.811402,    0.000000
 126.526812,    0.000000
 129.303158,    0.000000
 132.127902,    0.000000
 134.985553,    0.000000
 137.887877,    0.000000
 140.836617,    0.000000
 143.824210,    0.000000
 146.871203,    0.000000
 149.933986,    0.000000
 153.032435,    0.000000
 156.197309,    0.000000
 159.387715,    0.000000
 162.645077,    0.000000
 165.936776,    0.000000
 169.274088,    0.000000
 172.652274,    0.000000
 176.048617,    0.000000
 179.536685,    0.000000
 183.050009,    0.000000
 186.635766,    0.000000
 190.244560,    0.000000
 193.887820,    0.000000
 197.605477,    0.000000
 201.356210,    0.000000
 205.161112,    0.000000
 209.008052,    0.000000
 212.886997,    0.000000
 216.859717,    0.000000
 220.853048,    0.000000
 224.910633,    0.000000
 229.011239,    0.000000
 233.156374,    0.000000
 237.326991,    0.000000
 241.578689,    0.000000
 245.858358,    0.000000
 250.193909,    0.000000
 254.607921,    0.000000
 259.068981,    0.000000
 263.586257,    0.000000
 268.147215,    0.000000
 272.777268,    0.000000
 277.433393,    0.000000
 282.136695,    0.000000
 286.892291,    0.000000
 291.696536,    0.000000
 296.590589,    0.000000
 301.512570,    0.000000
 306.508003,    0.000000
 311.562020,    0.000000
 316.657613,    0.000000
 321.785488,    0.000000
 326.982519,    0.000000
 332.239752,    0.000000
 337.571509,    0.000000
 342.935138,    0.000000
 342.978132,    0.000000
 342.987981,    0.000000
 342.992084,    0.000000
 343.000292,    0.000000
 343.001236,    0.000000
 343.001766,    0.000000
 343.002567,    0.000000
 343.010583,    0.000000
 343.090743,    0.000000
 343.560610,    0.000000
 345.151038,    0.000000
 349.011579,    0.000000
 353.908584,    0.000000
 358.814324,    0.000000
 363.789207,    0.000000
 368.789908,    0.000000
 373.830634,    0.000000
 378.929699,    0.000000
 384.094426,    0.000000
 389.287234,    0.000000
 394.504828,    0.000000
 399.807591,    0.000000
 405.134762,    0.000000
 410.512376,    0.000000
 415.946867,    0.000000
 421.432434,    0.000000
 426.956984,    0.000000
 432.532354,    0.000000
 438.176786,    0.000000
 443.857398,    0.000000
 449.585867,    0.000000
 455.358419,    0.000000
 461.172015,    0.000000
 467.066222,    0.000000
 472.981914,    0.000000
 478.935330,    0.000000
 484.958595,    0.000000
 491.051809,    0.000000
 497.202637,    0.000000
 503.377728,    0.000000
 509.610522,    0.000000
 515.870879,    0.000000
 522.216587,    0.000000
 528.582687,    0.000000
 535.025603,    0.000000
 541.490675,    0.000000
 548.018957,    0.000000
 554.602449,    0.000000
 561.227139,    0.000000
 567.939498,    0.000000
 574.681296,    0.000000
 581.469725,    0.000000
 588.324698,    0.000000
 595.224520,    0.000000
 602.157490,    0.000000
 609.180771,    0.000000
 616.249192,    0.000000
 623.390532,    0.000000
 630.573166,    0.000000
 637.811779,    0.000000
 645.078906,    0.000000
 652.417315,    0.000000
 659.814552,    0.000000
 667.256924,    0.000000
 674.769548,    0.000000
 682.339680,    0.000000
 689.980654,    0.000000
 697.660256,    0.000000
 705.361521,    0.000000
 713.133536,    0.000000
 720.986746,    0.000000
 728.893026,    0.000000
 736.883496,    0.000000
 744.886497,    0.000000
 752.942673,    0.000000
 761.067847,    0.000000
 769.246189,    0.000000
 777.498605,    0.000000
 785.789928,    0.000000
 794.179486,    0.000000
 802.619640,    0.000000
 804.320664,    0.000000
 805.429008,    0.000000
 806.266570,    0.000000
 806.941260,    0.000000
 807.601106,    0.000000
 808.269603,    0.000000
 808.759598,    0.000000
 808.846736,    0.000000
 808.956558,    0.000000
 809.084753,    0.000000
 809.091959,    0.000000
 809.096288,    0.000000
 809.099469,    0.000000
 809.102044,    0.000000
 809.102875,    0.000000
 809.103722,    0.000000
 809.112196,    0.000000
 809.184956,    0.000000
 809.647446,    0.000000
 811.401521,    0.000000
 817.387276,    0.000000
 824.816391,    0.000000
 832.347011,    0.000000
 839.908181,    0.000000
 847.535059,    0.000000
 855.170041,    0.000000
 862.875915,    0.000000
 870.626386,    0.000000
 878.412912,    0.000000
 886.258746,    0.000000
 894.146430,    0.000000
 902.061807,    0.000000
 910.043946,    0.000000
 918.067955,    0.000000
 926.156490,    0.000000
 934.282546,    0.000000
 942.442606,    0.000000
 950.650168,    0.000000
 958.920306,    0.000000
 967.212494,    0.000000
 975.560987,    0.000000
 983.974526,    0.000000
 992.438695,    0.000000
1000.926362,    0.000000
1009.483690,    0.000000
1018.077134,    0.000000
1026.723995,    0.000000
1035.422907,    0.000000
1044.149464,    0.000000
1052.928168,    0.000000
1061.779019,    0.000000
1070.679270,    0.000000
1079.617338,    0.000000
1088.591955,    0.000000
1097.622897,    0.000000
1106.722050,    0.000000
1115.848548,    0.000000
1125.042052,    0.000000
1134.301340,    0.000000
1143.608690,    0.000000
1152.939662,    0.000000
1162.331753,    0.000000
1171.768866,    0.000000
1181.263359,    0.000000
1190.828328,    0.000000
1200.409868,    0.000000
1210.030584,    0.000000
1219.707409,    0.000000
1229.427794,    0.000000
1239.214626,    0.000000
1249.033520,    0.000000
1258.921983,    0.000000
1268.894872,    0.000000
1278.873330,    0.000000
1288.934180,    0.000000
1299.033398,    0.000000
1309.196241,    0.000000
1319.415106,    0.000000
1329.672346,    0.000000
1339.959134,    0.000000
1350.318971,    0.000000
1360.777557,    0.000000
1371.221162,    0.000000
1381.761668,    0.000000
1392.317373,    0.000000
1402.942407,    0.000000
1413.637891,    0.000000
1424.362125,    0.000000
1435.133253,    0.000000
1445.958134,    0.000000
1456.853563,    0.000000
1467.803646,    0.000000
1478.782453,    0.000000
1489.858376,    0.000000
1500.941793,    0.000000
1512.100027,    0.000000
1523.309402,    0.000000
1525.559367,    0.000000
1533.392139,    0.000000
1533.842014,    0.000000
1533.919492,    0.000000
1533.952375,    0.000000
1533.960935,    0.000000
1533.966040,    0.000000
1533.971849,    0.000000
1534.029938,    0.000000
1534.444443,    0.000000
1537.186137,    0.000000
1549.193526,    0.000000
1560.503328,    0.000000
1571.885401,    0.000000
1583.317186,    0.000000
1594.811082,    0.000000
1606.354091,    0.000000
1617.943831,    0.000000
1629.570442,    0.000000
1641.294711,    0.000000
1653.042382,    0.000000
1664.862659,    0.000000
1676.720316,    0.000000
1688.623875,    0.000000
1700.595015,    0.000000
1712.642404,    0.000000
1724.716791,    0.000000
1736.846865,    0.000000
1749.021272,    0.000000
1761.254331,    0.000000
1773.569173,    0.000000
1785.928302,    0.000000
1798.336077,    0.000000
1810.821016,    0.000000
1823.357185,    0.000000
1835.940411,    0.000000
1848.573565,    0.000000
1861.232156,    0.000000
1873.965689,    0.000000
1886.766229,    0.000000
1899.612434,    0.000000
1912.496121,    0.000000
1925.444999,    0.000000
1938.466103,    0.000000
1951.529312,    0.000000
1964.667040,    0.000000
1977.880512,    0.000000
1991.130543,    0.000000
2004.434860,    0.000000
2017.789072,    0.000000
2031.209485,    0.000000
2044.694190,    0.000000
2058.238826,    0.000000
2071.848240,    0.000000
2085.489083,    0.000000
2099.204236,    0.000000
2112.959314,    0.000000
2126.761888,    0.000000
2140.639399,    0.000000
2154.568884,    0.000000
2168.571640,    0.000000
2182.626969,    0.000000
2196.755104,    0.000000
2210.933534,    0.000000
2218.373211,    0.000000
2225.154051,    0.000000
2239.438262,   21.814339
2253.762921,   67.375334
2268.189039,  112.382689
2282.672402,  157.030877
2297.236083,  201.181630
2311.826469,  244.908697
2326.460293,  288.052747
2341.209636,  330.667810
2356.034020,  372.968361
2370.888305,  414.836734
2385.821785,  456.145289
2400.807800,  497.038679
2415.828193,  537.445930
2430.927557,  577.319907
2446.076244,  616.787049
2461.257484,  655.771730
2476.494942,  694.233919
2491.806067,  732.239212
2507.138174,  769.838904
2522.496437,  806.903936
2537.910366,  843.452594
2553.356358,  879.564998
2568.860215,  915.186736
2584.369853,  950.389028
2599.911451,  985.052819
2600.535232, 1020.618994
2601.374982, 1021.955488
2602.201618, 1023.781443
2602.419057, 1025.632451
2602.695021, 1026.098814
2602.760606, 1026.716877
2602.858575, 1026.856117
2602.865435, 1027.076991
2602.868246, 1027.092244
2602.871134, 1027.098354
2602.900011, 1027.102421
2603.188793, 1027.143095
2604.879053, 1027.651824
2611.588294, 1030.897629
2627.732684, 1044.626919
2644.047985, 1079.297103
2645.133467, 1115.184847
2646.216858, 1117.453039
2647.304536, 1119.713935
2648.391976, 1121.981833
2649.481103, 1124.246702
2650.570288, 1126.512874
2651.658418, 1128.776910
2652.750290, 1131.035968
2653.842806, 1133.300722
2654.935937, 1135.564456
2656.025476, 1137.827493
2657.115562, 1140.080370
2658.211363, 1142.331572
2659.306377, 1144.592825
2660.403513, 1146.849841
2661.499433, 1149.109188
2662.593482, 1151.363748
2663.693696, 1153.611385
2664.795797, 1155.869740
2665.897645, 1158.129813
2666.990052, 1160.387863
2668.086374, 1162.623014
2669.189175, 1164.863629
2670.296022, 1167.115380
2671.392749, 1169.374356
2672.494587, 1171.608948
2673.598660, 1173.851905
2674.701894, 1176.097367
2675.811330, 1178.338146
2676.917397, 1180.590077
2678.028884, 1182.832019
2679.142548, 1185.082914
2680.256599, 1187.336037
2681.373641, 1189.587354
2682.493174, 1191.842407
2683.612665, 1194.100370
2684.729316, 1196.356149
2685.849740, 1198.603242
2686.972848, 1200.855681
2688.096871, 1203.111326
2689.218362, 1205.366776
2690.345562, 1207.614021
2691.466643, 1209.871463
2692.590072, 1212.113515
2693.716589, 1214.357855
2694.849095, 1216.605751
2695.979407, 1218.864010
2697.111507, 1221.115163
2698.241098, 1223.367924
2699.375008, 1225.612703
2700.500637, 1227.864905
2701.631004, 1230.097105
2702.767137, 1232.336278
2703.906715, 1234.584753
2705.045051, 1236.838132
2706.186901, 1239.086253
2707.323995, 1241.339741
2708.470958, 1243.580111
2709.616795, 1245.838621
2710.767199, 1248.092002
2711.917666, 1250.352426
2713.069652, 1252.610459
2714.222568, 1254.869156
2715.373714, 1254.759758
2716.533133, 1254.649700
2717.682294, 1254.540739
2718.837521, 1254.431327
2719.995522, 1254.321778
2721.152196, 1254.212480
2722.316742, 1254.102565
2723.479888, 1253.992909
2724.633229, 1253.884303
2725.800553, 1253.774507
2726.969435, 1253.664694
2728.133324, 1253.555478
2729.303350, 1253.445815
2730.473502, 1253.336269
2731.644003, 1253.226819
2732.809281, 1253.117987
2733.985438, 1253.008269
2735.159148, 1252.898910
2736.337168, 1252.789281
2737.509389, 1252.680322
2738.691802, 1252.570548
2739.875800, 1252.460760
2741.057762, 1252.351294
2742.240800, 1252.241862
2743.427119, 1252.132260
2744.610040, 1252.023105
2745.794008, 1251.913988
2746.983132, 1251.804530
2748.175008, 1251.694955
2749.362552, 1251.585913
2750.554171, 1251.476633
2751.751778, 1251.366940
2752.948654, 1251.257453
2754.150082, 1251.147687
2755.345721, 1251.038588
2756.548222, 1250.929001
2757.750708, 1250.819555
2758.955033, 1250.710081
2760.161010, 1250.600598
2761.365290, 1250.491408
2762.570656, 1250.382260
2763.781505, 1250.272758
2764.995390, 1250.163123
2766.213124, 1250.053283
2767.427064, 1249.943929
2768.643993, 1249.834450
2769.864735, 1249.724771
2771.088000, 1249.615011
2772.315822, 1249.504989
2773.541398, 1249.395314
2774.769249, 1249.285582
2775.997988, 1249.175918
2777.228218, 1249.066269
2778.458159, 1248.956792
2779.688651, 1248.847415
2780.924151, 1248.737742
2782.161771, 1248.628030
2783.399457, 1248.518462
2784.635388, 1248.409199
2785.880555, 1248.299272
2787.126883, 1248.189394
2788.374290, 1248.079574
2789.614419, 1247.970546
2790.852424, 1247.861856
2792.105271, 1247.752017
2793.359059, 1247.642250
2794.610779, 1247.532819
2795.866078, 1247.423230
2797.128497, 1247.313176
2798.392411, 1247.203150
2799.654819, 1247.093412
2800.916853, 1246.983865
2802.181573, 1246.874243
2803.452273, 1246.764263
2804.722034, 1246.654524
2805.995339, 1246.544639
2807.271226, 1246.434693
2808.545258, 1246.325068
2809.828545, 1246.214810
2811.108052, 1246.105041
2812.389305, 1245.995285
2812.709102, 1245.967915
2813.672454, 1245.885530
2814.961732, 1245.775417
2816.251968, 1245.665388
2817.537853, 1245.555896
2818.829161, 1245.446109
2820.118672, 1245.336641
2821.414426, 1245.226810
2822.712585, 1245.116945
2824.016584, 1245.006756
2825.319255, 1244.896849
2826.634537, 1244.786051
2827.939752, 1244.676273
2829.251580, 1244.566112
2830.564593, 1244.456024
2831.880122, 1244.345900
2833.193951, 1244.236093
2834.516752, 1244.125711
2835.825811, 1244.016650
2837.152642, 1243.906285
2838.471713, 1243.796742
2839.799407, 1243.686660
2841.124510, 1243.576972
2842.461954, 1243.466442
2843.800547, 1243.355999
2845.138788, 1243.245766
2846.480184, 1243.135456
2847.822794, 1243.025230
2849.174442, 1242.914446
2850.529061, 1242.803605
2851.878955, 1242.693337
2853.229303, 1242.583218
2854.590229, 1242.472424
2855.939739, 1242.362745
2857.299650, 1242.252410
2858.659694, 1242.142253
2860.027095, 1242.031690
2861.393401, 1241.921407
2862.766990, 1241.810729
2864.135777, 1241.700630
2865.508617, 1241.590397
2866.890830, 1241.479608
2868.271541, 1241.369134
2869.651902, 1241.258885
2871.039349, 1241.148266
2872.422376, 1241.038197
2873.808358, 1240.928090
2875.195260, 1240.818108
2876.592342, 1240.707519
2877.994486, 1240.596732
2879.391430, 1240.486557
2880.793380, 1240.376190
2882.200833, 1240.265594
2883.615916, 1240.154605
2885.023898, 1240.044378
2886.438845, 1239.933813
2887.853857, 1239.823449
2889.273639, 1239.712923
2890.691727, 1239.602737
2892.121672, 1239.491840
2893.547145, 1239.381502
2894.974196, 1239.271254
2896.414104, 1239.160226
2897.843751, 1239.050203
2899.285241, 1238.939484
2900.729025, 1238.828805
2902.176975, 1238.718026
2903.625094, 1238.607452
2905.073000, 1238.497113
2906.521396, 1238.386955
2907.973397, 1238.276743
2909.429248, 1238.166461
2910.897515, 1238.055462
2912.360046, 1237.945121
2913.836789, 1237.833935
2915.304736, 1237.723638
2916.779854, 1237.613030
2918.253381, 1237.502768
2919.736613, 1237.392011
2921.222686, 1237.281273
2922.700328, 1237.171393
2924.179292, 1237.061646
2925.665932, 1236.951560
2927.146774, 1236.842135
2928.650984, 1236.731219
2930.146557, 1236.621177
2931.649323, 1236.510843
2933.153213, 1236.400665
2934.670410, 1236.289754
2936.193422, 1236.178663
2937.713170, 1236.068054
2939.219187, 1235.958685
2940.744020, 1235.848194
2942.267274, 1235.738063
2943.798928, 1235.627573
2945.321520, 1235.517983
2946.849019, 1235.408287
2948.393362, 1235.297633
2949.921826, 1235.188365
2951.470263, 1235.077923
2953.012850, 1234.968152
2954.562087, 1234.858162
2956.121056, 1234.747738
2957.676880, 1234.637796
2959.242035, 1234.527454
2960.811821, 1234.417048
2962.378215, 1234.307142
2963.950706, 1234.197072
2965.529644, 1234.086816
2967.111908, 1233.976594
2968.694610, 1233.866610
2970.280229, 1233.756692
2971.868945, 1233.646829
2973.451321, 1233.537672
2975.039515, 1233.428384
2976.624192, 1233.319607
2978.230015, 1233.209653
2979.830750, 1233.100322
2981.429947, 1232.991372
2983.040958, 1232.881893
2984.640111, 1232.773497
2986.249581, 1232.664678
2987.864947, 1232.555741
2989.484065, 1232.446832
2991.110924, 1232.337687
2992.729178, 1232.229402
2994.352544, 1232.121058
2995.977437, 1232.012897
2997.616003, 1231.904113
2999.256307, 1231.795505
3000.897473, 1231.687130
3002.555793, 1231.577917
3004.212587, 1231.469102
3005.867357, 1231.360716
3007.524359, 1231.252480
3009.178473, 1231.144730
3010.842415, 1231.036637
3012.510383, 1230.928585
3014.185522, 1230.820371
3015.860510, 1230.712471
3017.537399, 1230.604753
3019.220580, 1230.496937
3020.904659, 1230.389372
3022.594283, 1230.281763
3024.304719, 1230.173144
3025.997829, 1230.065938
3027.699988, 1229.958473
3029.398346, 1229.851563
3031.103684, 1229.744529
3032.806286, 1229.637983
3034.527392, 1229.530599
3036.239723, 1229.424084
3037.967200, 1229.316950
3039.691033, 1229.210367
3041.411603, 1229.104309
3043.153459, 1228.997268
3044.889893, 1228.890890
3046.637698, 1228.784148
3048.367298, 1228.678847
3050.097016, 1228.573865
3051.834583, 1228.468737
3053.569514, 1228.364098
3055.332569, 1228.258101
3057.094435, 1228.152515
3058.849339, 1228.047685
3060.598169, 1227.943553
3062.365412, 1227.838666
3064.148661, 1227.733176
3065.927332, 1227.628304
3067.705893, 1227.523787
3069.483033, 1227.419700
3071.268809, 1227.315457
3073.060672, 1227.211211
3074.836580, 1227.108242
3076.625798, 1227.004852
3078.417969, 1226.901644
3080.227576, 1226.797792
3082.026050, 1226.694935
3083.829221, 1226.592168
3085.650402, 1226.488738
3087.457109, 1226.386492
3089.275053, 1226.283973
3091.089684, 1226.182005
3092.917114, 1226.079685
3094.747580, 1225.977565
3096.576410, 1225.875906
3098.416632, 1225.773987
3100.248963, 1225.672877
3102.087180, 1225.571815
3103.926678, 1225.471057
3105.762996, 1225.370847
3107.612243, 1225.270309
3109.453165, 1225.170600
3111.313052, 1225.070244
3113.187474, 1224.969493
3115.051886, 1224.869666
3116.917665, 1224.770151
3118.792641, 1224.670535
3120.663236, 1224.571541
3122.535866, 1224.472829
3124.414990, 1224.374165
3126.293481, 1224.275927
3128.177349, 1224.177802
3130.041126, 1224.081111
3131.922701, 1223.983889
3133.821317, 1223.886186
3135.702187, 1223.789791
3137.609327, 1223.692452
3139.524123, 1223.595130
3141.427000, 1223.498818
3143.337536, 1223.402525
3145.246644, 1223.306710
3147.159111, 1223.211133
3149.084460, 1223.115325
3151.004529, 1223.020192
3152.939130, 1222.924755
3154.849381, 1222.830928
3156.777335, 1222.736646
3158.719886, 1222.642069
3160.649761, 1222.548527
3162.585535, 1222.455117
3164.531825, 1222.361622
3166.475367, 1222.268682
3168.423344, 1222.175953
3170.376497, 1222.083405
3172.336386, 1221.990966
3174.284154, 1221.899525
3176.239651, 1221.808149
3178.192207, 1221.717337
3180.149781, 1221.626720
3182.119731, 1221.535964
3184.086205, 1221.445802
3186.065714, 1221.355480
3188.038965, 1221.265881
3190.015299, 1221.176580
3191.993507, 1221.087633
3193.987213, 1220.998434
3195.979033, 1220.909764
3197.981130, 1220.821086
3199.987326, 1220.732677
3201.989844, 1220.644882
3204.007597, 1220.556874
3206.036559, 1220.468839
3208.068744, 1220.381128
3210.078750, 1220.294830
3212.086368, 1220.209089
3214.133420, 1220.122130
3216.159275, 1220.036536
3218.177416, 1219.951727
3220.203121, 1219.867062
3222.219584, 1219.783241
3224.240829, 1219.699681
3226.292147, 1219.615348
3228.325648, 1219.532215
3230.369625, 1219.449123
3232.396053, 1219.367210
3234.456145, 1219.284410
3236.517566, 1219.202036
3238.566836, 1219.120622
3240.605351, 1219.040105
3242.645402, 1218.959997
3244.710883, 1218.879368
3246.760891, 1218.799820
3248.834542, 1218.719836
3250.898407, 1218.640712
3252.974912, 1218.561588
3255.051832, 1218.482936
3257.110475, 1218.405456
3259.166312, 1218.328560
3261.251843, 1218.251040
3263.331487, 1218.174229
3265.429402, 1218.097238
3267.502503, 1218.021647
3269.608165, 1217.945365
3271.687190, 1217.870540
3273.788281, 1217.795418
3275.882274, 1217.721045
3277.960613, 1217.647719
3280.059805, 1217.574154
3282.150243, 1217.501390
3284.259399, 1217.428476
3286.349265, 1217.356725
3288.447821, 1217.285173
3290.548505, 1217.214048
3292.666477, 1217.142843
3294.777147, 1217.072388
3296.899346, 1217.002057
3299.010081, 1216.932612
3301.149320, 1216.862744
3303.255036, 1216.794477
3305.358894, 1216.726772
3307.477134, 1216.659110
3309.618326, 1216.591232
3311.761602, 1216.523808
3313.873730, 1216.457873
3316.008744, 1216.391737
3318.165430, 1216.325454
3320.305377, 1216.260207
3322.456202, 1216.195151
3324.597174, 1216.130914
3326.728635, 1216.067478
3328.888626, 1216.003719
3331.038191, 1215.940792
3333.196729, 1215.878130
3335.360225, 1215.815854
3337.531031, 1215.753901
3339.709502, 1215.692267
3341.873626, 1215.631571
3344.060801, 1215.570769
3346.217593, 1215.511342
3348.383576, 1215.452194
3350.550234, 1215.393559
3352.715744, 1215.335487
3354.898737, 1215.277485
3357.073482, 1215.220240
3359.247221, 1215.163557
3359.773236, 1215.149921
