Ground distance, Vertical Forces
   0.000000, 48645.496260
   0.000002, 48645.496260
   0.000020, 48645.496260
   0.000267, 48645.496260
   0.002293, 48645.496260
   0.011378, 48645.496260
   0.030457, 48645.496260
   0.058924, 48645.496260
   0.097099, 48645.496260
   0.144760, 48645.496260
   0.201944, 48645.496260
   0.269024, 48645.496260
   0.345964, 48645.496260
   0.433052, 48645.496260
   0.530664, 48645.496260
   0.638166, 48645.496260
   0.757591, 48645.496260
   0.887552, 48645.496260
   1.027472, 48645.496260
   1.178098, 48645.496260
   1.340360, 48645.496260
   1.514952, 48645.496260
   1.705723, 48645.496260
   1.907138, 48645.496260
   2.121675, 48645.496260
   2.348901, 48645.496260
   2.587560, 48645.496260
   2.835495, 48645.496260
   3.101120, 48645.496260
   3.378479, 48645.496260
   3.672517, 48645.496260
   3.978115, 48645.496260
   4.304465, 48645.496260
   4.642290, 48645.496260
   5.003336, 48645.496260
   5.377695, 48645.496260
   5.767754, 48645.496260
   6.184331, 48645.496260
   6.613627, 48645.496260
   7.060837, 48645.496260
   7.527825, 48645.496260
   8.011365, 48645.496260
   8.510458, 48645.496260
   9.036428, 48645.496260
   9.569152, 48645.496260
  10.129735, 48645.496260
  10.704994, 48645.496260
  11.310352, 48645.496260
  11.931912, 48645.496260
  12.585931, 48645.496260
  13.256776, 48645.496260
  13.946754, 48645.496260
  14.654576, 48645.496260
  15.397560, 48645.496260
  16.156249, 48645.496260
  16.941870, 48645.496260
  17.758612, 48645.496260
  18.615743, 48645.496260
  19.482003, 48645.496260
  20.382617, 48645.496260
  21.300067, 48645.496260
  22.250368, 48645.496260
  23.227163, 48645.496260
  24.223255, 48645.496260
  25.253386, 48645.496260
  26.301741, 48645.496260
  27.385702, 48645.496260
  28.495083, 48645.496260
  29.638243, 48645.496260
  30.819994, 48645.496260
  32.029021, 48645.496260
  33.274288, 48645.496260
  34.529539, 48645.496260
  35.838536, 48645.496260
  37.169749, 48645.496260
  38.548738, 48645.496260
  39.940000, 48645.496260
  41.381748, 48645.496260
  42.852704, 48645.496260
  44.351258, 48645.496260
  45.902284, 48645.496260
  47.466314, 48645.496260
  49.077288, 48645.496260
  50.711205, 48645.496260
  52.407392, 48645.496260
  54.118581, 48645.496260
  55.869768, 48645.496260
  57.660099, 48645.496260
  59.497335, 48645.496260
  61.359540, 48645.496260
  63.276706, 48645.496260
  65.240895, 48645.496260
  67.239266, 48645.496260
  69.276450, 48645.496260
  71.348065, 48645.496260
  73.459036, 48645.496260
  75.619959, 48645.496260
  77.810609, 48645.496260
  80.060362, 48645.496260
  82.373047, 48645.496260
  82.464978, 48645.496260
  82.528172, 48645.496260
  82.584706, 48645.496260
  82.630209, 48645.496260
  82.682746, 48645.496260
  82.722415, 48645.496260
  82.730814, 48645.496260
  82.742058, 48645.496260
  82.744500, 48645.496260
  82.748434, 48645.496260
  82.749713, 48645.496260
  82.749971, 48645.496260
  82.750516, 48645.496260
  82.755967, 48645.496260
  82.799115, 48645.496260
  82.993301, 48645.496260
  83.657283, 48645.496260
  85.304944, 48645.496260
  87.408976, 48645.496260
  89.575477, 48645.496260
  91.781402, 48645.496260
  94.009013, 48645.496260
  96.279594, 48645.496260
  98.601223, 48645.496260
 100.949193, 48645.496260
 103.326500, 48645.496260
 105.759384, 48645.496260
 108.223956, 48645.496260
 110.725641, 48645.496260
 113.260361, 48645.496260
 115.843209, 48645.496260
 118.473432, 48645.496260
 121.124297, 48645.496260
 123.811402, 48645.496260
 126.526812, 48645.496260
 129.303158, 48645.496260
 132.127902, 48645.496260
 134.985553, 48645.496260
 137.887877, 48645.496260
 140.836617, 48645.496260
 143.824210, 48645.496260
 146.871203, 48645.496260
 149.933986, 48645.496260
 153.032435, 48645.496260
 156.197309, 48645.496260
 159.387715, 48645.496260
 162.645077, 48645.496260
 165.936776, 48645.496260
 169.274088, 48645.496260
 172.652274, 48645.496260
 176.048617, 48645.496260
 179.536685, 48645.496260
 183.050009, 48645.496260
 186.635766, 48645.496260
 190.244560, 48645.496260
 193.887820, 48645.496260
 197.605477, 48645.496260
 201.356210, 48645.496260
 205.161112, 48645.496260
 209.008052, 48645.496260
 212.886997, 48645.496260
 216.859717, 48645.496260
 220.853048, 48645.496260
 224.910633, 48645.496260
 229.011239, 48645.496260
 233.156374, 48645.496260
 237.326991, 48645.496260
 241.578689, 48645.496260
 245.858358, 48645.496260
 250.193909, 48645.496260
 254.607921, 48645.496260
 259.068981, 48645.496260
 263.586257, 48645.496260
 268.147215, 48645.496260
 272.777268, 48645.496260
 277.433393, 48645.496260
 282.136695, 48645.496260
 286.892291, 48645.496260
 291.696536, 48645.496260
 296.590589, 48645.496260
 301.512570, 48645.496260
 306.508003, 48645.496260
 311.562020, 48645.496260
 316.657613, 48645.496260
 321.785488, 48645.496260
 326.982519, 48645.496260
 332.239752, 48645.496260
 337.571509, 48645.496260
 342.935138, 48645.496260
 342.978132, 48645.496260
 342.987981, 48645.496260
 342.992084, 48645.496260
 343.000292, 48645.496260
 343.001236, 48645.496260
 343.001766, 48645.496260
 343.002567, 48645.496260
 343.010583, 48645.496260
 343.090743, 48645.496260
 343.560610, 48645.496260
 345.151038, 48645.496260
 349.011579, 48645.496260
 353.908584, 48645.496260
 358.814324, 48645.496260
 363.789207, 48645.496260
 368.789908, 48645.496260
 373.830634, 48645.496260
 378.929699, 48645.496260
 384.094426, 48645.496260
 389.287234, 48645.496260
 394.504828, 48645.496260
 399.807591, 48645.496260
 405.134762, 48645.496260
 410.512376, 48645.496260
 415.946867, 48645.496260
 421.432434, 48645.496260
 426.956984, 48645.496260
 432.532354, 48645.496260
 438.176786, 48645.496260
 443.857398, 48645.496260
 449.585867, 48645.496260
 455.358419, 48645.496260
 461.172015, 48645.496260
 467.066222, 48645.496260
 472.981914, 48645.496260
 478.935330, 48645.496260
 484.958595, 48645.496260
 491.051809, 48645.496260
 497.202637, 48645.496260
 503.377728, 48645.496260
 509.610522, 48645.496260
 515.870879, 48645.496260
 522.216587, 48645.496260
 528.582687, 48645.496260
 535.025603, 48645.496260
 541.490675, 48645.496260
 548.018957, 48645.496260
 554.602449, 48645.496260
 561.227139, 48645.496260
 567.939498, 48645.496260
 574.681296, 48645.496260
 581.469725, 48645.496260
 588.324698, 48645.496260
 595.224520, 48645.496260
 602.157490, 48645.496260
 609.180771, 48645.496260
 616.249192, 48645.496260
 623.390532, 48645.496260
 630.573166, 48645.496260
 637.811779, 48645.496260
 645.078906, 48645.496260
 652.417315, 48645.496260
 659.814552, 48645.496260
 667.256924, 48645.496260
 674.769548, 48645.496260
 682.339680, 48645.496260
 689.980654, 48645.496260
 697.660256, 48645.496260
 705.361521, 48645.496260
 713.133536, 48645.496260
 720.986746, 48645.496260
 728.893026, 48645.496260
 736.883496, 48645.496260
 744.886497, 48645.496260
 752.942673, 48645.496260
 761.067847, 48645.496260
 769.246189, 48645.496260
 777.498605, 48645.496260
 785.789928, 48645.496260
 794.179486, 48645.496260
 802.619640, 48645.496260
 804.320664, 48645.496260
 805.429008, 48645.496260
 806.266570, 48645.496260
 806.941260, 48645.496260
 807.601106, 48645.496260
 808.269603, 48645.496260
 808.759598, 48645.496260
 808.846736, 48645.496260
 808.956558, 48645.496260
 809.084753, 48645.496260
 809.091959, 48645.496260
 809.096288, 48645.496260
 809.099469, 48645.496260
 809.102044, 48645.496260
 809.102875, 48645.496260
 809.103722, 48645.496260
 809.112196, 48645.496260
 809.184956, 48645.496260
 809.647446, 48645.496260
 811.401521, 48645.496260
 817.387276, 48645.496260
 824.816391, 48645.496260
 832.347011, 48645.496260
 839.908181, 48645.496260
 847.535059, 48645.496260
 855.170041, 48645.496260
 862.875915, 48645.496260
 870.626386, 48645.496260
 878.412912, 48645.496260
 886.258746, 48645.496260
 894.146430, 48645.496260
 902.061807, 48645.496260
 910.043946, 48645.496260
 918.067955, 48645.496260
 926.156490, 48645.496260
 934.282546, 48645.496260
 942.442606, 48645.496260
 950.650168, 48645.496260
 958.920306, 48645.496260
 967.212494, 48645.496260
 975.560987, 48645.496260
 983.974526, 48645.496260
 992.438695, 48645.496260
1000.926362, 48645.496260
1009.483690, 48645.496260
1018.077134, 48645.496260
1026.723995, 48645.496260
1035.422907, 48645.496260
1044.149464, 48645.496260
1052.928168, 48645.496260
1061.779019, 48645.496260
1070.679270, 48645.496260
1079.617338, 48645.496260
1088.591955, 48645.496260
1097.622897, 48645.496260
1106.722050, 48645.496260
1115.848548, 48645.496260
1125.042052, 48645.496260
1134.301340, 48645.496260
1143.608690, 48645.496260
1152.939662, 48645.496260
1162.331753, 48645.496260
1171.768866, 48645.496260
1181.263359, 48645.496260
1190.828328, 48645.496260
1200.409868, 48645.496260
1210.030584, 48645.496260
1219.707409, 48645.496260
1229.427794, 48645.496260
1239.214626, 48645.496260
1249.033520, 48645.496260
1258.921983, 48645.496260
1268.894872, 48645.496260
1278.873330, 48645.496260
1288.934180, 48645.496260
1299.033398, 48645.496260
1309.196241, 48645.496260
1319.415106, 48645.496260
1329.672346, 48645.496260
1339.959134, 48645.496260
1350.318971, 48645.496260
1360.777557, 48645.496260
1371.221162, 48645.496260
1381.761668, 48645.496260
1392.317373, 48645.496260
1402.942407, 48645.496260
1413.637891, 48645.496260
1424.362125, 48645.496260
1435.133253, 48645.496260
1445.958134, 48645.496260
1456.853563, 48645.496260
1467.803646, 48645.496260
1478.782453, 48645.496260
1489.858376, 48645.496260
1500.941793, 48645.496260
1512.100027, 48645.496260
1523.309402, 48645.496260
1525.559367, 48645.496260
1533.392139, 48645.496260
1533.842014, 48645.496260
1533.919492, 48645.496260
1533.952375, 48645.496260
1533.960935, 48645.496260
1533.966040, 48645.496260
1533.971849, 48645.496260
1534.029938, 48645.496260
1534.444443, 48645.496260
1537.186137, 48645.496260
1549.193526, 48645.496260
1560.503328, 48645.496260
1571.885401, 48645.496260
1583.317186, 48645.496260
1594.811082, 48645.496260
1606.354091, 48645.496260
1617.943831, 48645.496260
1629.570442, 48645.496260
1641.294711, 48645.496260
1653.042382, 48645.496260
1664.862659, 48645.496260
1676.720316, 48645.496260
1688.623875, 48645.496260
1700.595015, 48645.496260
1712.642404, 48645.496260
1724.716791, 48645.496260
1736.846865, 48645.496260
1749.021272, 48645.496260
1761.254331, 48645.496260
1773.569173, 48645.496260
1785.928302, 48645.496260
1798.336077, 48645.496260
1810.821016, 48645.496260
1823.357185, 48645.496260
1835.940411, 48645.496260
1848.573565, 48645.496260
1861.232156, 48645.496260
1873.965689, 48645.496260
1886.766229, 48645.496260
1899.612434, 48645.496260
1912.496121, 48645.496260
1925.444999, 48645.496260
1938.466103, 48645.496260
1951.529312, 48645.496260
1964.667040, 48645.496260
1977.880512, 48645.496260
1991.130543, 48645.496260
2004.434860, 48645.496260
2017.789072, 48645.496260
2031.209485, 48645.496260
2044.694190, 48645.496260
2058.238826, 48645.496260
2071.848240, 48645.496260
2085.489083, 48645.496260
2099.204236, 48645.496260
2112.959314, 48645.496260
2126.761888, 48645.496260
2140.639399, 48645.496260
2154.568884, 48645.496260
2168.571640, 48645.496260
2182.626969, 48645.496260
2196.755104, 48645.496260
2210.933534, 48645.496260
2218.373211, 48645.496260
2225.154051, 48645.496260
2239.438262, 48645.496260
2253.762921, 48645.496260
2268.189039, 48645.496260
2282.672402, 48645.496260
2297.236083, 48645.496260
2311.826469, 48645.496260
2326.460293, 48645.496260
2341.209636, 48645.496260
2356.034020, 48645.496260
2370.888305, 48645.496260
2385.821785, 48645.496260
2400.807800, 48645.496260
2415.828193, 48645.496260
2430.927557, 48645.496260
2446.076244, 48645.496260
2461.257484, 48645.496260
2476.494942, 48645.496260
2491.806067, 48645.496260
2507.138174, 48645.496260
2522.496437, 48645.496260
2537.910366, 48645.496260
2553.356358, 48645.496260
2568.860215, 48645.496260
2584.369853, 48645.496260
2599.911451, 48645.496260
2600.535232, 48645.496260
2601.374982, 48645.496260
2602.201618, 48645.496260
2602.419057, 48645.496260
2602.695021, 48645.496260
2602.760606, 48645.496260
2602.858575, 48645.496260
2602.865435, 48645.496260
2602.868246, 48645.496260
2602.871134, 48645.496260
2602.900011, 48645.496260
2603.188793, 48645.496260
2604.879053, 48645.496260
2611.588294, 48645.496260
2627.732684, 48645.496260
2644.047985, 48645.496260
2645.133467, 48645.496183
2646.216858, 48645.495947
2647.304536, 48645.495543
2648.391976, 48645.494960
2649.481103, 48645.494190
2650.570288, 48645.493224
2651.658418, 48645.492053
2652.750290, 48645.490663
2653.842806, 48645.489046
2654.935937, 48645.487191
2656.025476, 48645.485098
2657.115562, 48645.482749
2658.211363, 48645.480120
2659.306377, 48645.477215
2660.403513, 48645.474015
2661.499433, 48645.470518
2662.593482, 48645.466717
2663.693696, 48645.462571
2664.795797, 48645.458081
2665.897645, 48645.453243
2666.990052, 48645.448091
2668.086374, 48645.442553
2669.189175, 48645.436599
2670.296022, 48645.430224
2671.392749, 48645.423500
2672.494587, 48645.416325
2673.598660, 48645.408701
2674.701894, 48645.400636
2675.811330, 48645.392061
2676.917397, 48645.383035
2678.028884, 48645.373473
2679.142548, 48645.363383
2680.256599, 48645.352766
2681.373641, 48645.341581
2682.493174, 48645.329815
2683.612665, 48645.317477
2684.729316, 48645.304586
2685.849740, 48645.291051
2686.972848, 48645.276864
2688.096871, 48645.262029
2689.218362, 48645.246579
2690.345562, 48645.230380
2691.466643, 48645.213589
2692.590072, 48645.196064
2693.716589, 48645.177776
2694.849095, 48645.158650
2695.979407, 48645.138805
2697.111507, 48645.118155
2698.241098, 48645.096761
2699.375008, 48645.074476
2700.500637, 48645.051535
2701.631004, 48645.027658
2702.767137, 48645.002796
2703.906715, 48644.976970
2705.045051, 48644.950267
2706.186901, 48644.922553
2707.323995, 48644.894011
2708.470958, 48644.864252
2709.616795, 48644.833529
2710.767199, 48644.801667
2711.917666, 48644.768764
2713.069652, 48644.734757
2714.222568, 48644.699639
2715.373714, 48644.663701
2716.533133, 48644.626616
2717.682294, 48644.588973
2718.837521, 48644.550237
2719.995522, 48644.510502
2721.152196, 48644.469903
2722.316742, 48644.428102
2723.479888, 48644.385420
2724.633229, 48644.342172
2725.800553, 48644.297457
2726.969435, 48644.251725
2728.133324, 48644.205231
2729.303350, 48644.157524
2730.473502, 48644.108834
2731.644003, 48644.059148
2732.809281, 48644.008701
2733.985438, 48643.956784
2735.159148, 48643.903968
2736.337168, 48643.849942
2737.509389, 48643.795164
2738.691802, 48643.738876
2739.875800, 48643.681466
2741.057762, 48643.623105
2742.240800, 48643.563635
2743.427119, 48643.502932
2744.610040, 48643.441332
2745.794008, 48643.378603
2746.983132, 48643.314510
2748.175008, 48643.249168
2749.362552, 48643.182960
2750.554171, 48643.115413
2751.751778, 48643.046397
2752.948654, 48642.976286
2754.150082, 48642.904759
2755.345721, 48642.832428
2756.548222, 48642.758519
2757.750708, 48642.683439
2758.955033, 48642.607064
2760.161010, 48642.529393
2761.365290, 48642.450636
2762.570656, 48642.370606
2763.781505, 48642.288995
2764.995390, 48642.205949
2766.213124, 48642.121395
2767.427064, 48642.035857
2768.643993, 48641.948852
2769.864735, 48641.860304
2771.088000, 48641.770291
2772.315822, 48641.678645
2773.541398, 48641.585863
2774.769249, 48641.491597
2775.997988, 48641.395941
2777.228218, 48641.298839
2778.458159, 48641.200421
2779.688651, 48641.100615
2780.924151, 48640.999041
2782.161771, 48640.895921
2783.399457, 48640.791413
2784.635388, 48640.685668
2785.880555, 48640.577726
2787.126883, 48640.468263
2788.374290, 48640.357275
2789.614419, 48640.245510
2790.852424, 48640.132513
2792.105271, 48640.016705
2793.359059, 48639.899338
2794.610779, 48639.780688
2795.866078, 48639.660210
2797.128497, 48639.537539
2798.392411, 48639.413197
2799.654819, 48639.287474
2800.916853, 48639.160253
2802.181573, 48639.031214
2803.452273, 48638.899998
2804.722034, 48638.767303
2805.995339, 48638.632647
2807.271226, 48638.496115
2808.545258, 48638.358172
2809.828545, 48638.217594
2811.108052, 48638.075791
2812.389305, 48637.932147
2812.709102, 48637.896036
2813.672454, 48637.786631
2814.961732, 48637.638739
2816.251968, 48637.489044
2817.537853, 48637.338160
2818.829161, 48637.184931
2820.118672, 48637.030199
2821.414426, 48636.872983
2822.712585, 48636.713724
2824.016584, 48636.551974
2825.319255, 48636.388608
2826.634537, 48636.221845
2827.939752, 48636.054548
2829.251580, 48635.884579
2830.564593, 48635.712615
2831.880122, 48635.538468
2833.193951, 48635.362685
2834.516752, 48635.183816
2835.825811, 48635.004934
2837.152642, 48634.821715
2838.471713, 48634.637657
2839.799407, 48634.450463
2841.124510, 48634.261693
2842.461954, 48634.069189
2843.800547, 48633.874526
2845.138788, 48633.677910
2846.480184, 48633.478812
2847.822794, 48633.277502
2849.174442, 48633.072775
2850.529061, 48632.865514
2851.878955, 48632.656892
2853.229303, 48632.446109
2854.590229, 48632.231552
2855.939739, 48632.016681
2857.299650, 48631.798016
2858.659694, 48631.577175
2860.027095, 48631.352958
2861.393401, 48631.126728
2862.766990, 48630.897073
2864.135777, 48630.665999
2865.508617, 48630.432004
2866.890830, 48630.194140
2868.271541, 48629.954250
2869.651902, 48629.712130
2871.039349, 48629.466448
2872.422376, 48629.219227
2873.808358, 48628.969143
2875.195260, 48628.716545
2876.592342, 48628.459708
2877.994486, 48628.199526
2879.391430, 48627.937893
2880.793380, 48627.672889
2882.200833, 48627.404384
2883.615916, 48627.131927
2885.023898, 48626.858344
2886.438845, 48626.580893
2887.853857, 48626.300899
2889.273639, 48626.017408
2890.691727, 48625.731692
2892.121672, 48625.440985
2893.547145, 48625.148576
2894.974196, 48624.853223
2896.414104, 48624.552541
2897.843751, 48624.251340
2899.285241, 48623.944950
2900.729025, 48623.635350
2902.176975, 48623.322112
2903.625094, 48623.006076
2905.073000, 48622.687317
2906.521396, 48622.365669
2907.973397, 48622.040418
2909.429248, 48621.711478
2910.897515, 48621.376855
2912.360046, 48621.040657
2913.836789, 48620.698262
2915.304736, 48620.354979
2916.779854, 48620.007067
2918.253381, 48619.656567
2919.736613, 48619.300756
2921.222686, 48618.941232
2922.700328, 48618.580729
2924.179292, 48618.216878
2925.665932, 48617.848078
2927.146774, 48617.477655
2928.650984, 48617.098249
2930.146557, 48616.717874
2931.649323, 48616.332498
2933.153213, 48615.943641
2934.670410, 48615.548095
2936.193422, 48615.147741
2937.713170, 48614.744945
2939.219187, 48614.342526
2940.744020, 48613.931759
2942.267274, 48613.518072
2943.798928, 48613.098719
2945.321520, 48612.678473
2946.849019, 48612.253481
2948.393362, 48611.820338
2949.921826, 48611.388206
2951.470263, 48610.946924
2953.012850, 48610.503792
2954.562087, 48610.055205
2956.121056, 48609.600202
2957.676880, 48609.142507
2959.242035, 48608.678416
2960.811821, 48608.209262
2962.378215, 48607.737426
2963.950706, 48607.260029
2965.529644, 48606.776907
2967.111908, 48606.288969
2968.694610, 48605.797078
2970.280229, 48605.300441
2971.868945, 48604.798967
2973.451321, 48604.295634
2975.039515, 48603.786564
2976.624192, 48603.274730
2978.230015, 48602.752088
2979.830750, 48602.227103
2981.429947, 48601.698625
2983.040958, 48601.162189
2984.640111, 48600.625665
2986.249581, 48600.081608
2987.864947, 48599.531437
2989.484065, 48598.975833
2991.110924, 48598.413370
2992.729178, 48597.849690
2994.352544, 48597.280017
2995.977437, 48596.705568
2997.616003, 48596.121979
2999.256307, 48595.533426
3000.897473, 48594.940200
3002.555793, 48594.336326
3004.212587, 48593.728531
3005.867357, 48593.116998
3007.524359, 48592.500141
3009.178473, 48591.879855
3010.842415, 48591.251330
3012.510383, 48590.616687
3014.185522, 48589.974670
3015.860510, 48589.328043
3017.537399, 48588.675991
3019.220580, 48588.016761
3020.904659, 48587.352420
3022.594283, 48586.681095
3024.304719, 48585.996592
3025.997829, 48585.314146
3027.699988, 48584.623147
3029.398346, 48583.928775
3031.103684, 48583.226596
3032.806286, 48582.520576
3034.527392, 48581.801826
3036.239723, 48581.081681
3037.967200, 48580.350037
3039.691033, 48579.614787
3041.411603, 48578.875786
3043.153459, 48578.122395
3044.889893, 48577.366079
3046.637698, 48576.599481
3048.367298, 48575.835592
3050.097016, 48575.066388
3051.834583, 48574.288379
3053.569514, 48573.506222
3055.332569, 48572.705919
3057.094435, 48571.900634
3058.849339, 48571.093030
3060.598169, 48570.282745
3062.365412, 48569.458361
3064.148661, 48568.620822
3065.927332, 48567.779728
3067.705893, 48566.932972
3069.483033, 48566.081171
3071.268809, 48565.219457
3073.060672, 48564.348971
3074.836580, 48563.480456
3076.625798, 48562.599597
3078.417969, 48561.711400
3080.227576, 48560.808570
3082.026050, 48559.905314
3083.829221, 48558.993701
3085.650402, 48558.066869
3087.457109, 48557.141319
3089.275053, 48556.203880
3091.089684, 48555.261999
3092.917114, 48554.307252
3094.747580, 48553.344641
3096.576410, 48552.376602
3098.416632, 48551.396173
3100.248963, 48550.413595
3102.087180, 48549.421474
3103.926678, 48548.422244
3105.762996, 48547.418322
3107.612243, 48546.400836
3109.453165, 48545.381441
3111.313052, 48544.344952
3113.187474, 48543.293646
3115.051886, 48542.241249
3116.917665, 48541.181368
3118.792641, 48540.109486
3120.663236, 48539.033321
3122.535866, 48537.949182
3124.414990, 48536.854423
3126.293481, 48535.753150
3128.177349, 48534.641798
3130.041126, 48533.535457
3131.922701, 48532.411634
3133.821317, 48531.270574
3135.702187, 48530.133169
3137.609327, 48528.972742
3139.524123, 48527.800411
3141.427000, 48526.628169
3143.337536, 48525.443965
3145.246644, 48524.253380
3147.159111, 48523.053402
3149.084460, 48521.837948
3151.004529, 48520.618424
3152.939130, 48519.382177
3154.849381, 48518.154095
3156.777335, 48516.907166
3158.719886, 48515.643196
3160.649761, 48514.379904
3162.585535, 48513.105154
3164.531825, 48511.815795
3166.475367, 48510.520552
3168.423344, 48509.214613
3170.376497, 48507.897409
3172.336386, 48506.567800
3174.284154, 48505.238597
3176.239651, 48503.896266
3178.192207, 48502.548085
3180.149781, 48501.188532
3182.119731, 48499.812378
3184.086205, 48498.430626
3186.065714, 48497.031599
3188.038965, 48495.628879
3190.015299, 48494.215828
3191.993507, 48492.793266
3193.987213, 48491.351272
3195.979033, 48489.902320
3197.981130, 48488.437494
3199.987326, 48486.961208
3201.989844, 48485.479168
3204.007597, 48483.977287
3206.036559, 48482.458379
3208.068744, 48480.928313
3210.078750, 48479.406321
3212.086368, 48477.877563
3214.133420, 48476.309936
3216.159275, 48474.749738
3218.177416, 48473.186760
3220.203121, 48471.609155
3222.219584, 48470.030008
3224.240829, 48468.438351
3226.292147, 48466.814026
3228.325648, 48465.194860
3230.369625, 48463.558358
3232.396053, 48461.926991
3234.456145, 48460.259410
3236.517566, 48458.581539
3238.566836, 48456.904410
3240.605351, 48455.227021
3242.645402, 48453.539303
3244.710883, 48451.821296
3246.760891, 48450.106941
3248.834542, 48448.363459
3250.898407, 48446.618846
3252.974912, 48444.854112
3255.051832, 48443.079546
3257.110475, 48441.311225
3259.166312, 48439.535992
3261.251843, 48437.725584
3263.331487, 48435.910714
3265.429402, 48434.070198
3267.502503, 48432.241867
3269.608165, 48430.375054
3271.687190, 48428.522189
3273.788281, 48426.639883
3275.882274, 48424.754148
3277.960613, 48422.872835
3280.059805, 48420.962848
3282.150243, 48419.051029
3284.259399, 48417.112170
3286.349265, 48415.181203
3288.447821, 48413.232336
3290.548505, 48411.271577
3292.666477, 48409.284623
3294.777147, 48407.294462
3296.899346, 48405.283294
3299.010081, 48403.272898
3301.149320, 48401.225071
3303.255036, 48399.199214
3305.358894, 48397.165104
3307.477134, 48395.106941
3309.618326, 48393.016116
3311.761602, 48390.912812
3313.873730, 48388.829842
3316.008744, 48386.713967
3318.165430, 48384.566053
3320.305377, 48382.424309
3322.456202, 48380.261126
3324.597174, 48378.097335
3326.728635, 48375.932724
3328.888626, 48373.728509
3331.038191, 48371.524299
3333.196729, 48369.300203
3335.360225, 48367.060245
3337.531031, 48364.801886
3339.709502, 48362.524634
3341.873626, 48360.251542
3344.060801, 48357.943252
3346.217593, 48355.656202
3348.383576, 48353.348578
3350.550234, 48351.029369
3352.715744, 48348.700523
3354.898737, 48346.341870
3357.073482, 48343.981132
3359.247221, 48341.610510
3359.773236, 48341.035202
