Speed, Forces
 129.409423, 5539.619855
 131.084667, 5195.975342
 132.759911, 4906.217230
 134.435155, 4691.863989
 136.110399, 4541.286481
 137.785643, 4408.896673
 139.460887, 4308.181925
 141.136131, 4206.219067
 142.811375, 4123.787688
 144.486619, 4044.588718
 146.161863, 3964.443453
 147.837106, 3898.603537
 149.512350, 3833.911165
 151.187594, 3768.472576
 152.862838, 3711.465295
 154.538082, 3659.986819
 156.213326, 3607.934407
 157.888570, 3555.308059
 159.563814, 3514.029016
 161.239058, 3473.763524
 162.914302, 3433.068275
 164.589545, 3391.943269
 166.264789, 3359.193660
 167.940033, 3330.490948
 169.615277, 3301.494433
 171.290521, 3272.204115
 172.965765, 3242.619994
 174.641009, 3223.917131
 176.316253, 3207.838354
 177.991497, 3191.603007
 179.666741, 3175.211089
 181.341984, 3158.662602
 183.017228, 3143.178477
 184.692472, 3138.194318
 186.367716, 3133.163879
 188.042960, 3128.087159
 189.718204, 3122.964158
 191.393448, 3117.794876
 193.068692, 3112.579313
 194.743936, 3110.550984
 196.419180, 3115.614805
 198.094423, 3120.722777
 199.769667, 3125.874900
 201.444911, 3131.071173
 203.120155, 3136.311597
 204.795399, 3141.596172
 206.470643, 3146.924898
 208.145887, 3152.589609
 209.821131, 3167.902734
 211.496375, 3183.340666
 213.171619, 3198.903406
 214.846862, 3214.590953
 216.522106, 3230.403308
 218.197350, 3246.340471
 219.872594, 3262.402441
 221.547838, 3278.589219
 223.223082, 3294.900805
 224.898326, 3311.337199
 226.573570, 3334.274928
 228.248814, 3361.471617
 229.924058, 3388.871731
 231.599301, 3416.475270
 233.274545, 3444.282235
 234.949789, 3472.292625
 236.625033, 3500.506440
 238.300277, 3528.923680
 239.975521, 3557.544346
 241.650765, 3586.368437
 243.326009, 3615.395953
 245.001253, 3644.626894
 246.676497, 3674.061261
 248.351740, 3703.699053
 250.026984, 3741.303502
 251.702228, 3779.567803
 253.377472, 3818.091182
 255.052716, 3856.873640
 256.727960, 3895.915177
 258.403204, 3935.215793
 260.078448, 3974.775487
 261.753692, 4014.594259
 263.428936, 4054.672110
 265.104180, 4095.009040
 266.779423, 4135.605049
 268.454667, 4176.460136
 270.129911, 4217.574302
 271.805155, 4258.947546
 273.480399, 4300.579869
 275.155643, 4342.471271
 276.830887, 4384.621751
 278.506131, 4427.031310
 280.181375, 4469.699948
 281.856619, 4518.830891
 283.531862, 4568.757690
 285.207106, 4618.984002
 286.882350, 4669.509826
 288.557594, 4720.335162
 290.232838, 4771.460011
 291.908082, 4822.884371
 293.583326, 4874.608243
 295.258570, 4926.631628
