Speed, Forces
 138.379129, 5539.619855
 139.917175, 5263.902702
 141.455221, 4977.511219
 142.993266, 4757.273674
 144.531312, 4625.701472
 146.069357, 4495.557944
 147.607403, 4392.722061
 149.145448, 4305.984953
 150.683494, 4218.324228
 152.221539, 4144.055243
 153.759585, 4076.191941
 155.297631, 4007.628369
 156.835676, 3941.984703
 158.373722, 3886.813291
 159.911767, 3831.089669
 161.449813, 3774.813838
 162.987858, 3723.539075
 164.525904, 3679.406358
 166.063950, 3634.848923
 167.601995, 3589.866768
 169.140041, 3545.741776
 170.678086, 3511.423626
 172.216132, 3476.787451
 173.754177, 3441.833252
 175.292223, 3406.561028
 176.830269, 3373.264728
 178.368314, 3348.716039
 179.906360, 3323.949933
 181.444405, 3298.966409
 182.982451, 3273.765468
 184.520496, 3248.347108
 186.058542, 3229.229838
 187.596587, 3215.452444
 189.134633, 3201.559187
 190.672679, 3187.550066
 192.210724, 3173.425081
 193.748770, 3159.184232
 195.286815, 3144.827520
 196.824861, 3139.748844
 198.362906, 3135.436621
 199.900952, 3131.090149
 201.438998, 3126.709430
 202.977043, 3122.294462
 204.515089, 3117.845245
 206.053134, 3113.361780
 207.591180, 3109.094648
 209.129225, 3113.437108
 210.667271, 3117.812240
 212.205317, 3122.220044
 213.743362, 3126.660521
 215.281408, 3131.133669
 216.819453, 3135.639490
 218.357499, 3140.177983
 219.895544, 3144.749148
 221.433590, 3149.352985
 222.971636, 3157.371846
 224.509681, 3170.570922
 226.047727, 3183.862357
 227.585772, 3197.246151
 229.123818, 3210.722304
 230.661863, 3224.290817
 232.199909, 3237.951688
 233.737954, 3251.704919
 235.276000, 3265.550509
 236.814046, 3279.488458
 238.352091, 3293.518766
 239.890137, 3307.641434
 241.428182, 3324.427112
 242.966228, 3347.746860
 244.504273, 3371.217145
 246.042319, 3394.837967
 247.580365, 3418.609327
 249.118410, 3442.531223
 250.656456, 3466.603657
 252.194501, 3490.826628
 253.732547, 3515.200136
 255.270592, 3539.724181
 256.808638, 3564.398763
 258.346684, 3589.223882
 259.884729, 3614.199539
 261.422775, 3639.325732
 262.960820, 3664.602463
 264.498866, 3690.029731
 266.036911, 3718.464704
 267.574957, 3751.231844
 269.113003, 3784.190706
 270.651048, 3817.341290
 272.189094, 3850.683594
 273.727139, 3884.217620
 275.265185, 3917.943367
 276.803230, 3951.860836
 278.341276, 3985.970025
 279.879321, 4020.270936
 281.417367, 4054.763569
 282.955413, 4089.447922
 284.493458, 4124.323997
 286.031504, 4159.391794
 287.569549, 4194.651311
 289.107595, 4230.102550
 290.645640, 4265.745510
