Speed, Forces
  58.570026, 24641.456780
  59.559573, 22614.205551
  60.549120, 21135.751877
  61.538668, 20264.862349
  62.528215, 19519.809085
  63.517763, 18934.128637
  64.507310, 18410.206419
  65.496858, 17951.892495
  66.486405, 17509.374108
  67.475953, 17136.716421
  68.465500, 16758.435586
  69.455047, 16437.072277
  70.444595, 16137.476331
  71.434142, 15833.555467
  72.423690, 15591.612505
  73.413237, 15357.563302
  74.402785, 15120.275653
  75.392332, 14926.357705
  76.381879, 14759.708096
  77.371427, 14590.844523
  78.360974, 14419.766987
  79.350522, 14316.976379
  80.340069, 14223.447982
  81.329617, 14128.739744
  82.319164, 14032.851665
  83.308712, 13969.630354
  84.298259, 13940.589124
  85.287806, 13911.199143
  86.277354, 13881.460411
  87.266901, 13851.372927
  88.256449, 13837.469536
  89.245996, 13866.837660
  90.235544, 13896.538485
  91.225091, 13926.572009
  92.214638, 13956.938233
  93.204186, 13987.637158
  94.193733, 14018.668783
  95.183281, 14102.325964
  96.172828, 14191.928702
  97.162376, 14282.471934
  98.151923, 14373.955659
  99.141471, 14466.379878
 100.131018, 14559.744590
 101.120565, 14654.049795
 102.110113, 14749.295493
 103.099660, 14900.460900
 104.089208, 15058.768634
 105.078755, 15218.609287
 106.068303, 15379.982859
 107.057850, 15542.889351
 108.047398, 15707.328761
 109.036945, 15873.301091
 110.026492, 16040.806341
 111.016040, 16209.844509
 112.005587, 16380.415597
 112.995135, 16571.979228
 113.984682, 16793.120007
 114.974230, 17016.213083
 115.963777, 17241.258456
 116.953324, 17468.256127
 117.942872, 17697.206096
 118.932419, 17928.108362
 119.921967, 18160.962926
 120.911514, 18395.769787
 121.901062, 18632.528946
 122.890609, 18871.240403
 123.880157, 19111.904157
 124.869704, 19354.520209
 125.859251, 19599.088558
 126.848799, 19845.609205
 127.838346, 20124.939485
 128.827894, 20414.447678
 129.817441, 20706.212856
 130.806989, 21000.235021
 131.796536, 21296.514170
 132.786083, 21595.050305
 133.775631, 21895.843426
 134.765178, 22198.893533
 135.754726, 22504.200624
 136.744273, 22811.764702
 137.733821, 23121.585765
 138.723368, 23433.663813
 139.712916, 23747.998847
 140.702463, 24064.590867
 141.692010, 24383.439872
 142.681558, 24704.545863
 143.671105, 25027.908839
 144.660653, 25353.528801
 145.650200, 25681.405748
 146.639748, 26011.539681
 147.629295, 26343.930599
 148.618843, 26678.578503
 149.608390, 27028.756024
 150.597937, 27402.564620
 151.587485, 27778.860761
 152.577032, 28157.644448
 153.566580, 28538.915681
 154.556127, 28922.674459
 155.545675, 29308.920782
 156.535222, 29697.654651
