Speed, Forces
  62.384551, 24641.456780
  63.312300, 22794.320393
  64.240049, 21489.011625
  65.167797, 20576.002931
  66.095546, 19802.676679
  67.023294, 19282.881201
  67.951043, 18763.847189
  68.878792, 18333.224703
  69.806540, 17928.625816
  70.734289, 17534.640451
  71.662037, 17206.852215
  72.589786, 16874.696594
  73.517535, 16562.933794
  74.445283, 16300.745693
  75.373032, 16035.198516
  76.300780, 15772.057378
  77.228529, 15568.188356
  78.156278, 15361.804099
  79.084026, 15152.904606
  80.011775, 14968.566470
  80.939523, 14822.313267
  81.867272, 14674.340525
  82.795020, 14524.648241
  83.722769, 14384.528388
  84.650518, 14302.923344
  85.578266, 14220.401942
  86.506015, 14136.964182
  87.433763, 14052.610064
  88.361512, 13978.958001
  89.289261, 13953.481881
  90.217009, 13927.734894
  91.144758, 13901.717038
  92.072506, 13875.428315
  93.000255, 13848.868723
  93.928004, 13836.418664
  94.855752, 13862.272668
  95.783501, 13888.385073
  96.711249, 13914.755880
  97.638998, 13941.385088
  98.566747, 13968.272698
  99.494495, 13995.418708
 100.422244, 14025.407410
 101.349992, 14103.606038
 102.277741, 14182.535128
 103.205489, 14262.194680
 104.133238, 14342.584695
 105.060987, 14423.705171
 105.988735, 14505.556109
 106.916484, 14588.137509
 107.844232, 14671.449372
 108.771981, 14755.491696
 109.699730, 14891.957331
 110.627478, 15031.319911
 111.555227, 15171.873079
 112.482975, 15313.616834
 113.410724, 15456.551175
 114.338473, 15600.676105
 115.266221, 15745.991621
 116.193970, 15892.497724
 117.121718, 16040.194415
 118.049467, 16189.081693
 118.977216, 16339.159558
 119.904964, 16492.900522
 120.832713, 16687.069535
 121.760461, 16882.754858
 122.688210, 17079.956491
 123.615958, 17278.674433
 124.543707, 17478.908685
 125.471456, 17680.659247
 126.399204, 17883.926119
 127.326953, 18088.709300
 128.254701, 18295.008791
 129.182450, 18502.824592
 130.110199, 18712.156703
 131.037947, 18923.005124
 131.965696, 19135.369854
 132.893444, 19349.250895
 133.821193, 19564.648244
 134.748942, 19781.561904
 135.676690, 20016.164884
 136.604439, 20270.437374
 137.532187, 20526.462819
 138.459936, 20784.241218
 139.387684, 21043.772572
 140.315433, 21305.056881
 141.243182, 21568.094145
 142.170930, 21832.884363
 143.098679, 22099.427536
 144.026427, 22367.723664
 144.954176, 22637.772746
 145.881925, 22909.574783
 146.809673, 23183.129775
 147.737422, 23458.437721
 148.665170, 23735.498622
 149.592919, 24014.312478
 150.520668, 24294.879289
 151.448416, 24577.199054
 152.376165, 24861.271774
 153.303913, 25147.097449
 154.231662, 25434.676078
