Speed, Forces
  66.573959, 24641.456780
  67.435779, 23112.849828
  68.297599, 21823.941530
  69.159419, 20870.450811
  70.021239, 20200.648688
  70.883059, 19611.749482
  71.744878, 19163.747963
  72.606698, 18710.194572
  73.468518, 18343.521531
  74.330338, 17991.226960
  75.192158, 17634.723062
  76.053978, 17341.852523
  76.915798, 17054.086516
  77.777618, 16763.001171
  78.639438, 16509.420147
  79.501258, 16280.432478
  80.363078, 16048.891815
  81.224898, 15814.798157
  82.086717, 15631.179828
  82.948537, 15452.069993
  83.810357, 15271.048506
  84.672177, 15088.115369
  85.533997, 14942.437850
  86.395817, 14814.761824
  87.257637, 14685.778898
  88.119457, 14555.489072
  88.981277, 14423.892346
  89.843097, 14340.697870
  90.704917, 14269.175905
  91.566737, 14196.957482
  92.428557, 14124.042601
  93.290376, 14050.431261
  94.152196, 13981.554442
  95.014016, 13959.383800
  95.875836, 13937.007291
  96.737656, 13914.424914
  97.599476, 13891.636670
  98.461296, 13868.642559
  99.323116, 13845.442580
 100.184936, 13836.420124
 101.046756, 13858.945122
 101.908576, 13881.666513
 102.770396, 13904.584296
 103.632215, 13927.698471
 104.494035, 13951.009039
 105.355855, 13974.516000
 106.217675, 13998.219353
 107.079495, 14023.417244
 107.941315, 14091.533415
 108.803135, 14160.204758
 109.664955, 14229.431274
 110.526775, 14299.212961
 111.388595, 14369.549821
 112.250415, 14440.441853
 113.112235, 14511.889057
 113.974054, 14583.891433
 114.835874, 14656.448981
 115.697694, 14729.561702
 116.559514, 14831.593805
 117.421334, 14952.570705
 118.283154, 15074.452485
 119.144974, 15197.239145
 120.006794, 15320.930686
 120.868614, 15445.527108
 121.730434, 15571.028410
 122.592254, 15697.434593
 123.454074, 15824.745657
 124.315893, 15952.961601
 125.177713, 16082.082425
 126.039533, 16212.108130
 126.901353, 16343.038716
 127.763173, 16474.874182
 128.624993, 16642.147106
 129.486813, 16812.355197
 130.348633, 16983.715726
 131.210453, 17156.228694
 132.072273, 17329.894102
 132.934093, 17504.711949
 133.795913, 17680.682235
 134.657733, 17857.804960
 135.519552, 18036.080124
 136.381372, 18215.507728
 137.243192, 18396.087771
 138.105012, 18577.820252
 138.966832, 18760.705173
 139.828652, 18944.742533
 140.690472, 19129.932333
 141.552292, 19316.274571
 142.414112, 19503.769249
 143.275932, 19692.416366
 144.137752, 19882.215921
 144.999572, 20100.761244
 145.861391, 20322.846714
 146.723211, 20546.264480
 147.585031, 20771.014542
 148.446851, 20997.096901
 149.308671, 21224.511556
 150.170491, 21453.258506
 151.032311, 21683.337753
 151.894131, 21914.749296
