Speed, Forces
 121.265867, 5539.619855
 123.069266, 5124.367076
 124.872665, 4830.921992
 126.676064, 4625.669472
 128.479463, 4451.818815
 130.282862, 4334.964143
 132.086261, 4218.280655
 133.889660, 4121.472869
 135.693059, 4030.515421
 137.496458, 3941.943988
 139.299857, 3868.254261
 141.103256, 3793.582706
 142.906655, 3723.495641
 144.710054, 3664.553411
 146.513453, 3604.856031
 148.316852, 3545.699550
 150.120251, 3499.867970
 151.923650, 3453.470944
 153.727049, 3406.508469
 155.530448, 3365.067608
 157.333847, 3332.188580
 159.137246, 3298.922984
 160.940645, 3265.270820
 162.744044, 3233.770624
 164.547443, 3215.425080
 166.350842, 3196.873531
 168.154241, 3178.115976
 169.957639, 3159.152416
 171.761038, 3142.594774
 173.564437, 3136.867514
 175.367836, 3131.079361
 177.171235, 3125.230315
 178.974634, 3119.320374
 180.778033, 3113.349541
 182.581432, 3110.550656
 184.384831, 3116.362867
 186.188230, 3122.233170
 187.991629, 3128.161563
 189.795028, 3134.148047
 191.598427, 3140.192622
 193.401826, 3146.295288
 195.205225, 3153.037016
 197.008624, 3170.616767
 198.812023, 3188.360733
 200.615422, 3206.268912
 202.418821, 3224.341307
 204.222220, 3242.577915
 206.025619, 3260.978738
 207.829018, 3279.543775
 209.632417, 3298.273027
 211.435816, 3317.166493
 213.239215, 3347.845188
 215.042614, 3379.175143
 216.846013, 3410.772752
 218.649412, 3442.638015
 220.452811, 3474.770934
 222.256210, 3507.171507
 224.059609, 3539.839734
 225.863008, 3572.775617
 227.666407, 3605.979154
 229.469806, 3639.450345
 231.273205, 3673.189191
 233.076604, 3707.751535
 234.880003, 3751.402466
 236.683402, 3795.394276
 238.486801, 3839.726967
 240.290200, 3884.400537
 242.093599, 3929.414988
 243.896998, 3974.770319
 245.700397, 4020.466529
 247.503796, 4066.503620
 249.307195, 4112.881590
 251.110594, 4159.600441
 252.913993, 4206.660172
 254.717392, 4254.060782
 256.520791, 4301.802273
 258.324190, 4349.884643
 260.127589, 4398.307894
 261.930988, 4447.072025
 263.734387, 4499.812872
 265.537786, 4556.975602
 267.341185, 4614.532412
 269.144584, 4672.483301
 270.947983, 4730.828271
 272.751382, 4789.567320
 274.554781, 4848.700449
 276.358180, 4908.227658
 278.161579, 4968.148947
 279.964978, 5028.464316
 281.768377, 5089.173765
 283.571776, 5150.277294
 285.375175, 5211.774902
 287.178574, 5273.666591
 288.981973, 5335.952359
 290.785372, 5398.632208
 292.588771, 5461.706136
 294.392170, 5525.174144
 296.195569, 5589.036232
 297.998968, 5653.292400
 299.802367, 5717.942647
