Speed, Forces
 148.289138, 3549.377866
 149.679755, 3527.600627
 151.070372, 3505.823388
 152.460989, 3484.750486
 153.851606, 3467.235506
 155.242223, 3449.720526
 156.632841, 3432.205546
 158.023458, 3414.690566
 159.414075, 3397.175585
 160.804692, 3379.660605
 162.195309, 3362.145625
 163.585926, 3344.630645
 164.976543, 3327.115665
 166.367160, 3309.600684
 167.757777, 3292.085704
 169.148395, 3274.570724
 170.539012, 3257.055744
 171.929629, 3239.540764
 173.320246, 3222.025783
 174.710863, 3207.583690
 176.101480, 3193.150139
 177.492097, 3178.716588
 178.882714, 3164.283036
 180.273331, 3149.849485
 181.663949, 3135.415934
 183.054566, 3120.982382
 184.445183, 3106.548831
 185.835800, 3092.115280
 187.226417, 3077.681729
 188.617034, 3063.248177
 190.007651, 3048.814626
 191.398268, 3034.381075
 192.788885, 3019.947523
 194.179503, 3005.513972
 195.570120, 2992.945313
 196.960737, 2980.760753
 198.351354, 2968.576193
 199.741971, 2956.391633
 201.132588, 2944.207073
 202.523205, 2932.022513
 203.913822, 2919.837954
 205.304439, 2907.653394
 206.695057, 2895.468834
 208.085674, 2883.284274
 209.476291, 2871.099714
 210.866908, 2858.915154
 212.257525, 2846.730594
 213.648142, 2834.546034
 215.038759, 2822.361474
 216.429376, 2811.403126
 217.819993, 2801.073133
 219.210611, 2790.743141
 220.601228, 2780.413149
 221.991845, 2770.083157
 223.382462, 2759.753165
 224.773079, 2749.423172
 226.163696, 2739.093180
 227.554313, 2728.763188
 228.944930, 2718.433196
 230.335547, 2708.103203
 231.726165, 2697.773211
 233.116782, 2687.443219
 234.507399, 2677.113227
 235.898016, 2666.783235
 237.288633, 2657.066722
 238.679250, 2647.980682
 240.069867, 2638.894643
 241.460484, 2629.808604
 242.851101, 2620.722564
 244.241719, 2611.636525
 245.632336, 2602.550485
 247.022953, 2593.464446
 248.413570, 2584.378407
 249.804187, 2575.292367
 251.194804, 2566.206328
 252.585421, 2557.120288
 253.976038, 2548.034249
 255.366655, 2538.948210
 256.757273, 2529.862170
 258.147890, 2521.040392
 259.538507, 2512.767112
 260.929124, 2504.493831
 262.319741, 2496.220550
 263.710358, 2487.947270
 265.100975, 2479.673989
 266.491592, 2471.400709
 267.882209, 2463.127428
 269.272827, 2454.854147
 270.663444, 2446.580867
 272.054061, 2438.307586
 273.444678, 2430.034306
 274.835295, 2421.761025
 276.225912, 2413.487744
 277.616529, 2405.214464
 279.007146, 2396.980299
 280.397763, 2388.955968
 281.788381, 2380.931636
 283.178998, 2372.907304
 284.569615, 2364.882972
 285.960232, 2356.858640
