Speed, Forces
 129.409423, 4815.581393
 131.084667, 4780.136614
 132.759911, 4744.691835
 134.435155, 4709.247056
 136.110399, 4677.949200
 137.785643, 4647.407683
 139.460887, 4616.866166
 141.136131, 4586.324649
 142.811375, 4555.783132
 144.486619, 4525.241615
 146.161863, 4494.700097
 147.837106, 4464.158580
 149.512350, 4433.617063
 151.187594, 4403.075546
 152.862838, 4372.534029
 154.538082, 4341.992512
 156.213326, 4311.450995
 157.888570, 4282.601378
 159.563814, 4254.207630
 161.239058, 4225.813882
 162.914302, 4197.420134
 164.589545, 4169.026387
 166.264789, 4140.632639
 167.940033, 4112.238891
 169.615277, 4083.845143
 171.290521, 4055.451395
 172.965765, 4027.057647
 174.641009, 3998.663899
 176.316253, 3970.270151
 177.991497, 3941.876403
 179.666741, 3915.328843
 181.341984, 3889.465013
 183.017228, 3863.601182
 184.692472, 3837.737351
 186.367716, 3811.873521
 188.042960, 3786.009690
 189.718204, 3760.145859
 191.393448, 3734.282029
 193.068692, 3708.418198
 194.743936, 3682.554367
 196.419180, 3656.690537
 198.094423, 3630.826706
 199.769667, 3604.962875
 201.444911, 3580.943301
 203.120155, 3557.824951
 204.795399, 3534.706602
 206.470643, 3511.588252
 208.145887, 3488.469902
 209.821131, 3465.351552
 211.496375, 3442.233202
 213.171619, 3419.114853
 214.846862, 3395.996503
 216.522106, 3372.878153
 218.197350, 3349.759803
 219.872594, 3326.641454
 221.547838, 3303.523104
 223.223082, 3281.995976
 224.898326, 3261.470327
 226.573570, 3240.944677
 228.248814, 3220.419028
 229.924058, 3199.893379
 231.599301, 3179.367730
 233.274545, 3158.842080
 234.949789, 3138.316431
 236.625033, 3117.790782
 238.300277, 3097.265133
 239.975521, 3076.739483
 241.650765, 3056.213834
 243.326009, 3035.688185
 245.001253, 3016.112299
 246.676497, 2997.295682
 248.351740, 2978.479066
 250.026984, 2959.662449
 251.702228, 2940.845832
 253.377472, 2922.029215
 255.052716, 2903.212599
 256.727960, 2884.395982
 258.403204, 2865.579365
 260.078448, 2846.762748
 261.753692, 2827.946132
 263.428936, 2809.129515
 265.104180, 2790.312898
 266.779423, 2772.029706
 268.454667, 2754.284825
 270.129911, 2736.539944
 271.805155, 2718.795063
 273.480399, 2701.050183
 275.155643, 2683.305302
 276.830887, 2665.560421
 278.506131, 2647.815540
 280.181375, 2630.070659
 281.856619, 2612.325778
 283.531862, 2594.580897
 285.207106, 2576.836016
 286.882350, 2559.091135
 288.557594, 2541.270666
 290.232838, 2523.353886
 291.908082, 2505.437106
 293.583326, 2487.520326
 295.258570, 2469.603545
