Speed, Forces
  62.384551, 22858.734401
  63.312300, 22673.189431
  64.240049, 22487.644461
  65.167797, 22302.099491
  66.095546, 22116.554521
  67.023294, 21931.009551
  67.951043, 21745.464581
  68.878792, 21559.919611
  69.806540, 21374.374641
  70.734289, 21201.114854
  71.662037, 21038.256572
  72.589786, 20875.398291
  73.517535, 20712.540010
  74.445283, 20549.681729
  75.373032, 20386.823447
  76.300780, 20223.965166
  77.228529, 20061.106885
  78.156278, 19898.248603
  79.084026, 19735.390322
  80.011775, 19572.532041
  80.939523, 19409.673759
  81.867272, 19250.751272
  82.795020, 19106.983733
  83.722769, 18963.216194
  84.650518, 18819.448655
  85.578266, 18675.681115
  86.506015, 18531.913576
  87.433763, 18388.146037
  88.361512, 18244.378497
  89.289261, 18100.610958
  90.217009, 17956.843419
  91.144758, 17813.075880
  92.072506, 17669.308340
  93.000255, 17525.540801
  93.928004, 17395.175835
  94.855752, 17266.799319
  95.783501, 17138.422803
  96.711249, 17010.046287
  97.638998, 16881.669771
  98.566747, 16753.293255
  99.494495, 16624.916739
 100.422244, 16496.540223
 101.349992, 16368.163707
 102.277741, 16239.787191
 103.205489, 16111.410675
 104.133238, 15983.034159
 105.060987, 15861.441199
 105.988735, 15745.733523
 106.916484, 15630.025847
 107.844232, 15514.318171
 108.771981, 15398.610495
 109.699730, 15282.902819
 110.627478, 15167.195143
 111.555227, 15051.487468
 112.482975, 14935.779792
 113.410724, 14820.072116
 114.338473, 14704.364440
 115.266221, 14588.656764
 116.193970, 14476.014236
 117.121718, 14375.625498
 118.049467, 14275.236760
 118.977216, 14174.848022
 119.904964, 14074.459284
 120.832713, 13974.070546
 121.760461, 13873.681808
 122.688210, 13773.293070
 123.615958, 13672.904332
 124.543707, 13572.515593
 125.471456, 13472.126855
 126.399204, 13371.738117
 127.326953, 13271.349379
 128.254701, 13177.000097
 129.182450, 13083.595518
 130.110199, 12990.190940
 131.037947, 12896.786361
 131.965696, 12803.381783
 132.893444, 12709.977204
 133.821193, 12616.572625
 134.748942, 12523.168047
 135.676690, 12429.763468
 136.604439, 12336.358889
 137.532187, 12242.954311
 138.459936, 12149.549732
 139.387684, 12057.541707
 140.315433, 11966.775255
 141.243182, 11876.008803
 142.170930, 11785.242352
 143.098679, 11694.475900
 144.026427, 11603.709448
 144.954176, 11512.942997
 145.881925, 11422.176545
 146.809673, 11331.410093
 147.737422, 11240.643641
 148.665170, 11149.877190
 149.592919, 11059.110738
 150.520668, 10968.227907
 151.448416, 10876.861628
 152.376165, 10785.495348
 153.303913, 10694.129068
 154.231662, 10602.762788
