Speed, Forces
  76.286523, 15788.419342
  77.001918, 15691.549358
  77.717314, 15594.679375
  78.432709, 15500.942438
  79.148104, 15423.031924
  79.863499, 15345.121411
  80.578895, 15267.210897
  81.294290, 15189.300384
  82.009685, 15111.389870
  82.725080, 15033.479357
  83.440476, 14955.568843
  84.155871, 14877.658330
  84.871266, 14799.747816
  85.586661, 14721.837303
  86.302057, 14643.926789
  87.017452, 14566.016276
  87.732847, 14488.105762
  88.448242, 14410.195249
  89.163638, 14332.284735
  89.879033, 14268.043104
  90.594428, 14203.839469
  91.309823, 14139.635834
  92.025219, 14075.432199
  92.740614, 14011.228565
  93.456009, 13947.024930
  94.171404, 13882.821295
  94.886800, 13818.617660
  95.602195, 13754.414025
  96.317590, 13690.210390
  97.032985, 13626.006755
  97.748381, 13561.803120
  98.463776, 13497.599485
  99.179171, 13433.395850
  99.894566, 13369.192215
 100.609962, 13313.284035
 101.325357, 13259.084412
 102.040752, 13204.884789
 102.756147, 13150.685167
 103.471543, 13096.485544
 104.186938, 13042.285921
 104.902333, 12988.086298
 105.617728, 12933.886675
 106.333124, 12879.687052
 107.048519, 12825.487429
 107.763914, 12771.287807
 108.479309, 12717.088184
 109.194705, 12662.888561
 109.910100, 12608.688938
 110.625495, 12554.489315
 111.340890, 12505.744153
 112.056286, 12459.794058
 112.771681, 12413.843963
 113.487076, 12367.893869
 114.202471, 12321.943774
 114.917867, 12275.993679
 115.633262, 12230.043585
 116.348657, 12184.093490
 117.064052, 12138.143395
 117.779448, 12092.193300
 118.494843, 12046.243206
 119.210238, 12000.293111
 119.925633, 11954.343016
 120.641028, 11908.392922
 121.356424, 11862.442827
 122.071819, 11819.221625
 122.787214, 11778.804908
 123.502609, 11738.388191
 124.218005, 11697.971474
 124.933400, 11657.554758
 125.648795, 11617.138041
 126.364190, 11576.721324
 127.079586, 11536.304607
 127.794981, 11495.887890
 128.510376, 11455.471173
 129.225771, 11415.054457
 129.941167, 11374.637740
 130.656562, 11334.221023
 131.371957, 11293.804306
 132.087352, 11253.387589
 132.802748, 11214.146365
 133.518143, 11177.344980
 134.233538, 11140.543594
 134.948933, 11103.742209
 135.664329, 11066.940823
 136.379724, 11030.139437
 137.095119, 10993.338052
 137.810514, 10956.536666
 138.525910, 10919.735280
 139.241305, 10882.933895
 139.956700, 10846.132509
 140.672095, 10809.331124
 141.387491, 10772.529738
 142.102886, 10735.728352
 142.818281, 10698.926967
 143.533676, 10662.299579
 144.249072, 10626.605573
 144.964467, 10590.911566
 145.679862, 10555.217560
 146.395257, 10519.523554
 147.110653, 10483.829547
