Speed, Forces
 113.851022, 5442.329708
 115.774548, 5389.602845
 117.698074, 5340.848175
 119.621601, 5292.093505
 121.545127, 5243.338835
 123.468653, 5194.584165
 125.392180, 5145.829495
 127.315706, 5097.074825
 129.239232, 5048.320155
 131.162759, 4999.565486
 133.086285, 4950.810816
 135.009811, 4902.056146
 136.933338, 4853.301476
 138.856864, 4806.574799
 140.780390, 4765.623433
 142.703917, 4724.672067
 144.627443, 4683.720701
 146.550969, 4642.769335
 148.474496, 4601.817969
 150.398022, 4560.866603
 152.321548, 4519.915237
 154.245075, 4478.963871
 156.168601, 4438.012505
 158.092127, 4397.061139
 160.015654, 4356.109773
 161.939180, 4317.976438
 163.862706, 4282.573863
 165.786233, 4247.171289
 167.709759, 4211.768714
 169.633285, 4176.366139
 171.556812, 4140.963564
 173.480338, 4105.560990
 175.403864, 4070.158415
 177.327391, 4034.755840
 179.250917, 3999.353265
 181.174443, 3963.950690
 183.097970, 3928.548116
 185.021496, 3896.149220
 186.945023, 3864.720639
 188.868549, 3833.292058
 190.792075, 3801.863476
 192.715602, 3770.434895
 194.639128, 3739.006314
 196.562654, 3707.577733
 198.486181, 3676.149151
 200.409707, 3644.720570
 202.333233, 3613.291989
 204.256760, 3581.863407
 206.180286, 3550.445854
 208.103812, 3521.912419
 210.027339, 3493.378983
 211.950865, 3464.845548
 213.874391, 3436.312113
 215.797918, 3407.778678
 217.721444, 3379.245242
 219.644970, 3350.711807
 221.568497, 3322.178372
 223.492023, 3293.644936
 225.415549, 3265.111501
 227.339076, 3236.578066
 229.262602, 3208.971899
 231.186128, 3184.121403
 233.109655, 3159.270907
 235.033181, 3134.420411
 236.956707, 3109.569914
 238.880234, 3084.719418
 240.803760, 3059.868922
 242.727286, 3035.018426
 244.650813, 3010.167930
 246.574339, 2985.317434
 248.497865, 2960.466938
 250.421392, 2935.616441
 252.344918, 2911.415818
 254.268444, 2887.865721
 256.191971, 2864.315624
 258.115497, 2840.765526
 260.039023, 2817.215429
 261.962550, 2793.665331
 263.886076, 2770.115234
 265.809602, 2746.565137
 267.733129, 2723.015039
 269.656655, 2699.464942
 271.580181, 2675.914845
 273.503708, 2652.364747
 275.427234, 2628.936767
 277.350760, 2605.549989
 279.274287, 2582.163212
 281.197813, 2558.776435
 283.121339, 2535.389658
 285.044866, 2512.002881
 286.968392, 2488.616104
 288.891918, 2465.229327
 290.815445, 2441.842549
 292.738971, 2418.455772
 294.662498, 2395.068995
 296.586024, 2371.682218
 298.509550, 2348.332712
 300.433077, 2324.983367
 302.356603, 2301.634023
 304.280129, 2278.284678
