Speed, Forces
  58.570026, 24208.688646
  59.559573, 23974.147871
  60.549120, 23757.276294
  61.538668, 23540.404718
  62.528215, 23323.533142
  63.517763, 23106.661565
  64.507310, 22889.789989
  65.496858, 22672.918413
  66.486405, 22456.046836
  67.475953, 22239.175260
  68.465500, 22022.303684
  69.455047, 21805.432107
  70.444595, 21588.560531
  71.434142, 21380.709914
  72.423690, 21198.549163
  73.413237, 21016.388412
  74.402785, 20834.227660
  75.392332, 20652.066909
  76.381879, 20469.906158
  77.371427, 20287.745406
  78.360974, 20105.584655
  79.350522, 19923.423903
  80.340069, 19741.263152
  81.329617, 19559.102401
  82.319164, 19376.941649
  83.308712, 19207.316126
  84.298259, 19049.837628
  85.287806, 18892.359130
  86.277354, 18734.880631
  87.266901, 18577.402133
  88.256449, 18419.923635
  89.245996, 18262.445136
  90.235544, 18104.966638
  91.225091, 17947.488140
  92.214638, 17790.009641
  93.204186, 17632.531143
  94.193733, 17475.052645
  95.183281, 17330.935178
  96.172828, 17191.133884
  97.162376, 17051.332589
  98.151923, 16911.531294
  99.141471, 16771.730000
 100.131018, 16631.928705
 101.120565, 16492.127410
 102.110113, 16352.326116
 103.099660, 16212.524821
 104.089208, 16072.723527
 105.078755, 15932.922232
 106.068303, 15793.169992
 107.057850, 15666.246948
 108.047398, 15539.323905
 109.036945, 15412.400861
 110.026492, 15285.477817
 111.016040, 15158.554774
 112.005587, 15031.631730
 112.995135, 14904.708687
 113.984682, 14777.785643
 114.974230, 14650.862599
 115.963777, 14523.939556
 116.953324, 14397.016512
 117.942872, 14274.218164
 118.932419, 14163.677650
 119.921967, 14053.137136
 120.911514, 13942.596622
 121.901062, 13832.056107
 122.890609, 13721.515593
 123.880157, 13610.975079
 124.869704, 13500.434565
 125.859251, 13389.894051
 126.848799, 13279.353537
 127.838346, 13168.813023
 128.827894, 13058.272509
 129.817441, 12950.622774
 130.806989, 12845.866722
 131.796536, 12741.110670
 132.786083, 12636.354617
 133.775631, 12531.598565
 134.765178, 12426.842513
 135.754726, 12322.086461
 136.744273, 12217.330409
 137.733821, 12112.574356
 138.723368, 12007.818304
 139.712916, 11903.062252
 140.702463, 11798.306200
 141.692010, 11694.093350
 142.681558, 11590.063783
 143.671105, 11486.034215
 144.660653, 11382.004647
 145.650200, 11277.975080
 146.639748, 11173.945512
 147.629295, 11069.915944
 148.618843, 10965.886377
 149.608390, 10861.856809
 150.597937, 10757.827241
 151.587485, 10653.797674
 152.577032, 10549.768106
 153.566580, 10445.904329
 154.556127, 10342.041270
 155.545675, 10238.178211
 156.535222, 10134.315152
