Time, Angles
   0.000100,    0.000000
   0.000546,    0.000000
   0.002149,    0.000000
   0.006197,    0.000000
   0.029562,    0.000000
   0.060933,    0.000000
   0.093189,    0.000000
   0.125348,    0.000000
   0.157614,    0.000000
   0.190058,    0.000000
   0.222468,    0.000000
   0.254951,    0.000000
   0.287777,    0.000000
   0.320857,    0.000000
   0.354035,    0.000000
   0.387452,    0.000000
   0.420615,    0.000000
   0.454301,    0.000000
   0.488321,    0.000000
   0.522251,    0.000000
   0.556137,    0.000000
   0.590321,    0.000000
   0.624928,    0.000000
   0.660398,    0.000000
   0.695949,    0.000000
   0.731740,    0.000000
   0.768104,    0.000000
   0.804060,    0.000000
   0.840370,    0.000000
   0.876982,    0.000000
   0.914101,    0.000000
   0.951658,    0.000000
   0.988838,    0.000000
   1.026793,    0.000000
   1.065397,    0.000000
   1.103976,    0.000000
   1.143151,    0.000000
   1.182394,    0.000000
   1.222258,    0.000000
   1.263003,    0.000000
   1.303129,    0.000000
   1.343801,    0.000000
   1.385122,    0.000000
   1.426504,    0.000000
   1.468661,    0.000000
   1.510961,    0.000000
   1.553611,    0.000000
   1.597311,    0.000000
   1.641118,    0.000000
   1.684728,    0.000000
   1.729383,    0.000000
   1.773361,    0.000000
   1.818570,    0.000000
   1.864190,    0.000000
   1.908826,    0.000000
   1.954874,    0.000000
   2.001059,    0.000000
   2.047405,    0.000000
   2.093693,    0.000000
   2.141499,    0.000000
   2.188550,    0.000000
   2.237237,    0.000000
   2.285988,    0.000000
   2.334612,    0.000000
   2.383876,    0.000000
   2.433310,    0.000000
   2.483187,    0.000000
   2.533685,    0.000000
   2.584099,    0.000000
   2.635129,    0.000000
   2.686124,    0.000000
   2.737353,    0.000000
   2.789075,    0.000000
   2.841924,    0.000000
   2.894802,    0.000000
   2.947451,    0.000000
   3.001070,    0.000000
   3.054693,    0.000000
   3.108547,    0.000000
   3.163056,    0.000000
   3.218142,    0.000000
   3.273079,    0.000000
   3.327817,    0.000000
   3.383165,    0.000000
   3.439275,    0.000000
   3.495146,    0.000000
   3.551543,    0.000000
   3.608780,    0.000000
   3.665993,    0.000000
   3.724277,    0.000000
   3.782273,    0.000000
   3.841024,    0.000000
   3.899242,    0.000000
   3.958142,    0.000000
   4.017452,    0.000000
   4.077609,    0.000000
   4.137237,    0.000000
   4.197381,    0.000000
   4.257715,    0.000000
   4.260150,    0.000000
   4.267618,    0.000000
   4.268520,    0.000000
   4.268691,    0.000000
   4.268895,    0.000000
   4.268955,    0.000000
   4.268966,    0.000000
   4.268972,    0.000000
   4.268980,    0.000000
   4.269057,    0.000000
   4.269829,    0.000000
   4.273557,    0.000000
   4.285581,    0.000000
   4.318262,    0.000000
   4.374337,    0.000000
   4.429291,    0.000000
   4.484291,    0.000000
   4.539999,    0.000000
   4.595297,    0.000000
   4.651143,    0.000000
   4.707001,    0.000000
   4.763132,    0.000000
   4.819552,    0.000000
   4.876550,    0.000000
   4.933495,    0.000000
   4.990711,    0.000000
   5.048058,    0.000000
   5.105726,    0.000000
   5.163870,    0.000000
   5.221963,    0.000000
   5.280090,    0.000000
   5.338750,    0.000000
   5.397865,    0.000000
   5.457046,    0.000000
   5.516149,    0.000000
   5.575655,    0.000000
   5.635263,    0.000000
   5.695222,    0.000000
   5.755496,    0.000000
   5.816024,    0.000000
   5.877001,    0.000000
   5.938293,    0.000000
   5.999230,    0.000000
   6.061523,    0.000000
   6.123098,    0.000000
   6.184435,    0.000000
   6.246819,    0.000000
   6.309339,    0.000000
   6.372362,    0.000000
   6.435312,    0.000000
   6.498433,    0.000000
   6.561408,    0.000000
   6.624804,    0.000000
   6.688776,    0.000000
   6.752540,    0.000000
   6.816650,    0.000000
   6.881183,    0.000000
   6.946192,    0.000000
   7.011132,    0.000000
   7.075949,    0.000000
   7.141445,    0.000000
   7.207512,    0.000000
   7.273467,    0.000000
   7.339363,    0.000000
   7.405607,    0.000000
   7.471957,    0.000000
   7.538583,    0.000000
   7.605485,    0.000000
   7.672824,    0.000000
   7.740024,    0.000000
   7.807374,    0.000000
   7.875182,    0.000000
   7.942890,    0.000000
   8.010981,    0.000000
   8.079821,    0.000000
   8.148400,    0.000000
   8.217422,    0.000000
   8.286311,    0.000000
   8.355637,    0.000000
   8.425094,    0.000000
   8.494764,    0.000000
   8.564517,    0.000000
   8.634688,    0.000000
   8.705209,    0.000000
   8.719414,    0.000000
   8.728740,    0.000000
   8.734989,    0.000000
   8.739889,    0.000000
   8.743890,    0.000000
   8.747445,    0.000000
   8.750200,    0.000000
   8.752477,    0.000000
   8.755019,    0.000000
   8.757313,    0.000000
   8.757748,    0.000000
   8.758269,    0.000000
   8.758860,    0.000000
   8.758999,    0.000000
   8.759264,    0.000000
   8.759337,    0.000000
   8.759373,    0.000000
   8.759397,    0.000000
   8.759415,    0.000000
   8.759420,    0.000000
   8.759425,    0.000000
   8.759477,    0.000000
   8.759975,    0.000000
   8.762953,    0.000000
   8.775470,    0.000000
   8.819804,    0.000000
   8.884367,    0.000000
   8.947459,    0.000000
   9.010910,    0.000000
   9.074580,    0.000000
   9.137900,    0.000000
   9.201689,    0.000000
   9.265661,    0.000000
   9.329757,    0.000000
   9.393985,    0.000000
   9.458257,    0.000000
   9.522824,    0.000000
   9.587698,    0.000000
   9.652622,    0.000000
   9.717634,    0.000000
   9.782724,    0.000000
   9.848106,    0.000000
   9.913434,    0.000000
   9.979129,    0.000000
  10.044941,    0.000000
  10.110833,    0.000000
  10.176844,    0.000000
  10.243283,    0.000000
  10.310081,    0.000000
  10.377004,    0.000000
  10.443790,    0.000000
  10.510963,    0.000000
  10.578576,    0.000000
  10.645875,    0.000000
  10.713222,    0.000000
  10.781019,    0.000000
  10.848724,    0.000000
  10.916791,    0.000000
  10.984924,    0.000000
  11.053320,    0.000000
  11.121973,    0.000000
  11.190637,    0.000000
  11.259692,    0.000000
  11.328376,    0.000000
  11.397776,    0.000000
  11.467112,    0.000000
  11.536665,    0.000000
  11.606470,    0.000000
  11.676253,    0.000000
  11.746050,    0.000000
  11.816291,    0.000000
  11.886766,    0.000000
  11.957168,    0.000000
  12.027854,    0.000000
  12.098655,    0.000000
  12.169554,    0.000000
  12.240655,    0.000000
  12.311765,    0.000000
  12.383249,    0.000000
  12.454988,    0.000000
  12.526743,    0.000000
  12.598726,    0.000000
  12.670788,    0.000000
  12.742963,    0.000000
  12.815389,    0.000000
  12.887931,    0.000000
  12.960727,    0.000000
  13.033605,    0.000000
  13.106450,    0.000000
  13.179266,    0.000000
  13.252602,    0.000000
  13.326057,    0.000000
  13.399611,    0.000000
  13.473253,    0.000000
  13.547129,    0.000000
  13.562023,    0.000000
  13.572257,    0.000000
  13.579362,    0.000000
  13.580454,    0.000000
  13.581591,    0.000000
  13.582803,    0.000000
  13.584249,    0.000000
  13.584333,    0.000000
  13.584384,    0.000000
  13.584422,    0.000000
  13.584448,    0.000000
  13.584466,    0.000000
  13.584473,    0.000000
  13.584480,    0.000000
  13.584554,    0.000000
  13.585265,    0.000000
  13.590912,    0.000000
  13.611203,    0.000000
  13.681110,    0.000000
  13.745709,    0.000000
  13.810481,    0.000000
  13.875576,    0.000000
  13.940564,    0.000000
  14.005666,    0.000000
  14.071113,    0.000000
  14.136543,    0.000000
  14.202122,    0.000000
  14.267955,    0.000000
  14.333721,    0.000000
  14.399396,    0.000000
  14.465249,    0.000000
  14.531499,    0.000000
  14.597693,    0.000000
  14.664163,    0.000000
  14.730672,    0.000000
  14.797245,    0.000000
  14.863916,    0.000000
  14.930747,    0.000000
  14.997677,    0.000000
  15.064921,    0.000000
  15.132254,    0.000000
  15.199598,    0.000000
  15.267051,    0.000000
  15.334663,    0.000000
  15.402457,    0.000000
  15.470485,    0.000000
  15.538475,    0.000000
  15.606752,    0.000000
  15.674825,    0.000000
  15.743156,    0.000000
  15.811697,    0.000000
  15.880192,    0.000000
  15.948910,    0.000000
  16.017936,    0.000000
  16.086980,    0.000000
  16.156165,    0.000000
  16.225322,    0.000000
  16.294604,    0.000000
  16.363970,    0.000000
  16.433600,    0.000000
  16.503332,    0.000000
  16.573133,    0.000000
  16.642821,    0.000000
  16.713000,    0.000000
  16.783085,    0.000000
  16.853222,    0.000000
  16.923583,    0.000000
  16.994156,    0.000000
  17.064798,    0.000000
  17.135557,    0.000000
  17.206359,    0.000000
  17.277380,    0.000000
  17.348456,    0.000000
  17.419562,    0.000000
  17.490900,    0.000000
  17.562372,    0.000000
  17.633827,    0.000000
  17.705545,    0.000000
  17.777481,    0.000000
  17.849371,    0.000000
  17.921447,    0.000000
  17.993523,    0.000000
  18.065760,    0.000000
  18.138061,    0.000000
  18.210489,    0.000000
  18.283019,    0.000000
  18.355620,    0.000000
  18.428567,    0.000000
  18.501586,    0.000000
  18.574741,    0.000000
  18.647836,    0.000000
  18.721021,    0.000000
  18.794379,    0.000000
  18.867959,    0.000000
  18.882734,    0.000000
  18.937349,    0.000000
  18.937940,    0.000000
  18.938158,    0.000000
  18.938210,    0.000000
  18.938600,    0.000000
  18.938951,    0.000000
  18.941266,    0.000000
  18.954576,    0.000000
  19.016207,    0.000000
  19.089339,    0.000000
  19.162794,    0.000000
  19.236457,    0.000000
  19.310218,    0.000000
  19.384286,    0.000000
  19.458293,    0.000000
  19.532334,    0.000000
  19.606774,    0.000000
  19.681139,    0.000000
  19.755596,    0.000000
  19.830299,    0.000000
  19.905303,    0.000000
  19.980103,    0.000000
  20.055199,    0.000000
  20.130430,    0.000000
  20.205699,    0.000000
  20.280957,    0.000000
  20.356566,    0.000000
  20.432251,    0.000000
  20.507977,    0.000000
  20.583993,    0.000000
  20.659965,    0.000000
  20.735896,    0.000000
  20.812025,    0.000000
  20.888320,    0.000000
  20.964691,    0.000000
  21.041340,    0.000000
  21.117940,    0.000000
  21.194735,    0.000000
  21.271541,    0.000000
  21.348616,    0.000000
  21.425649,    0.000000
  21.502749,    0.000000
  21.580068,    0.000000
  21.657456,    0.000000
  21.735070,    0.000000
  21.812696,    0.000000
  21.890537,    0.000000
  21.968433,    0.000000
  22.046599,    0.000000
  22.124867,    0.000000
  22.203136,    0.000000
  22.281493,    0.000000
  22.359987,    0.000000
  22.438539,    0.000000
  22.487865,    0.000000
  22.517234,    0.000000
  22.595951,    0.000000
  22.674895,    0.000000
  22.754075,    0.000000
  22.833459,    0.000000
  22.913037,    0.000000
  22.992750,    0.000000
  23.072486,    0.000000
  23.152534,    0.000000
  23.232684,    0.000000
  23.312892,    0.000000
  23.393223,    0.000000
  23.473803,    0.000000
  23.554258,    0.000000
  23.634908,    0.000000
  23.715632,    0.000000
  23.796399,    0.000000
  23.877468,    0.000000
  23.958395,    0.000000
  24.039463,    0.000000
  24.120523,    0.000000
  24.201461,    0.000000
  24.282525,    0.000000
  24.363519,    0.000000
  24.444490,    0.000000
  24.525777,    0.000000
  24.606852,    0.000000
  24.687977,    0.000000
  24.693483,    0.002706
  24.698992,    0.005474
  24.704505,    0.008304
  24.710019,    0.011194
  24.715519,    0.014137
  24.721035,    0.017150
  24.726559,    0.020226
  24.732066,    0.023354
  24.737582,    0.026546
  24.743119,    0.029811
  24.748654,    0.033135
  24.754178,    0.036513
  24.759718,    0.039961
  24.765268,    0.043476
  24.770812,    0.047048
  24.776354,    0.050679
  24.781916,    0.054384
  24.787466,    0.058141
  24.793031,    0.061970
  24.798603,    0.065864
  24.804180,    0.069822
  24.809740,    0.073830
  24.815324,    0.077915
  24.820914,    0.082066
  24.826499,    0.086275
  24.832094,    0.090553
  24.837677,    0.094882
  24.843264,    0.099275
  24.848860,    0.103736
  24.854469,    0.108270
  24.860088,    0.112873
  24.865698,    0.117530
  24.871324,    0.122262
  24.876932,    0.127040
  24.882560,    0.131897
  24.888199,    0.136825
  24.893834,    0.141812
  24.899483,    0.146872
  24.905122,    0.151986
  24.910757,    0.157157
  24.916418,    0.162414
  24.922067,    0.167723
  24.927731,    0.173107
  24.933414,    0.178572
  24.939097,    0.184100
  24.944780,    0.189690
  24.950469,    0.195348
  24.956163,    0.201075
  24.961813,    0.206818
  24.967506,    0.212668
  24.973195,    0.218576
  24.978902,    0.224565
  24.984626,    0.230635
  24.990332,    0.236750
  24.996068,    0.242958
  25.001786,    0.249211
  25.007527,    0.255552
  25.013250,    0.261936
  25.019000,    0.268413
  25.024749,    0.274952
  25.030496,    0.281553
  25.036262,    0.288239
  25.042025,    0.294985
  25.047800,    0.301809
  25.053585,    0.308708
  25.059386,    0.315690
  25.065190,    0.322741
  25.071009,    0.329875
  25.076818,    0.337060
  25.082639,    0.344325
  25.083805,    0.345792
  25.084465,    0.346623
  25.084814,    0.347062
  25.084867,    0.347130
  25.084930,    0.347210
  25.084952,    0.347237
  25.084964,    0.347253
  25.084990,    0.347285
  25.085013,    0.347314
  25.085205,    0.347557
  25.085924,    0.348464
  25.087760,    0.350786
  25.092163,    0.356371
  25.097950,    0.363761
  25.103763,    0.371250
  25.109578,    0.378805
  25.115422,    0.386462
  25.121278,    0.394200
  25.127106,    0.401919
  25.132968,    0.409703
  25.138836,    0.417515
  25.144726,    0.425373
  25.150602,    0.433234
  25.156487,    0.441124
  25.162346,    0.448999
  25.168259,    0.456965
  25.174180,    0.464962
  25.180074,    0.472940
  25.185973,    0.480945
  25.191873,    0.488971
  25.197804,    0.497058
  25.203736,    0.505165
  25.209671,    0.513295
  25.215631,    0.521479
  25.221568,    0.529651
  25.227520,    0.537862
  25.233488,    0.546115
  25.239466,    0.554401
  25.245428,    0.562685
  25.251384,    0.570978
  25.257367,    0.579329
  25.263355,    0.587706
  25.269367,    0.596137
  25.275354,    0.604551
  25.281360,    0.613011
  25.287372,    0.621500
  25.293390,    0.630017
  25.299422,    0.638573
  25.305462,    0.647159
  25.311504,    0.655768
  25.317546,    0.664396
  25.323601,    0.673062
  25.329679,    0.681781
  25.335764,    0.690530
  25.341841,    0.699286
  25.347923,    0.708070
  25.354015,    0.716888
  25.360078,    0.725683
  25.366174,    0.734545
  25.372295,    0.743465
  25.378425,    0.752416
  25.384567,    0.761404
  25.390712,    0.770418
  25.396841,    0.779428
  25.403002,    0.788504
  25.409145,    0.797574
  25.415304,    0.806687
  25.421485,    0.815853
  25.427655,    0.825022
  25.433822,    0.834207
  25.440002,    0.843430
  25.446230,    0.852746
  25.452453,    0.862073
  25.458682,    0.871431
  25.464936,    0.880846
  25.471175,    0.890259
  25.477452,    0.899750
  25.483702,    0.909219
  25.489986,    0.918759
  25.496287,    0.928347
  25.502586,    0.937952
  25.508871,    0.947557
  25.515179,    0.957215
  25.521503,    0.966919
  25.527808,    0.976616
  25.534104,    0.986318
  25.540419,    0.996070
  25.546804,    1.005949
  25.553142,    1.015778
  25.559448,    1.025576
  25.565799,    1.035464
  25.572190,    1.045436
  25.578572,    1.055415
  25.584961,    1.065424
  25.591364,    1.075478
  25.597788,    1.085583
  25.604236,    1.095748
  25.610676,    1.105921
  25.617142,    1.116157
  25.621278,    1.122714
  25.623585,    1.126375
  25.630085,    1.136706
  25.636518,    1.146951
  25.643017,    1.157323
  25.649524,    1.167727
  25.656046,    1.178179
  25.662508,    1.188552
  25.669023,    1.199033
  25.675562,    1.209573
  25.682129,    1.220181
  25.688699,    1.230814
  25.695261,    1.241455
  25.701845,    1.252153
  25.708451,    1.262909
  25.715064,    1.273697
  25.721663,    1.284484
  25.728297,    1.295349
  25.734924,    1.306224
  25.741565,    1.317145
  25.748254,    1.328166
  25.754902,    1.339139
  25.761593,    1.350206
  25.768262,    1.361260
  25.774964,    1.372389
  25.781680,    1.383561
  25.788406,    1.394774
  25.795167,    1.406067
  25.801906,    1.417344
  25.808682,    1.428705
  25.815446,    1.440069
  25.822198,    1.451433
  25.828988,    1.462885
  25.835809,    1.474410
  25.842640,    1.485974
  25.849468,    1.497555
  25.856292,    1.509153
  25.863143,    1.520817
  25.870040,    1.532582
  25.876927,    1.544354
  25.883777,    1.556083
  25.890680,    1.567926
  25.897602,    1.579825
  25.904501,    1.591705
  25.911424,    1.603650
  25.918403,    1.615715
  25.925368,    1.627778
  25.932345,    1.639883
  25.939362,    1.652081
  25.946381,    1.664305
  25.953394,    1.676542
  25.960445,    1.688868
  25.967486,    1.701200
  25.974564,    1.713619
  25.981620,    1.726023
  25.988643,    1.738391
  25.995738,    1.750909
  26.002800,    1.763392
  26.009928,    1.776015
  26.017063,    1.788673
  26.024187,    1.801336
  26.031371,    1.814127
  26.038509,    1.826861
  26.045665,    1.839649
  26.052852,    1.852517
  26.060089,    1.865497
  26.067307,    1.878466
  26.074539,    1.891485
  26.081780,    1.904544
  26.089045,    1.917669
  26.096325,    1.930844
  26.103610,    1.944053
  26.110919,    1.957330
  26.118198,    1.970573
  26.125513,    1.983907
  26.132853,    1.997312
  26.140183,    2.010720
  26.147526,    2.024177
  26.154958,    2.037822
  26.162320,    2.051361
  26.169693,    2.064944
  26.177067,    2.078553
  26.184455,    2.092213
  26.191912,    2.106022
  26.199359,    2.119840
  26.206838,    2.133738
  26.214273,    2.147581
  26.221723,    2.161476
  26.229203,    2.175450
  26.236766,    2.189603
  26.244284,    2.203696
  26.251863,    2.217929
  26.259447,    2.232195
  26.267039,    2.246502
  26.274627,    2.260827
  26.282220,    2.275184
  26.289838,    2.289614
  26.297489,    2.304130
  26.305117,    2.318628
  26.312782,    2.333220
  26.320423,    2.347792
  26.328135,    2.362524
  26.335871,    2.377328
  26.343634,    2.392207
  26.351350,    2.407022
  26.359085,    2.421899
  26.366878,    2.436911
  26.374670,    2.451946
  26.382459,    2.467002
  26.390236,    2.482060
  26.398092,    2.497294
  26.405958,    2.512575
  26.413828,    2.527889
  26.421674,    2.543180
  26.429588,    2.558632
  26.437511,    2.574125
  26.445428,    2.589632
  26.453371,    2.605215
  26.461335,    2.620867
  26.469299,    2.636543
  26.477277,    2.652271
  26.485288,    2.668091
  26.493301,    2.683941
  26.501327,    2.699842
  26.509353,    2.715770
  26.517379,    2.731723
  26.525486,    2.747862
  26.533562,    2.763965
  26.541677,    2.780174
  26.549769,    2.796362
  26.557894,    2.812642
  26.566011,    2.828929
  26.574238,    2.845467
  26.582395,    2.861888
  26.590616,    2.878465
  26.598810,    2.895013
  26.607038,    2.911658
  26.615249,    2.928292
  26.623483,    2.945000
  26.631735,    2.961772
  26.640044,    2.978686
  26.648376,    2.995671
  26.656676,    3.012618
  26.664931,    3.029501
  26.673213,    3.046464
  26.681576,    3.063618
  26.689956,    3.080836
  26.698340,    3.098086
  26.706767,    3.115453
  26.715186,    3.132828
  26.723541,    3.150099
  26.732004,    3.167621
  26.740435,    3.185101
  26.748917,    3.202713
  26.757331,    3.220212
  26.765857,    3.237971
  26.774432,    3.255858
  26.782995,    3.273746
  26.791579,    3.291705
  26.800138,    3.309640
  26.808763,    3.327739
  26.817372,    3.345832
  26.825929,    3.363842
  26.834567,    3.382048
  26.843298,    3.400480
  26.851962,    3.418795
  26.860663,    3.437216
  26.869301,    3.455531
  26.877981,    3.473962
  26.886755,    3.492619
  26.895485,    3.511210
  26.904210,    3.529816
  26.912942,    3.548466
  26.921728,    3.567257
  26.930565,    3.586183
  26.939393,    3.605119
  26.948266,    3.624178
  26.957097,    3.643174
  26.965978,    3.662305
  26.974756,    3.681240
  26.983681,    3.700518
  26.992541,    3.719686
  27.001408,    3.738893
  27.010335,    3.758258
  27.019363,    3.777869
  27.028318,    3.797349
  27.037239,    3.816783
  27.046219,    3.836371
  27.055169,    3.855921
  27.064211,    3.875698
  27.073172,    3.895326
  27.082229,    3.915192
  27.091244,    3.934993
  27.100304,    3.954916
  27.109287,    3.974699
  27.118389,    3.994771
  27.127479,    4.014844
  27.136595,    4.035000
  27.145836,    4.055460
  27.154972,    4.075716
  27.164103,    4.095987
  27.173277,    4.116381
  27.182471,    4.136844
  27.191665,    4.157337
  27.200816,    4.177757
  27.210024,    4.198334
  27.219299,    4.219086
  27.228452,    4.239594
  27.237752,    4.260456
  27.247106,    4.281468
  27.256487,    4.302567
  27.265789,    4.323514
  27.275168,    4.344663
  27.284636,    4.366039
  27.293906,    4.386995
  27.303274,    4.408198
  27.312679,    4.429513
  27.322088,    4.450863
  27.331517,    4.472286
  27.340968,    4.493787
  27.350375,    4.515210
  27.359822,    4.536755
  27.369203,    4.558174
  27.378698,    4.579881
  27.388162,    4.601540
  27.397640,    4.623261
  27.407161,    4.645105
  27.416655,    4.666914
  27.426149,    4.688750
  27.435694,    4.710729
  27.445268,    4.732801
  27.454822,    4.754852
  27.464433,    4.777062
  27.474014,    4.799229
  27.483610,    4.821456
  27.493268,    4.843853
  27.502855,    4.866112
  27.512479,    4.888482
  27.522101,    4.910872
  27.531734,    4.933314
  27.541462,    4.956003
  27.551069,    4.978437
  27.560800,    5.001185
  27.570402,    5.023658
  27.580193,    5.046597
  27.589945,    5.069473
  27.599636,    5.092228
  27.609453,    5.115308
  27.619204,    5.138256
  27.629091,    5.161550
  27.638931,    5.184759
  27.648810,    5.208086
  27.658659,    5.231366
  27.668491,    5.254633
  27.678320,    5.277918
  27.688197,    5.301341
  27.698043,    5.324715
  27.707917,    5.348180
  27.717868,    5.371855
  27.727788,    5.395480
  27.737711,    5.419137
  27.747616,    5.442776
  27.757515,    5.466425
  27.767489,    5.490279
  27.777520,    5.514293
  27.787428,    5.538037
  27.797267,    5.561639
  27.807185,    5.585454
  27.817271,    5.609697
  27.827185,    5.633551
  27.837344,    5.658018
  27.847384,    5.682224
  27.857303,    5.706161
  27.867279,    5.730259
  27.877254,    5.754379
  27.887297,    5.778686
  27.897328,    5.802987
  27.907369,    5.827337
  27.917385,    5.851647
  27.927397,    5.875972
  27.937487,    5.900511
  27.947640,    5.925223
  27.957747,    5.949849
  27.967783,    5.974324
  27.977876,    5.998961
  27.988061,    6.023845
  27.998284,    6.048842
  28.008478,    6.073794
  28.018599,    6.098589
  28.028796,    6.123594
  28.038984,    6.148597
  28.049196,    6.173683
  28.059378,    6.198718
  28.069663,    6.224025
  28.079858,    6.249136
  28.090142,    6.274485
  28.100464,    6.299953
  28.110714,    6.325264
  28.121000,    6.350686
  28.131323,    6.376220
  28.141650,    6.401785
  28.151932,    6.427261
  28.162178,    6.452670
  28.172631,    6.478611
  28.183085,    6.504580
  28.193412,    6.530253
  28.203864,    6.556256
  28.214260,    6.582143
  28.223527,    6.605235
