Time, Horizontal Forces
   0.000000, 61586.340206
   0.000001, 61585.985648
   0.000014, 61584.624321
   0.000156, 61580.387981
   0.000782, 61572.931142
   0.002688, 61561.413338
   0.007394, 61544.942198
   0.014461, 61528.388842
   0.023877, 61511.818479
   0.035670, 61495.192695
   0.049839, 61478.530793
   0.066438, 61461.786904
   0.085437, 61445.010934
   0.106783, 61428.244510
   0.130585, 61411.407466
   0.156972, 61394.433080
   0.186117, 61377.252528
   0.217660, 61360.095328
   0.251836, 61342.839002
   0.289052, 61325.313322
   0.328332, 61307.981767
   0.371428, 61290.100789
   0.416840, 61272.328975
   0.465161, 61254.432205
   0.516737, 61236.307381
   0.570731, 61218.257403
   0.628089, 61199.974411
   0.688250, 61181.653597
   0.752418, 61162.953108
   0.819968, 61144.087750
   0.891399, 61124.943241
   0.964810, 61106.029487
   1.041959, 61086.890519
   1.123790, 61067.325995
   1.208075, 61047.882902
   1.297802, 61027.891916
   1.390692, 61007.887102
   1.487032, 60987.808974
   1.587141, 60967.598398
   1.692428, 60946.993440
   1.800283, 60926.515057
   1.912911, 60905.749463
   2.029919, 60884.787864
   2.152339, 60863.466963
   2.277627, 60842.238829
   2.407565, 60820.803910
   2.542818, 60799.070458
   2.683973, 60776.968289
   2.827889, 60754.995988
   2.976902, 60732.798468
   3.131878, 60710.265142
   3.291233, 60687.639854
   3.454741, 60664.957770
   3.623499, 60642.073608
   3.798434, 60618.877126
   3.976737, 60595.746851
   4.163292, 60572.063329
   4.356661, 60548.036053
   4.554217, 60524.000495
   4.758197, 60499.691526
   4.967340, 60475.269115
   5.183097, 60450.573830
   5.403511, 60425.836813
   5.631031, 60400.791593
   5.861511, 60375.897179
   6.100839, 60350.524947
   6.348931, 60324.707722
   6.600544, 60298.998283
   6.856919, 60273.265888
   7.118577, 60247.458807
   7.390726, 60221.078635
   7.669395, 60194.527564
   7.956244, 60167.658133
   8.249842, 60140.615114
   8.549883, 60113.432457
   8.856458, 60086.107193
   9.169849, 60058.619759
   9.495203, 60030.534940
   9.822850, 60002.694221
  10.154795, 59974.918123
  10.500140, 59946.457440
  10.852299, 59917.871528
  11.212496, 59889.067148
  11.578409, 59860.233528
  11.954403, 59831.033703
  12.336114, 59801.813202
  12.728920, 59772.168071
  13.129295, 59742.374838
  13.536378, 59712.500553
  13.952968, 59682.345593
  14.375267, 59652.188972
  14.811546, 59621.450053
  15.252071, 59590.822423
  15.702175, 59559.936434
  16.161120, 59528.849961
  16.633288, 59497.277902
  17.107971, 59465.939304
  17.595842, 59434.132362
  18.095189, 59401.982111
  18.598346, 59369.984112
  19.109865, 59337.846877
  19.635729, 59305.204607
  20.168658, 59272.517367
  20.715181, 59239.391724
  21.268122, 59206.268627
  21.831991, 59172.880850
  22.403363, 59139.435114
  22.983593, 59105.853797
  23.572757, 59072.135528
  24.176016, 59037.992690
  24.787088, 59003.787256
  25.410767, 58969.255821
  26.043338, 58934.609529
  26.169919, 58927.721040
  26.494846, 58910.105108
  26.629007, 58902.859188
  26.643179, 58902.094697
  26.655968, 58901.404967
  26.658269, 58901.280871
  26.661207, 58901.122473
  26.662120, 58901.073230
  26.662483, 58901.053654
  26.663158, 58901.007916
  26.663775, 58900.966069
  26.668653, 58900.635277
  26.701120, 58898.434427
  26.822373, 58890.225991
  27.193703, 58865.193483
  27.787297, 58825.501427
  28.397195, 58785.122730
  29.015889, 58744.566265
  29.647682, 58703.558316
  30.283367, 58662.699949
  30.929807, 58621.550990
  31.591149, 58579.858701
  32.256399, 58538.320753
  32.934857, 58496.359270
  33.617578, 58454.530643
  34.311839, 58412.390473
  35.015570, 58370.070450
  35.732444, 58327.356623
  36.457795, 58284.532932
  37.193731, 58241.478674
  37.932053, 58198.672274
  38.683547, 58155.489248
  39.446026, 58112.062546
  40.217394, 58068.515383
  41.000371, 58024.698554
  41.794755, 57980.629188
  42.598588, 57936.420054
  43.412059, 57892.063625
  44.235472, 57847.546283
  45.067210, 57802.957520
  45.914564, 57757.912336
  46.769184, 57712.859422
  47.636519, 57667.514481
  48.513122, 57622.061715
  49.397261, 57576.591621
  50.298040, 57530.641201
  51.201095, 57484.945022
  52.113844, 57439.125410
  53.048877, 57392.559736
  53.985926, 57346.262368
  54.930432, 57299.960386
  55.884656, 57253.543596
  56.860890, 57206.422694
  57.847599, 57159.163492
  58.841631, 57111.917528
  59.844509, 57064.612116
  60.859888, 57017.077306
  61.888010, 56969.306249
  62.925198, 56921.472392
  63.980448, 56873.165977
  65.044450, 56824.818188
  66.117907, 56776.397464
  67.204698, 56727.731555
  68.299961, 56679.040439
  69.411012, 56630.002053
  70.533893, 56580.795947
  71.662298, 56531.698279
  72.806082, 56482.281825
  73.962541, 56432.668040
  75.132446, 56382.827585
  76.312262, 56332.913508
  77.506463, 56282.739264
  78.709912, 56232.523053
  79.929850, 56181.966008
  81.159276, 56131.361530
  82.401849, 56080.560733
  83.659830, 56029.475380
  84.924708, 55978.452636
  86.204957, 55927.152109
  87.493807, 55875.847279
  88.798759, 55824.241853
  90.112788, 55772.616098
  91.437154, 55720.920803
  92.777156, 55668.951742
  94.136749, 55616.561619
  95.506412, 55564.121230
  96.886207, 55511.628558
  98.274989, 55459.127085
  99.678292, 55406.409116
 101.100091, 55353.330164
 102.531173, 55300.237021
 103.978026, 55246.890921
 105.434947, 55193.504245
 106.904419, 55139.986991
 108.390627, 55086.189927
 109.895543, 55032.046767
 110.198421, 55021.189671
 110.564547, 55008.082956
 110.834063, 54998.446921
 110.876456, 54996.932195
 110.921166, 54995.334959
 110.959292, 54993.973146
 110.967641, 54993.674962
 110.977788, 54993.312578
 110.989894, 54992.880234
 110.992752, 54992.778174
 110.992940, 54992.771150
 110.993113, 54992.763537
 110.994853, 54992.687406
 111.009991, 54992.024783
 111.097964, 54988.174902
 111.547186, 54968.538721
 112.860866, 54911.331649
 114.266455, 54850.473604
 115.679540, 54789.650754
 117.099020, 54728.909247
 118.534416, 54667.843707
 119.981208, 54606.650133
 121.446330, 54545.039881
 122.917836, 54483.518033
 124.396628, 54422.045515
 125.890441, 54360.302496
 127.390297, 54298.661451
 128.903734, 54236.813298
 130.430490, 54174.772072
 131.969175, 54112.596842
 133.521388, 54050.225649
 135.084137, 53987.780950
 136.662149, 53925.076495
 138.246450, 53862.470100
 139.842832, 53799.733075
 141.455977, 53736.685008
 143.083152, 53673.436821
 144.718144, 53610.231253
 146.366353, 53546.860384
 148.023172, 53483.502628
 149.691522, 53420.046820
 151.375738, 53356.330938
 153.066769, 53292.698737
 154.775672, 53228.736110
 156.495167, 53164.718556
 158.230901, 53100.438266
 159.973305, 53036.250969
 161.731741, 52971.813016
 163.507115, 52907.095295
 165.286570, 52842.567238
 167.085433, 52777.674329
 168.889736, 52712.922199
 170.710084, 52647.931026
 172.535956, 52583.077209
 174.379963, 52517.914112
 176.236144, 52452.655532
 178.102306, 52387.379388
 179.986759, 52321.797538
 181.884350, 52256.092561
 183.785815, 52190.584664
 185.707215, 52124.721804
 187.642639, 52058.710357
 189.592614, 51992.534759
 191.549145, 51926.466768
 193.521358, 51860.198990
 195.503825, 51793.915438
 197.509371, 51727.190743
 199.524923, 51660.463173
 201.548124, 51593.810313
 203.581828, 51527.137782
 205.630464, 51460.301770
 207.687852, 51393.504906
 209.764231, 51326.416672
 211.855254, 51259.180768
 213.958095, 51191.889617
 216.078073, 51124.375107
 218.215767, 51056.622210
 220.349109, 50989.328875
 222.500246, 50921.795067
 224.669598, 50854.011178
 226.839657, 50786.524021
 229.034060, 50718.599639
 231.243359, 50650.534659
 233.464283, 50582.431244
 235.699335, 50514.213857
 237.946174, 50445.955108
 240.215558, 50377.331195
 242.488415, 50308.920042
 244.781882, 50240.206595
 247.080050, 50171.668489
 249.392953, 50103.006346
 251.729187, 50033.968524
 254.061639, 49965.356053
 256.417401, 49896.371840
 258.787229, 49827.289891
 261.173672, 49758.037909
 263.574887, 49688.671517
 263.671358, 49685.891188
 263.762966, 49683.251478
 263.861555, 49680.411116
 263.879612, 49679.890944
 263.900162, 49679.298970
 263.906707, 49679.110447
 263.916463, 49678.829438
 263.921394, 49678.687396
 263.923387, 49678.629995
 263.924093, 49678.609650
 263.924427, 49678.600018
 263.924996, 49678.579946
 263.925513, 49678.561496
 263.930687, 49678.377002
 263.977245, 49676.716794
 264.226896, 49667.817230
 265.237386, 49631.842737
 267.412174, 49554.674041
 269.583205, 49477.984019
 271.771590, 49401.026065
 273.977906, 49323.784172
 276.192292, 49246.605567
 278.411473, 49169.603395
 280.641450, 49092.569040
 282.890075, 49015.234028
 285.144322, 48938.047901
 287.407226, 48860.906094
 289.685301, 48783.587940
 291.971847, 48706.322283
 294.276523, 48628.784747
 296.593410, 48551.177279
 298.917722, 48473.660661
 301.252833, 48396.122533
 303.600178, 48318.516427
 305.963317, 48240.726859
 308.342386, 48162.752379
 310.726636, 48084.946021
 313.117050, 48007.274337
 315.522256, 47929.457629
 317.934247, 47851.755841
 320.364759, 47773.792371
 322.806111, 47695.816068
 325.253808, 47617.970318
 327.713494, 47540.075754
 330.189883, 47461.985277
 332.678927, 47383.828836
 335.173708, 47305.823790
 337.687246, 47227.564258
 340.212846, 47149.261316
 342.749723, 47070.940281
 345.297555, 46992.611917
 347.857373, 46914.245494
 350.427018, 46835.907798
 353.011656, 46757.442625
 355.603425, 46679.089412
 358.212615, 46600.538328
 360.827598, 46522.140327
 363.454117, 46443.723087
 366.100994, 46365.025782
 368.762000, 46286.236578
 371.429267, 46207.588859
 374.103208, 46129.069397
 376.791302, 46050.459083
 379.489623, 45971.873775
 382.201299, 45893.223341
 384.930998, 45814.374733
 387.672358, 45735.513645
 390.421265, 45656.758631
 393.185254, 45577.894479
 395.960141, 45499.041921
 398.747524, 45420.156345
 401.548619, 45341.204703
 404.360312, 45262.275686
 407.190528, 45183.148692
 410.021887, 45104.309764
 412.867217, 45025.401093
 415.726201, 44946.433007
 418.602485, 44867.306839
 421.493731, 44788.089153
 424.400312, 44708.771608
 427.316887, 44629.501061
 430.237645, 44550.434635
 433.177335, 44471.173792
 436.125433, 44392.003645
 439.086448, 44312.803463
 442.056814, 44233.669225
 445.041222, 44154.476632
 448.041262, 44075.185214
 451.051126, 43995.949452
 454.070852, 43916.768502
 457.109647, 43837.402468
 460.155685, 43758.161367
 463.214483, 43678.901780
 466.284829, 43599.655932
 469.370966, 43520.315575
 472.466897, 43441.035871
 475.579008, 43361.654286
 478.704065, 43282.254851
 481.840231, 43202.884917
 484.987183, 43123.553095
 488.147155, 43044.203706
 491.321951, 42964.792730
 494.513920, 42885.263289
 497.713657, 42805.850495
 500.923931, 42726.485477
 504.140767, 42647.266234
 504.789070, 42631.337894
 507.091731, 42574.863195
 507.117677, 42574.227728
 507.159085, 42573.213635
 507.165796, 42573.049278
 507.169939, 42572.947819
 507.171581, 42572.907488
 507.173220, 42572.867012
 507.189605, 42572.462259
 507.339902, 42568.749822
 508.087235, 42550.300181
 510.943792, 42479.931733
 514.187978, 42400.305190
 517.452065, 42320.499631
 520.717477, 42240.969499
 524.007872, 42161.139587
 527.303099, 42081.500273
 530.615794, 42001.746559
 533.939278, 41922.040490
 537.278157, 41842.272490
 540.627039, 41762.572265
 543.991458, 41682.808875
 547.364457, 41603.147931
 550.758404, 41523.298676
 554.164052, 41443.480430
 557.578302, 41363.765913
 561.008264, 41283.989787
 564.450928, 41204.223197
 567.900736, 41124.594940
 571.365015, 41044.936195
 574.841034, 40965.310588
 578.333107, 40885.620377
 581.838122, 40805.937783
 585.358801, 40726.202073
 588.882201, 40646.706196
 592.422945, 40567.120248
 595.974916, 40487.582884
 599.542915, 40407.987530
 603.118290, 40328.527651
 606.709583, 40249.013859
 610.314935, 40169.488552
 613.933479, 40089.971798
 617.565515, 40010.457853
 621.206300, 39931.050831
 624.863452, 39851.585215
 628.535184, 39772.101190
 632.220959, 39692.611429
 635.917931, 39613.177947
 639.631641, 39533.682657
 643.353475, 39454.310516
 647.089852, 39374.924927
 650.839357, 39295.556886
 654.596071, 39216.331721
 658.377799, 39136.875353
 662.165256, 39057.594218
 665.963105, 38978.390259
 669.774314, 38899.201987
 673.598442, 38820.039264
 677.434635, 38740.920349
 681.291518, 38661.668760
 685.160417, 38582.464196
 689.039234, 38503.349785
 692.931144, 38424.261060
 696.832410, 38345.274235
 700.756330, 38266.121380
 704.682464, 38187.215316
 708.628034, 38108.210053
 712.584787, 38029.272027
 716.559773, 37950.261533
 720.539275, 37871.451529
 724.537449, 37792.561941
 728.548926, 37713.699982
 732.577085, 37634.800253
 736.622639, 37555.850272
 740.674237, 37477.071831
 744.738236, 37398.341132
 748.823272, 37319.492250
 752.910552, 37240.888195
 757.016260, 37162.217766
 761.141747, 37083.456884
 765.273152, 37004.870755
 769.418390, 36926.308695
 773.578345, 36847.754789
 777.745710, 36769.347163
 781.928315, 36690.938717
 786.125809, 36612.536985
 790.336488, 36534.174575
 794.562164, 36455.818490
 798.802116, 36377.482962
 803.050237, 36299.281021
 807.315515, 36221.047669
 811.589358, 36142.940965
 815.880756, 36064.797152
 820.190194, 35986.608868
 823.620470, 35924.573739
 824.511379, 35908.491187
 828.844571, 35831.498760
 833.192403, 35756.081833
 837.550309, 35678.783712
 841.918516, 35599.641219
 846.308232, 35517.626957
 850.700745, 35434.933068
 855.109925, 35348.550997
 859.536690, 35261.505672
 863.964684, 35171.759387
 868.408194, 35080.579024
 872.868274, 34987.764320
 877.346079, 34892.224647
 878.242159, 34858.209339
 879.099921, 34839.368828
 879.816704, 34822.795116
 879.839401, 34818.880937
 879.840380, 34818.752797
 879.841360, 34818.732004
 879.851156, 34818.567436
 879.933943, 34817.169300
 880.450043, 34808.348140
 882.453601, 34773.171731
 887.026448, 34688.928504
 891.692320, 34590.308295
 896.371670, 34489.021632
 901.060391, 34385.975196
 905.763699, 34282.211843
 910.473445, 34175.311440
 915.192847, 34068.168920
 919.918664, 33958.991124
 924.662938, 33848.167226
 929.414114, 33737.107003
 934.178792, 33622.728225
 938.954960, 33508.131106
 943.745996, 33392.188096
 948.547714, 33274.103319
 953.359130, 33155.908409
 958.175579, 33035.719285
 962.996408, 32914.551747
 967.835657, 32793.254089
 972.677751, 32669.340134
 977.532975, 32545.064769
 982.398225, 32420.690289
 987.271396, 32293.496486
 992.161192, 32166.257508
 997.054609, 32038.831906
 997.425698, 31965.269931
 997.796402, 31943.306135
 998.166271, 31921.170209
 998.537772, 31898.747731
 998.909136, 31876.096078
 999.280373, 31853.235316
 999.653540, 31830.061197
1000.026475, 31806.658477
1000.398121, 31783.107463
1000.772122, 31759.230887
1001.144687, 31735.185203
1001.518822, 31710.854568
1001.891609, 31686.361072
1002.265514, 31661.604954
1002.640688, 31636.548136
1003.016378, 31611.229228
1003.391470, 31585.719317
1003.768203, 31559.904096
1004.143761, 31533.918610
1004.520729, 31507.645977
1004.898483, 31481.091570
1005.276739, 31454.278253
1005.655435, 31427.212388
1006.031553, 31400.077810
1006.404893, 31372.925707
1006.784522, 31345.201636
1007.162825, 31317.140954
1007.541980, 31288.734139
1007.922306, 31260.023051
1008.301950, 31231.121338
1008.683428, 31201.889248
1009.064867, 31172.416512
1009.445750, 31142.759993
1009.828715, 31112.751371
1010.209237, 31082.659933
1010.592647, 31052.182727
1010.976883, 31021.392738
1011.359834, 30990.458683
1011.742292, 30959.353262
1012.123887, 30928.094080
1012.505258, 30896.642105
1012.891434, 30864.632225
1013.277505, 30832.349465
1013.664262, 30799.795105
1014.050654, 30767.035764
1014.436214, 30734.119121
1014.824784, 30700.767613
1015.213458, 30667.147993
1015.602935, 30633.242040
1015.992667, 30599.082180
1016.380063, 30564.872771
1016.769054, 30530.345967
1017.159916, 30495.431403
1017.551975, 30460.175631
1017.943818, 30424.696204
1018.335877, 30388.976192
1018.726811, 30353.117574
1019.119403, 30316.914495
1019.512199, 30280.449451
1019.907567, 30243.546031
1020.301395, 30206.510481
1020.695766, 30169.221817
1021.091040, 30131.624816
1021.486290, 30093.791734
1021.884013, 30055.522849
1022.281627, 30017.004530
1022.677145, 29978.249521
1023.073757, 29939.166859
1023.473972, 29899.530582
1023.872836, 29859.737010
1024.271608, 29819.739192
1024.674157, 29779.179178
1025.073145, 29738.657609
1025.476690, 29697.542758
1025.881540, 29656.020670
1026.281173, 29614.722715
1026.683496, 29573.014897
1027.086385, 29530.991260
1027.490041, 29488.658653
1027.890307, 29446.401181
1028.295451, 29408.603346
1028.701981, 29370.625376
1029.111782, 29332.290499
1029.520479, 29294.007665
1029.928527, 29255.734611
1030.333178, 29217.729998
1030.743997, 29179.095125
1031.152566, 29140.621054
1031.563588, 29101.864879
1031.971972, 29063.306943
1032.384233, 29024.331855
1032.796578, 28985.297757
1033.210067, 28946.104075
1033.622015, 28907.005524
1034.034463, 28867.808674
1034.448716, 28828.389283
1034.864329, 28788.789196
1035.277299, 28749.390160
1035.693382, 28709.643075
1036.112271, 28669.576326
1036.531691, 28629.406966
1036.947698, 28589.513370
1037.364863, 28549.457822
1037.783291, 28509.229885
1038.203875, 28468.743159
1038.624306, 28428.219658
1039.042208, 28387.889123
1039.463428, 28347.187180
1039.886043, 28306.298820
1040.305215, 28265.692840
1040.727412, 28224.742682
1041.151781, 28183.530299
1041.574915, 28142.386640
1042.001758, 28100.830431
1042.425677, 28059.507649
1042.853380, 28017.764180
1043.280399, 27976.035904
1043.707482, 27934.249671
1044.136200, 27892.251875
1044.564572, 27850.236277
1044.993892, 27808.076107
1045.423178, 27765.867723
1045.852485, 27723.605875
1046.283895, 27681.085260
1046.717854, 27638.261341
1047.148549, 27595.707855
1047.583871, 27552.645237
1048.018497, 27509.599401
1048.454540, 27466.361066
1048.890450, 27423.083768
1049.327575, 27379.633766
1049.764268, 27336.174653
1050.205183, 27292.242776
1050.643737, 27248.493800
1051.079849, 27204.936929
1051.519997, 27160.924960
1051.962478, 27116.627062
1052.406326, 27072.139593
1052.845545, 27028.064230
1053.290327, 26983.378159
1053.733160, 26938.835640
1054.179459, 26893.891799
1054.626183, 26848.852321
1055.073032, 26803.747527
1055.520605, 26758.517059
1055.969950, 26713.054587
1056.419832, 26667.484831
1056.869241, 26621.910231
1057.315440, 26576.609201
1057.764955, 26530.919143
1058.217142, 26484.904838
1058.670927, 26438.674838
1059.119471, 26392.926566
1059.125247, 26392.337139
1059.579930, 26345.931771
1060.035509, 26301.119093
1060.488067, 26256.634292
1060.946401, 26211.564573
1061.405987, 26166.405067
1061.863402, 26121.488311
1062.321023, 26076.559004
1062.781800, 26031.325774
1063.244985, 25985.875923
1063.709443, 25940.322826
1064.171979, 25894.987755
1064.636842, 25849.426299
1065.103454, 25803.713592
1065.569593, 25758.073617
1066.034789, 25712.545933
1066.501678, 25666.861001
1066.969196, 25621.137125
1067.439176, 25575.184393
1067.911961, 25528.975109
1068.383113, 25482.961286
1068.854492, 25436.937793
1069.325881, 25390.933712
1069.800809, 25344.590872
1070.272981, 25298.560255
1070.746940, 25252.358484
1071.218039, 25206.473077
1071.693053, 25160.201303
1072.168471, 25113.923700
1072.645306, 25067.525171
1073.120072, 25021.361984
1073.599482, 24974.743183
1074.079306, 24928.121344
1074.561159, 24881.318101
1075.045255, 24834.318104
1075.529341, 24787.349761
1076.014510, 24740.294859
1076.499556, 24693.279001
1076.987315, 24646.012427
1077.475086, 24598.777899
1077.963988, 24551.453079
1078.451889, 24504.237660
1078.942220, 24456.734610
1079.432018, 24409.317539
1079.924920, 24361.611349
1080.417192, 24314.003749
1080.911829, 24266.181357
1081.401373, 24218.902730
1081.899272, 24170.793890
1082.397844, 24122.672754
1082.896509, 24074.570477
1083.396483, 24026.363656
1083.892611, 23978.571907
1084.390818, 23930.585006
1084.891859, 23882.348773
1085.391532, 23834.285790
1085.895971, 23785.769439
1086.397187, 23737.618516
1086.899379, 23689.386146
1087.405925, 23640.751289
1087.914011, 23592.006574
1088.424076, 23543.098841
1088.933266, 23494.313812
1089.443722, 23445.428755
1089.956651, 23396.331728
1090.462656, 23347.959785
1090.975916, 23298.873150
1091.490700, 23249.690728
1092.002004, 23200.888615
1092.518658, 23151.574574
1093.034518, 23102.388592
1093.548316, 23053.434427
1094.069046, 23003.818704
1094.593293, 22953.911872
1095.115014, 22904.298801
1095.636126, 22854.768932
1096.159531, 22805.043224
1096.683880, 22755.265116
1097.207994, 22705.546258
1097.731252, 22655.943782
1098.257993, 22606.029027
1098.788500, 22555.790133
1099.318755, 22505.623415
1099.850672, 22455.327209
1100.380549, 22405.271536
1100.913852, 22354.907824
1101.449996, 22304.313130
1101.984568, 22253.918082
1102.522642, 22203.210809
1103.061015, 22152.523112
1103.595656, 22102.237354
1104.133984, 22051.615033
1104.676079, 22000.675273
1105.217919, 21949.811185
1105.754810, 21899.465716
1106.291649, 21849.145150
1106.834014, 21798.324556
1107.383562, 21746.863820
1107.926828, 21696.077541
1108.478420, 21644.500292
1109.026471, 21593.335616
1109.573378, 21542.309048
1110.126427, 21490.723798
1110.677567, 21439.385519
1111.229429, 21388.011542
1111.785100, 21336.313275
1112.336222, 21285.109040
1112.891413, 21233.537743
1113.444812, 21182.195426
1113.996200, 21131.082201
1114.553199, 21079.464226
1115.110654, 21027.864671
1115.668536, 20976.268842
1116.232040, 20924.178379
1116.795863, 20872.121217
1117.355623, 20820.499041
1117.918099, 20768.646797
1118.483654, 20716.554255
1119.047831, 20664.649476
1119.615269, 20612.473881
1120.182247, 20560.399616
1120.754136, 20507.901877
1121.325593, 20455.509385
1121.898637, 20403.011704
1122.468437, 20350.875627
1123.041674, 20298.449086
1123.616684, 20245.914322
1124.188958, 20193.693734
1124.765450, 20141.112239
1125.341435, 20088.642682
1125.924404, 20035.560268
1126.508667, 19982.430599
1127.091788, 19929.464174
1127.672629, 19876.759889
1128.255181, 19823.937301
1128.834538, 19771.472572
1129.417506, 19718.708289
1130.000039, 19666.049055
1130.586122, 19613.107166
1131.177357, 19559.747250
1131.771426, 19506.193654
1132.365096, 19452.698329
1132.960813, 19399.006855
1133.558503, 19345.193047
1134.155154, 19291.538451
1134.752217, 19237.897749
1135.350549, 19184.196433
1135.948929, 19130.551211
1136.547025, 19076.989274
1137.148939, 19023.128847
1137.751466, 18969.281934
1138.352208, 18915.660365
1138.955504, 18861.854608
1139.562840, 18807.742465
1140.168294, 18753.877069
1140.777968, 18699.675599
1141.386426, 18645.660589
1141.994720, 18591.717070
1142.605113, 18537.640576
1143.216630, 18483.529082
1143.833088, 18429.029677
1144.449610, 18374.603543
1145.067623, 18320.104252
1145.689157, 18265.351495
1146.307509, 18210.965442
1146.922966, 18156.897002
1147.543537, 18102.416771
1148.160951, 18048.305550
1148.786146, 17993.541338
1149.406679, 17939.292089
1150.033767, 17884.498779
1150.656422, 17830.195657
1151.283907, 17775.507377
1151.913065, 17720.751539
1152.540121, 17666.259024
1153.171548, 17611.433706
1153.805007, 17556.508896
1154.432469, 17502.199690
1155.066484, 17447.351188
1155.699450, 17392.688477
1156.330752, 17338.241794
1156.970933, 17283.065393
1157.603734, 17228.649925
1158.237028, 17174.237189
1158.881518, 17118.899596
1159.519766, 17064.228088
1160.162728, 17009.190055
1160.810562, 16953.808910
1161.454037, 16898.905730
1162.094479, 16844.331427
1162.744941, 16788.935327
1163.396295, 16733.569967
1164.052803, 16677.830102
1164.699432, 16623.055836
1165.348608, 16568.101699
1165.998492, 16513.171072
1166.654630, 16457.771868
1167.306475, 16402.848539
1167.964372, 16347.460476
1168.621632, 16292.228013
1169.283468, 16236.674875
1169.937987, 16181.855596
1170.597655, 16126.644774
1171.264242, 16070.931449
1171.926549, 16015.695556
1172.591885, 15960.266087
1173.251356, 15905.437366
1173.922968, 15849.623739
1174.584907, 15794.769428
1175.260462, 15738.794968
1175.925958, 15683.816818
1176.600935, 15628.077025
1177.280650, 15572.049715
1177.951492, 15516.886051
1178.623495, 15461.681360
1179.301040, 15406.095148
1179.975919, 15350.843303
1180.653393, 15295.450762
1181.326768, 15240.504350
1182.005346, 15185.192396
1182.685982, 15129.813447
1183.368403, 15074.381652
1184.062923, 15018.026635
1184.750859, 14962.360951
1185.441100, 14906.573979
1186.131240, 14850.897646
1186.817397, 14795.585943
1187.500033, 14740.595530
1188.194452, 14684.703229
1188.882824, 14629.448328
1189.573411, 14574.085885
1190.258531, 14519.280943
1190.953462, 14463.740138
1191.650560, 14408.147803
1192.349867, 14352.478227
1193.043853, 14297.354509
1193.741638, 14241.999722
1194.441235, 14186.607291
1195.148113, 14130.722979
1195.850622, 14075.321967
1196.566347, 14018.927918
1197.268306, 13963.804768
1197.976759, 13908.212107
1198.679238, 13853.229917
1199.384654, 13798.093687
1200.092409, 13742.880623
1200.801846, 13687.643376
1201.517398, 13632.022801
1202.222557, 13577.366717
1202.939711, 13521.818157
1203.653161, 13466.712504
1204.375820, 13410.964798
1205.093603, 13355.746254
1205.809533, 13300.770476
1206.530992, 13245.457545
1207.253476, 13190.191072
1207.978362, 13134.848797
1208.707767, 13079.268387
1209.433360, 13024.117720
1210.153841, 12969.472602
1210.887279, 12913.903107
1211.609587, 12859.364833
1212.329940, 12805.059238
1213.051632, 12750.755739
1213.783210, 12695.797171
1214.506615, 12641.623072
1215.238318, 12586.892671
1215.977443, 12531.728544
1216.720672, 12476.388906
1217.462577, 12421.285803
1218.208944, 12365.955831
1218.953362, 12310.912814
1219.689218, 12256.644794
1220.429692, 12202.116974
1221.174086, 12147.425204
1221.920584, 12092.708343
1222.672682, 12037.695847
1223.417183, 11983.404551
1224.164454, 11929.004571
1224.905508, 11875.209119
1225.657282, 11820.709146
1226.405266, 11766.654871
1227.160218, 11712.191944
1227.918346, 11657.641227
1228.675762, 11603.283959
1229.435739, 11548.863971
1230.194569, 11494.668963
1230.951763, 11440.723699
1231.718280, 11386.213733
1232.489181, 11331.542543
1233.246841, 11277.998169
1234.000240, 11224.859724
1234.769801, 11170.652786
1235.534373, 11116.996956
1236.295910, 11063.683396
1237.063706, 11010.039137
1237.838905, 10956.012631
1238.607724, 10902.611191
1239.376694, 10849.317739
1240.159034, 10795.198126
1240.932219, 10741.921296
1241.707726, 10688.505151
1242.477608, 10635.591043
1243.253649, 10582.360781
1244.030250, 10529.250317
1244.809197, 10476.117402
1245.592715, 10422.811022
1245.881547, 10404.625215
