Time, Horizontal Forces
   0.000000,    0.000000
   0.000001,    0.000000
   0.000014,    0.000000
   0.000156,    0.000000
   0.000782,    0.000000
   0.002688,    0.000000
   0.007394,    0.000000
   0.014461,    0.000000
   0.023877,    0.000000
   0.035670,    0.000000
   0.049839,    0.000000
   0.066438,    0.000000
   0.085437,    0.000000
   0.106783,    0.000000
   0.130585,    0.000000
   0.156972,    0.000000
   0.186117,    0.000000
   0.217660,    0.000000
   0.251836,    0.000000
   0.289052,    0.000000
   0.328332,    0.000000
   0.371428,    0.000000
   0.416840,    0.000000
   0.465161,    0.000000
   0.516737,    0.000000
   0.570731,    0.000000
   0.628089,    0.000000
   0.688250,    0.000000
   0.752418,    0.000000
   0.819968,    0.000000
   0.891399,    0.000000
   0.964810,    0.000000
   1.041959,    0.000000
   1.123790,    0.000000
   1.208075,    0.000000
   1.297802,    0.000000
   1.390692,    0.000000
   1.487032,    0.000000
   1.587141,    0.000000
   1.692428,    0.000000
   1.800283,    0.000000
   1.912911,    0.000000
   2.029919,    0.000000
   2.152339,    0.000000
   2.277627,    0.000000
   2.407565,    0.000000
   2.542818,    0.000000
   2.683973,    0.000000
   2.827889,    0.000000
   2.976902,    0.000000
   3.131878,    0.000000
   3.291233,    0.000000
   3.454741,    0.000000
   3.623499,    0.000000
   3.798434,    0.000000
   3.976737,    0.000000
   4.163292,    0.000000
   4.356661,    0.000000
   4.554217,    0.000000
   4.758197,    0.000000
   4.967340,    0.000000
   5.183097,    0.000000
   5.403511,    0.000000
   5.631031,    0.000000
   5.861511,    0.000000
   6.100839,    0.000000
   6.348931,    0.000000
   6.600544,    0.000000
   6.856919,    0.000000
   7.118577,    0.000000
   7.390726,    0.000000
   7.669395,    0.000000
   7.956244,    0.000000
   8.249842,    0.000000
   8.549883,    0.000000
   8.856458,    0.000000
   9.169849,    0.000000
   9.495203,    0.000000
   9.822850,    0.000000
  10.154795,    0.000000
  10.500140,    0.000000
  10.852299,    0.000000
  11.212496,    0.000000
  11.578409,    0.000000
  11.954403,    0.000000
  12.336114,    0.000000
  12.728920,    0.000000
  13.129295,    0.000000
  13.536378,    0.000000
  13.952968,    0.000000
  14.375267,    0.000000
  14.811546,    0.000000
  15.252071,    0.000000
  15.702175,    0.000000
  16.161120,    0.000000
  16.633288,    0.000000
  17.107971,    0.000000
  17.595842,    0.000000
  18.095189,    0.000000
  18.598346,    0.000000
  19.109865,    0.000000
  19.635729,    0.000000
  20.168658,    0.000000
  20.715181,    0.000000
  21.268122,    0.000000
  21.831991,    0.000000
  22.403363,    0.000000
  22.983593,    0.000000
  23.572757,    0.000000
  24.176016,    0.000000
  24.787088,    0.000000
  25.410767,    0.000000
  26.043338,    0.000000
  26.169919,    0.000000
  26.494846,    0.000000
  26.629007,    0.000000
  26.643179,    0.000000
  26.655968,    0.000000
  26.658269,    0.000000
  26.661207,    0.000000
  26.662120,    0.000000
  26.662483,    0.000000
  26.663158,    0.000000
  26.663775,    0.000000
  26.668653,    0.000000
  26.701120,    0.000000
  26.822373,    0.000000
  27.193703,    0.000000
  27.787297,    0.000000
  28.397195,    0.000000
  29.015889,    0.000000
  29.647682,    0.000000
  30.283367,    0.000000
  30.929807,    0.000000
  31.591149,    0.000000
  32.256399,    0.000000
  32.934857,    0.000000
  33.617578,    0.000000
  34.311839,    0.000000
  35.015570,    0.000000
  35.732444,    0.000000
  36.457795,    0.000000
  37.193731,    0.000000
  37.932053,    0.000000
  38.683547,    0.000000
  39.446026,    0.000000
  40.217394,    0.000000
  41.000371,    0.000000
  41.794755,    0.000000
  42.598588,    0.000000
  43.412059,    0.000000
  44.235472,    0.000000
  45.067210,    0.000000
  45.914564,    0.000000
  46.769184,    0.000000
  47.636519,    0.000000
  48.513122,    0.000000
  49.397261,    0.000000
  50.298040,    0.000000
  51.201095,    0.000000
  52.113844,    0.000000
  53.048877,    0.000000
  53.985926,    0.000000
  54.930432,    0.000000
  55.884656,    0.000000
  56.860890,    0.000000
  57.847599,    0.000000
  58.841631,    0.000000
  59.844509,    0.000000
  60.859888,    0.000000
  61.888010,    0.000000
  62.925198,    0.000000
  63.980448,    0.000000
  65.044450,    0.000000
  66.117907,    0.000000
  67.204698,    0.000000
  68.299961,    0.000000
  69.411012,    0.000000
  70.533893,    0.000000
  71.662298,    0.000000
  72.806082,    0.000000
  73.962541,    0.000000
  75.132446,    0.000000
  76.312262,    0.000000
  77.506463,    0.000000
  78.709912,    0.000000
  79.929850,    0.000000
  81.159276,    0.000000
  82.401849,    0.000000
  83.659830,    0.000000
  84.924708,    0.000000
  86.204957,    0.000000
  87.493807,    0.000000
  88.798759,    0.000000
  90.112788,    0.000000
  91.437154,    0.000000
  92.777156,    0.000000
  94.136749,    0.000000
  95.506412,    0.000000
  96.886207,    0.000000
  98.274989,    0.000000
  99.678292,    0.000000
 101.100091,    0.000000
 102.531173,    0.000000
 103.978026,    0.000000
 105.434947,    0.000000
 106.904419,    0.000000
 108.390627,    0.000000
 109.895543,    0.000000
 110.198421,    0.000000
 110.564547,    0.000000
 110.834063,    0.000000
 110.876456,    0.000000
 110.921166,    0.000000
 110.959292,    0.000000
 110.967641,    0.000000
 110.977788,    0.000000
 110.989894,    0.000000
 110.992752,    0.000000
 110.992940,    0.000000
 110.993113,    0.000000
 110.994853,    0.000000
 111.009991,    0.000000
 111.097964,    0.000000
 111.547186,    0.000000
 112.860866,    0.000000
 114.266455,    0.000000
 115.679540,    0.000000
 117.099020,    0.000000
 118.534416,    0.000000
 119.981208,    0.000000
 121.446330,    0.000000
 122.917836,    0.000000
 124.396628,    0.000000
 125.890441,    0.000000
 127.390297,    0.000000
 128.903734,    0.000000
 130.430490,    0.000000
 131.969175,    0.000000
 133.521388,    0.000000
 135.084137,    0.000000
 136.662149,    0.000000
 138.246450,    0.000000
 139.842832,    0.000000
 141.455977,    0.000000
 143.083152,    0.000000
 144.718144,    0.000000
 146.366353,    0.000000
 148.023172,    0.000000
 149.691522,    0.000000
 151.375738,    0.000000
 153.066769,    0.000000
 154.775672,    0.000000
 156.495167,    0.000000
 158.230901,    0.000000
 159.973305,    0.000000
 161.731741,    0.000000
 163.507115,    0.000000
 165.286570,    0.000000
 167.085433,    0.000000
 168.889736,    0.000000
 170.710084,    0.000000
 172.535956,    0.000000
 174.379963,    0.000000
 176.236144,    0.000000
 178.102306,    0.000000
 179.986759,    0.000000
 181.884350,    0.000000
 183.785815,    0.000000
 185.707215,    0.000000
 187.642639,    0.000000
 189.592614,    0.000000
 191.549145,    0.000000
 193.521358,    0.000000
 195.503825,    0.000000
 197.509371,    0.000000
 199.524923,    0.000000
 201.548124,    0.000000
 203.581828,    0.000000
 205.630464,    0.000000
 207.687852,    0.000000
 209.764231,    0.000000
 211.855254,    0.000000
 213.958095,    0.000000
 216.078073,    0.000000
 218.215767,    0.000000
 220.349109,    0.000000
 222.500246,    0.000000
 224.669598,    0.000000
 226.839657,    0.000000
 229.034060,    0.000000
 231.243359,    0.000000
 233.464283,    0.000000
 235.699335,    0.000000
 237.946174,    0.000000
 240.215558,    0.000000
 242.488415,    0.000000
 244.781882,    0.000000
 247.080050,    0.000000
 249.392953,    0.000000
 251.729187,    0.000000
 254.061639,    0.000000
 256.417401,    0.000000
 258.787229,    0.000000
 261.173672,    0.000000
 263.574887,    0.000000
 263.671358,    0.000000
 263.762966,    0.000000
 263.861555,    0.000000
 263.879612,    0.000000
 263.900162,    0.000000
 263.906707,    0.000000
 263.916463,    0.000000
 263.921394,    0.000000
 263.923387,    0.000000
 263.924093,    0.000000
 263.924427,    0.000000
 263.924996,    0.000000
 263.925513,    0.000000
 263.930687,    0.000000
 263.977245,    0.000000
 264.226896,    0.000000
 265.237386,    0.000000
 267.412174,    0.000000
 269.583205,    0.000000
 271.771590,    0.000000
 273.977906,    0.000000
 276.192292,    0.000000
 278.411473,    0.000000
 280.641450,    0.000000
 282.890075,    0.000000
 285.144322,    0.000000
 287.407226,    0.000000
 289.685301,    0.000000
 291.971847,    0.000000
 294.276523,    0.000000
 296.593410,    0.000000
 298.917722,    0.000000
 301.252833,    0.000000
 303.600178,    0.000000
 305.963317,    0.000000
 308.342386,    0.000000
 310.726636,    0.000000
 313.117050,    0.000000
 315.522256,    0.000000
 317.934247,    0.000000
 320.364759,    0.000000
 322.806111,    0.000000
 325.253808,    0.000000
 327.713494,    0.000000
 330.189883,    0.000000
 332.678927,    0.000000
 335.173708,    0.000000
 337.687246,    0.000000
 340.212846,    0.000000
 342.749723,    0.000000
 345.297555,    0.000000
 347.857373,    0.000000
 350.427018,    0.000000
 353.011656,    0.000000
 355.603425,    0.000000
 358.212615,    0.000000
 360.827598,    0.000000
 363.454117,    0.000000
 366.100994,    0.000000
 368.762000,    0.000000
 371.429267,    0.000000
 374.103208,    0.000000
 376.791302,    0.000000
 379.489623,    0.000000
 382.201299,    0.000000
 384.930998,    0.000000
 387.672358,    0.000000
 390.421265,    0.000000
 393.185254,    0.000000
 395.960141,    0.000000
 398.747524,    0.000000
 401.548619,    0.000000
 404.360312,    0.000000
 407.190528,    0.000000
 410.021887,    0.000000
 412.867217,    0.000000
 415.726201,    0.000000
 418.602485,    0.000000
 421.493731,    0.000000
 424.400312,    0.000000
 427.316887,    0.000000
 430.237645,    0.000000
 433.177335,    0.000000
 436.125433,    0.000000
 439.086448,    0.000000
 442.056814,    0.000000
 445.041222,    0.000000
 448.041262,    0.000000
 451.051126,    0.000000
 454.070852,    0.000000
 457.109647,    0.000000
 460.155685,    0.000000
 463.214483,    0.000000
 466.284829,    0.000000
 469.370966,    0.000000
 472.466897,    0.000000
 475.579008,    0.000000
 478.704065,    0.000000
 481.840231,    0.000000
 484.987183,    0.000000
 488.147155,    0.000000
 491.321951,    0.000000
 494.513920,    0.000000
 497.713657,    0.000000
 500.923931,    0.000000
 504.140767,    0.000000
 504.789070,    0.000000
 507.091731,    0.000000
 507.117677,    0.000000
 507.159085,    0.000000
 507.165796,    0.000000
 507.169939,    0.000000
 507.171581,    0.000000
 507.173220,    0.000000
 507.189605,    0.000000
 507.339902,    0.000000
 508.087235,    0.000000
 510.943792,    0.000000
 514.187978,    0.000000
 517.452065,    0.000000
 520.717477,    0.000000
 524.007872,    0.000000
 527.303099,    0.000000
 530.615794,    0.000000
 533.939278,    0.000000
 537.278157,    0.000000
 540.627039,    0.000000
 543.991458,    0.000000
 547.364457,    0.000000
 550.758404,    0.000000
 554.164052,    0.000000
 557.578302,    0.000000
 561.008264,    0.000000
 564.450928,    0.000000
 567.900736,    0.000000
 571.365015,    0.000000
 574.841034,    0.000000
 578.333107,    0.000000
 581.838122,    0.000000
 585.358801,    0.000000
 588.882201,    0.000000
 592.422945,    0.000000
 595.974916,    0.000000
 599.542915,    0.000000
 603.118290,    0.000000
 606.709583,    0.000000
 610.314935,    0.000000
 613.933479,    0.000000
 617.565515,    0.000000
 621.206300,    0.000000
 624.863452,    0.000000
 628.535184,    0.000000
 632.220959,    0.000000
 635.917931,    0.000000
 639.631641,    0.000000
 643.353475,    0.000000
 647.089852,    0.000000
 650.839357,    0.000000
 654.596071,    0.000000
 658.377799,    0.000000
 662.165256,    0.000000
 665.963105,    0.000000
 669.774314,    0.000000
 673.598442,    0.000000
 677.434635,    0.000000
 681.291518,    0.000000
 685.160417,    0.000000
 689.039234,    0.000000
 692.931144,    0.000000
 696.832410,    0.000000
 700.756330,    0.000000
 704.682464,    0.000000
 708.628034,    0.000000
 712.584787,    0.000000
 716.559773,    0.000000
 720.539275,    0.000000
 724.537449,    0.000000
 728.548926,    0.000000
 732.577085,    0.000000
 736.622639,    0.000000
 740.674237,    0.000000
 744.738236,    0.000000
 748.823272,    0.000000
 752.910552,    0.000000
 757.016260,    0.000000
 761.141747,    0.000000
 765.273152,    0.000000
 769.418390,    0.000000
 773.578345,    0.000000
 777.745710,    0.000000
 781.928315,    0.000000
 786.125809,    0.000000
 790.336488,    0.000000
 794.562164,    0.000000
 798.802116,    0.000000
 803.050237,    0.000000
 807.315515,    0.000000
 811.589358,    0.000000
 815.880756,    0.000000
 820.190194,    0.000000
 823.620470,    0.000000
 824.511379,    0.000000
 828.844571,    0.000000
 833.192403,    0.000000
 837.550309,    0.000000
 841.918516,    0.000000
 846.308232,    0.000000
 850.700745,    0.000000
 855.109925,    0.000000
 859.536690,    0.000000
 863.964684,    0.000000
 868.408194,    0.000000
 872.868274,    0.000000
 877.346079,    0.000000
 878.242159,    0.000000
 879.099921,    0.000000
 879.816704,    0.000000
 879.839401,    0.000000
 879.840380,    0.000000
 879.841360,    0.000000
 879.851156,    0.000000
 879.933943,    0.000000
 880.450043,    0.000000
 882.453601,    0.000000
 887.026448,    0.000000
 891.692320,    0.000000
 896.371670,    0.000000
 901.060391,    0.000000
 905.763699,    0.000000
 910.473445,    0.000000
 915.192847,    0.000000
 919.918664,    0.000000
 924.662938,    0.000000
 929.414114,    0.000000
 934.178792,    0.000000
 938.954960,    0.000000
 943.745996,    0.000000
 948.547714,    0.000000
 953.359130,    0.000000
 958.175579,    0.000000
 962.996408,    0.000000
 967.835657,    0.000000
 972.677751,    0.000000
 977.532975,    0.000000
 982.398225,    0.000000
 987.271396,    0.000000
 992.161192,    0.000000
 997.054609,    0.000000
 997.425698,   12.044101
 997.796402,   24.298642
 998.166271,   36.747520
 998.537772,   49.473790
 998.909136,   62.418256
 999.280373,   75.580865
 999.653540,   89.035460
1000.026475,  102.705863
1000.398121,  116.551935
1000.772122,  130.709386
1001.144687,  145.036142
1001.518822,  159.647011
1001.891609,  174.428631
1002.265514,  189.477791
1002.640688,  204.802446
1003.016378,  220.373373
1003.391470,  236.144355
1003.768203,  252.209710
1004.143761,  268.450138
1004.520729,  284.976838
1004.898483,  301.764295
1005.276739,  318.800920
1005.655435,  336.084528
1006.031553,  353.475812
1006.404893,  370.960602
1006.784522,  388.964383
1007.162825,  407.131888
1007.541980,  425.566579
1007.922306,  444.285443
1008.301950,  463.197837
1008.683428,  482.429374
1009.064867,  501.887429
1009.445750,  521.544886
1009.828715,  541.538428
1010.209237,  561.632328
1010.592647,  582.106986
1010.976883,  602.855764
1011.359834,  623.764619
1011.742292,  644.874613
1012.123887,  666.164026
1012.505258,  687.667165
1012.891434,  709.670212
1013.277505,  731.898435
1013.664262,  754.397606
1014.050654,  777.106685
1014.436214,  799.997081
1014.824784,  823.297680
1015.213458,  846.837376
1015.602935,  870.659019
1015.992667,  894.729712
1016.380063,  918.888018
1016.769054,  943.377240
1017.159916,  968.217497
1017.551975,  993.368567
1017.943818, 1018.740726
1018.335877, 1044.361619
1018.726811, 1070.142865
1019.119403, 1096.267476
1019.512199, 1122.640411
1019.907567, 1149.422475
1020.301395, 1176.336577
1020.695766, 1203.523447
1021.091040, 1231.008816
1021.486290, 1258.729046
1021.884013, 1286.860490
1022.281627, 1315.223015
1022.677145, 1343.673049
1023.073757, 1372.438135
1023.473972, 1401.703581
1023.872836, 1431.110048
1024.271608, 1460.748417
1024.674157, 1490.908463
1025.073145, 1521.041892
1025.476690, 1551.760551
1025.881540, 1582.822732
1026.281173, 1613.725541
1026.683496, 1645.076195
1027.086385, 1676.712131
1027.490041, 1708.650058
1027.890307, 1740.559361
1028.295451, 1772.915783
1028.701981, 1805.441711
1029.111782, 1838.288792
1029.520479, 1871.106732
1029.928527, 1903.931654
1030.333178, 1936.541477
1030.743997, 1969.707481
1031.152566, 2002.750789
1031.563588, 2036.051791
1031.971972, 2069.197737
1032.384233, 2102.717700
1032.796578, 2136.303879
1033.210067, 2170.042871
1033.622015, 2203.715377
1034.034463, 2237.487917
1034.448716, 2271.467659
1034.864329, 2305.618699
1035.277299, 2339.611739
1035.693382, 2373.920553
1036.112271, 2408.520960
1036.531691, 2443.225698
1036.947698, 2477.707696
1037.364863, 2512.345158
1037.783291, 2547.147233
1038.203875, 2582.188850
1038.624306, 2617.277955
1039.042208, 2652.215460
1039.463428, 2687.490303
1039.886043, 2722.942412
1040.305215, 2758.165196
1040.727412, 2793.702116
1041.151781, 2829.482331
1041.574915, 2865.218557
1042.001758, 2901.328942
1042.425677, 2937.252199
1042.853380, 2973.557007
1043.280399, 3009.864439
1043.707482, 3046.238099
1044.136200, 3082.811780
1044.564572, 3119.416807
1044.993892, 3156.163652
1045.423178, 3192.968367
1045.852485, 3229.835521
1046.283895, 3266.944319
1046.717854, 3304.333877
1047.148549, 3341.503216
1047.583871, 3379.133331
1048.018497, 3416.764862
1048.454540, 3454.580797
1048.890450, 3492.446917
1049.327575, 3530.480290
1049.764268, 3568.537750
1050.205183, 3607.025523
1050.643737, 3645.369289
1051.079849, 3683.560704
1051.519997, 3722.167326
1051.962478, 3761.041106
1052.406326, 3800.097678
1052.845545, 3838.808627
1053.290327, 3878.072321
1053.733160, 3917.226216
1054.179459, 3956.749342
1054.626183, 3996.373088
1055.073032, 4036.070801
1055.520605, 4075.895640
1055.969950, 4115.941354
1056.419832, 4156.098204
1056.869241, 4196.275910
1057.315440, 4236.228815
1057.764955, 4276.541288
1058.217142, 4317.156494
1058.670927, 4357.978843
1059.119471, 4398.392281
1059.125247, 4398.913080
1059.579930, 4439.942734
1060.035509, 4481.047363
1060.488067, 4521.873105
1060.946401, 4563.214233
1061.405987, 4604.661948
1061.863402, 4645.907181
1062.321023, 4687.164481
1062.781800, 4728.699575
1063.244985, 4770.445006
1063.709443, 4812.298034
1064.171979, 4853.970412
1064.636842, 4895.845208
1065.103454, 4937.869928
1065.569593, 4979.844232
1066.034789, 5021.725698
1066.501678, 5063.751687
1066.969196, 5105.826027
1067.439176, 5148.113670
1067.911961, 5190.645328
1068.383113, 5233.021178
1068.854492, 5275.408555
1069.325881, 5317.787756
1069.800809, 5360.476049
1070.272981, 5402.907114
1070.746940, 5445.489411
1071.218039, 5487.804857
1071.693053, 5530.462399
1072.168471, 5573.146331
1072.645306, 5615.947402
1073.120072, 5658.552241
1073.599482, 5701.563685
1074.079306, 5744.601522
1074.561159, 5787.810494
1075.045255, 5831.209661
1075.529341, 5874.596548
1076.014510, 5918.068933
1076.499556, 5961.518614
1076.987315, 6005.199634
1077.475086, 6048.869596
1077.963988, 6092.628563
1078.451889, 6136.285335
1078.942220, 6180.147134
1079.432018, 6223.948477
1079.924920, 6268.014428
1080.417192, 6312.010808
1080.911829, 6356.205342
1081.401373, 6399.930814
1081.899272, 6444.389482
1082.397844, 6488.894095
1082.896509, 6533.392671
1083.396483, 6577.993548
1083.892611, 6622.236558
1084.390818, 6666.650316
1084.891859, 6711.301949
1085.391532, 6755.816354
1085.895971, 6800.740241
1086.397187, 6845.361202
1086.899379, 6890.053445
1087.405925, 6935.117312
1087.914011, 6980.301889
1088.424076, 7025.645933
1088.933266, 7070.895232
1089.443722, 7116.240071
1089.956651, 7161.787437
1090.462656, 7206.702241
1090.975916, 7252.243869
1091.490700, 7297.902954
1092.002004, 7343.234981
1092.518658, 7389.023477
1093.034518, 7434.722921
1093.548316, 7480.220883
1094.069046, 7526.314229
1094.593293, 7572.699413
1095.115014, 7618.841220
1095.636126, 7664.909362
1096.159531, 7711.160204
1096.683880, 7757.474237
1097.207994, 7803.747010
1097.731252, 7849.923474
1098.257993, 7896.386543
1098.788500, 7943.160692
1099.318755, 7989.890934
1099.850672, 8036.745774
1100.380549, 8083.398741
1100.913852, 8130.331162
1101.449996, 8177.491122
1101.984568, 8224.489642
1102.522642, 8271.773104
1103.061015, 8319.059154
1103.595656, 8365.993616
1104.133984, 8413.228217
1104.676079, 8460.769286
1105.217919, 8508.263296
1105.754810, 8555.298632
1106.291649, 8602.304913
1106.834014, 8649.770448
1107.383562, 8697.839324
1107.926828, 8745.332318
1108.478420, 8793.527598
1109.026471, 8841.386497
1109.573378, 8889.118887
1110.126427, 8937.360722
1110.677567, 8985.408438
1111.229429, 9033.491573
1111.785100, 9081.878885
1112.336222, 9129.841587
1112.891413, 9178.130497
1113.444812, 9226.234730
1113.996200, 9274.135566
1114.553199, 9322.495136
1115.110654, 9370.865000
1115.668536, 9419.242176
1116.232040, 9468.077032
1116.795863, 9516.908899
1117.355623, 9565.357792
1117.918099, 9614.011160
1118.483654, 9662.899754
1119.047831, 9711.637516
1119.615269, 9760.625295
1120.182247, 9809.540998
1120.754136, 9858.847956
1121.325593, 9908.084553
1121.898637, 9957.424470
1122.468437, 10006.451251
1123.041674, 10055.740276
1123.616684, 10105.147610
1124.188958, 10154.285179
1124.765450, 10203.750611
1125.341435, 10253.137265
1125.924404, 10303.087520
1126.508667, 10353.112251
1127.091788, 10403.002531
1127.672629, 10452.660834
1128.255181, 10502.428734
1128.834538, 10551.886591
1129.417506, 10601.615683
1130.000039, 10651.270161
1130.586122, 10701.189389
1131.177357, 10751.509067
1131.771426, 10802.030597
1132.365096, 10852.478292
1132.960813, 10903.059791
1133.558503, 10953.768300
1134.155154, 11004.347603
1134.752217, 11054.920753
1135.350549, 11105.559879
1135.948929, 11156.161363
1136.547025, 11206.696763
1137.148939, 11257.512577
1137.751466, 11308.337172
1138.352208, 11358.967998
1138.955504, 11409.770776
1139.562840, 11460.869939
1140.168294, 11511.766059
1140.777968, 11562.972427
1141.386426, 11614.031180
1141.994720, 11665.030721
1142.605113, 11716.160631
1143.216630, 11767.338394
1143.833088, 11818.883060
1144.449610, 11870.385452
1145.067623, 11921.964532
1145.689157, 11973.789210
1146.307509, 12025.299465
1146.922966, 12076.519809
1147.543537, 12128.117166
1148.160951, 12179.402452
1148.786146, 12231.284507
1149.406679, 12282.729047
1150.033767, 12334.666539
1150.656422, 12386.185300
1151.283907, 12438.052578
1151.913065, 12490.005871
1152.540121, 12541.733030
1153.171548, 12593.768048
1153.805007, 12645.916981
1154.432469, 12697.518296
1155.066484, 12749.604928
1155.699450, 12801.550818
1156.330752, 12853.305376
1156.970933, 12905.732995
1157.603734, 12957.499878
1158.237028, 13009.251678
1158.881518, 13061.862231
1159.519766, 13113.905574
1160.162728, 13166.275913
1160.810562, 13218.984813
1161.454037, 13271.279746
1162.094479, 13323.269548
1162.744941, 13376.013954
1163.396295, 13428.770038
1164.052803, 13481.882429
1164.699432, 13534.133614
1165.348608, 13586.529968
1165.998492, 13638.922027
1166.654630, 13691.756348
1167.306475, 13744.181943
1167.964372, 13797.031425
1168.621632, 13849.765801
1169.283468, 13902.802837
1169.937987, 13955.188549
1170.597655, 14007.922032
1171.264242, 14061.142938
1171.926549, 14113.955148
1172.591885, 14166.942368
1173.251356, 14219.395439
1173.922968, 14272.747246
1174.584907, 14325.261935
1175.260462, 14378.788853
1175.925958, 14431.448699
1176.600935, 14484.789723
1177.280650, 14538.433957
1177.951492, 14591.306256
1178.623495, 14644.199398
1179.301040, 14697.457437
1179.975919, 14750.433458
1180.653393, 14803.540896
1181.326768, 14856.254177
1182.005346, 14909.302000
1182.685982, 14962.436875
1183.368403, 15015.636351
1184.062923, 15069.703262
1184.750859, 15123.179807
1185.441100, 15176.758384
1186.131240, 15230.251419
1186.817397, 15283.357893
1187.500033, 15336.114649
1188.194452, 15389.704533
1188.882824, 15442.748269
1189.573411, 15495.883817
1190.258531, 15548.519563
1190.953462, 15601.829881
1191.650560, 15655.225291
1192.349867, 15708.707939
1193.043853, 15761.701238
1193.741638, 15814.902807
1194.441235, 15868.159519
1195.148113, 15921.886429
1195.850622, 15975.195984
1196.566347, 16029.422694
1197.268306, 16082.519038
1197.976759, 16136.020932
1198.679238, 16188.984896
1199.384654, 16242.084105
1200.092409, 16295.272286
1200.801846, 16348.498950
1201.517398, 16402.095414
1202.222557, 16454.823845
1202.939711, 16508.360300
1203.653161, 16561.529142
1204.375820, 16615.292924
1205.093603, 16668.601014
1205.809533, 16721.679229
1206.530992, 16775.074683
1207.253476, 16828.452046
1207.978362, 16881.912150
1208.707767, 16935.609798
1209.433360, 16988.930252
1210.153841, 17041.779225
1210.887279, 17095.482504
1211.609587, 17148.272795
1212.329940, 17200.824257
1213.051632, 17253.377286
1213.783210, 17306.552757
1214.506615, 17359.035287
1215.238318, 17412.021572
1215.977443, 17465.444360
1216.720672, 17519.060907
1217.462577, 17572.478108
1218.208944, 17626.112212
1218.953362, 17679.500904
1219.689218, 17732.171058
1220.429692, 17785.068168
1221.174086, 17838.140266
1221.920584, 17891.255974
1222.672682, 17944.662489
1223.417183, 17997.421301
1224.164454, 18050.269027
1224.905508, 18102.569472
1225.657282, 18155.518714
1226.405266, 18208.091226
1227.160218, 18261.043468
1227.918346, 18314.106399
1228.675762, 18367.006662
1229.435739, 18419.972487
1230.194569, 18472.744331
1230.951763, 18525.288461
1231.718280, 18578.364622
1232.489181, 18631.626843
1233.246841, 18683.856905
1234.000240, 18735.678655
1234.769801, 18788.496348
1235.534373, 18840.852980
1236.295910, 18892.883993
1237.063706, 18945.224522
1237.838905, 18997.949205
1238.607724, 19050.118418
1239.376694, 19102.177135
1240.159034, 19155.018566
1240.932219, 19207.117129
1241.707726, 19259.248896
1242.477608, 19310.879152
1243.253649, 19362.799162
1244.030250, 19414.631749
1244.809197, 19466.495334
1245.592715, 19518.536272
1245.881547, 19537.665082
