Time, Powers
   0.000000,    0.033315
   0.001667,   33.257564
   0.003333,   66.250808
   0.005000,   99.149433
   0.006667,  131.977237
   0.008333,  164.734222
   0.010000,  197.420386
   0.011667,  230.035731
   0.013333,  262.580255
   0.015000,  295.053959
   0.016667,  327.456844
   0.018333,  359.788908
   0.020000,  391.704020
   0.021667,  423.506701
   0.023333,  455.240263
   0.025000,  486.904705
   0.026667,  518.500029
   0.028333,  550.026233
   0.030000,  581.483319
   0.031667,  612.871285
   0.033333,  644.190132
   0.035000,  675.439860
   0.036667,  706.271533
   0.038333,  736.992155
   0.040000,  767.645389
   0.041667,  798.231234
   0.043333,  828.749692
   0.045000,  859.200761
   0.046667,  889.584442
   0.048333,  919.900736
   0.050000,  950.149641
   0.051667,  980.331159
   0.053333, 1010.094564
   0.055000, 1039.748450
   0.056667, 1069.336703
   0.058333, 1098.859324
   0.060000, 1128.316313
   0.061667, 1157.707670
   0.063333, 1187.033395
   0.065000, 1216.293489
   0.066667, 1245.487950
   0.068333, 1274.616779
   0.070000, 1303.328428
   0.071667, 1331.932228
   0.073333, 1360.472173
   0.075000, 1388.948261
   0.076667, 1417.360492
   0.078333, 1445.708868
   0.080000, 1473.993388
   0.081667, 1502.214051
   0.083333, 1530.370858
   0.085000, 1558.463809
   0.086667, 1585.548223
   0.088333, 1612.431115
   0.090000, 1639.229277
   0.091667, 1665.942710
   0.093333, 1692.571414
   0.095000, 1719.115388
   0.096667, 1745.574633
   0.098333, 1771.949150
   0.100000, 1798.238936
   0.101667, 1824.443994
   0.103333, 1849.945574
   0.105000, 1875.283114
   0.106667, 1900.533750
   0.108333, 1925.697482
   0.110000, 1950.774311
   0.111667, 1975.764235
   0.113333, 2000.667256
   0.115000, 2025.483373
   0.116667, 2050.212585
   0.118333, 2074.854895
   0.120000, 2098.966807
   0.121667, 2122.939747
   0.123333, 2146.829285
   0.125000, 2170.635421
   0.126667, 2194.358154
   0.128333, 2217.997484
   0.130000, 2241.553412
   0.131667, 2265.025937
   0.133333, 2288.415059
   0.135000, 2311.720779
   0.136667, 2334.514030
   0.138333, 2357.173552
   0.140000, 2379.753109
   0.141667, 2402.252699
   0.143333, 2424.672324
   0.145000, 2447.011982
   0.146667, 2469.271675
   0.148333, 2491.451402
   0.150000, 2513.551163
   0.151667, 2535.570958
   0.153333, 2557.096496
   0.155000, 2578.493520
   0.156667, 2599.813944
   0.158333, 2621.057770
   0.160000, 2642.224997
   0.161667, 2663.315625
   0.163333, 2684.329655
   0.165000, 2705.267085
   0.166667, 2726.127916
   0.168333, 2746.912148
   0.170000, 2767.220521
   0.171667, 2787.405552
   0.173333, 2807.517277
   0.175000, 2827.555695
   0.176667, 2847.520807
   0.178333, 2867.412613
   0.180000, 2887.231112
   0.181667, 2906.976305
   0.183333, 2926.648191
   0.185000, 2946.246771
   0.186667, 2963.749827
   0.188333, 2980.904010
   0.190000, 2997.960456
   0.191667, 3014.919166
   0.193333, 3031.780139
   0.195000, 3048.543375
   0.196667, 3065.208875
   0.198333, 3081.776638
   0.200000, 3098.246664
   0.201667, 3114.618953
   0.203333, 3130.398295
   0.205000, 3146.022386
   0.206667, 3161.553312
   0.208333, 3176.991073
   0.210000, 3192.335669
   0.211667, 3207.587101
   0.213333, 3222.745367
   0.215000, 3237.810469
   0.216667, 3252.782406
   0.218333, 3267.661177
   0.220000, 3282.054413
   0.221667, 3296.310683
   0.223333, 3310.479284
   0.225000, 3324.560216
   0.226667, 3338.553479
   0.228333, 3352.459072
   0.230000, 3366.276996
   0.231667, 3380.007251
   0.233333, 3393.649837
   0.235000, 3407.204753
   0.236667, 3420.309883
   0.238333, 3433.287079
   0.240000, 3446.181844
   0.241667, 3458.994180
   0.243333, 3471.724087
   0.245000, 3484.371563
   0.246667, 3496.936610
   0.248333, 3509.419227
   0.250000, 3521.819414
   0.251667, 3534.137171
   0.253333, 3546.039343
   0.255000, 3557.822200
   0.256667, 3569.527615
   0.258333, 3581.155588
   0.260000, 3592.706119
   0.261667, 3604.179209
   0.263333, 3615.574858
   0.265000, 3626.893065
   0.266667, 3638.133830
   0.268333, 3649.297154
   0.270000, 3660.077529
   0.271667, 3670.746798
   0.273333, 3681.343367
   0.275000, 3691.867237
   0.276667, 3702.318408
   0.278333, 3712.696881
   0.280000, 3723.002654
   0.281667, 3733.235729
   0.283333, 3743.396105
   0.285000, 3753.483782
   0.286667, 3763.226251
   0.288333, 3772.866314
   0.290000, 3782.438249
   0.291667, 3791.942057
   0.293333, 3801.377737
   0.295000, 3810.745289
   0.296667, 3820.044714
   0.298333, 3829.276011
   0.300000, 3838.439181
   0.301667, 3847.534223
   0.303333, 3856.467636
   0.305000, 3865.325555
   0.306667, 3874.119908
   0.308333, 3882.850695
   0.310000, 3891.517915
   0.311667, 3900.121569
   0.312369, 3903.729595
   0.314036, 3912.107720
   0.315703, 3920.424288
   0.317369, 3928.679300
   0.319036, 3936.784406
   0.320703, 3944.634594
   0.322369, 3952.427442
   0.324036, 3960.162949
   0.325703, 3967.841114
   0.327369, 3975.461939
   0.329036, 3983.025423
   0.330703, 3990.531566
   0.332369, 3997.980367
   0.334036, 4005.371828
   0.335703, 4012.569430
   0.337369, 4019.411028
   0.339036, 4026.201976
   0.340703, 4032.942277
   0.342369, 4039.631928
   0.344036, 4046.270931
   0.345703, 4052.859285
   0.347369, 4059.396990
   0.349036, 4065.884047
   0.350703, 4072.320455
   0.352369, 4078.564024
   0.354036, 4084.445908
   0.355703, 4090.284171
   0.357369, 4096.078814
   0.359036, 4101.829838
   0.360703, 4107.537241
   0.362369, 4113.201023
   0.364036, 4118.821186
   0.365703, 4124.397728
   0.367369, 4129.930650
   0.368518, 4133.719790
   0.370185, 4137.103042
   0.371852, 4140.469430
   0.373518, 4143.818953
   0.375185, 4147.151611
   0.376852, 4150.467405
   0.378518, 4153.766335
   0.380185, 4157.048400
   0.381852, 4160.313600
   0.383518, 4163.561936
   0.385185, 4166.793408
   0.386852, 4168.425821
   0.388518, 4170.053718
   0.390185, 4171.677098
   0.391852, 4173.295961
   0.393518, 4174.910308
   0.395185, 4175.676748
   0.396852, 4176.442061
   0.398518, 4177.206245
   0.400185, 4177.969301
   0.401852, 4178.731228
   0.403518, 4178.614107
   0.405185, 4178.496984
   0.406852, 4178.379859
   0.408518, 4178.262733
   0.410185, 4178.145606
   0.410185, 3841.203051
   1.604481, 3839.544059
   2.823272, 3843.379863
   4.081386, 3800.397292
   5.429985, 3666.373319
   6.915721, 3540.970759
   8.560390, 3429.091042
  10.397371, 3317.419547
  12.485334, 3202.097703
  14.968358, 3046.523818
  14.968358, 2546.330782
  15.830802, 2545.711883
  16.693245, 2545.093097
  17.555688, 2544.474424
  18.418132, 2543.855866
  19.280575, 2543.237421
  20.143018, 2542.619089
  21.005461, 2542.000871
  21.867905, 2541.382767
  22.730348, 2540.764777
  23.592791, 2540.146900
  24.455235, 2539.529137
  25.317678, 2538.911487
  26.180121, 2538.293951
  27.042565, 2537.676528
  27.905008, 2537.059219
  28.767451, 2536.442024
  29.629895, 2535.824942
  30.492338, 2535.207974
  31.354781, 2534.591120
  32.217225, 2533.974379
  33.079668, 2533.357752
  33.942111, 2532.741238
  34.804555, 2532.124838
  35.666998, 2531.508551
  36.529441, 2530.892378
  37.391885, 2530.276319
  38.254328, 2529.660373
  39.116771, 2529.044541
  39.979215, 2528.428822
  39.979215, 1444.641222
  41.139143, 1328.419631
  42.301874, 1240.944591
  43.463193, 1149.783984
  44.619342, 1055.509330
  45.768081,  960.491414
  46.905098,  860.620535
  48.026307,  755.665852
  49.143709,  675.720402
  50.253604,  591.374417
  50.253604, 3839.473382
  50.833005, 3840.015801
  51.418049, 3842.007398
  52.008556, 3845.585487
  52.607292, 3829.545600
  53.225054, 3762.666060
  53.871173, 3695.487102
  54.548638, 3628.181786
  55.259779, 3566.228992
  56.006440, 3507.932767
  56.006440, 1428.324258
  57.858634, 1426.454513
  59.711637, 1424.586303
  61.565449, 1422.719631
  63.420072, 1420.854497
  65.275506, 1418.990900
  67.131752, 1417.128843
  68.988810, 1415.268325
  70.846682, 1413.409347
  72.705368, 1411.551910
  72.705368, 1056.532528
  73.351774, 1059.708166
  73.988012,  984.297160
  74.626788,  949.266481
  75.268241,  915.498113
  75.912514,  882.984105
  76.559398,  850.621020
  77.208755,  818.614773
  77.860123,  785.981984
  78.512585,  751.364604
  78.512585, 1414.025714
  83.512585, 1410.121949
  88.512585, 1406.227440
  93.512585, 1402.373304
  98.512585, 1398.610743
 103.512585, 1394.856858
 108.512585, 1391.111634
 113.512585, 1387.375060
 118.512585, 1383.647121
 123.512585, 1379.927803
 123.512585,  758.943599
 123.514252,  758.948039
 123.515918,  758.952445
 123.517585,  758.956851
 123.519252,  758.960713
 123.520918,  758.964471
 123.522585,  758.968229
 123.524252,  758.971987
 123.525918,  758.975745
 123.527585,  758.979503
 123.529252,  758.983261
 123.530918,  758.987019
 123.532585,  758.990777
 123.534252,  758.994535
 123.535918,  758.998078
 123.537585,  759.001579
 123.539252,  759.005080
 123.540918,  759.008581
 123.542585,  759.012082
 123.544252,  759.015583
 123.545918,  759.019084
 123.547585,  759.022585
 123.549252,  759.026087
 123.550918,  759.029588
 123.552585,  759.033066
 123.554252,  759.036541
 123.555918,  759.040016
 123.557585,  759.043490
 123.559252,  759.046965
 123.560918,  759.050439
 123.562585,  759.053914
 123.564252,  759.057388
 123.565918,  759.060863
 123.567585,  759.064338
 123.569252,  759.066746
 123.570918,  759.068950
 123.572585,  759.071153
 123.574252,  759.073356
 123.575918,  759.075559
 123.577585,  759.077762
 123.579252,  759.079966
 123.580918,  759.082169
 123.582585,  759.084372
 123.584252,  759.086575
 123.585918,  759.089704
 123.587585,  759.093012
 123.589252,  759.096320
 123.590918,  759.099628
 123.592585,  759.102935
 123.594252,  759.106243
 123.595918,  759.109551
 123.597585,  759.112859
 123.599252,  759.116166
 123.600918,  759.119474
 123.602585,  759.122410
 123.604252,  759.125275
 123.605918,  759.128140
 123.607585,  759.131004
 123.609252,  759.133869
 123.610918,  759.136733
 123.612585,  759.139598
 123.614252,  759.142462
 123.615918,  759.145327
 123.617585,  759.148191
 123.619252,  759.151110
 123.620918,  759.154039
 123.622585,  759.156968
 123.624252,  759.159897
 123.625918,  759.162826
 123.627585,  759.165755
 123.629252,  759.168684
 123.630918,  759.171613
 123.632585,  759.174542
 123.634252,  759.177471
 123.635918,  759.180890
 123.637585,  759.184403
 123.639252,  759.187917
 123.640918,  759.191430
 123.642585,  759.194944
 123.644252,  759.198457
 123.645918,  759.201971
 123.647585,  759.205484
 123.649252,  759.208998
 123.650918,  759.212511
 123.652585,  759.215561
 123.654252,  759.218521
 123.655918,  759.221481
 123.657585,  759.224441
 123.659252,  759.227401
 123.660918,  759.230361
 123.662585,  759.233321
 123.664252,  759.236281
 123.665918,  759.239241
 123.667585,  759.242201
 123.669252,  759.245145
 123.670918,  759.248086
 123.672585,  759.251028
 123.674252,  759.253969
 123.675918,  759.256911
 123.677585,  759.259852
 123.679252,  759.262794
 123.680918,  759.265735
 123.682585,  759.268677
 123.684252,  759.271618
 123.685918,  759.273528
 123.687585,  759.275239
 123.689252,  759.276950
 123.690918,  759.278660
 123.692585,  759.280371
 123.694252,  759.282082
 123.695918,  759.283793
 123.697585,  759.285504
 123.699252,  759.287215
 123.700918,  759.288925
 123.702585,  759.290451
 123.704252,  759.291940
 123.705918,  759.293430
 123.707585,  759.294919
 123.709252,  759.296408
 123.710918,  759.297898
 123.712585,  759.299387
 123.714252,  759.300877
 123.715918,  759.302366
 123.717585,  759.303856
 123.719252,  759.305300
 123.720918,  759.306736
 123.722585,  759.308172
 123.724252,  759.309608
 123.725918,  759.311044
 123.727585,  759.312479
 123.729252,  759.313915
 123.730918,  759.315351
 123.732585,  759.316787
 123.734252,  759.318223
 123.735918,  759.320134
 123.737585,  759.322137
 123.739252,  759.324140
 123.740918,  759.326144
 123.742585,  759.328147
 123.744252,  759.330150
 123.745918,  759.332153
 123.747585,  759.334156
 123.749252,  759.336160
 123.750918,  759.338163
 123.752585,  759.339694
 123.754252,  759.341135
 123.755918,  759.342575
 123.757585,  759.344015
 123.759252,  759.345456
 123.760918,  759.346896
 123.762585,  759.348336
 123.764252,  759.349777
 123.765918,  759.351217
 123.767585,  759.352657
 123.769252,  759.354134
 123.770918,  759.355618
 123.772585,  759.357101
 123.774252,  759.358585
 123.775918,  759.360069
 123.777585,  759.361552
 123.779252,  759.363036
 123.780918,  759.364520
 123.782585,  759.366003
 123.784252,  759.367487
 123.785918,  759.369523
 123.787585,  759.371665
 123.789252,  759.373808
 123.790918,  759.375950
 123.792585,  759.378092
 123.794252,  759.380235
 123.795918,  759.382377
 123.797585,  759.384520
 123.799252,  759.386662
 123.800918,  759.388805
 123.802585,  759.390541
 123.804252,  759.392200
 123.805918,  759.393858
 123.807585,  759.395516
 123.809252,  759.397175
 123.810918,  759.398833
 123.812585,  759.400491
 123.814252,  759.402150
 123.815918,  759.403808
 123.817585,  759.405467
 123.819252,  759.407215
 123.820918,  759.408982
 123.822585,  759.410748
 123.824252,  759.412515
 123.825918,  759.414281
 123.827585,  759.416048
 123.829252,  759.417814
 123.830918,  759.419580
 123.832585,  759.421347
 123.834252,  759.423113
 123.835918,  759.425468
 123.837585,  759.427937
 123.839252,  759.430405
 123.840918,  759.432874
 123.842585,  759.435342
 123.844252,  759.437811
 123.845918,  759.440279
 123.847585,  759.442748
 123.849252,  759.445216
 123.850918,  759.447685
 123.852585,  759.449767
 123.854252,  759.451774
 123.855918,  759.453781
 123.857585,  759.455788
 123.859252,  759.457795
 123.860918,  759.459803
 123.862585,  759.461810
 123.864252,  759.463817
 123.865918,  759.465824
 123.867585,  759.467831
 123.869252,  759.469930
 123.870918,  759.472047
 123.872585,  759.474164
 123.874252,  759.476281
 123.875918,  759.478398
 123.877585,  759.480515
 123.879252,  759.482632
 123.880918,  759.484749
 123.882585,  759.486866
 123.884252,  759.488983
 123.885918,  759.491673
 123.887585,  759.494473
 123.889252,  759.497274
 123.890918,  759.500075
 123.892585,  759.502875
 123.894252,  759.505676
 123.895918,  759.508477
 123.897585,  759.511277
 123.899252,  759.514078
 123.900918,  759.516879
 123.902585,  759.519261
 123.904252,  759.521562
 123.905918,  759.523863
 123.907585,  759.526164
 123.909252,  759.528466
 123.910918,  759.530767
 123.912585,  759.533068
 123.914252,  759.535369
 123.915918,  759.537670
 123.917585,  759.539972
 123.919252,  759.542319
 123.920918,  759.544676
 123.922585,  759.547033
 123.924252,  759.549389
 123.925918,  759.551746
 123.927585,  759.554103
 123.929252,  759.556460
 123.930918,  759.558816
 123.932585,  759.561173
 123.934252,  759.563530
 123.935918,  759.566407
 123.937585,  759.569385
 123.939252,  759.572364
 123.940918,  759.575342
 123.942585,  759.578320
 123.944252,  759.581298
 123.945918,  759.584276
 123.947585,  759.587254
 123.949252,  759.590232
 123.950918,  759.593210
 123.952585,  759.595709
 123.954252,  759.598116
 123.955918,  759.600523
 123.957585,  759.602929
 123.959252,  759.605336
 123.960918,  759.607743
 123.962585,  759.610149
 123.964252,  759.612556
 123.965918,  759.614963
 123.967585,  759.617369
 123.969252,  759.619761
 123.970918,  759.622149
 123.972585,  759.624538
 123.974252,  759.626927
 123.975918,  759.629315
 123.977585,  759.631704
 123.979252,  759.634092
 123.980918,  759.636481
 123.982585,  759.638869
 123.984252,  759.641258
 123.985918,  759.644108
 123.987585,  759.647047
 123.989252,  759.649987
 123.990918,  759.652926
 123.992585,  759.655865
 123.994252,  759.658804
 123.995918,  759.661744
 123.997585,  759.664683
 123.999252,  759.667622
 124.000918,  759.670561
 124.002585,  759.672967
 124.004252,  759.675270
 124.005918,  759.677573
 124.007585,  759.679875
 124.009252,  759.682178
 124.010918,  759.684481
 124.012585,  759.686783
 124.014252,  759.689086
 124.015918,  759.691389
 124.017585,  759.693691
 124.019252,  759.697367
 124.020918,  759.701308
 124.022585,  759.705249
 124.024252,  759.709190
 124.025918,  759.713131
 124.027585,  759.717072
 124.029252,  759.721013
 124.030918,  759.724954
 124.032585,  759.728895
 124.034252,  759.732836
 124.035918,  759.736938
 124.037585,  759.741072
 124.039252,  759.745205
 124.040918,  759.749338
 124.042585,  759.753472
 124.044252,  759.757605
 124.045918,  759.761738
 124.047585,  759.765872
 124.049252,  759.770005
 124.050918,  759.774138
 124.052585,  759.777577
 124.054252,  759.780882
 124.055918,  759.784186
 124.057585,  759.787491
 124.059252,  759.790795
 124.060918,  759.794100
 124.062585,  759.797404
 124.064252,  759.800709
 124.065918,  759.804013
 124.067585,  759.807318
 124.069252,  759.810380
 124.070918,  759.813395
 124.072585,  759.816410
 124.074252,  759.819425
 124.075918,  759.822440
 124.077585,  759.825455
 124.079252,  759.828470
 124.080918,  759.831485
 124.082585,  759.834500
 124.084252,  759.837515
 124.085918,  759.840497
 124.087585,  759.843473
 124.089252,  759.846449
 124.090918,  759.849425
 124.092585,  759.852401
 124.094252,  759.855377
 124.095918,  759.858353
 124.097585,  759.861329
 124.099252,  759.864305
 124.100918,  759.867281
 124.102585,  759.870675
 124.104252,  759.874149
 124.105918,  759.877623
 124.107585,  759.881098
 124.109252,  759.884572
 124.110918,  759.888047
 124.112585,  759.891521
 124.114252,  759.894996
 124.115918,  759.898470
 124.117585,  759.901944
 124.119252,  759.904889
 124.120918,  759.907731
 124.122585,  759.910574
 124.124252,  759.913416
 124.125918,  759.916258
 124.127585,  759.919101
 124.129252,  759.921943
 124.130918,  759.924785
 124.132585,  759.927628
 124.134252,  759.930470
 124.135918,  759.933253
 124.137585,  759.936025
 124.139252,  759.938797
 124.140918,  759.941569
 124.142585,  759.944341
 124.144252,  759.947113
 124.145918,  759.949885
 124.147585,  759.952657
 124.149252,  759.955429
 124.150918,  759.958201
 124.152585,  759.959909
 124.154252,  759.961411
 124.155918,  759.962913
 124.157585,  759.964416
 124.159252,  759.965918
 124.160918,  759.967420
 124.162585,  759.968923
 124.164252,  759.970425
 124.165918,  759.971927
 124.167585,  759.973430
 124.169252,  759.974742
 124.170918,  759.976017
 124.172585,  759.977293
 124.174252,  759.978568
 124.175918,  759.979844
 124.177585,  759.981119
 124.179252,  759.982395
 124.180918,  759.983670
 124.182585,  759.984946
 124.184252,  759.986221
 124.185918,  759.987468
 124.187585,  759.988709
 124.189252,  759.989951
 124.190918,  759.991192
 124.192585,  759.992433
 124.194252,  759.993675
 124.195918,  759.994916
 124.197585,  759.996158
 124.199252,  759.997399
 124.200918,  759.998640
 124.202585,  760.000396
 124.204252,  760.002251
 124.205918,  760.004107
 124.207585,  760.005962
 124.209252,  760.007817
 124.210918,  760.009672
 124.212585,  760.011527
 124.214252,  760.013382
 124.215918,  760.015238
 124.217585,  760.017093
 124.219252,  760.018521
 124.220918,  760.019868
 124.222585,  760.021214
 124.224252,  760.022560
 124.225918,  760.023906
 124.227585,  760.025252
 124.229252,  760.026599
 124.230918,  760.027945
 124.232585,  760.029291
 124.234252,  760.030637
 124.235918,  760.032082
 124.237585,  760.033546
 124.239252,  760.035010
 124.240918,  760.036474
 124.242585,  760.037937
 124.244252,  760.039401
 124.245918,  760.040865
 124.247585,  760.042329
 124.249252,  760.043793
 124.250918,  760.045257
 124.252585,  760.047344
 124.254252,  760.049552
 124.255918,  760.051760
 124.257585,  760.053967
 124.259252,  760.056175
 124.260918,  760.058383
 124.262585,  760.060591
 124.264252,  760.062799
 124.265918,  760.065006
 124.267585,  760.067214
 124.269252,  760.069083
 124.270918,  760.070886
 124.272585,  760.072689
 124.274252,  760.074492
 124.275918,  760.076295
 124.277585,  760.078098
 124.279252,  760.079901
 124.280918,  760.081704
 124.282585,  760.083507
 124.284252,  760.085310
 124.285918,  760.086047
 124.287585,  760.086579
 124.289252,  760.087111
 124.290918,  760.087642
 124.292585,  760.088174
 124.294252,  760.088705
 124.295918,  760.089237
 124.297585,  760.089768
 124.299252,  760.090300
 124.300918,  760.090832
 124.302585,  760.091226
 124.304252,  760.091594
 124.305918,  760.091963
 124.307585,  760.092331
 124.309252,  760.092699
 124.310918,  760.093067
 124.312585,  760.093436
 124.314252,  760.093804
 124.315918,  760.094172
 124.317585,  760.094540
 124.319252,  760.094980
 124.320918,  760.095434
 124.322585,  760.095888
 124.324252,  760.096342
 124.325918,  760.096796
 124.327585,  760.097250
 124.329252,  760.097704
 124.330918,  760.098158
 124.332585,  760.098612
 124.334252,  760.099066
 124.335918,  760.100175
 124.337585,  760.101410
 124.339252,  760.102646
 124.340918,  760.103881
 124.342585,  760.105116
 124.344252,  760.106352
 124.345918,  760.107587
 124.347585,  760.108822
 124.349252,  760.110058
 124.350918,  760.111293
 124.352585,  760.112268
 124.354252,  760.113193
 124.355918,  760.114119
 124.357585,  760.115044
 124.359252,  760.115969
 124.360918,  760.116894
 124.362585,  760.117819
 124.364252,  760.118744
 124.365918,  760.119669
 124.367585,  760.120595
 124.369252,  760.122264
 124.370918,  760.124077
 124.372585,  760.125890
 124.374252,  760.127703
 124.375918,  760.129516
 124.377585,  760.131329
 124.379252,  760.133142
 124.380918,  760.134955
 124.382585,  760.136768
 124.384252,  760.138581
 124.385918,  760.140014
 124.387585,  760.141373
 124.389252,  760.142733
 124.390918,  760.144092
 124.392585,  760.145452
 124.394252,  760.146811
 124.395918,  760.148170
 124.397585,  760.149530
 124.399252,  760.150889
 124.400918,  760.152248
 124.402585,  760.153619
 124.404252,  760.154991
 124.405918,  760.156364
 124.407585,  760.157737
 124.409252,  760.159109
 124.410918,  760.160482
 124.412585,  760.161855
 124.414252,  760.163227
 124.415918,  760.164600
 124.417585,  760.165972
 124.419252,  760.167896
 124.420918,  760.169927
 124.422585,  760.171957
 124.424252,  760.173988
 124.425918,  760.176018
 124.427585,  760.178049
 124.429252,  760.180079
 124.430918,  760.182110
 124.432585,  760.184140
 124.434252,  760.186171
 124.435918,  760.187801
 124.437585,  760.189354
 124.439252,  760.190907
 124.440918,  760.192461
 124.442585,  760.194014
 124.444252,  760.195567
 124.445918,  760.197120
 124.447585,  760.198673
 124.449252,  760.200226
 124.450918,  760.201779
 124.452585,  760.203451
 124.454252,  760.205146
 124.455918,  760.206841
 124.457585,  760.208536
 124.459252,  760.210231
 124.460918,  760.211926
 124.462585,  760.213620
 124.464252,  760.215315
 124.465918,  760.217010
 124.467585,  760.218705
 124.469252,  760.221037
 124.470918,  760.223491
 124.472585,  760.225946
 124.474252,  760.228400
 124.475918,  760.230855
 124.477585,  760.233309
 124.479252,  760.235764
 124.480918,  760.238219
 124.482585,  760.240673
 124.484252,  760.243128
 124.485918,  760.245243
 124.487585,  760.247293
 124.489252,  760.249343
 124.490918,  760.251392
 124.492585,  760.253442
 124.494252,  760.255492
 124.495918,  760.257542
 124.497585,  760.259592
 124.499252,  760.261642
 124.500918,  760.263691
 124.502585,  760.264664
 124.504252,  760.265428
 124.505918,  760.266192
 124.507585,  760.266956
 124.509252,  760.267721
 124.510918,  760.268485
 124.512585,  760.269249
 124.514252,  760.270013
 124.515918,  760.270778
 124.517585,  760.271542
 124.519252,  760.272153
 124.520918,  760.272734
 124.522585,  760.273315
 124.524252,  760.273896
 124.525918,  760.274477
 124.527585,  760.275059
 124.529252,  760.275640
 124.530918,  760.276221
 124.532585,  760.276802
 124.534252,  760.277383
 124.535918,  760.278014
 124.537585,  760.278654
 124.539252,  760.279294
 124.540918,  760.279934
 124.542585,  760.280574
 124.544252,  760.281214
 124.545918,  760.281854
 124.547585,  760.282495
 124.549252,  760.283135
 124.550918,  760.283775
 124.552585,  760.285044
 124.554252,  760.286435
 124.555918,  760.287827
 124.557585,  760.289218
 124.559252,  760.290609
 124.560918,  760.292000
 124.562585,  760.293391
 124.564252,  760.294782
 124.565918,  760.296173
 124.567585,  760.297564
 124.569252,  760.298663
 124.570918,  760.299706
 124.572585,  760.300748
 124.574252,  760.301791
 124.575918,  760.302834
 124.577585,  760.303876
 124.579252,  760.304919
 124.580918,  760.305961
 124.582585,  760.307004
 124.584252,  760.308046
 124.585918,  760.309803
 124.587585,  760.311697
 124.589252,  760.313591
 124.590918,  760.315485
 124.592585,  760.317379
 124.594252,  760.319273
 124.595918,  760.321167
 124.597585,  760.323061
 124.599252,  760.324955
 124.600918,  760.326849
 124.602585,  760.328331
 124.604252,  760.329734
 124.605918,  760.331136
 124.607585,  760.332539
 124.609252,  760.333942
 124.610918,  760.335345
 124.612585,  760.336747
 124.614252,  760.338150
 124.615918,  760.339553
 124.617585,  760.340955
 124.619252,  760.342328
 124.620918,  760.343695
 124.622585,  760.345061
 124.624252,  760.346428
 124.625918,  760.347795
 124.627585,  760.349162
 124.629252,  760.350528
 124.630918,  760.351895
 124.632585,  760.353262
 124.634252,  760.354629
 124.635918,  760.356506
 124.637585,  760.358481
 124.639252,  760.360457
 124.640918,  760.362432
 124.642585,  760.364408
 124.644252,  760.366383
 124.645918,  760.368359
 124.647585,  760.370335
 124.649252,  760.372310
 124.650918,  760.374286
 124.652585,  760.375845
 124.654252,  760.377324
 124.655918,  760.378804
 124.657585,  760.380283
 124.659252,  760.381762
 124.660918,  760.383241
 124.662585,  760.384720
 124.664252,  760.386200
 124.665918,  760.387679
 124.667585,  760.389158
 124.669252,  760.390728
 124.670918,  760.392315
 124.672585,  760.393902
 124.674252,  760.395490
 124.675918,  760.397077
 124.677585,  760.398664
 124.679252,  760.400251
 124.680918,  760.401839
 124.682585,  760.403426
 124.684252,  760.405013
 124.685918,  760.407222
 124.687585,  760.409552
 124.689252,  760.411881
 124.690918,  760.414210
 124.692585,  760.416540
 124.694252,  760.418869
 124.695918,  760.421198
 124.697585,  760.423528
 124.699252,  760.425857
 124.700918,  760.428186
 124.702585,  760.430190
 124.704252,  760.432131
 124.705918,  760.434072
 124.707585,  760.436013
 124.709252,  760.437954
 124.710918,  760.439895
 124.712585,  760.441836
 124.714252,  760.443777
 124.715918,  760.445718
 124.717585,  760.447659
 124.719252,  760.448541
 124.720918,  760.449217
 124.722585,  760.449894
 124.724252,  760.450571
 124.725918,  760.451248
 124.727585,  760.451924
 124.729252,  760.452601
 124.730918,  760.453278
 124.732585,  760.453955
 124.734252,  760.454631
 124.735918,  760.455164
 124.737585,  760.455670
 124.739252,  760.456175
 124.740918,  760.456681
 124.742585,  760.457186
 124.744252,  760.457691
 124.745918,  760.458197
 124.747585,  760.458702
 124.749252,  760.459207
 124.750918,  760.459713
 124.752585,  760.460283
 124.754252,  760.460865
 124.755918,  760.461447
 124.757585,  760.462030
 124.759252,  760.462612
 124.760918,  760.463194
 124.762585,  760.463777
 124.764252,  760.464359
 124.765918,  760.464942
 124.767585,  760.465524
 124.769252,  760.466760
 124.770918,  760.468122
 124.772585,  760.469484
 124.774252,  760.470846
 124.775918,  760.472208
 124.777585,  760.473570
 124.779252,  760.474932
 124.780918,  760.476295
 124.782585,  760.477657
 124.784252,  760.479019
 124.785918,  760.480134
 124.787585,  760.481203
 124.789252,  760.482271
 124.790918,  760.483339
 124.792585,  760.484407
 124.794252,  760.485476
 124.795918,  760.486544
 124.797585,  760.487612
 124.799252,  760.488680
 124.800918,  760.489749
 124.802585,  760.491548
 124.804252,  760.493489
 124.805918,  760.495429
 124.807585,  760.497369
 124.809252,  760.499310
 124.810918,  760.501250
 124.812585,  760.503191
 124.814252,  760.505131
 124.815918,  760.507072
 124.817585,  760.509012
 124.819252,  760.510597
 124.820918,  760.512113
 124.822585,  760.513629
 124.824252,  760.515145
 124.825918,  760.516661
 124.827585,  760.518177
 124.829252,  760.519693
 124.830918,  760.521209
 124.832585,  760.522725
 124.834252,  760.524241
 124.835918,  760.525760
 124.837585,  760.527280
 124.839252,  760.528799
 124.840918,  760.530318
 124.842585,  760.531838
 124.844252,  760.533357
 124.845918,  760.534876
 124.847585,  760.536396
 124.849252,  760.537915
 124.850918,  760.539435
 124.852585,  760.541502
 124.854252,  760.543676
 124.855918,  760.545849
 124.857585,  760.548022
 124.859252,  760.550196
 124.860918,  760.552369
 124.862585,  760.554543
 124.864252,  760.556716
 124.865918,  760.558889
 124.867585,  760.561063
 124.869252,  760.562847
 124.870918,  760.564556
 124.872585,  760.566266
 124.874252,  760.567975
 124.875918,  760.569684
 124.877585,  760.571393
 124.879252,  760.573102
 124.880918,  760.574812
 124.882585,  760.576521
 124.884252,  760.578230
 124.885918,  760.580049
 124.887585,  760.581890
 124.889252,  760.583730
 124.890918,  760.585570
 124.892585,  760.587411
 124.894252,  760.589251
 124.895918,  760.591092
 124.897585,  760.592932
 124.899252,  760.594772
 124.900918,  760.596613
 124.902585,  760.599086
 124.904252,  760.601682
 124.905918,  760.604277
 124.907585,  760.606873
 124.909252,  760.609469
 124.910918,  760.612064
 124.912585,  760.614660
 124.914252,  760.617256
 124.915918,  760.619851
 124.917585,  760.622447
 124.919252,  760.624714
 124.920918,  760.626918
 124.922585,  760.629121
 124.924252,  760.631325
 124.925918,  760.633529
 124.927585,  760.635732
 124.929252,  760.637936
 124.930918,  760.640140
 124.932585,  760.642344
 124.934252,  760.644547
 124.935918,  760.645675
 124.937585,  760.646596
 124.939252,  760.647517
 124.940918,  760.648437
 124.942585,  760.649358
 124.944252,  760.650278
 124.945918,  760.651199
 124.947585,  760.652120
 124.949252,  760.653040
 124.950918,  760.653961
 124.952585,  760.654717
 124.954252,  760.655441
 124.955918,  760.656165
 124.957585,  760.656890
 124.959252,  760.657614
 124.960918,  760.658338
 124.962585,  760.659062
 124.964252,  760.659786
 124.965918,  760.660511
 124.967585,  760.661235
 124.969252,  760.661996
 124.970918,  760.662765
 124.972585,  760.663534
 124.974252,  760.664303
 124.975918,  760.665071
 124.977585,  760.665840
 124.979252,  760.666609
 124.980918,  760.667378
 124.982585,  760.668146
 124.984252,  760.668915
 124.985918,  760.670307
 124.987585,  760.671820
 124.989252,  760.673333
 124.990918,  760.674845
 124.992585,  760.676358
 124.994252,  760.677871
 124.995918,  760.679383
 124.997585,  760.680896
 124.999252,  760.682409
 125.000918,  760.683921
 125.002585,  760.685151
 125.004252,  760.686327
 125.005918,  760.687502
 125.007585,  760.688677
 125.009252,  760.689853
 125.010918,  760.691028
 125.012585,  760.692204
 125.014252,  760.693379
 125.015918,  760.694554
 125.017585,  760.695730
 125.019252,  760.697603
 125.020918,  760.699612
 125.022585,  760.701620
 125.024252,  760.703628
 125.025918,  760.705636
 125.027585,  760.707644
 125.029252,  760.709653
 125.030918,  760.711661
 125.032585,  760.713669
 125.034252,  760.715677
 125.035918,  760.717294
 125.037585,  760.718835
 125.039252,  760.720377
 125.040918,  760.721918
 125.042585,  760.723459
 125.044252,  760.725001
 125.045918,  760.726542
 125.047585,  760.728083
 125.049252,  760.729624
 125.050918,  760.731166
 125.052585,  760.732679
 125.054252,  760.734188
 125.055918,  760.735696
 125.057585,  760.737205
 125.059252,  760.738713
 125.060918,  760.740221
 125.062585,  760.741730
 125.064252,  760.743238
 125.065918,  760.744746
 125.067585,  760.746255
 125.069252,  760.748289
 125.070918,  760.750424
 125.072585,  760.752559
 125.074252,  760.754694
 125.075918,  760.756829
 125.077585,  760.758965
 125.079252,  760.761100
 125.080918,  760.763235
 125.082585,  760.765370
 125.084252,  760.767506
 125.085918,  760.769232
 125.087585,  760.770880
 125.089252,  760.772527
 125.090918,  760.774175
 125.092585,  760.775822
 125.094252,  760.777470
 125.095918,  760.779117
 125.097585,  760.780765
 125.099252,  760.782412
 125.100918,  760.784060
 125.102585,  760.785807
 125.104252,  760.787574
 125.105918,  760.789341
 125.107585,  760.791107
 125.109252,  760.792874
 125.110918,  760.794640
 125.112585,  760.796407
 125.114252,  760.798174
 125.115918,  760.799940
 125.117585,  760.801707
 125.119252,  760.804107
 125.120918,  760.806628
 125.122585,  760.809150
 125.124252,  760.811672
 125.125918,  760.814194
 125.127585,  760.816715
 125.129252,  760.819237
 125.130918,  760.821759
 125.132585,  760.824281
 125.134252,  760.826802
 125.135918,  760.828999
 125.137585,  760.831134
 125.139252,  760.833268
 125.140918,  760.835402
 125.142585,  760.837537
 125.144252,  760.839671
 125.145918,  760.841806
 125.147585,  760.843940
 125.149252,  760.846074
 125.150918,  760.848209
 125.152585,  760.849276
 125.154252,  760.850136
 125.155918,  760.850997
 125.157585,  760.851858
 125.159252,  760.852719
 125.160918,  760.853580
 125.162585,  760.854441
 125.164252,  760.855302
 125.165918,  760.856162
 125.167585,  760.857023
 125.169252,  760.857737
 125.170918,  760.858422
 125.172585,  760.859108
 125.174252,  760.859793
 125.175918,  760.860479
 125.177585,  760.861164
 125.179252,  760.861850
 125.180918,  760.862535
 125.182585,  760.863220
 125.184252,  760.863906
 125.185918,  760.864651
 125.187585,  760.865409
 125.189252,  760.866166
 125.190918,  760.866923
 125.192585,  760.867681
 125.194252,  760.868438
 125.195918,  760.869195
 125.197585,  760.869952
 125.199252,  760.870710
 125.200918,  760.871467
 125.202585,  760.872876
 125.204252,  760.874411
 125.205918,  760.875946
 125.207585,  760.877481
 125.209252,  760.879016
 125.210918,  760.880551
 125.212585,  760.882085
 125.214252,  760.883620
 125.215918,  760.885155
 125.217585,  760.886690
 125.219252,  760.887968
 125.220918,  760.889197
 125.222585,  760.890425
 125.224252,  760.891654
 125.225918,  760.892883
 125.227585,  760.894111
 125.229252,  760.895340
 125.230918,  760.896568
 125.232585,  760.897797
 125.234252,  760.899026
 125.235918,  760.900982
 125.237585,  760.903078
 125.239252,  760.905175
 125.240918,  760.907271
 125.242585,  760.909368
 125.244252,  760.911464
 125.245918,  760.913561
 125.247585,  760.915657
 125.249252,  760.917754
 125.250918,  760.919850
 125.252585,  760.921578
 125.254252,  760.923235
 125.255918,  760.924892
 125.257585,  760.926549
 125.259252,  760.928206
 125.260918,  760.929864
 125.262585,  760.931521
 125.264252,  760.933178
 125.265918,  760.934835
 125.267585,  760.936492
 125.269252,  760.938142
 125.270918,  760.939792
 125.272585,  760.941441
 125.274252,  760.943090
 125.275918,  760.944739
 125.277585,  760.946389
 125.279252,  760.948038
 125.280918,  760.949687
 125.282585,  760.951336
 125.284252,  760.952986
 125.285918,  760.955179
 125.287585,  760.957477
 125.289252,  760.959775
 125.290918,  760.962073
 125.292585,  760.964372
 125.294252,  760.966670
 125.295918,  760.968968
 125.297585,  760.971266
 125.299252,  760.973564
 125.300918,  760.975863
 125.302585,  760.977762
 125.304252,  760.979583
 125.305918,  760.981405
 125.307585,  760.983227
 125.309252,  760.985049
 125.310918,  760.986871
 125.312585,  760.988692
 125.314252,  760.990514
 125.315918,  760.992336
 125.317585,  760.994158
 125.319252,  760.996085
 125.320918,  760.998033
 125.322585,  760.999980
 125.324252,  761.001928
 125.325918,  761.003875
 125.327585,  761.005823
 125.329252,  761.007770
 125.330918,  761.009718
 125.332585,  761.011665
 125.334252,  761.013613
 125.335918,  761.016195
 125.337585,  761.018900
 125.339252,  761.021605
 125.340918,  761.024309
 125.342585,  761.027014
 125.344252,  761.029719
 125.345918,  761.032423
 125.347585,  761.035128
 125.349252,  761.037833
 125.350918,  761.040537
 125.352585,  761.042910
 125.354252,  761.045218
 125.355918,  761.047526
 125.357585,  761.049834
 125.359252,  761.052142
 125.360918,  761.054450
 125.362585,  761.056758
 125.364252,  761.059066
 125.365918,  761.061375
 125.367585,  761.063683
 125.369252,  761.064908
 125.370918,  761.065924
 125.372585,  761.066940
 125.374252,  761.067956
 125.375918,  761.068972
 125.377585,  761.069988
 125.379252,  761.071004
 125.380918,  761.072020
 125.382585,  761.073036
 125.384252,  761.074052
 125.385918,  761.074905
 125.387585,  761.075726
 125.389252,  761.076547
 125.390918,  761.077369
 125.392585,  761.078190
 125.394252,  761.079011
 125.395918,  761.079833
 125.397585,  761.080654
 125.399252,  761.081476
 125.400918,  761.082297
 125.402585,  761.083160
 125.404252,  761.084032
 125.405918,  761.084903
 125.407585,  761.085775
 125.409252,  761.086646
 125.410918,  761.087518
 125.412585,  761.088389
 125.414252,  761.089261
 125.415918,  761.090132
 125.417585,  761.091004
 125.419252,  761.092509
 125.420918,  761.094137
 125.422585,  761.095765
 125.424252,  761.097393
 125.425918,  761.099021
 125.427585,  761.100649
 125.429252,  761.102278
 125.430918,  761.103906
 125.432585,  761.105534
 125.434252,  761.107162
 125.435918,  761.108511
 125.437585,  761.109807
 125.439252,  761.111103
 125.440918,  761.112399
 125.442585,  761.113696
 125.444252,  761.114992
 125.445918,  761.116288
 125.447585,  761.117584
 125.449252,  761.118880
 125.450918,  761.120176
 125.452585,  761.122182
 125.454252,  761.124326
 125.455918,  761.126470
 125.457585,  761.128614
 125.459252,  761.130758
 125.460918,  761.132902
 125.462585,  761.135046
 125.464252,  761.137190
 125.465918,  761.139334
 125.467585,  761.141478
 125.469252,  761.143235
 125.470918,  761.144917
 125.472585,  761.146599
 125.474252,  761.148281
 125.475918,  761.149962
 125.477585,  761.151644
 125.479252,  761.153326
 125.480918,  761.155008
 125.482585,  761.156690
 125.484252,  761.158372
 125.485918,  761.160033
 125.487585,  761.161690
 125.489252,  761.163347
 125.490918,  761.165004
 125.492585,  761.166661
 125.494252,  761.168317
 125.495918,  761.169974
 125.497585,  761.171631
 125.499252,  761.173288
 125.500918,  761.174945
 125.502585,  761.177138
 125.504252,  761.179433
 125.505918,  761.181729
 125.507585,  761.184025
 125.509252,  761.186321
 125.510918,  761.188617
 125.512585,  761.190913
 125.514252,  761.193209
 125.515918,  761.195505
 125.517585,  761.197800
 125.519252,  761.199689
 125.520918,  761.201499
 125.522585,  761.203309
 125.524252,  761.205120
 125.525918,  761.206930
 125.527585,  761.208740
 125.529252,  761.210550
 125.530918,  761.212360
 125.532585,  761.214170
 125.534252,  761.215981
 125.535918,  761.217895
 125.537585,  761.219829
 125.539252,  761.221764
 125.540918,  761.223698
 125.542585,  761.225632
 125.544252,  761.227567
 125.545918,  761.229501
 125.547585,  761.231436
 125.549252,  761.233370
 125.550918,  761.235304
 125.552585,  761.237879
 125.554252,  761.240577
 125.555918,  761.243274
 125.557585,  761.245972
 125.559252,  761.248670
 125.560918,  761.251368
 125.562585,  761.254066
 125.564252,  761.256764
 125.565918,  761.259461
 125.567585,  761.262159
 125.569252,  761.264530
 125.570918,  761.266838
 125.572585,  761.269146
 125.574252,  761.271454
 125.575918,  761.273761
 125.577585,  761.276069
 125.579252,  761.278377
 125.580918,  761.280685
 125.582585,  761.282993
 125.584252,  761.285301
 125.585918,  761.286531
 125.587585,  761.287554
 125.589252,  761.288577
 125.590918,  761.289600
 125.592585,  761.290623
 125.594252,  761.291646
 125.595918,  761.292669
 125.597585,  761.293692
 125.599252,  761.294715
 125.600918,  761.295738
 125.602585,  761.296610
 125.604252,  761.297453
 125.605918,  761.298296
 125.607585,  761.299139
 125.609252,  761.299982
 125.610918,  761.300825
 125.612585,  761.301668
 125.614252,  761.302511
 125.615918,  761.303354
 125.617585,  761.304197
 125.619252,  761.305097
 125.620918,  761.306008
 125.622585,  761.306919
 125.624252,  761.307830
 125.625918,  761.308740
 125.627585,  761.309651
 125.629252,  761.310562
 125.630918,  761.311473
 125.632585,  761.312384
 125.634252,  761.313295
 125.635918,  761.314857
 125.637585,  761.316546
 125.639252,  761.318235
 125.640918,  761.319924
 125.642585,  761.321613
 125.644252,  761.323301
 125.645918,  761.324990
 125.647585,  761.326679
 125.649252,  761.328368
 125.650918,  761.330057
 125.652585,  761.331481
 125.654252,  761.332855
 125.655918,  761.334229
 125.657585,  761.335602
 125.659252,  761.336976
 125.660918,  761.338349
 125.662585,  761.339723
 125.664252,  761.341097
 125.665918,  761.342470
 125.667585,  761.343844
 125.669252,  761.345945
 125.670918,  761.348187
 125.672585,  761.350429
 125.674252,  761.352670
 125.675918,  761.354912
 125.677585,  761.357154
 125.679252,  761.359396
 125.680918,  761.361637
 125.682585,  761.363879
 125.684252,  761.366121
 125.685918,  761.367986
 125.687585,  761.369778
 125.689252,  761.371570
 125.690918,  761.373363
 125.692585,  761.375155
 125.694252,  761.376947
 125.695918,  761.378740
 125.697585,  761.380532
 125.699252,  761.382324
 125.700918,  761.384116
 125.702585,  761.385897
 125.704252,  761.387676
 125.705918,  761.389455
 125.707585,  761.391233
 125.709252,  761.393012
 125.710918,  761.394791
 125.712585,  761.396569
 125.714252,  761.398348
 125.715918,  761.400126
 125.717585,  761.401905
 125.719252,  761.404228
 125.720918,  761.406656
 125.722585,  761.409083
 125.724252,  761.411511
 125.725918,  761.413939
 125.727585,  761.416367
 125.729252,  761.418795
 125.730918,  761.421223
 125.732585,  761.423650
 125.734252,  761.426078
 125.735918,  761.428100
 125.737585,  761.430044
 125.739252,  761.431988
 125.740918,  761.433932
 125.742585,  761.435876
 125.744252,  761.437820
 125.745918,  761.439764
 125.747585,  761.441708
 125.749252,  761.443652
 125.750918,  761.445595
 125.752585,  761.447644
 125.754252,  761.449712
 125.755918,  761.451780
 125.757585,  761.453849
 125.759252,  761.455917
 125.760918,  761.457985
 125.762585,  761.460054
 125.764252,  761.462122
 125.765918,  761.464190
 125.767585,  761.466258
 125.769252,  761.468966
 125.770918,  761.471796
 125.772585,  761.474627
 125.774252,  761.477458
 125.775918,  761.480288
 125.777585,  761.483119
 125.779252,  761.485949
 125.780918,  761.488780
 125.782585,  761.491610
 125.784252,  761.494441
 125.785918,  761.496937
 125.787585,  761.499369
 125.789252,  761.501800
 125.790918,  761.504231
 125.792585,  761.506663
 125.794252,  761.509094
 125.795918,  761.511526
 125.797585,  761.513957
 125.799252,  761.516389
 125.800918,  761.518820
 125.802585,  761.520162
 125.804252,  761.521293
 125.805918,  761.522424
 125.807585,  761.523555
 125.809252,  761.524686
 125.810918,  761.525817
 125.812585,  761.526949
 125.814252,  761.528080
 125.815918,  761.529211
 125.817585,  761.530342
 125.819252,  761.531311
 125.820918,  761.532249
 125.822585,  761.533187
 125.824252,  761.534125
 125.825918,  761.535063
 125.827585,  761.536001
 125.829252,  761.536939
 125.830918,  761.537877
 125.832585,  761.538815
 125.834252,  761.539753
 125.835918,  761.540737
 125.837585,  761.541729
 125.839252,  761.542722
 125.840918,  761.543714
 125.842585,  761.544707
 125.844252,  761.545699
 125.845918,  761.546691
 125.847585,  761.547684
 125.849252,  761.548676
 125.850918,  761.549669
 125.852585,  761.551304
 125.854252,  761.553063
 125.855918,  761.554823
 125.857585,  761.556582
 125.859252,  761.558342
 125.860918,  761.560101
 125.862585,  761.561861
 125.864252,  761.563620
 125.865918,  761.565380
 125.867585,  761.567139
 125.869252,  761.568622
 125.870918,  761.570051
 125.872585,  761.571481
 125.874252,  761.572910
 125.875918,  761.574340
 125.877585,  761.575770
 125.879252,  761.577199
 125.880918,  761.578629
 125.882585,  761.580058
 125.884252,  761.581488
 125.885918,  761.583638
 125.887585,  761.585927
 125.889252,  761.588216
 125.890918,  761.590505
 125.892585,  761.592794
 125.894252,  761.595083
 125.895918,  761.597372
 125.897585,  761.599661
 125.899252,  761.601950
 125.900918,  761.604239
 125.902585,  761.606142
 125.904252,  761.607970
 125.905918,  761.609798
 125.907585,  761.611625
 125.909252,  761.613453
 125.910918,  761.615281
 125.912585,  761.617109
 125.914252,  761.618937
 125.915918,  761.620765
 125.917585,  761.622592
 125.919252,  761.624403
 125.920918,  761.626209
 125.922585,  761.628016
 125.924252,  761.629823
 125.925918,  761.631630
 125.927585,  761.633437
 125.929252,  761.635243
 125.930918,  761.637050
 125.932585,  761.638857
 125.934252,  761.640664
 125.935918,  761.643013
 125.937585,  761.645468
 125.939252,  761.647922
 125.940918,  761.650376
 125.942585,  761.652830
 125.944252,  761.655284
 125.945918,  761.657738
 125.947585,  761.660192
 125.949252,  761.662647
 125.950918,  761.665101
 125.952585,  761.667147
 125.954252,  761.669114
 125.955918,  761.671080
 125.957585,  761.673047
 125.959252,  761.675014
 125.960918,  761.676981
 125.962585,  761.678948
 125.964252,  761.680915
 125.965918,  761.682882
 125.967585,  761.684849
 125.969252,  761.686923
 125.970918,  761.689016
 125.972585,  761.691110
 125.974252,  761.693204
 125.975918,  761.695297
 125.977585,  761.697391
 125.979252,  761.699484
 125.980918,  761.701578
 125.982585,  761.703672
 125.984252,  761.705765
 125.985918,  761.708504
 125.987585,  761.711368
 125.989252,  761.714231
 125.990918,  761.717095
 125.992585,  761.719958
 125.994252,  761.722822
 125.995918,  761.725685
 125.997585,  761.728549
 125.999252,  761.731412
 126.000918,  761.734276
 126.002585,  761.736809
 126.004252,  761.739279
 126.005918,  761.741748
 126.007585,  761.744218
 126.009252,  761.746688
 126.010918,  761.749158
 126.012585,  761.751627
 126.014252,  761.754097
 126.015918,  761.756567
 126.017585,  761.759036
 126.019252,  761.760419
 126.020918,  761.761592
 126.022585,  761.762765
 126.024252,  761.763938
 126.025918,  761.765111
 126.027585,  761.766284
 126.029252,  761.767457
 126.030918,  761.768630
 126.032585,  761.769804
 126.034252,  761.770977
 126.035918,  761.771995
 126.037585,  761.772985
 126.039252,  761.773974
 126.040918,  761.774963
 126.042585,  761.775952
 126.044252,  761.776941
 126.045918,  761.777931
 126.047585,  761.778920
 126.049252,  761.779909
 126.050918,  761.780898
 126.052585,  761.781942
 126.054252,  761.782996
 126.055918,  761.784051
 126.057585,  761.785105
 126.059252,  761.786159
 126.060918,  761.787214
 126.062585,  761.788268
 126.064252,  761.789322
 126.065918,  761.790377
 126.067585,  761.791431
 126.069252,  761.793140
 126.070918,  761.794975
 126.072585,  761.796809
 126.074252,  761.798644
 126.075918,  761.800479
 126.077585,  761.802314
 126.079252,  761.804149
 126.080918,  761.805983
 126.082585,  761.807818
 126.084252,  761.809653
 126.085918,  761.811420
 126.087585,  761.813174
 126.088545,  761.814184
 126.090212,  577.846949
 126.091879,  393.879020
 126.093545,  209.910397
 126.095212,   25.941081
 126.096879, -158.028930
 126.098545, -341.999634
 126.100212, -525.971032
 126.101879, -633.644345
 126.103545, -633.470597
 126.105212, -633.294032
 126.106879, -633.114652
 126.108545, -632.932455
 126.110212, -632.747443
 126.111879, -632.559614
 126.113545, -632.368970
 126.115212, -632.175509
 126.116879, -631.979232
 126.118545, -631.778948
 126.120212, -631.574104
 126.121879, -631.366358
 126.123545, -631.155711
 126.125212, -630.942163
 126.126879, -630.725713
 126.128545, -630.506362
 126.130212, -630.284109
 126.131879, -630.058956
 126.133545, -629.830901
 126.135212, -629.598878
 126.136879, -629.362402
 126.138545, -629.122959
 126.140212, -628.880550
 126.141879, -628.635174
 126.143110, -628.451928
