Time, Vertical Forces
   0.000100, 216385.893179
   0.000584, 216385.893179
   0.002073, 216385.893179
   0.007621, 216385.893179
   0.022321, 216385.893179
   0.049722, 216385.893179
   0.081356, 216385.893179
   0.113166, 216385.893179
   0.145277, 216385.893179
   0.177393, 216385.893179
   0.209532, 216385.893179
   0.241854, 216385.893179
   0.274280, 216385.893179
   0.306882, 216385.893179
   0.339730, 216385.893179
   0.372575, 216385.893179
   0.405964, 216385.893179
   0.439430, 216385.893179
   0.472825, 216385.893179
   0.506325, 216385.893179
   0.540098, 216385.893179
   0.574229, 216385.893179
   0.609346, 216385.893179
   0.644354, 216385.893179
   0.679669, 216385.893179
   0.715179, 216385.893179
   0.750675, 216385.893179
   0.785860, 216385.893179
   0.821893, 216385.893179
   0.857909, 216385.893179
   0.894515, 216385.893179
   0.931043, 216385.893179
   0.968537, 216385.893179
   1.005886, 216385.893179
   1.044333, 216385.893179
   1.082764, 216385.893179
   1.121413, 216385.893179
   1.161278, 216385.893179
   1.200983, 216385.893179
   1.241003, 216385.893179
   1.281467, 216385.893179
   1.322069, 216385.893179
   1.362716, 216385.893179
   1.404287, 216385.893179
   1.445182, 216385.893179
   1.487010, 216385.893179
   1.528752, 216385.893179
   1.571489, 216385.893179
   1.614202, 216385.893179
   1.657967, 216385.893179
   1.701698, 216385.893179
   1.745542, 216385.893179
   1.789414, 216385.893179
   1.834346, 216385.893179
   1.879129, 216385.893179
   1.924414, 216385.893179
   1.970399, 216385.893179
   2.017542, 216385.893179
   2.064104, 216385.893179
   2.111435, 216385.893179
   2.158594, 216385.893179
   2.206390, 216385.893179
   2.254473, 216385.893179
   2.302484, 216385.893179
   2.351116, 216385.893179
   2.399608, 216385.893179
   2.448748, 216385.893179
   2.498052, 216385.893179
   2.547871, 216385.893179
   2.598380, 216385.893179
   2.649071, 216385.893179
   2.700299, 216385.893179
   2.750985, 216385.893179
   2.802877, 216385.893179
   2.854696, 216385.893179
   2.907415, 216385.893179
   2.959664, 216385.893179
   3.012867, 216385.893179
   3.066210, 216385.893179
   3.119630, 216385.893179
   3.173988, 216385.893179
   3.227889, 216385.893179
   3.282497, 216385.893179
   3.336984, 216385.893179
   3.392637, 216385.893179
   3.447887, 216385.893179
   3.503542, 216385.893179
   3.559556, 216385.893179
   3.616151, 216385.893179
   3.672641, 216385.893179
   3.729920, 216385.893179
   3.787722, 216385.893179
   3.845655, 216385.893179
   3.903844, 216385.893179
   3.962158, 216385.893179
   4.020726, 216385.893179
   4.079826, 216385.893179
   4.138894, 216385.893179
   4.198709, 216385.893179
   4.259339, 216385.893179
   4.261732, 216385.893179
   4.263376, 216385.893179
   4.264846, 216385.893179
   4.266029, 216385.893179
   4.267395, 216385.893179
   4.268425, 216385.893179
   4.268643, 216385.893179
   4.268936, 216385.893179
   4.268999, 216385.893179
   4.269101, 216385.893179
   4.269134, 216385.893179
   4.269141, 216385.893179
   4.269155, 216385.893179
   4.269297, 216385.893179
   4.270417, 216385.893179
   4.275457, 216385.893179
   4.292645, 216385.893179
   4.335010, 216385.893179
   4.388526, 216385.893179
   4.442973, 216385.893179
   4.497748, 216385.893179
   4.552408, 216385.893179
   4.607470, 216385.893179
   4.663114, 216385.893179
   4.718737, 216385.893179
   4.774412, 216385.893179
   4.830740, 216385.893179
   4.887156, 216385.893179
   4.943781, 216385.893179
   5.000516, 216385.893179
   5.057691, 216385.893179
   5.115276, 216385.893179
   5.172681, 216385.893179
   5.230246, 216385.893179
   5.287799, 216385.893179
   5.346022, 216385.893179
   5.404634, 216385.893179
   5.463307, 216385.893179
   5.522280, 216385.893179
   5.581576, 216385.893179
   5.641038, 216385.893179
   5.701063, 216385.893179
   5.760788, 216385.893179
   5.820606, 216385.893179
   5.881098, 216385.893179
   5.941476, 216385.893179
   6.002515, 216385.893179
   6.063594, 216385.893179
   6.124919, 216385.893179
   6.186398, 216385.893179
   6.247619, 216385.893179
   6.309897, 216385.893179
   6.372032, 216385.893179
   6.434853, 216385.893179
   6.497487, 216385.893179
   6.560135, 216385.893179
   6.623474, 216385.893179
   6.686793, 216385.893179
   6.750442, 216385.893179
   6.814215, 216385.893179
   6.877942, 216385.893179
   6.942629, 216385.893179
   7.007074, 216385.893179
   7.071978, 216385.893179
   7.136997, 216385.893179
   7.202150, 216385.893179
   7.267139, 216385.893179
   7.332824, 216385.893179
   7.398377, 216385.893179
   7.464226, 216385.893179
   7.530701, 216385.893179
   7.597320, 216385.893179
   7.664215, 216385.893179
   7.731196, 216385.893179
   7.798631, 216385.893179
   7.865891, 216385.893179
   7.933280, 216385.893179
   8.000869, 216385.893179
   8.068602, 216385.893179
   8.137049, 216385.893179
   8.205340, 216385.893179
   8.274102, 216385.893179
   8.343123, 216385.893179
   8.412167, 216385.893179
   8.481110, 216385.893179
   8.550446, 216385.893179
   8.620046, 216385.893179
   8.690094, 216385.893179
   8.760025, 216385.893179
   8.760583, 216385.893179
   8.760711, 216385.893179
   8.760765, 216385.893179
   8.760871, 216385.893179
   8.760883, 216385.893179
   8.760890, 216385.893179
   8.760901, 216385.893179
   8.761005, 216385.893179
   8.762046, 216385.893179
   8.768146, 216385.893179
   8.788762, 216385.893179
   8.838617, 216385.893179
   8.901477, 216385.893179
   8.964032, 216385.893179
   9.027050, 216385.893179
   9.089980, 216385.893179
   9.153001, 216385.893179
   9.216338, 216385.893179
   9.280075, 216385.893179
   9.343747, 216385.893179
   9.407314, 216385.893179
   9.471508, 216385.893179
   9.535590, 216385.893179
   9.599870, 216385.893179
   9.664424, 216385.893179
   9.729177, 216385.893179
   9.793985, 216385.893179
   9.858985, 216385.893179
   9.924385, 216385.893179
   9.989800, 216385.893179
  10.055364, 216385.893179
  10.121031, 216385.893179
  10.186767, 216385.893179
  10.253013, 216385.893179
  10.319102, 216385.893179
  10.385218, 216385.893179
  10.451713, 216385.893179
  10.518584, 216385.893179
  10.585689, 216385.893179
  10.652664, 216385.893179
  10.719871, 216385.893179
  10.786986, 216385.893179
  10.854623, 216385.893179
  10.922088, 216385.893179
  10.989977, 216385.893179
  11.057713, 216385.893179
  11.125725, 216385.893179
  11.193926, 216385.893179
  11.262169, 216385.893179
  11.330929, 216385.893179
  11.399607, 216385.893179
  11.468377, 216385.893179
  11.537439, 216385.893179
  11.606572, 216385.893179
  11.675659, 216385.893179
  11.745265, 216385.893179
  11.814940, 216385.893179
  11.884953, 216385.893179
  11.954992, 216385.893179
  12.025201, 216385.893179
  12.095311, 216385.893179
  12.165734, 216385.893179
  12.236348, 216385.893179
  12.307019, 216385.893179
  12.377985, 216385.893179
  12.449122, 216385.893179
  12.520551, 216385.893179
  12.591971, 216385.893179
  12.663224, 216385.893179
  12.734765, 216385.893179
  12.806686, 216385.893179
  12.878724, 216385.893179
  12.951162, 216385.893179
  13.023347, 216385.893179
  13.095648, 216385.893179
  13.168206, 216385.893179
  13.240875, 216385.893179
  13.313840, 216385.893179
  13.386788, 216385.893179
  13.460238, 216385.893179
  13.533769, 216385.893179
  13.548545, 216385.893179
  13.558164, 216385.893179
  13.565430, 216385.893179
  13.571280, 216385.893179
  13.576999, 216385.893179
  13.582791, 216385.893179
  13.587035, 216385.893179
  13.587790, 216385.893179
  13.588741, 216385.893179
  13.589851, 216385.893179
  13.589913, 216385.893179
  13.589951, 216385.893179
  13.589978, 216385.893179
  13.590001, 216385.893179
  13.590008, 216385.893179
  13.590015, 216385.893179
  13.590088, 216385.893179
  13.590718, 216385.893179
  13.594722, 216385.893179
  13.609897, 216385.893179
  13.661568, 216385.893179
  13.725456, 216385.893179
  13.789945, 216385.893179
  13.854426, 216385.893179
  13.919196, 216385.893179
  13.983766, 216385.893179
  14.048667, 216385.893179
  14.113674, 216385.893179
  14.178717, 216385.893179
  14.243987, 216385.893179
  14.309339, 216385.893179
  14.374654, 216385.893179
  14.440255, 216385.893179
  14.505934, 216385.893179
  14.571876, 216385.893179
  14.637860, 216385.893179
  14.703855, 216385.893179
  14.769972, 216385.893179
  14.836330, 216385.893179
  14.902604, 216385.893179
  14.969066, 216385.893179
  15.035784, 216385.893179
  15.102643, 216385.893179
  15.169427, 216385.893179
  15.236500, 216385.893179
  15.303596, 216385.893179
  15.370850, 216385.893179
  15.438251, 216385.893179
  15.505609, 216385.893179
  15.573112, 216385.893179
  15.640913, 216385.893179
  15.708836, 216385.893179
  15.776790, 216385.893179
  15.844768, 216385.893179
  15.912918, 216385.893179
  15.981328, 216385.893179
  16.049689, 216385.893179
  16.118299, 216385.893179
  16.187145, 216385.893179
  16.256094, 216385.893179
  16.324967, 216385.893179
  16.394038, 216385.893179
  16.463189, 216385.893179
  16.532509, 216385.893179
  16.602093, 216385.893179
  16.671547, 216385.893179
  16.741036, 216385.893179
  16.810682, 216385.893179
  16.880394, 216385.893179
  16.950334, 216385.893179
  17.020257, 216385.893179
  17.090429, 216385.893179
  17.160952, 216385.893179
  17.231269, 216385.893179
  17.301920, 216385.893179
  17.372595, 216385.893179
  17.443469, 216385.893179
  17.514489, 216385.893179
  17.585532, 216385.893179
  17.656536, 216385.893179
  17.727801, 216385.893179
  17.799501, 216385.893179
  17.870856, 216385.893179
  17.942631, 216385.893179
  18.014268, 216385.893179
  18.086135, 216385.893179
  18.158237, 216385.893179
  18.230292, 216385.893179
  18.302423, 216385.893179
  18.374675, 216385.893179
  18.447159, 216385.893179
  18.519768, 216385.893179
  18.592329, 216385.893179
  18.665294, 216385.893179
  18.738072, 216385.893179
  18.811104, 216385.893179
  18.884234, 216385.893179
  18.898885, 216385.893179
  18.949814, 216385.893179
  18.952736, 216385.893179
  18.953239, 216385.893179
  18.953452, 216385.893179
  18.953508, 216385.893179
  18.953541, 216385.893179
  18.953579, 216385.893179
  18.953956, 216385.893179
  18.956648, 216385.893179
  18.974442, 216385.893179
  19.052213, 216385.893179
  19.125225, 216385.893179
  19.198472, 216385.893179
  19.271808, 216385.893179
  19.345310, 216385.893179
  19.418896, 216385.893179
  19.492550, 216385.893179
  19.566208, 216385.893179
  19.640256, 216385.893179
  19.714222, 216385.893179
  19.788416, 216385.893179
  19.862617, 216385.893179
  19.936878, 216385.893179
  20.011333, 216385.893179
  20.086035, 216385.893179
  20.160678, 216385.893179
  20.235439, 216385.893179
  20.310249, 216385.893179
  20.385193, 216385.893179
  20.460414, 216385.893179
  20.535681, 216385.893179
  20.611020, 216385.893179
  20.686603, 216385.893179
  20.762273, 216385.893179
  20.838004, 216385.893179
  20.913812, 216385.893179
  20.989552, 216385.893179
  21.065520, 216385.893179
  21.141666, 216385.893179
  21.217863, 216385.893179
  21.294062, 216385.893179
  21.370428, 216385.893179
  21.447001, 216385.893179
  21.523602, 216385.893179
  21.600422, 216385.893179
  21.677465, 216385.893179
  21.754504, 216385.893179
  21.831640, 216385.893179
  21.908849, 216385.893179
  21.986223, 216385.893179
  22.063752, 216385.893179
  22.141408, 216385.893179
  22.219220, 216385.893179
  22.296996, 216385.893179
  22.374981, 216385.893179
  22.452979, 216385.893179
  22.531031, 216385.893179
  22.609294, 216385.893179
  22.687637, 216385.893179
  22.766179, 216385.893179
  22.844803, 216385.893179
  22.923621, 216385.893179
  23.002508, 216385.893179
  23.043817, 216385.893179
  23.081417, 216385.893179
  23.160468, 216385.893179
  23.239533, 216385.893179
  23.318947, 216385.893179
  23.398465, 216385.893179
  23.478213, 216385.893179
  23.557896, 216385.893179
  23.637608, 216385.893179
  23.717738, 216385.893179
  23.798066, 216385.893179
  23.878346, 216385.893179
  23.958845, 216385.893179
  24.039417, 216385.893179
  24.119967, 216385.893179
  24.200732, 216385.893179
  24.281554, 216385.893179
  24.362343, 216385.893179
  24.443226, 216385.893179
  24.524295, 216385.893179
  24.605270, 216385.893179
  24.686181, 216385.893179
  24.767184, 216385.893179
  24.848154, 216385.893179
  24.929227, 216385.893179
  25.010132, 216385.893179
  25.091006, 216385.893179
  25.094248, 216385.893179
  25.098612, 216385.893179
  25.102907, 216385.893179
  25.104037, 216385.893179
  25.105470, 216385.893179
  25.105811, 216385.893179
  25.106320, 216385.893179
  25.106356, 216385.893179
  25.106370, 216385.893179
  25.106385, 216385.893179
  25.106535, 216385.893179
  25.108035, 216385.893179
  25.116815, 216385.893179
  25.151641, 216385.893179
  25.235294, 216385.893179
  25.319622, 216385.893179
  25.325225, 216385.892838
  25.330817, 216385.891790
  25.336429, 216385.889989
  25.342040, 216385.887399
  25.347658, 216385.883974
  25.353275, 216385.879675
  25.358887, 216385.874468
  25.364516, 216385.868283
  25.370148, 216385.861089
  25.375783, 216385.852841
  25.381398, 216385.843529
  25.387014, 216385.833080
  25.392660, 216385.821387
  25.398300, 216385.808464
  25.403950, 216385.794229
  25.409594, 216385.778675
  25.415226, 216385.761767
  25.420890, 216385.743324
  25.426562, 216385.723351
  25.432232, 216385.701832
  25.437852, 216385.678914
  25.443492, 216385.654279
  25.449164, 216385.627793
  25.454857, 216385.599436
  25.460496, 216385.569528
  25.466160, 216385.537613
  25.471835, 216385.503700
  25.477505, 216385.467822
  25.483206, 216385.429678
  25.488889, 216385.389531
  25.494598, 216385.346996
  25.500318, 216385.302114
  25.506039, 216385.254888
  25.511774, 216385.205135
  25.517521, 216385.152794
  25.523267, 216385.097913
  25.528998, 216385.040571
  25.534747, 216384.980363
  25.540508, 216384.917257
  25.546274, 216384.851270
  25.552026, 216384.782542
  25.557806, 216384.710489
  25.563553, 216384.635795
  25.569312, 216384.557845
  25.575086, 216384.476491
  25.580889, 216384.391416
  25.586681, 216384.303141
  25.592480, 216384.211284
  25.598266, 216384.116121
  25.604073, 216384.016994
  25.609837, 216383.914944
  25.615624, 216383.808736
  25.621439, 216383.698144
  25.627271, 216383.583266
  25.633096, 216383.464481
  25.638939, 216383.341203
  25.644755, 216383.214246
  25.650622, 216383.081871
  25.656481, 216382.945209
  25.662363, 216382.803478
  25.668245, 216382.657118
  25.674133, 216382.505846
  25.680025, 216382.349637
  25.685907, 216382.189776
  25.691831, 216382.024813
  25.697701, 216381.857368
  25.703601, 216381.685061
  25.709514, 216381.508313
  25.715420, 216381.327718
  25.721365, 216381.141779
  25.727302, 216380.951919
  25.733187, 216380.759544
  25.739144, 216380.560639
  25.745107, 216380.357213
  25.751044, 216380.150398
  25.757011, 216379.938185
  25.762978, 216379.721606
  25.768945, 216379.500590
  25.774885, 216379.276192
  25.780880, 216379.045253
  25.786861, 216378.810316
  25.792864, 216378.569993
  25.798835, 216378.326329
  25.804858, 216378.075948
  25.810888, 216377.820577
  25.816906, 216377.560975
  25.822929, 216377.296436
  25.828968, 216377.026416
  25.834989, 216376.752409
  25.841013, 216376.473373
  25.847064, 216376.188277
  25.853127, 216375.897620
  25.859167, 216375.603113
  25.865227, 216375.302647
  25.871316, 216374.995648
  25.877401, 216374.683780
  25.883508, 216374.365614
  25.889585, 216374.043869
  25.895695, 216373.715106
  25.901805, 216373.381134
  25.907923, 216373.041398
  25.914048, 216372.695901
  25.920163, 216372.345574
  25.926284, 216371.989584
  25.932431, 216371.626561
  25.938592, 216371.257152
  25.944772, 216370.881036
  25.950932, 216370.500544
  25.957106, 216370.113527
  25.963299, 216369.719648
  25.969503, 216369.319249
  25.975729, 216368.911586
  25.981943, 216368.498872
  25.988168, 216368.079556
  25.994396, 216367.654059
  26.000630, 216367.222126
  26.006863, 216366.784343
  26.013097, 216366.340381
  26.019355, 216365.888561
  26.025623, 216365.429856
  26.031890, 216364.964982
  26.038148, 216364.494606
  26.044451, 216364.014457
  26.050760, 216363.527542
  26.057072, 216363.033844
  26.063347, 216362.536688
  26.069610, 216362.034049
  26.075948, 216361.518911
  26.082289, 216360.996836
  26.088618, 216360.469055
  26.094965, 216359.933143
  26.101346, 216359.387473
  26.107735, 216358.834376
  26.114114, 216358.275132
  26.120491, 216357.709225
  26.126880, 216357.135231
  26.133298, 216356.551552
  26.139711, 216355.961294
  26.146141, 216355.362317
  26.152582, 216354.754992
  26.159013, 216354.141392
  26.165490, 216353.516070
  26.171947, 216352.885298
  26.178412, 216352.246338
  26.180025, 216352.085707
  26.184885, 216351.599049
  26.191388, 216350.941194
  26.197895, 216350.275316
  26.204379, 216349.604152
  26.210889, 216348.922556
  26.217389, 216348.234275
  26.223919, 216347.534943
  26.230461, 216346.826522
  26.237031, 216346.107026
  26.243594, 216345.380337
  26.250218, 216344.638539
  26.256791, 216343.894365
  26.263397, 216343.138302
  26.270007, 216342.373370
  26.276629, 216341.598725
  26.283241, 216340.816805
  26.289898, 216340.021155
  26.296484, 216339.225447
  26.303158, 216338.410452
  26.309793, 216337.591721
  26.316470, 216336.759040
  26.323132, 216335.919347
  26.329856, 216335.063050
  26.336585, 216334.197143
  26.343310, 216333.322553
  26.350051, 216332.436922
  26.356796, 216331.541451
  26.363586, 216330.630780
  26.370389, 216329.708837
  26.377168, 216328.780839
  26.383948, 216327.843232
  26.390780, 216326.888833
  26.397554, 216325.933040
  26.404379, 216324.960371
  26.411203, 216323.978021
  26.418064, 216322.980655
  26.424917, 216321.974332
  26.431807, 216320.952776
  26.438671, 216319.924909
  26.445554, 216318.884050
  26.452483, 216317.825979
  26.459403, 216316.758895
  26.466321, 216315.681888
  26.473273, 216314.589042
  26.480202, 216313.489349
  26.487145, 216312.376921
  26.494091, 216311.253308
  26.501087, 216310.110843
  26.508107, 216308.953494
  26.515100, 216307.789692
  26.522117, 216306.610896
  26.529161, 216305.416525
  26.536241, 216304.204576
  26.543285, 216302.987620
  26.550363, 216301.753458
  26.557440, 216300.507982
  26.564539, 216299.246950
  26.571629, 216297.976026
  26.578778, 216296.682897
  26.585902, 216295.382198
  26.593034, 216294.068400
  26.600228, 216292.730899
  26.607371, 216291.391092
  26.614571, 216290.028202
  26.621782, 216288.651035
  26.629012, 216287.257679
  26.636242, 216285.851883
  26.643470, 216284.433973
  26.650699, 216283.003211
  26.657945, 216281.556423
  26.665209, 216280.093225
  26.672534, 216278.604750
  26.679829, 216277.109267
  26.687193, 216275.586219
  26.694513, 216274.059219
  26.701868, 216272.511632
  26.709213, 216270.952529
  26.716606, 216269.369803
  26.724011, 216267.770562
  26.731374, 216266.166963
  26.738741, 216264.548475
  26.746146, 216262.907971
  26.753521, 216261.260249
  26.761011, 216259.572565
  26.768457, 216257.880574
  26.775938, 216256.166339
  26.783423, 216254.436616
  26.790973, 216252.677141
  26.798551, 216250.896276
  26.806111, 216249.104550
  26.813602, 216247.314503
  26.821185, 216245.487322
  26.828760, 216243.647148
  26.836375, 216241.781775
  26.843943, 216239.912429
  26.851535, 216238.021971
  26.859210, 216236.095253
  26.866804, 216234.173037
  26.874496, 216232.210118
  26.882158, 216230.238969
  26.889852, 216228.243555
  26.897593, 216226.219601
  26.905318, 216224.183672
  26.913087, 216222.119292
  26.920878, 216220.032391
  26.928651, 216217.933562
  26.936454, 216215.809993
  26.944286, 216213.660962
  26.952135, 216211.490504
  26.959984, 216209.302467
  26.967846, 216207.093315
  26.975723, 216204.862647
  26.983567, 216202.623710
  26.991438, 216200.359258
  26.999291, 216198.082507
  27.007248, 216195.757678
  27.015178, 216193.422430
  27.023099, 216191.071642
  27.031078, 216188.685456
  27.038996, 216186.298881
  27.046965, 216183.878795
  27.054961, 216181.431513
  27.062975, 216178.960064
  27.071026, 216176.458106
  27.079033, 216173.950734
  27.087064, 216171.416699
  27.095102, 216168.861427
  27.103206, 216166.265494
  27.111317, 216163.647479
  27.119431, 216161.008677
  27.127629, 216158.322514
  27.135818, 216155.618906
  27.143996, 216152.898675
  27.152183, 216150.154759
  27.160355, 216147.395590
  27.168575, 216144.599771
  27.176813, 216141.776739
  27.185085, 216138.920907
  27.193355, 216136.044565
  27.201634, 216133.144096
  27.209942, 216130.211695
  27.218253, 216127.256560
  27.226590, 216124.270357
  27.235029, 216121.225537
  27.243381, 216118.189867
  27.251777, 216115.116151
  27.260152, 216112.027434
  27.268561, 216108.903985
  27.276955, 216105.763454
  27.285439, 216102.566295
  27.293878, 216099.362930
  27.302391, 216096.108415
  27.310884, 216092.837863
  27.319361, 216089.550625
  27.327940, 216086.199373
  27.336492, 216082.835112
  27.345099, 216079.425117
  27.353614, 216076.027170
  27.362129, 216072.605580
  27.370682, 216069.144825
  27.379220, 216065.665620
  27.387895, 216062.105693
  27.396563, 216058.523609
  27.405196, 216054.931206
  27.413797, 216051.326880
  27.422488, 216047.659838
  27.431256, 216043.934284
  27.440001, 216040.192908
  27.448743, 216036.426352
  27.457478, 216032.637356
  27.466253, 216028.804260
  27.475057, 216024.932146
  27.483782, 216021.068799
  27.492570, 216017.150546
  27.501372, 216013.199648
  27.510258, 216009.183662
  27.519089, 216005.165782
  27.527941, 216001.110723
  27.536880, 215996.987974
  27.545747, 215992.870922
  27.554668, 215988.700985
  27.563571, 215984.511294
  27.572536, 215980.264367
  27.581514, 215975.982461
  27.590483, 215971.676411
  27.599507, 215967.315247
  27.608491, 215962.944521
  27.617502, 215958.531348
  27.626519, 215954.086552
  27.635518, 215949.620886
  27.644580, 215945.094885
  27.653600, 215940.560390
  27.662711, 215935.949861
  27.671892, 215931.273419
  27.681023, 215926.592123
  27.690159, 215921.877542
  27.699339, 215917.109572
  27.708497, 215912.322555
  27.717663, 215907.500063
  27.726860, 215902.630335
  27.736052, 215897.731629
  27.745269, 215892.788091
  27.754387, 215887.866844
  27.763591, 215882.867832
  27.772876, 215877.792141
  27.782074, 215872.732717
  27.791399, 215867.570882
  27.800760, 215862.356093
  27.810062, 215857.141703
  27.819400, 215851.874103
  27.828729, 215846.578116
  27.838074, 215841.240352
  27.847481, 215835.833745
  27.856860, 215830.409030
  27.866309, 215824.909930
  27.875638, 215819.447152
  27.885053, 215813.900540
  27.894537, 215808.278120
  27.903958, 215802.658718
  27.913407, 215796.988350
  27.922906, 215791.252997
  27.932390, 215785.491472
  27.941895, 215779.682366
  27.951424, 215773.823152
  27.960984, 215767.908758
  27.970484, 215761.996170
  27.980021, 215756.025184
  27.989542, 215750.028179
  27.999086, 215743.980589
  28.008690, 215737.859151
  28.018275, 215731.712812
  28.027923, 215725.489634
  28.037539, 215719.250024
  28.047168, 215712.964463
  28.056806, 215706.636594
  28.066518, 215700.222284
  28.076220, 215693.777028
  28.085971, 215687.261158
  28.095740, 215680.694313
  28.105490, 215674.101872
  28.115314, 215667.421175
  28.125190, 215660.664737
  28.135081, 215653.858666
  28.144863, 215647.088513
  28.154633, 215640.288257
  28.164593, 215633.315107
  28.174448, 215626.375004
  28.184265, 215619.422533
  28.194118, 215612.404999
  28.203925, 215605.380602
  28.213753, 215598.300562
  28.223727, 215591.075208
  28.233613, 215583.872800
  28.243549, 215576.593279
  28.253399, 215569.336598
  28.263410, 215561.918827
  28.273428, 215554.455289
  28.283385, 215546.995051
  28.293289, 215539.533652
  28.303199, 215532.026311
  28.313231, 215524.384239
  28.323188, 215516.758410
  28.333258, 215509.003014
  28.343279, 215501.242591
  28.353361, 215493.392668
  28.363443, 215485.499006
  28.373436, 215477.633126
  28.383415, 215469.736495
  28.393536, 215461.683404
  28.403627, 215453.610460
  28.413807, 215445.423439
  28.423864, 215437.290621
  28.434079, 215428.986625
  28.444164, 215420.744671
  28.454354, 215412.371759
  28.464509, 215403.983595
  28.474587, 215395.615101
  28.484765, 215387.119057
  28.494900, 215378.614862
  28.505124, 215369.990391
  28.515254, 215361.401025
  28.525426, 215352.732034
  28.535606, 215344.010146
  28.545869, 215335.171738
  28.556096, 215326.319061
  28.566378, 215317.372944
  28.576603, 215308.430259
  28.586965, 215299.321071
  28.597164, 215290.309612
  28.607353, 215281.261445
  28.617611, 215272.106283
  28.627979, 215262.805829
  28.638356, 215253.449869
  28.648581, 215244.184359
  28.658917, 215234.772482
  28.669356, 215225.218086
  28.679713, 215215.691136
  28.690122, 215206.068821
  28.700483, 215196.443805
  28.710796, 215186.815138
  28.721247, 215177.010301
  28.731646, 215167.205491
  28.742088, 215157.312222
  28.752553, 215147.348393
  28.763052, 215137.302715
  28.773588, 215127.172997
  28.784053, 215117.061782
  28.794629, 215106.793997
  28.805058, 215096.620694
  28.815529, 215086.355875
  28.826004, 215076.039524
  28.836472, 215065.680304
  28.847023, 215055.188494
  28.857534, 215044.687410
  28.868039, 215034.142360
  28.870581, 215031.583263
