Time, Altitude
   0.000000,    0.000000
   0.000028,    0.000000
   0.000056,    0.000000
   0.000083,    0.000000
   0.000111,    0.000000
   0.000139,    0.000000
   0.000167,    0.000000
   0.000194,    0.000000
   0.000222,    0.000000
   0.000250,    0.000000
   0.000278,    0.000000
   0.000306,    0.000000
   0.000333,    0.000000
   0.000361,    0.000000
   0.000389,    0.000000
   0.000417,    0.000000
   0.000444,    0.000000
   0.000472,    0.000000
   0.000500,    0.000000
   0.000528,    0.000000
   0.000556,    0.000000
   0.000583,    0.000000
   0.000611,    0.000000
   0.000639,    0.000000
   0.000667,    0.000000
   0.000694,    0.000000
   0.000722,    0.000000
   0.000750,    0.000000
   0.000778,    0.000000
   0.000806,    0.000000
   0.000833,    0.000000
   0.000861,    0.000000
   0.000889,    0.000000
   0.000917,    0.000000
   0.000944,    0.000000
   0.000972,    0.000000
   0.001000,    0.000000
   0.001028,    0.000000
   0.001056,    0.000000
   0.001083,    0.000000
   0.001111,    0.000000
   0.001139,    0.000000
   0.001167,    0.000000
   0.001194,    0.000000
   0.001222,    0.000000
   0.001250,    0.000000
   0.001278,    0.000000
   0.001306,    0.000000
   0.001333,    0.000000
   0.001361,    0.000000
   0.001389,    0.000000
   0.001417,    0.000000
   0.001444,    0.000000
   0.001472,    0.000000
   0.001500,    0.000000
   0.001528,    0.000000
   0.001556,    0.000000
   0.001583,    0.000000
   0.001611,    0.000000
   0.001639,    0.000000
   0.001667,    0.000000
   0.001694,    0.000000
   0.001722,    0.000000
   0.001750,    0.000000
   0.001778,    0.000000
   0.001806,    0.000000
   0.001833,    0.000000
   0.001861,    0.000000
   0.001889,    0.000000
   0.001917,    0.000000
   0.001944,    0.000000
   0.001972,    0.000000
   0.002000,    0.000000
   0.002028,    0.000000
   0.002056,    0.000000
   0.002083,    0.000000
   0.002111,    0.000000
   0.002139,    0.000000
   0.002167,    0.000000
   0.002194,    0.000000
   0.002222,    0.000000
   0.002250,    0.000000
   0.002278,    0.000000
   0.002306,    0.000000
   0.002333,    0.000000
   0.002361,    0.000000
   0.002389,    0.000000
   0.002417,    0.000000
   0.002444,    0.000000
   0.002472,    0.000000
   0.002500,    0.000000
   0.002528,    0.000000
   0.002556,    0.000000
   0.002583,    0.000000
   0.002611,    0.000000
   0.002639,    0.000000
   0.002667,    0.000000
   0.002694,    0.000000
   0.002722,    0.000000
   0.002750,    0.000000
   0.002778,    0.000000
   0.002806,    0.000000
   0.002833,    0.000000
   0.002861,    0.000000
   0.002889,    0.000000
   0.002917,    0.000000
   0.002944,    0.000000
   0.002972,    0.000000
   0.003000,    0.000000
   0.003028,    0.000000
   0.003056,    0.000000
   0.003083,    0.000000
   0.003111,    0.000000
   0.003139,    0.000000
   0.003167,    0.000000
   0.003194,    0.000000
   0.003222,    0.000000
   0.003250,    0.000000
   0.003278,    0.000000
   0.003306,    0.000000
   0.003333,    0.000000
   0.003361,    0.000000
   0.003389,    0.000000
   0.003417,    0.000000
   0.003444,    0.000000
   0.003472,    0.000000
   0.003500,    0.000000
   0.003528,    0.000000
   0.003556,    0.000000
   0.003583,    0.000000
   0.003611,    0.000000
   0.003639,    0.000000
   0.003667,    0.000000
   0.003694,    0.000000
   0.003722,    0.000000
   0.003750,    0.000000
   0.003778,    0.000000
   0.003806,    0.000000
   0.003833,    0.000000
   0.003861,    0.000000
   0.003889,    0.000000
   0.003917,    0.000000
   0.003944,    0.000000
   0.003972,    0.000000
   0.004000,    0.000000
   0.004028,    0.000000
   0.004056,    0.000000
   0.004083,    0.000000
   0.004111,    0.000000
   0.004139,    0.000000
   0.004167,    0.000000
   0.004194,    0.000000
   0.004222,    0.000000
   0.004250,    0.000000
   0.004278,    0.000000
   0.004306,    0.000000
   0.004333,    0.000000
   0.004361,    0.000000
   0.004389,    0.000000
   0.004417,    0.000000
   0.004444,    0.000000
   0.004472,    0.000000
   0.004500,    0.000000
   0.004528,    0.000000
   0.004556,    0.000000
   0.004583,    0.000000
   0.004611,    0.000000
   0.004639,    0.000000
   0.004667,    0.000000
   0.004694,    0.000000
   0.004722,    0.000000
   0.004750,    0.000000
   0.004778,    0.000000
   0.004806,    0.000000
   0.004833,    0.000000
   0.004861,    0.000000
   0.004889,    0.000000
   0.004917,    0.000000
   0.004944,    0.000000
   0.004972,    0.000000
   0.005000,    0.000000
   0.005028,    0.000000
   0.005056,    0.000000
   0.005083,    0.000000
   0.005111,    0.000000
   0.005139,    0.000000
   0.005167,    0.000000
   0.005194,    0.000000
   0.005222,    0.000000
   0.005250,    0.000000
   0.005278,    0.000000
   0.005306,    0.000000
   0.005333,    0.000000
   0.005361,    0.000000
   0.005389,    0.000000
   0.005417,    0.000000
   0.005444,    0.000000
   0.005472,    0.000000
   0.005500,    0.000000
   0.005528,    0.000000
   0.005556,    0.000000
   0.005583,    0.000000
   0.005611,    0.000000
   0.005639,    0.000000
   0.005667,    0.000000
   0.005694,    0.000000
   0.005722,    0.000000
   0.005750,    0.000000
   0.005778,    0.000000
   0.005806,    0.000000
   0.005833,    0.000000
   0.005861,    0.000000
   0.005889,    0.000000
   0.005917,    0.000000
   0.005930,    0.000000
   0.005958,    0.000000
   0.005986,    0.000000
   0.006014,    0.000000
   0.006041,    0.000000
   0.006069,    0.000000
   0.006097,    0.000000
   0.006125,    0.000000
   0.006152,    0.000000
   0.006180,    0.000000
   0.006208,    0.000000
   0.006236,    0.000000
   0.006264,    0.000000
   0.006291,    0.000000
   0.006319,    0.000000
   0.006347,    0.000000
   0.006375,    0.000000
   0.006402,    0.000000
   0.006430,    0.000000
   0.006458,    0.000000
   0.006486,    0.000000
   0.006514,    0.000000
   0.006541,    0.000000
   0.006569,    0.000000
   0.006597,    0.000000
   0.006625,    0.000000
   0.006652,    0.000000
   0.006680,    0.000000
   0.006708,    0.000000
   0.006736,    0.000000
   0.006764,    0.000000
   0.006791,    0.000000
   0.006819,    0.000000
   0.006847,    0.000000
   0.006875,    0.000000
   0.006902,    0.000000
   0.006930,    0.000000
   0.006958,    0.000000
   0.006975,    0.000000
   0.007003,    0.516447
   0.007031,    1.032893
   0.007059,    1.549340
   0.007086,    2.065787
   0.007114,    2.582233
   0.007142,    3.098680
   0.007170,    3.615127
   0.007198,    4.131573
   0.007225,    4.648020
   0.007253,    5.164467
   0.007281,    6.497448
   0.007309,    7.830428
   0.007336,    9.163409
   0.007364,   10.496390
   0.007392,   11.829371
   0.007420,   13.725579
   0.007448,   15.621788
   0.007475,   17.517996
   0.007503,   19.414205
   0.007531,   21.310414
   0.007559,   23.797577
   0.007586,   26.284740
   0.007614,   28.771903
   0.007642,   31.259066
   0.007670,   33.746229
   0.007670,   35.000000
   0.027585, 1920.000000
   0.047909, 3805.000000
   0.068888, 5690.000000
   0.091377, 7575.000000
   0.116154, 9460.000000
   0.143582, 11345.000000
   0.174218, 13230.000000
   0.209042, 15115.000000
   0.250459, 17000.000000
   0.250459, 17000.000000
   0.264316, 17000.000000
   0.278173, 17000.000000
   0.292030, 17000.000000
   0.305887, 17000.000000
   0.319744, 17000.000000
   0.333601, 17000.000000
   0.347458, 17000.000000
   0.361315, 17000.000000
   0.375173, 17000.000000
   0.389030, 17000.000000
   0.402887, 17000.000000
   0.416744, 17000.000000
   0.430601, 17000.000000
   0.444458, 17000.000000
   0.458315, 17000.000000
   0.472172, 17000.000000
   0.486029, 17000.000000
   0.499886, 17000.000000
   0.513743, 17000.000000
   0.527600, 17000.000000
   0.541457, 17000.000000
   0.555314, 17000.000000
   0.569171, 17000.000000
   0.583028, 17000.000000
   0.596885, 17000.000000
   0.610742, 17000.000000
   0.624599, 17000.000000
   0.638456, 17000.000000
   0.652313, 17000.000000
   0.652313, 17000.000000
   0.671644, 15277.777778
   0.691022, 13555.555556
   0.710375, 11833.333333
   0.729642, 10111.111111
   0.748785, 8388.888889
   0.767732, 6666.666667
   0.786416, 4944.444444
   0.805036, 3222.222222
   0.823530, 1500.000000
   0.823530, 1500.000000
   0.833181, 2444.444444
   0.842926, 3388.888889
   0.852762, 4333.333333
   0.862735, 5277.777778
   0.873025, 6222.222222
   0.883787, 7166.666667
   0.895071, 8111.111111
   0.906916, 9055.555556
   0.919352, 10000.000000
   0.919352, 10000.000000
   0.950238, 10000.000000
   0.981137, 10000.000000
   1.012049, 10000.000000
   1.042975, 10000.000000
   1.073915, 10000.000000
   1.104868, 10000.000000
   1.135834, 10000.000000
   1.166814, 10000.000000
   1.197808, 10000.000000
   1.197808, 10000.000000
   1.208580, 9055.555556
   1.219183, 8111.111111
   1.229827, 7166.666667
   1.240517, 6222.222222
   1.251253, 5277.777778
   1.262033, 4333.333333
   1.272854, 3388.888889
   1.283708, 2444.444444
   1.294581, 1500.000000
   1.294581, 1500.000000
   1.377915, 1500.000000
   1.461248, 1500.000000
   1.544581, 1500.000000
   1.627915, 1500.000000
   1.711248, 1500.000000
   1.794581, 1500.000000
   1.877915, 1500.000000
   1.961248, 1500.000000
   2.044581, 1500.000000
   2.044581, 1500.000000
   2.044609, 1499.046551
   2.044637, 1498.091943
   2.044665, 1497.137334
   2.044692, 1496.169362
   2.044720, 1495.198896
   2.044748, 1494.228430
   2.044776, 1493.257964
   2.044804, 1492.287497
   2.044831, 1491.317031
   2.044859, 1490.346565
   2.044887, 1489.376099
   2.044915, 1488.405633
   2.044942, 1487.435166
   2.044970, 1486.443511
   2.044998, 1485.447900
   2.045026, 1484.452289
   2.045054, 1483.456678
   2.045081, 1482.461067
   2.045109, 1481.465457
   2.045137, 1480.469846
   2.045165, 1479.474235
   2.045192, 1478.478624
   2.045220, 1477.483013
   2.045248, 1476.465680
   2.045276, 1475.444292
   2.045304, 1474.422904
   2.045331, 1473.401516
   2.045359, 1472.380128
   2.045387, 1471.358740
   2.045415, 1470.337352
   2.045442, 1469.315963
   2.045470, 1468.294575
   2.045498, 1467.273187
   2.045526, 1466.230676
   2.045554, 1465.184223
   2.045581, 1464.137769
   2.045609, 1463.091315
   2.045637, 1462.044861
   2.045665, 1460.998408
   2.045692, 1459.951954
   2.045720, 1458.905500
   2.045748, 1457.859046
   2.045776, 1456.812593
   2.045804, 1455.745285
   2.045831, 1454.674085
   2.045859, 1453.602884
   2.045887, 1452.531684
   2.045915, 1451.460484
   2.045942, 1450.389283
   2.045970, 1449.318083
   2.045998, 1448.246883
   2.046026, 1447.175683
   2.046054, 1446.104482
   2.046081, 1445.011580
   2.046109, 1443.914628
   2.046137, 1442.817675
   2.046165, 1441.720723
   2.046192, 1440.623770
   2.046220, 1439.526818
   2.046248, 1438.429865
   2.046276, 1437.332912
   2.046304, 1436.235960
   2.046331, 1435.139007
   2.046359, 1434.021056
   2.046387, 1432.899186
   2.046415, 1431.777316
   2.046442, 1430.655446
   2.046470, 1429.533575
   2.046498, 1428.411705
   2.046526, 1427.289835
   2.046554, 1426.167965
   2.046581, 1425.046094
   2.046609, 1423.924224
   2.046637, 1422.782692
   2.046665, 1421.637489
   2.046692, 1420.492286
   2.046720, 1419.347083
   2.046748, 1418.201880
   2.046776, 1417.056677
   2.046804, 1415.911474
   2.046831, 1414.766271
   2.046859, 1413.621068
   2.046887, 1412.475865
   2.046915, 1411.311352
   2.046942, 1410.143234
   2.046970, 1408.975116
   2.046998, 1407.806998
   2.047026, 1406.638880
   2.047054, 1405.470762
   2.047081, 1404.302644
   2.047109, 1403.134526
   2.047137, 1401.966408
   2.047165, 1400.798290
   2.047192, 1399.609727
   2.047220, 1398.417347
   2.047248, 1397.224968
   2.047276, 1396.032588
   2.047304, 1394.840208
   2.047331, 1393.647829
   2.047359, 1392.455449
   2.047387, 1391.263070
   2.047415, 1390.070690
   2.047442, 1388.878310
   2.047470, 1387.663702
   2.047498, 1386.444945
   2.047526, 1385.226187
   2.047554, 1384.007430
   2.047581, 1382.788672
   2.047609, 1381.569915
   2.047637, 1380.351158
   2.047665, 1379.132400
   2.047692, 1377.913643
   2.047720, 1376.694885
   2.047748, 1375.454891
   2.047776, 1374.210933
   2.047804, 1372.966975
   2.047831, 1371.723017
   2.047859, 1370.479059
   2.047887, 1369.235101
   2.047915, 1367.991143
   2.047942, 1366.747185
   2.047970, 1365.503227
   2.047998, 1364.259269
   2.048026, 1362.996199
   2.048054, 1361.729562
   2.048081, 1360.462924
   2.048109, 1359.196287
   2.048137, 1357.929649
   2.048165, 1356.663012
   2.048192, 1355.396374
   2.048220, 1354.129737
   2.048248, 1352.863099
   2.048276, 1351.596462
   2.048304, 1350.310608
   2.048331, 1349.021168
   2.048359, 1347.731728
   2.048387, 1346.442288
   2.048415, 1345.152848
   2.048442, 1343.863408
   2.048470, 1342.573968
   2.048498, 1341.284528
   2.048526, 1339.995088
   2.048554, 1338.705648
   2.048581, 1337.397135
   2.048609, 1336.085062
   2.048637, 1334.772989
   2.048665, 1333.460916
   2.048692, 1332.148843
   2.048720, 1330.836770
   2.048748, 1329.524697
   2.048776, 1328.212623
   2.048804, 1326.900550
   2.048831, 1325.588477
   2.048859, 1324.256551
   2.048887, 1322.920920
   2.048915, 1321.585288
   2.048942, 1320.249656
   2.048970, 1318.914025
   2.048998, 1317.578393
   2.049026, 1316.242762
   2.049054, 1314.907130
   2.049081, 1313.571498
   2.049109, 1312.235867
   2.049137, 1310.878956
   2.049165, 1309.518073
   2.049192, 1308.157190
   2.049220, 1306.796308
   2.049248, 1305.435425
   2.049276, 1304.074542
   2.049304, 1302.713660
   2.049331, 1301.352777
   2.049359, 1299.991894
   2.049387, 1298.631011
   2.049415, 1297.249013
   2.049442, 1295.863072
   2.049470, 1294.477131
   2.049498, 1293.091191
   2.049526, 1291.705250
   2.049554, 1290.319310
   2.049581, 1288.933369
   2.049609, 1287.547428
   2.049637, 1286.161488
   2.049665, 1284.775547
   2.049692, 1283.368807
   2.049720, 1281.958184
   2.049748, 1280.547561
   2.049776, 1279.136938
   2.049804, 1277.726316
   2.049831, 1276.315693
   2.049859, 1274.905070
   2.049887, 1273.494447
   2.049915, 1272.083824
   2.049942, 1270.673202
   2.049970, 1269.243134
   2.049998, 1267.809437
   2.050026, 1266.375740
   2.050054, 1264.942043
   2.050081, 1263.508346
   2.050109, 1262.074649
   2.050137, 1260.640952
   2.050165, 1259.207255
   2.050192, 1257.773558
   2.050220, 1256.339861
   2.050248, 1254.887834
   2.050276, 1253.432386
   2.050304, 1251.976937
   2.050331, 1250.521489
   2.050359, 1249.066041
   2.050387, 1247.610592
   2.050415, 1246.155144
   2.050442, 1244.699695
   2.050470, 1243.244247
   2.050498, 1241.788798
   2.050526, 1240.315401
   2.050554, 1238.838654
   2.050581, 1237.361906
   2.050609, 1235.885159
   2.050637, 1234.408411
   2.050665, 1232.931664
   2.050692, 1231.454916
   2.050720, 1229.978169
   2.050748, 1228.501421
   2.050776, 1227.024674
   2.050804, 1225.528888
   2.050831, 1224.029548
   2.050859, 1222.530209
   2.050887, 1221.030869
   2.050915, 1219.531530
   2.050942, 1218.032190
   2.050970, 1216.532851
   2.050998, 1215.033511
   2.051026, 1213.534172
   2.051054, 1212.034832
   2.051081, 1210.515957
   2.051109, 1208.993434
   2.051137, 1207.470912
   2.051165, 1205.948389
   2.051192, 1204.425866
   2.051220, 1202.903344
   2.051248, 1201.380821
   2.051276, 1199.858299
   2.051304, 1198.335776
   2.051331, 1196.813254
   2.051359, 1195.272435
   2.051387, 1193.728201
   2.051415, 1192.183966
   2.051442, 1190.639732
   2.051470, 1189.095498
   2.051498, 1187.551263
   2.051526, 1186.007029
   2.051554, 1184.462795
   2.051581, 1182.918561
   2.051609, 1181.374326
   2.051637, 1179.814090
   2.051665, 1178.250867
   2.051692, 1176.687644
   2.051720, 1175.124421
   2.051748, 1173.561198
   2.051776, 1171.997975
   2.051804, 1170.434752
   2.051831, 1168.871529
   2.051859, 1167.308306
   2.051887, 1165.745083
   2.051915, 1164.166705
   2.051942, 1162.585498
   2.051970, 1161.004291
   2.051998, 1159.423085
   2.052026, 1157.841878
   2.052054, 1156.260671
   2.052081, 1154.679465
   2.052109, 1153.098258
   2.052137, 1151.517051
   2.052165, 1149.935844
   2.052192, 1148.339738
   2.052220, 1146.740850
   2.052248, 1145.141962
   2.052276, 1143.543075
   2.052304, 1141.944187
   2.052331, 1140.345299
   2.052359, 1138.746412
   2.052387, 1137.147524
   2.052415, 1135.548636
   2.052442, 1133.949748
   2.052470, 1132.334326
   2.052498, 1130.715818
   2.052526, 1129.097310
   2.052554, 1127.478801
   2.052581, 1125.860293
   2.052609, 1124.241784
   2.052637, 1122.623276
   2.052665, 1121.004768
   2.052692, 1119.386259
   2.052720, 1117.767751
   2.052748, 1116.131483
   2.052776, 1114.491900
   2.052804, 1112.852317
   2.052831, 1111.212734
   2.052859, 1109.573151
   2.052887, 1107.933568
   2.052915, 1106.293985
   2.052942, 1104.654402
   2.052970, 1103.014819
   2.052998, 1101.375236
   2.053026, 1099.718261
   2.053054, 1098.058039
   2.053081, 1096.397816
   2.053109, 1094.737594
   2.053137, 1093.077372
   2.053165, 1091.417150
   2.053192, 1089.756928
   2.053220, 1088.096706
   2.053248, 1086.436484
   2.053276, 1084.776262
   2.053304, 1083.099023
   2.053331, 1081.418609
   2.053359, 1079.738194
   2.053387, 1078.057779
   2.053415, 1076.377365
   2.053442, 1074.696950
   2.053470, 1073.016535
   2.053498, 1071.336121
   2.053526, 1069.655706
   2.053554, 1067.975291
   2.053581, 1066.278189
   2.053609, 1064.577971
   2.053637, 1062.877753
   2.053665, 1061.177535
   2.053692, 1059.477317
   2.053720, 1057.777099
   2.053748, 1056.076881
   2.053776, 1054.376663
   2.053804, 1052.676445
   2.053831, 1050.976228
   2.053859, 1049.259550
   2.053887, 1047.539799
   2.053915, 1045.820048
   2.053942, 1044.100298
   2.053970, 1042.380547
   2.053998, 1040.660797
   2.054026, 1038.941046
   2.054054, 1037.221295
   2.054081, 1035.501545
   2.054109, 1033.781794
   2.054137, 1032.046647
   2.054165, 1030.308626
   2.054192, 1028.570604
   2.054220, 1026.832583
   2.054248, 1025.094562
   2.054276, 1023.356540
   2.054304, 1021.618519
   2.054331, 1019.880498
   2.054359, 1018.142476
   2.054387, 1016.404455
   2.054415, 1014.654188
   2.054442, 1012.901636
   2.054470, 1011.149083
   2.054498, 1009.396531
   2.054526, 1007.643978
   2.054554, 1005.891426
   2.054581, 1004.138873
   2.054609, 1002.386321
   2.054637, 1000.633768
   2.054665,  998.881216
   2.054692,  997.117483
   2.054720,  995.351663
   2.054748,  993.585843
   2.054776,  991.820024
   2.054804,  990.054204
   2.054831,  988.288384
   2.054859,  986.522564
   2.054887,  984.756744
   2.054915,  982.990924
   2.054942,  981.217545
   2.054970,  979.434366
   2.054998,  977.651187
   2.055026,  975.868009
   2.055054,  974.084830
   2.055081,  972.301651
   2.055109,  970.518473
   2.055137,  968.735294
   2.055165,  966.952115
   2.055192,  965.168937
   2.055220,  963.378432
   2.055248,  961.578432
   2.055276,  959.778432
   2.055304,  957.978431
   2.055331,  956.178431
   2.055359,  954.378431
   2.055387,  952.578430
   2.055415,  950.778430
   2.055442,  948.978430
   2.055470,  947.178429
   2.055498,  945.372395
   2.055526,  943.558539
   2.055554,  941.744683
   2.055581,  939.930826
   2.055609,  938.116970
   2.055637,  936.303114
   2.055665,  934.489258
   2.055692,  932.675401
   2.055720,  930.861545
   2.055748,  929.047689
   2.055776,  927.227838
   2.055804,  925.400216
   2.055831,  923.572595
   2.055859,  921.744973
   2.055887,  919.917351
   2.055915,  918.089729
   2.055942,  916.262108
   2.055970,  914.434486
   2.055998,  912.606864
   2.056026,  910.779242
   2.056054,  908.946090
   2.056081,  907.105770
   2.056109,  905.265449
   2.056137,  903.425129
   2.056165,  901.584808
   2.056192,  899.744488
   2.056220,  897.904167
   2.056248,  896.063847
   2.056276,  894.223526
   2.056304,  892.383206
   2.056331,  890.539032
   2.056359,  888.689865
   2.056387,  886.840697
   2.056415,  884.991529
   2.056442,  883.142362
   2.056470,  881.293194
   2.056498,  879.444027
   2.056526,  877.594859
   2.056554,  875.745691
   2.056581,  873.896524
   2.056609,  872.042458
   2.056637,  870.182044
   2.056665,  868.321629
   2.056692,  866.461215
   2.056720,  864.600801
   2.056748,  862.740386
   2.056776,  860.879972
   2.056804,  859.019557
   2.056831,  857.159143
   2.056859,  855.298728
   2.056887,  853.432493
   2.056915,  851.558712
   2.056942,  849.684931
   2.056970,  847.811150
   2.056998,  845.937370
   2.057026,  844.063589
   2.057054,  842.189808
   2.057081,  840.316027
   2.057109,  838.442246
   2.057137,  836.568465
   2.057165,  834.689640
   2.057192,  832.804274
   2.057220,  830.918909
   2.057248,  829.033543
   2.057276,  827.148178
   2.057304,  825.262812
   2.057331,  823.377447
   2.057359,  821.492081
   2.057387,  819.606716
   2.057415,  817.721350
   2.057442,  815.831695
   2.057470,  813.936480
   2.057498,  812.041264
   2.057526,  810.146048
   2.057554,  808.250833
   2.057581,  806.355617
   2.057609,  804.460401
   2.057637,  802.565186
   2.057665,  800.669970
   2.057692,  798.774754
   2.057720,  796.875192
   2.057748,  794.969996
   2.057776,  793.064799
   2.057804,  791.159603
   2.057831,  789.254406
   2.057859,  787.349210
   2.057887,  785.444013
   2.057915,  783.538817
   2.057942,  781.633620
   2.057970,  779.728424
   2.057998,  777.818680
   2.058026,  775.903042
   2.058054,  773.987403
   2.058081,  772.071764
   2.058109,  770.156126
   2.058137,  768.240487
   2.058165,  766.324849
   2.058192,  764.409210
   2.058220,  762.493571
   2.058248,  760.577933
   2.058276,  758.658053
   2.058304,  756.732674
   2.058331,  754.807295
   2.058359,  752.881917
   2.058387,  750.956538
   2.058415,  749.031160
   2.058442,  747.105781
   2.058470,  745.180403
   2.058498,  743.255024
   2.058526,  741.329645
   2.058554,  739.400580
   2.058581,  737.466736
   2.058609,  735.532892
   2.058637,  733.599048
   2.058665,  731.665204
   2.058692,  729.731360
   2.058720,  727.797516
   2.058748,  725.863672
   2.058776,  723.929828
   2.058804,  721.995984
   2.058831,  720.059494
   2.058859,  718.119574
   2.058887,  716.179655
   2.058915,  714.239735
   2.058942,  712.299815
   2.058970,  710.359895
   2.058998,  708.419975
   2.059026,  706.480055
   2.059054,  704.540135
   2.059081,  702.600215
   2.059109,  700.657945
   2.059137,  698.712629
   2.059165,  696.767314
   2.059192,  694.821998
   2.059220,  692.876683
   2.059248,  690.931367
   2.059276,  688.986051
   2.059304,  687.040736
   2.059331,  685.095420
   2.059359,  683.150105
   2.059387,  681.201604
   2.059415,  679.248976
   2.059442,  677.296348
   2.059470,  675.343720
   2.059498,  673.391092
   2.059526,  671.438464
   2.059554,  669.485835
   2.059581,  667.533207
   2.059609,  665.580579
   2.059637,  663.627951
   2.059665,  661.673442
   2.059692,  659.716496
   2.059720,  657.759550
   2.059748,  655.802604
   2.059776,  653.845657
   2.059804,  651.888711
   2.059831,  649.931765
   2.059859,  647.974818
   2.059887,  646.017872
   2.059915,  644.060926
   2.059942,  642.102934
   2.059970,  640.143588
   2.059998,  638.184241
   2.060026,  636.224895
   2.060054,  634.265548
   2.060081,  632.306201
   2.060109,  630.346855
   2.060137,  628.387508
   2.060165,  626.428162
   2.060192,  624.468815
   2.060220,  622.507011
   2.060248,  620.542021
   2.060276,  618.577031
   2.060304,  616.612042
   2.060331,  614.647052
   2.060359,  612.682062
   2.060387,  610.717072
   2.060415,  608.752082
   2.060442,  606.787093
   2.060470,  604.822103
   2.060498,  602.854728
   2.060526,  600.884262
   2.060554,  598.913796
   2.060581,  596.943330
   2.060609,  594.972864
   2.060637,  593.002398
   2.060665,  591.031932
   2.060692,  589.061466
   2.060720,  587.091000
   2.060748,  585.120534
   2.060776,  583.147197
   2.060804,  581.173276
   2.060831,  579.199356
   2.060859,  577.225435
   2.060887,  575.251514
   2.060915,  573.277594
   2.060942,  571.303673
   2.060970,  569.329753
   2.060998,  567.355832
   2.061026,  565.381911
   2.061054,  563.406688
   2.061081,  561.431200
   2.061109,  559.455712
   2.061137,  557.480224
   2.061165,  555.504736
   2.061192,  553.529248
   2.061220,  551.553760
   2.061248,  549.578272
   2.061276,  547.602785
   2.061304,  545.627297
   2.061331,  543.650309
   2.061359,  541.673016
   2.061387,  539.695724
   2.061415,  537.718431
   2.061442,  535.741138
   2.061470,  533.763845
   2.061498,  531.786553
   2.061526,  529.809260
   2.061554,  527.831967
   2.061581,  525.854675
   2.061609,  523.872015
   2.061637,  521.888264
   2.061665,  519.904513
   2.061692,  517.920762
   2.061720,  515.937011
   2.061748,  513.953259
   2.061776,  511.969508
   2.061804,  509.985757
   2.061831,  508.002006
   2.061859,  506.018255
   2.061887,  504.029129
   2.061915,  502.038909
   2.061942,  500.048690
   2.061970,  498.058471
   2.061998,  496.068251
   2.062026,  494.078032
   2.062054,  492.087812
   2.062081,  490.097593
   2.062109,  488.107374
   2.062137,  486.116526
   2.062165,  484.124870
   2.062192,  482.133215
   2.062220,  480.141560
   2.062248,  478.149905
   2.062276,  476.158250
   2.062304,  474.166594
   2.062331,  472.174939
   2.062359,  470.183284
   2.062387,  468.191724
   2.062415,  466.200285
   2.062442,  464.208847
   2.062470,  462.217408
   2.062498,  460.225969
   2.062526,  458.234531
   2.062554,  456.243092
   2.062581,  454.251653
   2.062609,  452.260215
   2.062637,  450.268776
   2.062665,  448.277530
   2.062692,  446.286330
   2.062720,  444.295130
   2.062748,  442.303929
   2.062776,  440.312729
   2.062804,  438.321529
   2.062831,  436.330328
   2.062859,  434.339128
   2.062887,  432.347928
   2.062915,  430.356727
   2.062942,  428.366455
   2.062970,  426.376401
   2.062998,  424.386347
   2.063026,  422.396293
   2.063054,  420.406239
   2.063081,  418.416185
   2.063109,  416.426131
   2.063137,  414.436077
   2.063165,  412.446023
   2.063192,  410.455969
   2.063220,  408.468038
   2.063248,  406.480607
   2.063276,  404.493175
   2.063304,  402.505743
   2.063331,  400.518312
   2.063359,  398.530880
   2.063387,  396.543449
   2.063415,  394.556017
   2.063442,  392.568586
   2.063470,  390.581154
   2.063498,  388.597592
   2.063526,  386.614939
   2.063554,  384.632287
   2.063581,  382.649634
   2.063609,  380.666982
   2.063637,  378.684330
   2.063665,  376.701677
   2.063692,  374.719025
   2.063720,  372.736372
   2.063748,  370.753720
   2.063776,  368.775021
   2.063804,  366.797252
   2.063831,  364.819483
   2.063859,  362.841714
   2.063887,  360.863945
   2.063915,  358.886176
   2.063942,  356.908407
   2.063970,  354.930638
   2.063998,  352.952868
   2.064026,  350.975099
   2.064054,  349.000103
   2.064081,  347.025759
   2.064109,  345.051415
   2.064137,  343.077071
   2.064165,  341.102727
   2.064192,  339.128383
   2.064220,  337.154039
   2.064248,  335.179695
   2.064276,  333.205350
   2.064304,  331.231006
   2.064331,  329.256238
   2.064359,  327.281370
   2.064387,  325.306501
   2.064415,  323.331633
   2.064442,  321.356765
   2.064470,  319.381896
   2.064498,  317.407028
   2.064526,  315.432160
   2.064554,  313.457291
   2.064581,  311.482423
   2.064609,  309.507171
   2.064637,  307.531830
   2.064665,  305.556488
   2.064692,  303.581147
   2.064720,  301.605805
   2.064748,  299.630464
   2.064776,  297.655122
   2.064804,  295.679781
   2.064831,  293.704439
   2.064859,  291.731072
   2.064887,  289.761685
   2.064915,  287.792297
   2.064942,  285.822910
   2.064970,  283.853522
   2.064998,  281.884135
   2.065026,  279.914747
   2.065054,  277.945360
   2.065081,  275.975972
   2.065109,  274.006585
   2.065137,  272.038688
   2.065165,  270.073797
   2.065192,  268.108906
   2.065220,  266.144015
   2.065248,  264.179124
   2.065276,  262.214233
   2.065304,  260.249342
   2.065331,  258.284450
   2.065359,  256.319559
   2.065387,  254.354668
   2.065415,  252.390680
   2.065442,  250.428511
   2.065470,  248.466343
   2.065498,  246.504175
   2.065526,  244.542006
   2.065554,  242.579838
   2.065581,  240.617669
   2.065609,  238.655501
   2.065637,  236.693332
   2.065665,  234.731164
   2.065692,  232.769958
   2.065720,  230.810692
   2.065748,  228.851425
   2.065776,  226.892159
   2.065804,  224.932893
   2.065831,  222.973627
   2.065859,  221.014361
   2.065887,  219.055094
   2.065915,  217.095828
   2.065942,  215.136562
   2.065970,  213.184097
   2.065998,  211.232438
   2.066026,  209.280779
   2.066054,  207.329120
   2.066081,  205.377461
   2.066109,  203.425802
   2.066137,  201.474143
   2.066165,  199.522484
   2.066192,  197.570825
   2.066220,  195.619897
   2.066248,  193.676601
   2.066276,  191.733304
   2.066304,  189.790008
   2.066331,  187.846711
   2.066359,  185.903414
   2.066387,  183.960118
   2.066415,  182.016821
   2.066442,  180.073524
   2.066470,  178.130228
   2.066498,  176.187675
   2.066526,  174.252879
   2.066554,  172.318083
   2.066581,  170.383288
   2.066609,  168.448492
   2.066637,  166.513696
   2.066665,  164.578900
   2.066692,  162.644105
   2.066720,  160.709309
   2.066748,  158.774513
   2.066776,  156.840280
   2.066804,  154.911911
   2.066831,  152.983543
   2.066859,  151.055175
   2.066887,  149.126806
   2.066915,  147.198438
   2.066942,  145.270070
   2.066970,  143.341701
   2.066998,  141.413333
   2.067026,  139.484965
   2.067054,  137.557296
   2.067081,  135.636928
   2.067109,  133.716560
   2.067137,  131.796191
   2.067165,  129.875823
   2.067192,  127.955455
   2.067220,  126.035087
   2.067248,  124.114718
   2.067276,  122.194350
   2.067304,  120.273982
   2.067331,  118.354313
   2.067359,  116.441940
   2.067387,  114.529567
   2.067415,  112.617194
   2.067442,  110.704821
   2.067470,  108.792448
   2.067498,  106.880075
   2.067526,  104.967702
   2.067554,  103.055329
   2.067581,  101.142957
   2.067609,   99.231409
   2.067637,   97.328468
   2.067665,   95.425527
   2.067692,   93.522586
   2.067720,   91.619645
   2.067748,   89.716705
   2.067776,   87.813764
   2.067804,   85.910823
   2.067831,   84.007882
   2.067859,   82.104941
   2.067887,   80.202716
   2.067915,   78.307954
   2.067942,   76.413193
   2.067970,   74.518431
   2.067998,   72.623669
   2.068026,   70.728907
   2.068054,   68.834146
   2.068081,   66.939384
   2.068109,   65.044622
   2.068137,   63.149860
   2.068165,   61.255601
   2.068192,   59.366581
   2.068220,   57.477562
   2.068248,   55.588542
   2.068276,   53.699523
   2.068304,   51.810503
   2.068330,   50.000000
   2.068358,   48.115644
   2.068386,   46.231287
   2.068413,   44.346931
   2.068441,   42.463053
   2.068469,   40.589124
   2.068497,   38.715194
   2.068525,   36.841264
   2.068552,   34.967334
   2.068580,   33.093404
   2.068608,   31.219474
   2.068636,   29.345545
   2.068663,   27.471615
   2.068691,   25.597685
   2.068719,   23.724215
   2.068747,   21.860312
   2.068775,   20.000000
   2.068802,   18.146201
   2.068830,   16.292403
   2.068858,   14.438605
   2.068886,   12.584806
   2.068913,   10.731008
   2.068941,    8.877210
   2.068969,    7.023412
   2.068997,    5.207221
   2.069025,    4.208682
   2.069052,    3.210143
   2.069080,    2.211604
   2.069081,    2.165332
   2.069109,    3.704944
   2.069137,    5.244556
   2.069165,    6.784168
   2.069192,    8.323780
   2.069220,    9.863393
   2.069248,   11.403005
   2.069276,   12.803571
   2.069304,   12.803571
   2.069331,   12.803571
   2.069359,   12.803571
   2.069387,   12.803571
   2.069415,   12.803571
   2.069442,   12.803571
   2.069470,   12.803571
   2.069498,   12.803571
   2.069526,   12.803571
   2.069554,   12.803571
   2.069581,   12.803571
   2.069609,   12.803571
   2.069637,   12.803571
   2.069665,   12.803571
   2.069692,   12.803571
   2.069720,   12.803571
   2.069748,   12.803571
   2.069776,   12.803571
   2.069804,   12.803571
   2.069831,   12.803571
   2.069859,   12.803571
   2.069887,   12.803571
   2.069915,   12.803571
   2.069942,   12.803571
   2.069970,   12.803571
   2.069998,   12.803571
   2.070026,   12.803571
   2.070054,   12.803571
   2.070081,   12.803571
   2.070109,   12.803571
   2.070137,   12.803571
   2.070165,   12.803571
   2.070192,   12.803571
   2.070220,   12.803571
   2.070248,   12.803571
   2.070276,   12.803571
   2.070304,   12.803571
   2.070331,   12.803571
   2.070359,   12.803571
   2.070387,   12.803571
   2.070415,   12.803571
   2.070442,   12.803571
   2.070470,   12.803571
   2.070498,   12.803571
   2.070526,   12.803571
   2.070554,   12.803571
   2.070581,   12.803571
   2.070609,   12.803571
   2.070637,   12.803571
   2.070665,   12.803571
   2.070692,   12.803571
   2.070720,   12.803571
   2.070748,   12.803571
   2.070776,   12.803571
   2.070804,   12.803571
   2.070831,   12.803571
   2.070859,   12.803571
   2.070887,   12.803571
   2.070915,   12.803571
   2.070942,   12.803571
   2.070970,   12.803571
   2.070998,   12.803571
   2.071026,   12.803571
   2.071054,   12.803571
   2.071081,   12.803571
   2.071109,   12.803571
   2.071137,   12.803571
   2.071165,   12.803571
   2.071192,   12.803571
   2.071220,   12.803571
   2.071248,   12.803571
   2.071276,   12.803571
   2.071304,   12.803571
   2.071331,   12.803571
   2.071359,   12.803571
   2.071387,   12.803571
   2.071415,   12.803571
   2.071442,   12.803571
   2.071470,   12.803571
   2.071498,   12.803571
   2.071526,   12.803571
   2.071554,   12.803571
   2.071581,   12.803571
   2.071609,   12.803571
   2.071637,   12.803571
   2.071665,   12.803571
   2.071692,   12.803571
   2.071720,   12.803571
   2.071748,   12.803571
   2.071776,   12.803571
   2.071804,   12.803571
   2.071831,   12.803571
   2.071859,   12.803571
   2.071887,   12.803571
   2.071915,   12.803571
   2.071942,   12.803571
   2.071970,   12.803571
   2.071998,   12.803571
   2.072026,   12.803571
   2.072054,   12.803571
   2.072081,   12.803571
   2.072109,   12.803571
   2.072137,   12.803571
   2.072165,   12.803571
   2.072192,   12.803571
   2.072220,   12.803571
   2.072248,   12.803571
   2.072276,   12.803571
   2.072304,   12.803571
   2.072331,   12.803571
   2.072359,   12.803571
   2.072387,   12.803571
   2.072415,   12.803571
   2.072442,   12.803571
   2.072470,   12.803571
   2.072498,   12.803571
   2.072526,   12.803571
   2.072554,   12.803571
   2.072581,   12.803571
   2.072609,   12.803571
   2.072637,   12.803571
   2.072665,   12.803571
   2.072692,   12.803571
   2.072720,   12.803571
   2.072748,   12.803571
   2.072776,   12.803571
   2.072804,   12.803571
   2.072831,   12.803571
   2.072859,   12.803571
   2.072887,   12.803571
   2.072915,   12.803571
   2.072942,   12.803571
   2.072970,   12.803571
   2.072998,   12.803571
   2.073026,   12.803571
   2.073054,   12.803571
   2.073081,   12.803571
   2.073109,   12.803571
   2.073137,   12.803571
   2.073165,   12.803571
   2.073192,   12.803571
   2.073220,   12.803571
   2.073248,   12.803571
   2.073276,   12.803571
   2.073304,   12.803571
   2.073331,   12.803571
   2.073359,   12.803571
   2.073387,   12.803571
   2.073415,   12.803571
   2.073442,   12.803571
   2.073470,   12.803571
   2.073498,   12.803571
   2.073526,   12.803571
   2.073554,   12.803571
   2.073581,   12.803571
   2.073609,   12.803571
   2.073637,   12.803571
   2.073665,   12.803571
   2.073692,   12.803571
   2.073698,   12.803571
