Time, Altitude
   0.000000,    0.000000
   0.000028,    0.000000
   0.000056,    0.000000
   0.000083,    0.000000
   0.000111,    0.000000
   0.000139,    0.000000
   0.000167,    0.000000
   0.000194,    0.000000
   0.000222,    0.000000
   0.000250,    0.000000
   0.000278,    0.000000
   0.000306,    0.000000
   0.000333,    0.000000
   0.000361,    0.000000
   0.000389,    0.000000
   0.000417,    0.000000
   0.000444,    0.000000
   0.000472,    0.000000
   0.000500,    0.000000
   0.000528,    0.000000
   0.000556,    0.000000
   0.000583,    0.000000
   0.000611,    0.000000
   0.000639,    0.000000
   0.000667,    0.000000
   0.000694,    0.000000
   0.000722,    0.000000
   0.000750,    0.000000
   0.000778,    0.000000
   0.000806,    0.000000
   0.000833,    0.000000
   0.000861,    0.000000
   0.000889,    0.000000
   0.000917,    0.000000
   0.000944,    0.000000
   0.000972,    0.000000
   0.001000,    0.000000
   0.001028,    0.000000
   0.001056,    0.000000
   0.001083,    0.000000
   0.001111,    0.000000
   0.001139,    0.000000
   0.001167,    0.000000
   0.001194,    0.000000
   0.001222,    0.000000
   0.001250,    0.000000
   0.001278,    0.000000
   0.001306,    0.000000
   0.001333,    0.000000
   0.001361,    0.000000
   0.001389,    0.000000
   0.001417,    0.000000
   0.001444,    0.000000
   0.001472,    0.000000
   0.001500,    0.000000
   0.001528,    0.000000
   0.001556,    0.000000
   0.001583,    0.000000
   0.001611,    0.000000
   0.001639,    0.000000
   0.001667,    0.000000
   0.001694,    0.000000
   0.001722,    0.000000
   0.001750,    0.000000
   0.001778,    0.000000
   0.001806,    0.000000
   0.001833,    0.000000
   0.001861,    0.000000
   0.001889,    0.000000
   0.001917,    0.000000
   0.001944,    0.000000
   0.001972,    0.000000
   0.002000,    0.000000
   0.002028,    0.000000
   0.002056,    0.000000
   0.002083,    0.000000
   0.002111,    0.000000
   0.002139,    0.000000
   0.002167,    0.000000
   0.002194,    0.000000
   0.002222,    0.000000
   0.002250,    0.000000
   0.002278,    0.000000
   0.002306,    0.000000
   0.002333,    0.000000
   0.002361,    0.000000
   0.002389,    0.000000
   0.002417,    0.000000
   0.002444,    0.000000
   0.002472,    0.000000
   0.002500,    0.000000
   0.002528,    0.000000
   0.002556,    0.000000
   0.002583,    0.000000
   0.002611,    0.000000
   0.002639,    0.000000
   0.002667,    0.000000
   0.002694,    0.000000
   0.002722,    0.000000
   0.002750,    0.000000
   0.002778,    0.000000
   0.002806,    0.000000
   0.002833,    0.000000
   0.002861,    0.000000
   0.002889,    0.000000
   0.002917,    0.000000
   0.002944,    0.000000
   0.002972,    0.000000
   0.003000,    0.000000
   0.003028,    0.000000
   0.003056,    0.000000
   0.003083,    0.000000
   0.003111,    0.000000
   0.003139,    0.000000
   0.003167,    0.000000
   0.003194,    0.000000
   0.003222,    0.000000
   0.003250,    0.000000
   0.003278,    0.000000
   0.003306,    0.000000
   0.003333,    0.000000
   0.003361,    0.000000
   0.003389,    0.000000
   0.003417,    0.000000
   0.003444,    0.000000
   0.003472,    0.000000
   0.003500,    0.000000
   0.003528,    0.000000
   0.003556,    0.000000
   0.003583,    0.000000
   0.003611,    0.000000
   0.003639,    0.000000
   0.003667,    0.000000
   0.003694,    0.000000
   0.003722,    0.000000
   0.003750,    0.000000
   0.003778,    0.000000
   0.003806,    0.000000
   0.003833,    0.000000
   0.003861,    0.000000
   0.003889,    0.000000
   0.003917,    0.000000
   0.003944,    0.000000
   0.003972,    0.000000
   0.004000,    0.000000
   0.004028,    0.000000
   0.004056,    0.000000
   0.004083,    0.000000
   0.004111,    0.000000
   0.004139,    0.000000
   0.004167,    0.000000
   0.004194,    0.000000
   0.004222,    0.000000
   0.004250,    0.000000
   0.004278,    0.000000
   0.004306,    0.000000
   0.004333,    0.000000
   0.004361,    0.000000
   0.004389,    0.000000
   0.004417,    0.000000
   0.004444,    0.000000
   0.004472,    0.000000
   0.004500,    0.000000
   0.004528,    0.000000
   0.004556,    0.000000
   0.004583,    0.000000
   0.004611,    0.000000
   0.004639,    0.000000
   0.004667,    0.000000
   0.004694,    0.000000
   0.004722,    0.000000
   0.004750,    0.000000
   0.004778,    0.000000
   0.004806,    0.000000
   0.004833,    0.000000
   0.004861,    0.000000
   0.004889,    0.000000
   0.004917,    0.000000
   0.004944,    0.000000
   0.004972,    0.000000
   0.005000,    0.000000
   0.005028,    0.000000
   0.005056,    0.000000
   0.005083,    0.000000
   0.005111,    0.000000
   0.005139,    0.000000
   0.005167,    0.000000
   0.005194,    0.000000
   0.005206,    0.000000
   0.005234,    0.000000
   0.005262,    0.000000
   0.005289,    0.000000
   0.005317,    0.000000
   0.005345,    0.000000
   0.005373,    0.000000
   0.005401,    0.000000
   0.005428,    0.000000
   0.005456,    0.000000
   0.005484,    0.000000
   0.005512,    0.000000
   0.005539,    0.000000
   0.005567,    0.000000
   0.005595,    0.000000
   0.005623,    0.000000
   0.005651,    0.000000
   0.005678,    0.000000
   0.005706,    0.000000
   0.005734,    0.000000
   0.005762,    0.000000
   0.005789,    0.000000
   0.005817,    0.000000
   0.005845,    0.000000
   0.005873,    0.000000
   0.005901,    0.000000
   0.005928,    0.000000
   0.005956,    0.000000
   0.005984,    0.000000
   0.006012,    0.000000
   0.006039,    0.000000
   0.006067,    0.000000
   0.006095,    0.000000
   0.006123,    0.000000
   0.006142,    0.000000
   0.006170,    0.502638
   0.006198,    1.005276
   0.006225,    1.507914
   0.006253,    2.010552
   0.006281,    2.513190
   0.006309,    3.015828
   0.006336,    3.518466
   0.006364,    4.021104
   0.006392,    4.523742
   0.006420,    5.026380
   0.006448,    6.338912
   0.006475,    7.651444
   0.006503,    8.963976
   0.006531,   10.276508
   0.006559,   11.589040
   0.006586,   13.472968
   0.006614,   15.356897
   0.006642,   17.240826
   0.006670,   19.124754
   0.006698,   21.008683
   0.006725,   23.507505
   0.006753,   26.006327
   0.006781,   28.505149
   0.006809,   31.003971
   0.006836,   33.502792
   0.006836,   35.000000
   0.026741, 1920.000000
   0.047055, 3805.000000
   0.068023, 5690.000000
   0.090500, 7575.000000
   0.115262, 9460.000000
   0.142673, 11345.000000
   0.173290, 13230.000000
   0.208089, 15115.000000
   0.249473, 17000.000000
   0.249473, 17000.000000
   0.263847, 17000.000000
   0.278221, 17000.000000
   0.292595, 17000.000000
   0.306969, 17000.000000
   0.321343, 17000.000000
   0.335717, 17000.000000
   0.350091, 17000.000000
   0.364465, 17000.000000
   0.378839, 17000.000000
   0.393213, 17000.000000
   0.407587, 17000.000000
   0.421961, 17000.000000
   0.436335, 17000.000000
   0.450709, 17000.000000
   0.465083, 17000.000000
   0.479458, 17000.000000
   0.493832, 17000.000000
   0.508206, 17000.000000
   0.522580, 17000.000000
   0.536954, 17000.000000
   0.551328, 17000.000000
   0.565702, 17000.000000
   0.580076, 17000.000000
   0.594450, 17000.000000
   0.608824, 17000.000000
   0.623198, 17000.000000
   0.637572, 17000.000000
   0.651946, 17000.000000
   0.666320, 17000.000000
   0.666320, 17000.000000
   0.685652, 15277.777778
   0.705031, 13555.555556
   0.724387, 11833.333333
   0.743656, 10111.111111
   0.762801, 8388.888889
   0.781752, 6666.666667
   0.800438, 4944.444444
   0.819062, 3222.222222
   0.837560, 1500.000000
   0.837560, 1500.000000
   0.847217, 2444.444444
   0.856967, 3388.888889
   0.866809, 4333.333333
   0.876788, 5277.777778
   0.887084, 6222.222222
   0.897853, 7166.666667
   0.909144, 8111.111111
   0.920996, 9055.555556
   0.933441, 10000.000000
   0.933441, 10000.000000
   0.964311, 10000.000000
   0.995194, 10000.000000
   1.026091, 10000.000000
   1.057001, 10000.000000
   1.087925, 10000.000000
   1.118863, 10000.000000
   1.149814, 10000.000000
   1.180778, 10000.000000
   1.211756, 10000.000000
   1.211756, 10000.000000
   1.222530, 9055.555556
   1.233134, 8111.111111
   1.243780, 7166.666667
   1.254471, 6222.222222
   1.265209, 5277.777778
   1.275990, 4333.333333
   1.286813, 3388.888889
   1.297669, 2444.444444
   1.308543, 1500.000000
   1.308543, 1500.000000
   1.391876, 1500.000000
   1.475210, 1500.000000
   1.558543, 1500.000000
   1.641876, 1500.000000
   1.725210, 1500.000000
   1.808543, 1500.000000
   1.891876, 1500.000000
   1.975210, 1500.000000
   2.058543, 1500.000000
   2.058543, 1500.000000
   2.058571, 1499.051170
   2.058599, 1498.102350
   2.058626, 1497.153530
   2.058654, 1496.205125
   2.058682, 1495.256800
   2.058710, 1494.308474
   2.058738, 1493.360149
   2.058765, 1492.411824
   2.058793, 1491.463499
   2.058821, 1490.515173
   2.058849, 1489.566848
   2.058876, 1488.618523
   2.058904, 1487.670198
   2.058932, 1486.722476
   2.058960, 1485.774872
   2.058988, 1484.827267
   2.059015, 1483.879662
   2.059043, 1482.932058
   2.059071, 1481.984453
   2.059099, 1481.036848
   2.059126, 1480.089244
   2.059154, 1479.141639
   2.059182, 1478.194034
   2.059210, 1477.246682
   2.059238, 1476.299378
   2.059265, 1475.352074
   2.059293, 1474.404770
   2.059321, 1473.457466
   2.059349, 1472.510163
   2.059376, 1471.562859
   2.059404, 1470.615555
   2.059432, 1469.668251
   2.059460, 1468.720947
   2.059488, 1467.774562
   2.059515, 1466.828354
   2.059543, 1465.882146
   2.059571, 1464.935938
   2.059599, 1463.989730
   2.059626, 1463.043522
   2.059654, 1462.097315
   2.059682, 1461.151107
   2.059710, 1460.204899
   2.059738, 1459.258691
   2.059765, 1458.312470
   2.059793, 1457.366247
   2.059821, 1456.420023
   2.059849, 1455.473800
   2.059876, 1454.527577
   2.059904, 1453.581353
   2.059932, 1452.635130
   2.059960, 1451.688907
   2.059988, 1450.742683
   2.060015, 1449.796460
   2.060043, 1448.850139
   2.060071, 1447.903799
   2.060099, 1446.957459
   2.060126, 1446.011119
   2.060154, 1445.064779
   2.060182, 1444.118439
   2.060210, 1443.172100
   2.060238, 1442.225760
   2.060265, 1441.279420
   2.060293, 1440.333080
   2.060321, 1439.387047
   2.060349, 1438.441072
   2.060376, 1437.495098
   2.060404, 1436.549124
   2.060432, 1435.603150
   2.060460, 1434.657176
   2.060488, 1433.711202
   2.060515, 1432.765227
   2.060543, 1431.819253
   2.060571, 1430.873279
   2.060599, 1429.926959
   2.060626, 1428.980572
   2.060654, 1428.034185
   2.060682, 1427.087798
   2.060710, 1426.141411
   2.060738, 1425.195024
   2.060765, 1424.248637
   2.060793, 1423.302250
   2.060821, 1422.355863
   2.060849, 1421.409477
   2.060876, 1420.463209
   2.060904, 1419.516964
   2.060932, 1418.570720
   2.060960, 1417.624475
   2.060988, 1416.678230
   2.061015, 1415.731986
   2.061043, 1414.785741
   2.061071, 1413.839496
   2.061099, 1412.893252
   2.061126, 1411.947007
   2.061154, 1411.001036
   2.061182, 1410.055119
   2.061210, 1409.109201
   2.061238, 1408.163283
   2.061265, 1407.217365
   2.061293, 1406.271447
   2.061321, 1405.325530
   2.061349, 1404.379612
   2.061376, 1403.433694
   2.061404, 1402.487776
   2.061432, 1401.542759
   2.061460, 1400.597916
   2.061488, 1399.653072
   2.061515, 1398.708229
   2.061543, 1397.763385
   2.061571, 1396.818542
   2.061599, 1395.873699
   2.061626, 1394.928855
   2.061654, 1393.984012
   2.061682, 1393.039168
   2.061710, 1392.094929
   2.061738, 1391.150806
   2.061765, 1390.206684
   2.061793, 1389.262561
   2.061821, 1388.318438
   2.061849, 1387.374316
   2.061876, 1386.430193
   2.061904, 1385.486070
   2.061932, 1384.541948
   2.061960, 1383.597825
   2.061988, 1382.654219
   2.062015, 1381.710714
   2.062043, 1380.767208
   2.062071, 1379.823702
   2.062099, 1378.880196
   2.062126, 1377.936690
   2.062154, 1376.993184
   2.062182, 1376.049679
   2.062210, 1375.106173
   2.062238, 1374.162667
   2.062265, 1373.218915
   2.062293, 1372.275115
   2.062321, 1371.331316
   2.062349, 1370.387516
   2.062376, 1369.443716
   2.062404, 1368.499917
   2.062432, 1367.556117
   2.062460, 1366.612317
   2.062488, 1365.668518
   2.062515, 1364.724718
   2.062543, 1363.781028
   2.062571, 1362.837358
   2.062599, 1361.893689
   2.062626, 1360.950019
   2.062654, 1360.006350
   2.062682, 1359.062681
   2.062710, 1358.119011
   2.062738, 1357.175342
   2.062765, 1356.231672
   2.062793, 1355.288003
   2.062821, 1354.344742
   2.062849, 1353.401561
   2.062876, 1352.458379
   2.062904, 1351.515197
   2.062932, 1350.572016
   2.062960, 1349.628834
   2.062988, 1348.685652
   2.063015, 1347.742471
   2.063043, 1346.799289
   2.063071, 1345.856107
   2.063099, 1344.912573
   2.063126, 1343.968970
   2.063154, 1343.025367
   2.063182, 1342.081764
   2.063210, 1341.138161
   2.063238, 1340.194558
   2.063265, 1339.250956
   2.063293, 1338.307353
   2.063321, 1337.363750
   2.063349, 1336.420147
   2.063376, 1335.476555
   2.063404, 1334.532966
   2.063432, 1333.589377
   2.063460, 1332.645787
   2.063488, 1331.702198
   2.063515, 1330.758608
   2.063543, 1329.815019
   2.063571, 1328.871429
   2.063599, 1327.927840
   2.063626, 1326.984250
   2.063654, 1326.040985
   2.063682, 1325.097782
   2.063710, 1324.154579
   2.063738, 1323.211376
   2.063765, 1322.268173
   2.063793, 1321.324970
   2.063821, 1320.381768
   2.063849, 1319.438565
   2.063876, 1318.495362
   2.063904, 1317.552159
   2.063932, 1316.608539
   2.063960, 1315.664839
   2.063988, 1314.721140
   2.064015, 1313.777440
   2.064043, 1312.833740
   2.064071, 1311.890040
   2.064099, 1310.946340
   2.064126, 1310.002640
   2.064154, 1309.058940
   2.064182, 1308.115241
   2.064210, 1307.171509
   2.064238, 1306.227772
   2.064265, 1305.284034
   2.064293, 1304.340297
   2.064321, 1303.396559
   2.064349, 1302.452822
   2.064376, 1301.509084
   2.064404, 1300.565347
   2.064432, 1299.621609
   2.064460, 1298.677872
   2.064488, 1297.734440
   2.064515, 1296.791066
   2.064543, 1295.847693
   2.064571, 1294.904319
   2.064599, 1293.960946
   2.064626, 1293.017572
   2.064654, 1292.074199
   2.064682, 1291.130825
   2.064710, 1290.187452
   2.064738, 1289.244079
   2.064765, 1288.300293
   2.064793, 1287.356428
   2.064821, 1286.412562
   2.064849, 1285.468697
   2.064876, 1284.524832
   2.064904, 1283.580966
   2.064932, 1282.637101
   2.064960, 1281.693236
   2.064988, 1280.749370
   2.065015, 1279.805505
   2.065043, 1278.861635
   2.065071, 1277.917765
   2.065099, 1276.973894
   2.065126, 1276.030023
   2.065154, 1275.086153
   2.065182, 1274.142282
   2.065210, 1273.198411
   2.065238, 1272.254541
   2.065265, 1271.310670
   2.065293, 1270.366799
   2.065321, 1269.423283
   2.065349, 1268.479834
   2.065376, 1267.536386
   2.065404, 1266.592938
   2.065432, 1265.649489
   2.065460, 1264.706041
   2.065488, 1263.762592
   2.065515, 1262.819144
   2.065543, 1261.875696
   2.065571, 1260.932247
   2.065599, 1259.988447
   2.065626, 1259.044579
   2.065654, 1258.100712
   2.065682, 1257.156844
   2.065710, 1256.212976
   2.065738, 1255.269108
   2.065765, 1254.325240
   2.065793, 1253.381372
   2.065821, 1252.437504
   2.065849, 1251.493636
   2.065876, 1250.549838
   2.065904, 1249.606054
   2.065932, 1248.662269
   2.065960, 1247.718484
   2.065988, 1246.774700
   2.066015, 1245.830915
   2.066043, 1244.887130
   2.066071, 1243.943346
   2.066099, 1242.999561
   2.066126, 1242.055776
   2.066154, 1241.112427
   2.066182, 1240.169161
   2.066210, 1239.225895
   2.066238, 1238.282629
   2.066265, 1237.339363
   2.066293, 1236.396097
   2.066321, 1235.452831
   2.066349, 1234.509565
   2.066376, 1233.566299
   2.066404, 1232.623033
   2.066432, 1231.679497
   2.066460, 1230.735909
   2.066488, 1229.792320
   2.066515, 1228.848732
   2.066543, 1227.905143
   2.066571, 1226.961555
   2.066599, 1226.017966
   2.066626, 1225.074378
   2.066654, 1224.130789
   2.066682, 1223.187200
   2.066710, 1222.243759
   2.066738, 1221.300347
   2.066765, 1220.356934
   2.066793, 1219.413521
   2.066821, 1218.470108
   2.066849, 1217.526696
   2.066876, 1216.583283
   2.066904, 1215.639870
   2.066932, 1214.696457
   2.066960, 1213.753045
   2.066988, 1212.809413
   2.067015, 1211.865740
   2.067043, 1210.922066
   2.067071, 1209.978393
   2.067099, 1209.034720
   2.067126, 1208.091046
   2.067154, 1207.147373
   2.067182, 1206.203699
   2.067210, 1205.260026
   2.067238, 1204.316352
   2.067265, 1203.371490
   2.067293, 1202.426397
   2.067321, 1201.481305
   2.067349, 1200.536213
   2.067376, 1199.591121
   2.067404, 1198.646029
   2.067432, 1197.700937
   2.067460, 1196.755844
   2.067488, 1195.810752
   2.067515, 1194.865660
   2.067543, 1193.920977
   2.067571, 1192.976372
   2.067599, 1192.031767
   2.067626, 1191.087163
   2.067654, 1190.142558
   2.067682, 1189.197954
   2.067710, 1188.253349
   2.067738, 1187.308744
   2.067765, 1186.364140
   2.067793, 1185.419535
   2.067821, 1184.475509
   2.067849, 1183.531595
   2.067876, 1182.587681
   2.067904, 1181.643767
   2.067932, 1180.699852
   2.067960, 1179.755938
   2.067988, 1178.812024
   2.068015, 1177.868110
   2.068043, 1176.924196
   2.068071, 1175.980282
   2.068099, 1175.036798
   2.068126, 1174.093398
   2.068154, 1173.149997
   2.068182, 1172.206597
   2.068210, 1171.263197
   2.068238, 1170.319796
   2.068265, 1169.376396
   2.068293, 1168.432996
   2.068321, 1167.489595
   2.068349, 1166.546195
   2.068376, 1165.602557
   2.068404, 1164.658873
   2.068432, 1163.715190
   2.068460, 1162.771506
   2.068488, 1161.827822
   2.068515, 1160.884139
   2.068543, 1159.940455
   2.068571, 1158.996771
   2.068599, 1158.053088
   2.068626, 1157.109404
   2.068654, 1156.165936
   2.068682, 1155.222511
   2.068710, 1154.279085
   2.068738, 1153.335659
   2.068765, 1152.392234
   2.068793, 1151.448808
   2.068821, 1150.505382
   2.068849, 1149.561956
   2.068876, 1148.618531
   2.068904, 1147.675105
   2.068932, 1146.732031
   2.068960, 1145.789024
   2.068988, 1144.846017
   2.069015, 1143.903011
   2.069043, 1142.960004
   2.069071, 1142.016997
   2.069099, 1141.073991
   2.069126, 1140.130984
   2.069154, 1139.187978
   2.069182, 1138.244971
   2.069210, 1137.302923
   2.069238, 1136.361061
   2.069265, 1135.419198
   2.069293, 1134.477336
   2.069321, 1133.535473
   2.069349, 1132.593611
   2.069376, 1131.651748
   2.069404, 1130.709885
   2.069432, 1129.768023
   2.069460, 1128.826160
   2.069488, 1127.884931
   2.069515, 1126.943823
   2.069543, 1126.002716
   2.069571, 1125.061608
   2.069599, 1124.120501
   2.069626, 1123.179393
   2.069654, 1122.238286
   2.069682, 1121.297178
   2.069710, 1120.356071
   2.069738, 1119.414963
   2.069765, 1118.474374
   2.069793, 1117.533884
   2.069821, 1116.593394
   2.069849, 1115.652905
   2.069876, 1114.712415
   2.069904, 1113.771925
   2.069932, 1112.831436
   2.069960, 1111.890946
   2.069988, 1110.950456
   2.070015, 1110.009967
   2.070043, 1109.069198
   2.070071, 1108.128377
   2.070099, 1107.187555
   2.070126, 1106.246733
   2.070154, 1105.305911
   2.070182, 1104.365089
   2.070210, 1103.424267
   2.070238, 1102.483445
   2.070265, 1101.542623
   2.070293, 1100.601802
   2.070321, 1099.661037
   2.070349, 1098.720284
   2.070376, 1097.779531
   2.070404, 1096.838778
   2.070432, 1095.898025
   2.070460, 1094.957272
   2.070488, 1094.016518
   2.070515, 1093.075765
   2.070543, 1092.135012
   2.070571, 1091.194259
   2.070599, 1090.253846
   2.070626, 1089.313498
   2.070654, 1088.373151
   2.070682, 1087.432804
   2.070710, 1086.492456
   2.070738, 1085.552109
   2.070765, 1084.611761
   2.070793, 1083.671414
   2.070821, 1082.731066
   2.070849, 1081.790719
   2.070876, 1080.849932
   2.070904, 1079.909061
   2.070932, 1078.968190
   2.070960, 1078.027318
   2.070988, 1077.086447
   2.071015, 1076.145576
   2.071043, 1075.204704
   2.071071, 1074.263833
   2.071099, 1073.322962
   2.071126, 1072.382090
   2.071154, 1071.441138
   2.071182, 1070.500170
   2.071210, 1069.559203
   2.071238, 1068.618235
   2.071265, 1067.677267
   2.071293, 1066.736300
   2.071321, 1065.795332
   2.071349, 1064.854364
   2.071376, 1063.913397
   2.071404, 1062.972429
   2.071432, 1062.032474
   2.071460, 1061.092714
   2.071488, 1060.152954
   2.071515, 1059.213195
   2.071543, 1058.273435
   2.071571, 1057.333675
   2.071599, 1056.393915
   2.071626, 1055.454155
   2.071654, 1054.514395
   2.071682, 1053.574636
   2.071710, 1052.635489
   2.071738, 1051.696460
   2.071765, 1050.757432
   2.071793, 1049.818403
   2.071821, 1048.879375
   2.071849, 1047.940346
   2.071876, 1047.001317
   2.071904, 1046.062289
   2.071932, 1045.123260
   2.071960, 1044.184232
   2.071988, 1043.245633
   2.072015, 1042.307117
   2.072043, 1041.368601
   2.072071, 1040.430084
   2.072099, 1039.491568
   2.072126, 1038.553052
   2.072154, 1037.614536
   2.072182, 1036.676020
   2.072210, 1035.737504
   2.072238, 1034.798988
   2.072265, 1033.860043
   2.072293, 1032.921016
   2.072321, 1031.981989
   2.072349, 1031.042962
   2.072376, 1030.103935
   2.072404, 1029.164908
   2.072432, 1028.225881
   2.072460, 1027.286854
   2.072488, 1026.347827
   2.072515, 1025.408800
   2.072543, 1024.469634
   2.072571, 1023.530441
   2.072599, 1022.591248
   2.072626, 1021.652055
   2.072654, 1020.712862
   2.072682, 1019.773669
   2.072710, 1018.834476
   2.072738, 1017.895282
   2.072765, 1016.956089
   2.072793, 1016.016896
   2.072821, 1015.077661
   2.072849, 1014.138417
   2.072876, 1013.199173
   2.072904, 1012.259930
   2.072932, 1011.320686
   2.072960, 1010.381442
   2.072988, 1009.442199
   2.073015, 1008.502955
   2.073043, 1007.563711
   2.073071, 1006.624467
   2.073099, 1005.684713
   2.073126, 1004.744860
   2.073154, 1003.805007
   2.073182, 1002.865154
   2.073210, 1001.925301
   2.073238, 1000.985448
   2.073265, 1000.045595
   2.073293,  999.105742
   2.073321,  998.165889
   2.073349,  997.226036
   2.073376,  996.286647
   2.073404,  995.347348
   2.073432,  994.408049
   2.073460,  993.468749
   2.073488,  992.529450
   2.073515,  991.590150
   2.073543,  990.650851
   2.073571,  989.711552
   2.073599,  988.772252
   2.073626,  987.832953
   2.073654,  986.893322
   2.073682,  985.953627
   2.073710,  985.013933
   2.073738,  984.074238
   2.073765,  983.134544
   2.073793,  982.194849
   2.073821,  981.255155
   2.073849,  980.315460
   2.073876,  979.375765
   2.073904,  978.436071
   2.073932,  977.496390
   2.073960,  976.556711
   2.073988,  975.617032
   2.074015,  974.677354
   2.074043,  973.737675
   2.074071,  972.797996
   2.074099,  971.858318
   2.074126,  970.918639
   2.074154,  969.978961
   2.074182,  969.039282
   2.074210,  968.099910
   2.074238,  967.160597
   2.074265,  966.221285
   2.074293,  965.281972
   2.074321,  964.342659
   2.074349,  963.403347
   2.074376,  962.464034
   2.074404,  961.524721
   2.074432,  960.585409
   2.074460,  959.646096
   2.074488,  958.706319
   2.074515,  957.766452
   2.074543,  956.826586
   2.074571,  955.886719
   2.074599,  954.946852
   2.074626,  954.006985
   2.074654,  953.067119
   2.074682,  952.127252
   2.074710,  951.187385
   2.074738,  950.247519
   2.074765,  949.307560
   2.074793,  948.367583
   2.074821,  947.427607
   2.074849,  946.487630
   2.074876,  945.547653
   2.074904,  944.607677
   2.074932,  943.667700
   2.074960,  942.727723
   2.074988,  941.787747
   2.075015,  940.847770
   2.075043,  939.908811
   2.075071,  938.970049
   2.075099,  938.031287
   2.075126,  937.092524
   2.075154,  936.153762
   2.075182,  935.215000
   2.075210,  934.276238
   2.075238,  933.337475
   2.075265,  932.398713
   2.075293,  931.459951
   2.075321,  930.521817
   2.075349,  929.583804
   2.075376,  928.645792
   2.075404,  927.707779
   2.075432,  926.769767
   2.075460,  925.831755
   2.075488,  924.893742
   2.075515,  923.955730
   2.075543,  923.017717
   2.075571,  922.079705
   2.075599,  921.142147
   2.075626,  920.204677
   2.075654,  919.267207
   2.075682,  918.329738
   2.075710,  917.392268
   2.075738,  916.454798
   2.075765,  915.517328
   2.075793,  914.579858
   2.075821,  913.642388
   2.075849,  912.704919
   2.075876,  911.767051
   2.075904,  910.829106
   2.075932,  909.891161
   2.075960,  908.953217
   2.075988,  908.015272
   2.076015,  907.077327
   2.076043,  906.139383
   2.076071,  905.201438
   2.076099,  904.263494
   2.076126,  903.325549
   2.076154,  902.387503
   2.076182,  901.449437
   2.076210,  900.511371
   2.076238,  899.573305
   2.076265,  898.635240
   2.076293,  897.697174
   2.076321,  896.759108
   2.076349,  895.821042
   2.076376,  894.882976
   2.076404,  893.944911
   2.076432,  893.006844
   2.076460,  892.068777
   2.076488,  891.130710
   2.076515,  890.192643
   2.076543,  889.254576
   2.076571,  888.316509
   2.076599,  887.378442
   2.076626,  886.440375
   2.076654,  885.502308
   2.076682,  884.564241
   2.076710,  883.625703
   2.076738,  882.687075
   2.076765,  881.748447
   2.076793,  880.809818
   2.076821,  879.871190
   2.076849,  878.932562
   2.076876,  877.993933
   2.076904,  877.055305
   2.076932,  876.116677
   2.076960,  875.178048
   2.076988,  874.239926
   2.077015,  873.301902
   2.077043,  872.363877
   2.077071,  871.425853
   2.077099,  870.487828
   2.077126,  869.549804
   2.077154,  868.611779
   2.077182,  867.673755
   2.077210,  866.735730
   2.077238,  865.797706
   2.077265,  864.859384
   2.077293,  863.921004
   2.077321,  862.982624
   2.077349,  862.044245
   2.077376,  861.105865
   2.077404,  860.167485
   2.077432,  859.229106
   2.077460,  858.290726
   2.077488,  857.352346
   2.077515,  856.413967
   2.077543,  855.475627
   2.077571,  854.537294
   2.077599,  853.598962
   2.077626,  852.660629
   2.077654,  851.722297
   2.077682,  850.783964
   2.077710,  849.845632
   2.077738,  848.907299
   2.077765,  847.968967
   2.077793,  847.030634
   2.077821,  846.092625
   2.077849,  845.154679
   2.077876,  844.216732
   2.077904,  843.278786
   2.077932,  842.340839
   2.077960,  841.402893
   2.077988,  840.464947
   2.078015,  839.527000
   2.078043,  838.589054
   2.078071,  837.651107
   2.078099,  836.712698
   2.078126,  835.774199
   2.078154,  834.835700
   2.078182,  833.897201
   2.078210,  832.958702
   2.078238,  832.020203
   2.078265,  831.081704
   2.078293,  830.143205
   2.078321,  829.204705
   2.078349,  828.266206
   2.078376,  827.327604
   2.078404,  826.388982
   2.078432,  825.450360
   2.078460,  824.511737
   2.078488,  823.573115
   2.078515,  822.634493
   2.078543,  821.695870
   2.078571,  820.757248
   2.078599,  819.818626
   2.078626,  818.880003
   2.078654,  817.942379
   2.078682,  817.004948
   2.078710,  816.067516
   2.078738,  815.130085
   2.078765,  814.192653
   2.078793,  813.255222
   2.078821,  812.317790
   2.078849,  811.380358
   2.078876,  810.442927
   2.078904,  809.505495
   2.078932,  808.568660
   2.078960,  807.631941
   2.078988,  806.695221
   2.079015,  805.758501
   2.079043,  804.821781
   2.079071,  803.885061
   2.079099,  802.948341
   2.079126,  802.011621
   2.079154,  801.074901
   2.079182,  800.138181
   2.079210,  799.201873
   2.079238,  798.265645
   2.079265,  797.329416
   2.079293,  796.393188
   2.079321,  795.456959
   2.079349,  794.520730
   2.079376,  793.584502
   2.079404,  792.648273
   2.079432,  791.712045
   2.079460,  790.775816
   2.079488,  789.839134
   2.079515,  788.902365
   2.079543,  787.965596
   2.079571,  787.028827
   2.079599,  786.092058
   2.079626,  785.155289
   2.079654,  784.218519
   2.079682,  783.281750
   2.079710,  782.344981
   2.079738,  781.408212
   2.079765,  780.471281
   2.079793,  779.534318
   2.079821,  778.597356
   2.079849,  777.660393
   2.079876,  776.723430
   2.079904,  775.786468
   2.079932,  774.849505
   2.079960,  773.912543
   2.079988,  772.975580
   2.080015,  772.038618
   2.080043,  771.101591
   2.080071,  770.164552
   2.080099,  769.227513
   2.080126,  768.290474
   2.080154,  767.353435
   2.080182,  766.416396
   2.080210,  765.479357
   2.080238,  764.542318
   2.080265,  763.605279
   2.080293,  762.668240
   2.080321,  761.730664
   2.080349,  760.792984
   2.080376,  759.855304
   2.080404,  758.917625
   2.080432,  757.979945
   2.080460,  757.042266
   2.080488,  756.104586
   2.080515,  755.166907
   2.080543,  754.229227
   2.080571,  753.291548
   2.080599,  752.354315
   2.080626,  751.417168
   2.080654,  750.480021
   2.080682,  749.542874
   2.080710,  748.605728
   2.080738,  747.668581
   2.080765,  746.731434
   2.080793,  745.794287
   2.080821,  744.857141
   2.080849,  743.919994
   2.080876,  742.982493
   2.080904,  742.044923
   2.080932,  741.107354
   2.080960,  740.169784
   2.080988,  739.232215
   2.081015,  738.294645
   2.081043,  737.357075
   2.081071,  736.419506
   2.081099,  735.481936
   2.081126,  734.544367
   2.081154,  733.606790
   2.081182,  732.669213
   2.081210,  731.731635
   2.081238,  730.794058
   2.081265,  729.856480
   2.081293,  728.918903
   2.081321,  727.981325
   2.081349,  727.043747
   2.081376,  726.106170
   2.081404,  725.168592
   2.081432,  724.231305
   2.081460,  723.294073
   2.081488,  722.356841
   2.081515,  721.419610
   2.081543,  720.482378
   2.081571,  719.545147
   2.081599,  718.607915
   2.081626,  717.670683
   2.081654,  716.733452
   2.081682,  715.796220
   2.081710,  714.858502
   2.081738,  713.920689
   2.081765,  712.982877
   2.081793,  712.045064
   2.081821,  711.107252
   2.081849,  710.169439
   2.081876,  709.231627
   2.081904,  708.293814
   2.081932,  707.356002
   2.081960,  706.418189
   2.081988,  705.480265
   2.082015,  704.542319
   2.082043,  703.604374
   2.082071,  702.666428
   2.082099,  701.728482
   2.082126,  700.790536
   2.082154,  699.852590
   2.082182,  698.914645
   2.082210,  697.976699
   2.082238,  697.038753
   2.082265,  696.101815
   2.082293,  695.165072
   2.082321,  694.228329
   2.082349,  693.291585
   2.082376,  692.354842
   2.082404,  691.418099
   2.082432,  690.481356
   2.082460,  689.544612
   2.082488,  688.607869
   2.082515,  687.671126
   2.082543,  686.735000
   2.082571,  685.798993
   2.082599,  684.862987
   2.082626,  683.926980
   2.082654,  682.990974
   2.082682,  682.054967
   2.082710,  681.118960
   2.082738,  680.182954
   2.082765,  679.246947
   2.082793,  678.310941
   2.082821,  677.375377
   2.082849,  676.439899
   2.082876,  675.504421
   2.082904,  674.568943
   2.082932,  673.633465
   2.082960,  672.697987
   2.082988,  671.762509
   2.083015,  670.827031
   2.083043,  669.891553
   2.083071,  668.956075
   2.083099,  668.020180
   2.083126,  667.084205
   2.083154,  666.148230
   2.083182,  665.212255
   2.083210,  664.276279
   2.083238,  663.340304
   2.083265,  662.404329
   2.083293,  661.468354
   2.083321,  660.532379
   2.083349,  659.596403
   2.083376,  658.660310
   2.083404,  657.724193
   2.083432,  656.788076
   2.083460,  655.851960
   2.083488,  654.915843
   2.083515,  653.979726
   2.083543,  653.043610
   2.083571,  652.107493
   2.083599,  651.171376
   2.083626,  650.235259
   2.083654,  649.299125
   2.083682,  648.362988
   2.083710,  647.426851
   2.083738,  646.490714
   2.083765,  645.554576
   2.083793,  644.618439
   2.083821,  643.682302
   2.083849,  642.746164
   2.083876,  641.810027
   2.083904,  640.873890
   2.083932,  639.937260
   2.083960,  639.000536
   2.083988,  638.063811
   2.084015,  637.127087
   2.084043,  636.190362
   2.084071,  635.253638
   2.084099,  634.316913
   2.084126,  633.380189
   2.084154,  632.443464
   2.084182,  631.506740
   2.084210,  630.570508
   2.084238,  629.634370
   2.084265,  628.698233
   2.084293,  627.762096
   2.084321,  626.825959
   2.084349,  625.889822
   2.084376,  624.953685
   2.084404,  624.017547
   2.084432,  623.081410
   2.084460,  622.145273
   2.084488,  621.208818
   2.084515,  620.272302
   2.084543,  619.335786
   2.084571,  618.399269
   2.084599,  617.462753
   2.084626,  616.526237
   2.084654,  615.589721
   2.084682,  614.653204
   2.084710,  613.716688
   2.084738,  612.780172
   2.084765,  611.843679
   2.084793,  610.907191
   2.084821,  609.970703
   2.084849,  609.034215
   2.084876,  608.097727
   2.084904,  607.161239
   2.084932,  606.224751
   2.084960,  605.288263
   2.084988,  604.351774
   2.085015,  603.415286
   2.085043,  602.479110
   2.085071,  601.542995
   2.085099,  600.606879
   2.085126,  599.670763
   2.085154,  598.734648
   2.085182,  597.798532
   2.085210,  596.862416
   2.085238,  595.926301
   2.085265,  594.990185
   2.085293,  594.054069
   2.085321,  593.117475
   2.085349,  592.180789
   2.085376,  591.244103
   2.085404,  590.307417
   2.085432,  589.370731
   2.085460,  588.434044
   2.085488,  587.497358
   2.085515,  586.560672
   2.085543,  585.623986
   2.085571,  584.687299
   2.085599,  583.750501
   2.085626,  582.813681
   2.085654,  581.876861
   2.085682,  580.940041
   2.085710,  580.003221
   2.085738,  579.066402
   2.085765,  578.129582
   2.085793,  577.192762
   2.085821,  576.255942
   2.085849,  575.319122
   2.085876,  574.383304
   2.085904,  573.447680
   2.085932,  572.512056
   2.085960,  571.576431
   2.085988,  570.640807
   2.086015,  569.705183
   2.086043,  568.769558
   2.086071,  567.833934
   2.086099,  566.898310
   2.086126,  565.962685
   2.086154,  565.027662
   2.086182,  564.092755
   2.086210,  563.157848
   2.086238,  562.222941
   2.086265,  561.288033
   2.086293,  560.353126
   2.086321,  559.418219
   2.086349,  558.483312
   2.086376,  557.548404
   2.086404,  556.613497
   2.086432,  555.679008
   2.086460,  554.744600
   2.086488,  553.810192
   2.086515,  552.875784
   2.086543,  551.941376
   2.086571,  551.006968
   2.086599,  550.072560
   2.086626,  549.138152
   2.086654,  548.203744
   2.086682,  547.269336
   2.086710,  546.334478
   2.086738,  545.399532
   2.086765,  544.464587
   2.086793,  543.529641
   2.086821,  542.594696
   2.086849,  541.659750
   2.086876,  540.724805
   2.086904,  539.789860
   2.086932,  538.854914
   2.086960,  537.919969
   2.086988,  536.984869
   2.087015,  536.049739
   2.087043,  535.114609
   2.087071,  534.179480
   2.087099,  533.244350
   2.087126,  532.309220
   2.087154,  531.374090
   2.087182,  530.438961
   2.087210,  529.503831
   2.087238,  528.568701
   2.087265,  527.633518
   2.087293,  526.698324
   2.087321,  525.763130
   2.087349,  524.827936
   2.087376,  523.892742
   2.087404,  522.957548
   2.087432,  522.022354
   2.087460,  521.087161
   2.087488,  520.151967
   2.087515,  519.216773
   2.087543,  518.281049
   2.087571,  517.345224
   2.087599,  516.409398
   2.087626,  515.473573
   2.087654,  514.537747
   2.087682,  513.601922
   2.087710,  512.666096
   2.087738,  511.730270
   2.087765,  510.794445
   2.087793,  509.858619
   2.087821,  508.923256
   2.087849,  507.987982
   2.087876,  507.052708
   2.087904,  506.117434
   2.087932,  505.182160
   2.087960,  504.246886
   2.087988,  503.311612
   2.088015,  502.376338
   2.088043,  501.441065
   2.088071,  500.505791
   2.088099,  499.570171
   2.088126,  498.634484
   2.088154,  497.698798
   2.088182,  496.763111
   2.088210,  495.827424
   2.088238,  494.891738
   2.088265,  493.956051
   2.088293,  493.020365
   2.088321,  492.084678
   2.088349,  491.148991
   2.088376,  490.213308
   2.088404,  489.277625
   2.088432,  488.341943
   2.088460,  487.406260
   2.088488,  486.470578
   2.088515,  485.534895
   2.088543,  484.599212
   2.088571,  483.663530
   2.088599,  482.727847
   2.088626,  481.792164
   2.088654,  480.856782
   2.088682,  479.921458
   2.088710,  478.986134
   2.088738,  478.050810
   2.088765,  477.115486
   2.088793,  476.180162
   2.088821,  475.244838
   2.088849,  474.309514
   2.088876,  473.374190
   2.088904,  472.438866
   2.088932,  471.503056
   2.088960,  470.567153
   2.088988,  469.631251
   2.089015,  468.695348
   2.089043,  467.759445
   2.089071,  466.823542
   2.089099,  465.887639
   2.089126,  464.951736
   2.089154,  464.015833
   2.089182,  463.079930
   2.089210,  462.143917
   2.089238,  461.207883
   2.089265,  460.271849
   2.089293,  459.335816
   2.089321,  458.399782
   2.089349,  457.463748
   2.089376,  456.527714
   2.089404,  455.591680
   2.089432,  454.655646
   2.089460,  453.719612
   2.089488,  452.784595
   2.089515,  451.849774
   2.089543,  450.914953
   2.089571,  449.980131
   2.089599,  449.045310
   2.089626,  448.110489
   2.089654,  447.175668
   2.089682,  446.240846
   2.089710,  445.306025
   2.089738,  444.371204
   2.089765,  443.437003
   2.089793,  442.502921
   2.089821,  441.568840
   2.089849,  440.634758
   2.089876,  439.700677
   2.089904,  438.766595
   2.089932,  437.832514
   2.089960,  436.898432
   2.089988,  435.964351
   2.090015,  435.030269
   2.090043,  434.096629
   2.090071,  433.163075
   2.090099,  432.229520
   2.090126,  431.295965
   2.090154,  430.362411
   2.090182,  429.428856
   2.090210,  428.495302
   2.090238,  427.561747
   2.090265,  426.628192
   2.090293,  425.694638
   2.090321,  424.760656
   2.090349,  423.826591
   2.090376,  422.892527
   2.090404,  421.958462
   2.090432,  421.024398
   2.090460,  420.090333
   2.090488,  419.156269
   2.090515,  418.222205
   2.090543,  417.288140
   2.090571,  416.354076
   2.090599,  415.419883
   2.090626,  414.485665
   2.090654,  413.551447
   2.090682,  412.617230
   2.090710,  411.683012
   2.090738,  410.748794
   2.090765,  409.814577
   2.090793,  408.880359
   2.090821,  407.946142
   2.090849,  407.011924
   2.090876,  406.077679
   2.090904,  405.143429
   2.090932,  404.209178
   2.090960,  403.274928
   2.090988,  402.340678
   2.091015,  401.406428
   2.091043,  400.472178
   2.091071,  399.537927
   2.091099,  398.603677
   2.091126,  397.669427
   2.091154,  396.734670
   2.091182,  395.799815
   2.091210,  394.864960
   2.091238,  393.930106
   2.091265,  392.995251
   2.091293,  392.060396
   2.091321,  391.125542
   2.091349,  390.190687
   2.091376,  389.255832
   2.091404,  388.320977
   2.091432,  387.386609
   2.091460,  386.452334
   2.091488,  385.518059
   2.091515,  384.583784
   2.091543,  383.649510
   2.091571,  382.715235
   2.091599,  381.780960
   2.091626,  380.846685
   2.091654,  379.912411
   2.091682,  378.978136
   2.091710,  378.043531
   2.091738,  377.108863
   2.091765,  376.174194
   2.091793,  375.239526
   2.091821,  374.304857
   2.091849,  373.370189
   2.091876,  372.435520
   2.091904,  371.500852
   2.091932,  370.566184
   2.091960,  369.631515
   2.091988,  368.696862
   2.092015,  367.762212
   2.092043,  366.827562
   2.092071,  365.892912
   2.092099,  364.958262
   2.092126,  364.023612
   2.092154,  363.088962
   2.092182,  362.154312
   2.092210,  361.219662
   2.092238,  360.285012
   2.092265,  359.350670
   2.092293,  358.416387
   2.092321,  357.482104
   2.092349,  356.547822
   2.092376,  355.613539
   2.092404,  354.679256
   2.092432,  353.744974
   2.092460,  352.810691
   2.092488,  351.876409
   2.092515,  350.942126
   2.092543,  350.007356
   2.092571,  349.072492
   2.092599,  348.137629
   2.092626,  347.202765
   2.092654,  346.267901
   2.092682,  345.333038
   2.092710,  344.398174
   2.092738,  343.463310
   2.092765,  342.528446
   2.092793,  341.593583
   2.092821,  340.658603
   2.092849,  339.723601
   2.092876,  338.788599
   2.092904,  337.853597
   2.092932,  336.918595
   2.092960,  335.983594
   2.092988,  335.048592
   2.093015,  334.113590
   2.093043,  333.178588
   2.093071,  332.243586
   2.093099,  331.309594
   2.093126,  330.375797
   2.093154,  329.442000
   2.093182,  328.508202
   2.093210,  327.574405
   2.093238,  326.640608
   2.093265,  325.706811
   2.093293,  324.773014
   2.093321,  323.839217
   2.093349,  322.905420
   2.093376,  321.972230
   2.093404,  321.039157
   2.093432,  320.106085
   2.093460,  319.173012
   2.093488,  318.239940
   2.093515,  317.306868
   2.093543,  316.373795
   2.093571,  315.440723
   2.093599,  314.507650
   2.093626,  313.574578
   2.093654,  312.641930
   2.093682,  311.709365
   2.093710,  310.776800
   2.093738,  309.844235
   2.093765,  308.911669
   2.093793,  307.979104
   2.093821,  307.046539
   2.093849,  306.113974
   2.093876,  305.181408
   2.093904,  304.248843
   2.093932,  303.315829
   2.093960,  302.382727
   2.093988,  301.449626
   2.094015,  300.516524
   2.094043,  299.583423
   2.094071,  298.650321
   2.094099,  297.717220
   2.094126,  296.784118
   2.094154,  295.851017
   2.094182,  294.917915
   2.094210,  293.984664
   2.094238,  293.051384
   2.094265,  292.118103
   2.094293,  291.184823
   2.094321,  290.251543
   2.094349,  289.318263
   2.094376,  288.384982
   2.094404,  287.451702
   2.094432,  286.518422
   2.094460,  285.585141
   2.094488,  284.651813
   2.094515,  283.718476
   2.094543,  282.785139
   2.094571,  281.851802
   2.094599,  280.918464
   2.094626,  279.985127
   2.094654,  279.051790
   2.094682,  278.118453
   2.094710,  277.185115
   2.094738,  276.251778
   2.094765,  275.317913
   2.094793,  274.383947
   2.094821,  273.449981
   2.094849,  272.516014
   2.094876,  271.582048
   2.094904,  270.648082
   2.094932,  269.714115
   2.094960,  268.780149
   2.094988,  267.846183
   2.095015,  266.912216
   2.095043,  265.978722
   2.095071,  265.045320
   2.095099,  264.111917
   2.095126,  263.178515
   2.095154,  262.245112
   2.095182,  261.311709
   2.095210,  260.378307
   2.095238,  259.444904
   2.095265,  258.511501
   2.095293,  257.578099
   2.095321,  256.644353
   2.095349,  255.710541
   2.095376,  254.776728
   2.095404,  253.842916
   2.095432,  252.909104
   2.095460,  251.975292
   2.095488,  251.041480
   2.095515,  250.107667
   2.095543,  249.173855
   2.095571,  248.240043
   2.095599,  247.306238
   2.095626,  246.372435
   2.095654,  245.438632
   2.095682,  244.504829
   2.095710,  243.571026
   2.095738,  242.637223
   2.095765,  241.703420
   2.095793,  240.769617
   2.095821,  239.835814
   2.095849,  238.902011
   2.095876,  237.968515
   2.095904,  237.035077
   2.095932,  236.101639
   2.095960,  235.168201
   2.095988,  234.234763
   2.096015,  233.301325
   2.096043,  232.367887
   2.096071,  231.434449
   2.096099,  230.501011
   2.096126,  229.567574
   2.096154,  228.633648
   2.096182,  227.699628
   2.096210,  226.765608
   2.096238,  225.831588
   2.096265,  224.897568
   2.096293,  223.963548
   2.096321,  223.029528
   2.096349,  222.095508
   2.096376,  221.161488
   2.096404,  220.227468
   2.096432,  219.293337
   2.096460,  218.359185
   2.096488,  217.425033
   2.096515,  216.490880
   2.096543,  215.556728
   2.096571,  214.622576
   2.096599,  213.688424
   2.096626,  212.754271
   2.096654,  211.820119
   2.096682,  210.885967
   2.096710,  209.952838
   2.096738,  209.019906
   2.096765,  208.086974
   2.096793,  207.154043
   2.096821,  206.221111
   2.096849,  205.288179
   2.096876,  204.355247
   2.096904,  203.422316
   2.096932,  202.489384
   2.096960,  201.556452
   2.096988,  200.624143
   2.097015,  199.691953
   2.097043,  198.759763
   2.097071,  197.827574
   2.097099,  196.895384
   2.097126,  195.963194
   2.097154,  195.031004
   2.097182,  194.098815
   2.097210,  193.166625
   2.097238,  192.234435
   2.097265,  191.302687
   2.097293,  190.371023
   2.097321,  189.439359
   2.097349,  188.507696
   2.097376,  187.576032
   2.097404,  186.644368
   2.097432,  185.712705
   2.097460,  184.781041
   2.097488,  183.849378
   2.097515,  182.917714
   2.097543,  181.985614
   2.097571,  181.053430
   2.097599,  180.121246
   2.097626,  179.189062
   2.097654,  178.256878
   2.097682,  177.324693
   2.097710,  176.392509
   2.097738,  175.460325
   2.097765,  174.528141
   2.097793,  173.595957
   2.097821,  172.663638
   2.097849,  171.731292
   2.097876,  170.798946
   2.097904,  169.866601
   2.097932,  168.934255
   2.097960,  168.001909
   2.097988,  167.069564
   2.098015,  166.137218
   2.098043,  165.204872
   2.098071,  164.272527
   2.098099,  163.340147
   2.098126,  162.407762
   2.098154,  161.475376
   2.098182,  160.542990
   2.098210,  159.610604
   2.098238,  158.678218
   2.098265,  157.745832
   2.098293,  156.813447
   2.098321,  155.881061
   2.098349,  154.948675
   2.098376,  154.015772
   2.098404,  153.082769
   2.098432,  152.149766
   2.098460,  151.216764
   2.098488,  150.283761
   2.098515,  149.350758
   2.098543,  148.417755
   2.098571,  147.484753
   2.098599,  146.551750
   2.098626,  145.618747
   2.098654,  144.686229
   2.098682,  143.753804
   2.098710,  142.821379
   2.098738,  141.888955
   2.098765,  140.956530
   2.098793,  140.024105
   2.098821,  139.091680
   2.098849,  138.159255
   2.098876,  137.226831
   2.098904,  136.294406
   2.098932,  135.361643
   2.098960,  134.428815
   2.098988,  133.495988
   2.099015,  132.563160
   2.099043,  131.630332
   2.099071,  130.697504
   2.099099,  129.764676
   2.099126,  128.831849
   2.099154,  127.899021
   2.099182,  126.966193
   2.099210,  126.033376
   2.099238,  125.100562
   2.099265,  124.167748
   2.099293,  123.234934
   2.099321,  122.302119
   2.099349,  121.369305
   2.099376,  120.436491
   2.099404,  119.503676
   2.099432,  118.570862
   2.099460,  117.638048
   2.099488,  116.705541
   2.099515,  115.773093
   2.099543,  114.840646
   2.099571,  113.908198
   2.099599,  112.975751
   2.099626,  112.043303
   2.099654,  111.110856
   2.099682,  110.178408
   2.099710,  109.245961
   2.099738,  108.313513
   2.099765,  107.380572
   2.099793,  106.447537
   2.099821,  105.514501
   2.099849,  104.581465
   2.099876,  103.648429
   2.099904,  102.715393
   2.099932,  101.782357
   2.099960,  100.849321
   2.099988,   99.916286
   2.100015,   98.983250
   2.100043,   98.050096
   2.100071,   97.116920
   2.100099,   96.183744
   2.100126,   95.250568
   2.100154,   94.317391
   2.100182,   93.384215
   2.100210,   92.451039
   2.100238,   91.517863
   2.100265,   90.584687
   2.100293,   89.651511
   2.100321,   88.719353
   2.100349,   87.787392
   2.100376,   86.855431
   2.100404,   85.923470
   2.100432,   84.991509
   2.100460,   84.059548
   2.100488,   83.127588
   2.100515,   82.195627
   2.100543,   81.263666
   2.100571,   80.331705
   2.100599,   79.400358
   2.100626,   78.469129
   2.100654,   77.537901
   2.100682,   76.606672
   2.100710,   75.675444
   2.100738,   74.744215
   2.100765,   73.812987
   2.100793,   72.881759
   2.100821,   71.950530
   2.100849,   71.019302
   2.100876,   70.088504
   2.100904,   69.157790
   2.100932,   68.227076
   2.100960,   67.296362
   2.100988,   66.365647
   2.101015,   65.434933
   2.101043,   64.504219
   2.101071,   63.573505
   2.101099,   62.642791
   2.101126,   61.712076
   2.101154,   60.780912
   2.101182,   59.849661
   2.101210,   58.918409
   2.101238,   57.987158
   2.101265,   57.055907
   2.101293,   56.124655
   2.101321,   55.193404
   2.101349,   54.262153
   2.101376,   53.330901
   2.101404,   52.399650
   2.101432,   51.468170
   2.101460,   50.536645
   2.101476,   50.000000
   2.101504,   49.068603
   2.101531,   48.137206
   2.101559,   47.205810
   2.101587,   46.274413
   2.101615,   45.343016
   2.101642,   44.411619
   2.101670,   43.480223
   2.101698,   42.551839
   2.101726,   41.627715
   2.101754,   40.703591
   2.101781,   39.779466
   2.101809,   38.855342
   2.101837,   37.931218
   2.101865,   37.007094
   2.101892,   36.082970
   2.101920,   35.158845
   2.101948,   34.234721
   2.101976,   33.317055
   2.102004,   32.408518
   2.102031,   31.499980
   2.102059,   30.591443
   2.102087,   29.682906
   2.102115,   28.774368
   2.102142,   27.865831
   2.102170,   26.957293
   2.102198,   26.048756
   2.102226,   25.140219
   2.102254,   24.237239
   2.102281,   23.342116
   2.102309,   22.446993
   2.102337,   21.551870
   2.102365,   20.656747
   2.102385,   19.995225
