Time, Altitude
   0.000000,    0.000000
   0.000028,    0.000000
   0.000056,    0.000000
   0.000083,    0.000000
   0.000111,    0.000000
   0.000139,    0.000000
   0.000167,    0.000000
   0.000194,    0.000000
   0.000222,    0.000000
   0.000250,    0.000000
   0.000278,    0.000000
   0.000306,    0.000000
   0.000333,    0.000000
   0.000361,    0.000000
   0.000389,    0.000000
   0.000417,    0.000000
   0.000444,    0.000000
   0.000472,    0.000000
   0.000500,    0.000000
   0.000528,    0.000000
   0.000556,    0.000000
   0.000583,    0.000000
   0.000611,    0.000000
   0.000639,    0.000000
   0.000667,    0.000000
   0.000694,    0.000000
   0.000722,    0.000000
   0.000750,    0.000000
   0.000778,    0.000000
   0.000806,    0.000000
   0.000833,    0.000000
   0.000861,    0.000000
   0.000889,    0.000000
   0.000917,    0.000000
   0.000944,    0.000000
   0.000972,    0.000000
   0.001000,    0.000000
   0.001028,    0.000000
   0.001056,    0.000000
   0.001083,    0.000000
   0.001111,    0.000000
   0.001139,    0.000000
   0.001167,    0.000000
   0.001194,    0.000000
   0.001222,    0.000000
   0.001250,    0.000000
   0.001278,    0.000000
   0.001306,    0.000000
   0.001333,    0.000000
   0.001361,    0.000000
   0.001389,    0.000000
   0.001417,    0.000000
   0.001444,    0.000000
   0.001472,    0.000000
   0.001500,    0.000000
   0.001528,    0.000000
   0.001556,    0.000000
   0.001583,    0.000000
   0.001611,    0.000000
   0.001639,    0.000000
   0.001667,    0.000000
   0.001694,    0.000000
   0.001722,    0.000000
   0.001750,    0.000000
   0.001778,    0.000000
   0.001806,    0.000000
   0.001833,    0.000000
   0.001861,    0.000000
   0.001889,    0.000000
   0.001917,    0.000000
   0.001944,    0.000000
   0.001972,    0.000000
   0.002000,    0.000000
   0.002028,    0.000000
   0.002056,    0.000000
   0.002083,    0.000000
   0.002111,    0.000000
   0.002139,    0.000000
   0.002167,    0.000000
   0.002194,    0.000000
   0.002222,    0.000000
   0.002250,    0.000000
   0.002278,    0.000000
   0.002306,    0.000000
   0.002333,    0.000000
   0.002361,    0.000000
   0.002389,    0.000000
   0.002417,    0.000000
   0.002444,    0.000000
   0.002472,    0.000000
   0.002500,    0.000000
   0.002528,    0.000000
   0.002556,    0.000000
   0.002583,    0.000000
   0.002611,    0.000000
   0.002639,    0.000000
   0.002667,    0.000000
   0.002694,    0.000000
   0.002722,    0.000000
   0.002750,    0.000000
   0.002778,    0.000000
   0.002806,    0.000000
   0.002833,    0.000000
   0.002861,    0.000000
   0.002889,    0.000000
   0.002917,    0.000000
   0.002944,    0.000000
   0.002972,    0.000000
   0.003000,    0.000000
   0.003028,    0.000000
   0.003056,    0.000000
   0.003083,    0.000000
   0.003111,    0.000000
   0.003139,    0.000000
   0.003167,    0.000000
   0.003194,    0.000000
   0.003222,    0.000000
   0.003250,    0.000000
   0.003278,    0.000000
   0.003306,    0.000000
   0.003333,    0.000000
   0.003361,    0.000000
   0.003389,    0.000000
   0.003417,    0.000000
   0.003444,    0.000000
   0.003472,    0.000000
   0.003500,    0.000000
   0.003528,    0.000000
   0.003556,    0.000000
   0.003583,    0.000000
   0.003611,    0.000000
   0.003639,    0.000000
   0.003667,    0.000000
   0.003694,    0.000000
   0.003722,    0.000000
   0.003750,    0.000000
   0.003778,    0.000000
   0.003806,    0.000000
   0.003833,    0.000000
   0.003861,    0.000000
   0.003889,    0.000000
   0.003917,    0.000000
   0.003944,    0.000000
   0.003972,    0.000000
   0.004000,    0.000000
   0.004028,    0.000000
   0.004056,    0.000000
   0.004083,    0.000000
   0.004111,    0.000000
   0.004139,    0.000000
   0.004167,    0.000000
   0.004194,    0.000000
   0.004222,    0.000000
   0.004250,    0.000000
   0.004278,    0.000000
   0.004306,    0.000000
   0.004333,    0.000000
   0.004361,    0.000000
   0.004389,    0.000000
   0.004417,    0.000000
   0.004444,    0.000000
   0.004472,    0.000000
   0.004500,    0.000000
   0.004528,    0.000000
   0.004556,    0.000000
   0.004583,    0.000000
   0.004611,    0.000000
   0.004639,    0.000000
   0.004667,    0.000000
   0.004694,    0.000000
   0.004722,    0.000000
   0.004750,    0.000000
   0.004778,    0.000000
   0.004806,    0.000000
   0.004833,    0.000000
   0.004861,    0.000000
   0.004889,    0.000000
   0.004917,    0.000000
   0.004944,    0.000000
   0.004972,    0.000000
   0.005000,    0.000000
   0.005028,    0.000000
   0.005056,    0.000000
   0.005083,    0.000000
   0.005111,    0.000000
   0.005139,    0.000000
   0.005167,    0.000000
   0.005194,    0.000000
   0.005211,    0.000000
   0.005238,    0.000000
   0.005266,    0.000000
   0.005294,    0.000000
   0.005322,    0.000000
   0.005350,    0.000000
   0.005377,    0.000000
   0.005405,    0.000000
   0.005433,    0.000000
   0.005461,    0.000000
   0.005488,    0.000000
   0.005516,    0.000000
   0.005544,    0.000000
   0.005572,    0.000000
   0.005600,    0.000000
   0.005627,    0.000000
   0.005655,    0.000000
   0.005683,    0.000000
   0.005711,    0.000000
   0.005738,    0.000000
   0.005766,    0.000000
   0.005794,    0.000000
   0.005822,    0.000000
   0.005850,    0.000000
   0.005877,    0.000000
   0.005905,    0.000000
   0.005933,    0.000000
   0.005961,    0.000000
   0.005988,    0.000000
   0.006016,    0.000000
   0.006044,    0.000000
   0.006072,    0.000000
   0.006100,    0.000000
   0.006127,    0.000000
   0.006142,    0.000000
   0.006170,    0.500213
   0.006198,    1.000426
   0.006225,    1.500639
   0.006253,    2.000852
   0.006281,    2.501065
   0.006309,    3.001278
   0.006336,    3.501491
   0.006364,    4.001704
   0.006392,    4.501917
   0.006420,    5.002130
   0.006448,    6.308679
   0.006475,    7.615227
   0.006503,    8.921775
   0.006531,   10.228323
   0.006559,   11.534871
   0.006586,   13.410579
   0.006614,   15.286286
   0.006642,   17.161993
   0.006670,   19.037700
   0.006698,   20.913407
   0.006725,   23.404974
   0.006753,   25.896540
   0.006781,   28.388106
   0.006809,   30.879672
   0.006836,   33.371239
   0.006836,   35.000000
   0.026757, 1920.000000
   0.047086, 3805.000000
   0.068071, 5690.000000
   0.090566, 7575.000000
   0.115349, 9460.000000
   0.142786, 11345.000000
   0.173432, 13230.000000
   0.208269, 15115.000000
   0.249702, 17000.000000
   0.249702, 17000.000000
   0.263354, 17000.000000
   0.277005, 17000.000000
   0.290657, 17000.000000
   0.304309, 17000.000000
   0.317960, 17000.000000
   0.331612, 17000.000000
   0.345264, 17000.000000
   0.358916, 17000.000000
   0.372567, 17000.000000
   0.386219, 17000.000000
   0.399871, 17000.000000
   0.413522, 17000.000000
   0.427174, 17000.000000
   0.440826, 17000.000000
   0.454478, 17000.000000
   0.468129, 17000.000000
   0.481781, 17000.000000
   0.495433, 17000.000000
   0.509085, 17000.000000
   0.522736, 17000.000000
   0.536388, 17000.000000
   0.550040, 17000.000000
   0.563691, 17000.000000
   0.577343, 17000.000000
   0.590995, 17000.000000
   0.604647, 17000.000000
   0.618298, 17000.000000
   0.631950, 17000.000000
   0.645602, 17000.000000
   0.645602, 17000.000000
   0.664934, 15277.777778
   0.684313, 13555.555556
   0.703668, 11833.333333
   0.722937, 10111.111111
   0.742083, 8388.888889
   0.761033, 6666.666667
   0.779720, 4944.444444
   0.798344, 3222.222222
   0.816842, 1500.000000
   0.816842, 1500.000000
   0.826499, 2444.444444
   0.836249, 3388.888889
   0.846091, 4333.333333
   0.856070, 5277.777778
   0.866366, 6222.222222
   0.877135, 7166.666667
   0.888427, 8111.111111
   0.900279, 9055.555556
   0.912724, 10000.000000
   0.912724, 10000.000000
   0.943594, 10000.000000
   0.974477, 10000.000000
   1.005373, 10000.000000
   1.036283, 10000.000000
   1.067207, 10000.000000
   1.098144, 10000.000000
   1.129095, 10000.000000
   1.160059, 10000.000000
   1.191037, 10000.000000
   1.191037, 10000.000000
   1.201810, 9055.555556
   1.212414, 8111.111111
   1.223061, 7166.666667
   1.233751, 6222.222222
   1.244489, 5277.777778
   1.255271, 4333.333333
   1.266093, 3388.888889
   1.276950, 2444.444444
   1.287824, 1500.000000
   1.287824, 1500.000000
   1.371157, 1500.000000
   1.454491, 1500.000000
   1.537824, 1500.000000
   1.621157, 1500.000000
   1.704491, 1500.000000
   1.787824, 1500.000000
   1.871157, 1500.000000
   1.954491, 1500.000000
   2.037824, 1500.000000
   2.037824, 1500.000000
   2.037852, 1499.051587
   2.037879, 1498.103184
   2.037907, 1497.154781
   2.037935, 1496.206792
   2.037963, 1495.258884
   2.037991, 1494.310976
   2.038018, 1493.363068
   2.038046, 1492.415160
   2.038074, 1491.467252
   2.038102, 1490.519343
   2.038129, 1489.571435
   2.038157, 1488.623527
   2.038185, 1487.675619
   2.038213, 1486.728314
   2.038241, 1485.781126
   2.038268, 1484.833938
   2.038296, 1483.886750
   2.038324, 1482.939563
   2.038352, 1481.992375
   2.038379, 1481.045187
   2.038407, 1480.097999
   2.038435, 1479.150812
   2.038463, 1478.203624
   2.038491, 1477.256688
   2.038518, 1476.309800
   2.038546, 1475.362913
   2.038574, 1474.416025
   2.038602, 1473.469138
   2.038629, 1472.522251
   2.038657, 1471.575363
   2.038685, 1470.628476
   2.038713, 1469.681589
   2.038741, 1468.734701
   2.038768, 1467.788731
   2.038796, 1466.842939
   2.038824, 1465.897147
   2.038852, 1464.951354
   2.038879, 1464.005562
   2.038907, 1463.059770
   2.038935, 1462.113978
   2.038963, 1461.168186
   2.038991, 1460.222394
   2.039018, 1459.276602
   2.039046, 1458.330796
   2.039074, 1457.384988
   2.039102, 1456.439179
   2.039129, 1455.493371
   2.039157, 1454.547562
   2.039185, 1453.601754
   2.039213, 1452.655945
   2.039241, 1451.710137
   2.039268, 1450.764329
   2.039296, 1449.818520
   2.039324, 1448.872613
   2.039352, 1447.926687
   2.039379, 1446.980761
   2.039407, 1446.034835
   2.039435, 1445.088909
   2.039463, 1444.142983
   2.039491, 1443.197056
   2.039518, 1442.251130
   2.039546, 1441.305204
   2.039574, 1440.359278
   2.039602, 1439.413657
   2.039629, 1438.468095
   2.039657, 1437.522534
   2.039685, 1436.576972
   2.039713, 1435.631411
   2.039741, 1434.685849
   2.039768, 1433.740288
   2.039796, 1432.794726
   2.039824, 1431.849164
   2.039852, 1430.903603
   2.039879, 1429.957695
   2.039907, 1429.011719
   2.039935, 1428.065743
   2.039963, 1427.119768
   2.039991, 1426.173792
   2.040018, 1425.227817
   2.040046, 1424.281841
   2.040074, 1423.335865
   2.040102, 1422.389890
   2.040129, 1421.443914
   2.040157, 1420.498057
   2.040185, 1419.552222
   2.040213, 1418.606388
   2.040241, 1417.660553
   2.040268, 1416.714719
   2.040296, 1415.768884
   2.040324, 1414.823050
   2.040352, 1413.877215
   2.040379, 1412.931381
   2.040407, 1411.985546
   2.040435, 1411.039984
   2.040463, 1410.094475
   2.040491, 1409.148967
   2.040518, 1408.203458
   2.040546, 1407.257949
   2.040574, 1406.312441
   2.040602, 1405.366932
   2.040629, 1404.421423
   2.040657, 1403.475915
   2.040685, 1402.530406
   2.040713, 1401.585796
   2.040741, 1400.641360
   2.040768, 1399.696925
   2.040796, 1398.752490
   2.040824, 1397.808054
   2.040852, 1396.863619
   2.040879, 1395.919184
   2.040907, 1394.974749
   2.040935, 1394.030313
   2.040963, 1393.085878
   2.040991, 1392.142046
   2.041018, 1391.198330
   2.041046, 1390.254615
   2.041074, 1389.310900
   2.041102, 1388.367185
   2.041129, 1387.423469
   2.041157, 1386.479754
   2.041185, 1385.536039
   2.041213, 1384.592324
   2.041241, 1383.648608
   2.041268, 1382.705409
   2.041296, 1381.762310
   2.041324, 1380.819211
   2.041352, 1379.876112
   2.041379, 1378.933013
   2.041407, 1377.989914
   2.041435, 1377.046814
   2.041463, 1376.103715
   2.041491, 1375.160616
   2.041518, 1374.217517
   2.041546, 1373.274172
   2.041574, 1372.330779
   2.041602, 1371.387385
   2.041629, 1370.443992
   2.041657, 1369.500599
   2.041685, 1368.557206
   2.041713, 1367.613812
   2.041741, 1366.670419
   2.041768, 1365.727026
   2.041796, 1364.783632
   2.041824, 1363.840348
   2.041852, 1362.897085
   2.041879, 1361.953821
   2.041907, 1361.010558
   2.041935, 1360.067295
   2.041963, 1359.124031
   2.041991, 1358.180768
   2.042018, 1357.237505
   2.042046, 1356.294241
   2.042074, 1355.350978
   2.042102, 1354.408123
   2.042129, 1353.465347
   2.042157, 1352.522571
   2.042185, 1351.579796
   2.042213, 1350.637020
   2.042241, 1349.694244
   2.042268, 1348.751469
   2.042296, 1347.808693
   2.042324, 1346.865918
   2.042352, 1345.923142
   2.042379, 1344.980014
   2.042407, 1344.036817
   2.042435, 1343.093620
   2.042463, 1342.150424
   2.042491, 1341.207227
   2.042518, 1340.264030
   2.042546, 1339.320833
   2.042574, 1338.377637
   2.042602, 1337.434440
   2.042629, 1336.491243
   2.042657, 1335.548058
   2.042685, 1334.604875
   2.042713, 1333.661692
   2.042741, 1332.718509
   2.042768, 1331.775326
   2.042796, 1330.832143
   2.042824, 1329.888959
   2.042852, 1328.945776
   2.042879, 1328.002593
   2.042907, 1327.059410
   2.042935, 1326.116551
   2.042963, 1325.173755
   2.042991, 1324.230959
   2.043018, 1323.288163
   2.043046, 1322.345367
   2.043074, 1321.402570
   2.043102, 1320.459774
   2.043129, 1319.516978
   2.043157, 1318.574182
   2.043185, 1317.631386
   2.043213, 1316.688174
   2.043241, 1315.744882
   2.043268, 1314.801589
   2.043296, 1313.858297
   2.043324, 1312.915004
   2.043352, 1311.971712
   2.043379, 1311.028419
   2.043407, 1310.085127
   2.043435, 1309.141834
   2.043463, 1308.198541
   2.043491, 1307.255218
   2.043518, 1306.311888
   2.043546, 1305.368559
   2.043574, 1304.425229
   2.043602, 1303.481900
   2.043629, 1302.538570
   2.043657, 1301.595240
   2.043685, 1300.651911
   2.043713, 1299.708581
   2.043741, 1298.765252
   2.043768, 1297.822227
   2.043796, 1296.879262
   2.043824, 1295.936298
   2.043852, 1294.993333
   2.043879, 1294.050368
   2.043907, 1293.107403
   2.043935, 1292.164438
   2.043963, 1291.221473
   2.043991, 1290.278508
   2.044018, 1289.335543
   2.044046, 1288.392167
   2.044074, 1287.448711
   2.044102, 1286.505255
   2.044129, 1285.561799
   2.044157, 1284.618343
   2.044185, 1283.674887
   2.044213, 1282.731431
   2.044241, 1281.787975
   2.044268, 1280.844518
   2.044296, 1279.901062
   2.044324, 1278.957602
   2.044352, 1278.014141
   2.044379, 1277.070681
   2.044407, 1276.127220
   2.044435, 1275.183759
   2.044463, 1274.240298
   2.044491, 1273.296837
   2.044518, 1272.353376
   2.044546, 1271.409915
   2.044574, 1270.466455
   2.044602, 1269.523348
   2.044629, 1268.580310
   2.044657, 1267.637271
   2.044685, 1266.694233
   2.044713, 1265.751195
   2.044741, 1264.808157
   2.044768, 1263.865119
   2.044796, 1262.922081
   2.044824, 1261.979043
   2.044852, 1261.036005
   2.044879, 1260.092616
   2.044907, 1259.149159
   2.044935, 1258.205702
   2.044963, 1257.262245
   2.044991, 1256.318788
   2.045018, 1255.375331
   2.045046, 1254.431874
   2.045074, 1253.488416
   2.045102, 1252.544959
   2.045129, 1251.601502
   2.045157, 1250.658115
   2.045185, 1249.714741
   2.045213, 1248.771368
   2.045241, 1247.827994
   2.045268, 1246.884620
   2.045296, 1245.941247
   2.045324, 1244.997873
   2.045352, 1244.054500
   2.045379, 1243.111126
   2.045407, 1242.167752
   2.045435, 1241.224813
   2.045463, 1240.281958
   2.045491, 1239.339104
   2.045518, 1238.396249
   2.045546, 1237.453394
   2.045574, 1236.510539
   2.045602, 1235.567685
   2.045629, 1234.624830
   2.045657, 1233.681975
   2.045685, 1232.739121
   2.045713, 1231.795996
   2.045741, 1230.852819
   2.045768, 1229.909641
   2.045796, 1228.966464
   2.045824, 1228.023287
   2.045852, 1227.080109
   2.045879, 1226.136932
   2.045907, 1225.193755
   2.045935, 1224.250577
   2.045963, 1223.307400
   2.045991, 1222.364370
   2.046018, 1221.421368
   2.046046, 1220.478366
   2.046074, 1219.535365
   2.046102, 1218.592363
   2.046129, 1217.649361
   2.046157, 1216.706359
   2.046185, 1215.763358
   2.046213, 1214.820356
   2.046241, 1213.877354
   2.046268, 1212.934134
   2.046296, 1211.990871
   2.046324, 1211.047609
   2.046352, 1210.104346
   2.046379, 1209.161083
   2.046407, 1208.217821
   2.046435, 1207.274558
   2.046463, 1206.331295
   2.046491, 1205.388033
   2.046518, 1204.444770
   2.046546, 1203.500320
   2.046574, 1202.555638
   2.046602, 1201.610956
   2.046629, 1200.666274
   2.046657, 1199.721592
   2.046685, 1198.776911
   2.046713, 1197.832229
   2.046741, 1196.887547
   2.046768, 1195.942865
   2.046796, 1194.998183
   2.046824, 1194.053909
   2.046852, 1193.109715
   2.046879, 1192.165520
   2.046907, 1191.221325
   2.046935, 1190.277131
   2.046963, 1189.332936
   2.046991, 1188.388742
   2.047018, 1187.444547
   2.047046, 1186.500352
   2.047074, 1185.556158
   2.047102, 1184.612541
   2.047129, 1183.669036
   2.047157, 1182.725532
   2.047185, 1181.782027
   2.047213, 1180.838522
   2.047241, 1179.895018
   2.047268, 1178.951513
   2.047296, 1178.008009
   2.047324, 1177.064504
   2.047352, 1176.121000
   2.047379, 1175.177925
   2.047407, 1174.234934
   2.047435, 1173.291943
   2.047463, 1172.348951
   2.047491, 1171.405960
   2.047518, 1170.462969
   2.047546, 1169.519978
   2.047574, 1168.576987
   2.047602, 1167.633996
   2.047629, 1166.691005
   2.047657, 1165.747776
   2.047685, 1164.804501
   2.047713, 1163.861226
   2.047741, 1162.917951
   2.047768, 1161.974676
   2.047796, 1161.031402
   2.047824, 1160.088127
   2.047852, 1159.144852
   2.047879, 1158.201577
   2.047907, 1157.258302
   2.047935, 1156.315243
   2.047963, 1155.372225
   2.047991, 1154.429208
   2.048018, 1153.486191
   2.048046, 1152.543173
   2.048074, 1151.600156
   2.048102, 1150.657139
   2.048129, 1149.714121
   2.048157, 1148.771104
   2.048185, 1147.828087
   2.048213, 1146.885420
   2.048241, 1145.942821
   2.048268, 1145.000223
   2.048296, 1144.057624
   2.048324, 1143.115025
   2.048352, 1142.172427
   2.048379, 1141.229828
   2.048407, 1140.287230
   2.048435, 1139.344631
   2.048463, 1138.402032
   2.048491, 1137.460391
   2.048518, 1136.518936
   2.048546, 1135.577481
   2.048574, 1134.636026
   2.048602, 1133.694572
   2.048629, 1132.753117
   2.048657, 1131.811662
   2.048685, 1130.870207
   2.048713, 1129.928752
   2.048741, 1128.987297
   2.048768, 1128.046474
   2.048796, 1127.105774
   2.048824, 1126.165073
   2.048852, 1125.224373
   2.048879, 1124.283673
   2.048907, 1123.342973
   2.048935, 1122.402273
   2.048963, 1121.461572
   2.048991, 1120.520872
   2.049018, 1119.580172
   2.049046, 1118.639989
   2.049074, 1117.699906
   2.049102, 1116.759823
   2.049129, 1115.819740
   2.049157, 1114.879657
   2.049185, 1113.939575
   2.049213, 1112.999492
   2.049241, 1112.059409
   2.049268, 1111.119326
   2.049296, 1110.179243
   2.049324, 1109.238882
   2.049352, 1108.298467
   2.049379, 1107.358051
   2.049407, 1106.417636
   2.049435, 1105.477220
   2.049463, 1104.536805
   2.049491, 1103.596390
   2.049518, 1102.655974
   2.049546, 1101.715559
   2.049574, 1100.775143
   2.049602, 1099.834785
   2.049629, 1098.894438
   2.049657, 1097.954091
   2.049685, 1097.013743
   2.049713, 1096.073396
   2.049741, 1095.133049
   2.049768, 1094.192702
   2.049796, 1093.252355
   2.049824, 1092.312008
   2.049852, 1091.371660
   2.049879, 1090.431653
   2.049907, 1089.491711
   2.049935, 1088.551769
   2.049963, 1087.611827
   2.049991, 1086.671885
   2.050018, 1085.731943
   2.050046, 1084.792002
   2.050074, 1083.852060
   2.050102, 1082.912118
   2.050129, 1081.972176
   2.050157, 1081.031795
   2.050185, 1080.091329
   2.050213, 1079.150863
   2.050241, 1078.210397
   2.050268, 1077.269931
   2.050296, 1076.329465
   2.050324, 1075.388999
   2.050352, 1074.448533
   2.050379, 1073.508067
   2.050407, 1072.567600
   2.050435, 1071.627054
   2.050463, 1070.686491
   2.050491, 1069.745928
   2.050518, 1068.805366
   2.050546, 1067.864803
   2.050574, 1066.924240
   2.050602, 1065.983678
   2.050629, 1065.043115
   2.050657, 1064.102552
   2.050685, 1063.161989
   2.050713, 1062.222437
   2.050741, 1061.283082
   2.050768, 1060.343727
   2.050796, 1059.404372
   2.050824, 1058.465017
   2.050852, 1057.525662
   2.050879, 1056.586308
   2.050907, 1055.646953
   2.050935, 1054.707598
   2.050963, 1053.768243
   2.050991, 1052.829499
   2.051018, 1051.890875
   2.051046, 1050.952252
   2.051074, 1050.013628
   2.051102, 1049.075004
   2.051129, 1048.136380
   2.051157, 1047.197756
   2.051185, 1046.259132
   2.051213, 1045.320508
   2.051241, 1044.381884
   2.051268, 1043.443689
   2.051296, 1042.505578
   2.051324, 1041.567466
   2.051352, 1040.629354
   2.051379, 1039.691243
   2.051407, 1038.753131
   2.051435, 1037.815020
   2.051463, 1036.876908
   2.051491, 1035.938797
   2.051518, 1035.000685
   2.051546, 1034.062146
   2.051574, 1033.123523
   2.051602, 1032.184900
   2.051629, 1031.246278
   2.051657, 1030.307655
   2.051685, 1029.369032
   2.051713, 1028.430410
   2.051741, 1027.491787
   2.051768, 1026.553164
   2.051796, 1025.614542
   2.051824, 1024.675780
   2.051852, 1023.736991
   2.051879, 1022.798203
   2.051907, 1021.859414
   2.051935, 1020.920625
   2.051963, 1019.981836
   2.051991, 1019.043048
   2.052018, 1018.104259
   2.052046, 1017.165470
   2.052074, 1016.226681
   2.052102, 1015.287850
   2.052129, 1014.349011
   2.052157, 1013.410171
   2.052185, 1012.471332
   2.052213, 1011.532492
   2.052241, 1010.593652
   2.052268, 1009.654813
   2.052296, 1008.715973
   2.052324, 1007.777134
   2.052352, 1006.838294
   2.052379, 1005.898945
   2.052407, 1004.959496
   2.052435, 1004.020048
   2.052463, 1003.080599
   2.052491, 1002.141150
   2.052518, 1001.201701
   2.052546, 1000.262253
   2.052574,  999.322804
   2.052602,  998.383355
   2.052629,  997.443906
   2.052657,  996.504921
   2.052685,  995.566026
   2.052713,  994.627131
   2.052741,  993.688235
   2.052768,  992.749340
   2.052796,  991.810445
   2.052824,  990.871550
   2.052852,  989.932655
   2.052879,  988.993760
   2.052907,  988.054865
   2.052935,  987.115639
   2.052963,  986.176349
   2.052991,  985.237059
   2.053018,  984.297768
   2.053046,  983.358478
   2.053074,  982.419188
   2.053102,  981.479898
   2.053129,  980.540608
   2.053157,  979.601317
   2.053185,  978.662027
   2.053213,  977.722750
   2.053241,  976.783476
   2.053268,  975.844202
   2.053296,  974.904928
   2.053324,  973.965654
   2.053352,  973.026380
   2.053379,  972.087106
   2.053407,  971.147832
   2.053435,  970.208558
   2.053463,  969.269284
   2.053491,  968.330316
   2.053518,  967.391408
   2.053546,  966.452501
   2.053574,  965.513593
   2.053602,  964.574685
   2.053629,  963.635777
   2.053657,  962.696869
   2.053685,  961.757961
   2.053713,  960.819053
   2.053741,  959.880145
   2.053768,  958.940774
   2.053796,  958.001312
   2.053824,  957.061850
   2.053852,  956.122389
   2.053879,  955.182927
   2.053907,  954.243465
   2.053935,  953.304003
   2.053963,  952.364542
   2.053991,  951.425080
   2.054018,  950.485618
   2.054046,  949.546065
   2.054074,  948.606493
   2.054102,  947.666922
   2.054129,  946.727351
   2.054157,  945.787779
   2.054185,  944.848208
   2.054213,  943.908636
   2.054241,  942.969065
   2.054268,  942.029493
   2.054296,  941.089922
   2.054324,  940.151367
   2.054352,  939.213010
   2.054379,  938.274653
   2.054407,  937.336296
   2.054435,  936.397940
   2.054463,  935.459583
   2.054491,  934.521226
   2.054518,  933.582869
   2.054546,  932.644512
   2.054574,  931.706155
   2.054602,  930.768426
   2.054629,  929.830819
   2.054657,  928.893212
   2.054685,  927.955606
   2.054713,  927.017999
   2.054741,  926.080392
   2.054768,  925.142785
   2.054796,  924.205178
   2.054824,  923.267571
   2.054852,  922.329964
   2.054879,  921.392812
   2.054907,  920.455747
   2.054935,  919.518683
   2.054963,  918.581619
   2.054991,  917.644555
   2.055018,  916.707491
   2.055046,  915.770426
   2.055074,  914.833362
   2.055102,  913.896298
   2.055129,  912.959234
   2.055157,  912.021772
   2.055185,  911.084233
   2.055213,  910.146694
   2.055241,  909.209155
   2.055268,  908.271616
   2.055296,  907.334076
   2.055324,  906.396537
   2.055352,  905.458998
   2.055379,  904.521459
   2.055407,  903.583920
   2.055435,  902.646279
   2.055463,  901.708619
   2.055491,  900.770958
   2.055518,  899.833298
   2.055546,  898.895637
   2.055574,  897.957977
   2.055602,  897.020316
   2.055629,  896.082656
   2.055657,  895.144995
   2.055685,  894.207335
   2.055713,  893.269673
   2.055741,  892.332011
   2.055768,  891.394349
   2.055796,  890.456687
   2.055824,  889.519025
   2.055852,  888.581363
   2.055879,  887.643701
   2.055907,  886.706039
   2.055935,  885.768377
   2.055963,  884.830715
   2.055991,  883.892583
   2.056018,  882.954359
   2.056046,  882.016136
   2.056074,  881.077912
   2.056102,  880.139688
   2.056129,  879.201465
   2.056157,  878.263241
   2.056185,  877.325017
   2.056213,  876.386794
   2.056241,  875.448570
   2.056268,  874.510851
   2.056296,  873.573231
   2.056324,  872.635611
   2.056352,  871.697991
   2.056379,  870.760371
   2.056407,  869.822751
   2.056435,  868.885130
   2.056463,  867.947510
   2.056491,  867.009890
   2.056518,  866.072270
   2.056546,  865.134352
   2.056574,  864.196376
   2.056602,  863.258401
   2.056629,  862.320425
   2.056657,  861.382449
   2.056685,  860.444473
   2.056713,  859.506498
   2.056741,  858.568522
   2.056768,  857.630546
   2.056796,  856.692571
   2.056824,  855.754634
   2.056852,  854.816705
   2.056879,  853.878776
   2.056907,  852.940847
   2.056935,  852.002918
   2.056963,  851.064990
   2.056991,  850.127061
   2.057018,  849.189132
   2.057046,  848.251203
   2.057074,  847.313274
   2.057102,  846.375668
   2.057129,  845.438125
   2.057157,  844.500582
   2.057185,  843.563038
   2.057213,  842.625495
   2.057241,  841.687952
   2.057268,  840.750409
   2.057296,  839.812866
   2.057324,  838.875323
   2.057352,  837.937780
   2.057379,  836.999774
   2.057407,  836.061678
   2.057435,  835.123582
   2.057463,  834.185486
   2.057491,  833.247390
   2.057518,  832.309294
   2.057546,  831.371198
   2.057574,  830.433102
   2.057602,  829.495006
   2.057629,  828.556910
   2.057657,  827.618711
   2.057685,  826.680492
   2.057713,  825.742272
   2.057741,  824.804053
   2.057768,  823.865833
   2.057796,  822.927614
   2.057824,  821.989394
   2.057852,  821.051175
   2.057879,  820.112956
   2.057907,  819.174736
   2.057935,  818.237513
   2.057963,  817.300484
   2.057991,  816.363456
   2.058018,  815.426427
   2.058046,  814.489398
   2.058074,  813.552369
   2.058102,  812.615341
   2.058129,  811.678312
   2.058157,  810.741283
   2.058185,  809.804254
   2.058213,  808.867821
   2.058241,  807.931504
   2.058268,  806.995187
   2.058296,  806.058870
   2.058324,  805.122553
   2.058352,  804.186235
   2.058379,  803.249918
   2.058407,  802.313601
   2.058435,  801.377284
   2.058463,  800.440967
   2.058491,  799.505061
   2.058518,  798.569235
   2.058546,  797.633409
   2.058574,  796.697583
   2.058602,  795.761757
   2.058629,  794.825931
   2.058657,  793.890105
   2.058685,  792.954279
   2.058713,  792.018453
   2.058741,  791.082627
   2.058768,  790.146348
   2.058796,  789.209982
   2.058824,  788.273615
   2.058852,  787.337249
   2.058879,  786.400882
   2.058907,  785.464515
   2.058935,  784.528149
   2.058963,  783.591782
   2.058991,  782.655415
   2.059018,  781.719049
   2.059046,  780.782520
   2.059074,  779.845960
   2.059102,  778.909400
   2.059129,  777.972840
   2.059157,  777.036279
   2.059185,  776.099719
   2.059213,  775.163159
   2.059241,  774.226599
   2.059268,  773.290039
   2.059296,  772.353479
   2.059324,  771.416854
   2.059352,  770.480218
   2.059379,  769.543581
   2.059407,  768.606944
   2.059435,  767.670308
   2.059463,  766.733671
   2.059491,  765.797034
   2.059518,  764.860398
   2.059546,  763.923761
   2.059574,  762.987124
   2.059602,  762.049951
   2.059629,  761.112674
   2.059657,  760.175397
   2.059685,  759.238120
   2.059713,  758.300842
   2.059741,  757.363565
   2.059768,  756.426288
   2.059796,  755.489011
   2.059824,  754.551733
   2.059852,  753.614456
   2.059879,  752.677625
   2.059907,  751.740880
   2.059935,  750.804136
   2.059963,  749.867392
   2.059991,  748.930647
   2.060018,  747.993903
   2.060046,  747.057158
   2.060074,  746.120414
   2.060102,  745.183670
   2.060129,  744.246925
   2.060157,  743.309827
   2.060185,  742.372660
   2.060213,  741.435493
   2.060241,  740.498325
   2.060268,  739.561158
   2.060296,  738.623991
   2.060324,  737.686824
   2.060352,  736.749657
   2.060379,  735.812490
   2.060407,  734.875322
   2.060435,  733.938149
   2.060463,  733.000974
   2.060491,  732.063799
   2.060518,  731.126624
   2.060546,  730.189449
   2.060574,  729.252273
   2.060602,  728.315098
   2.060629,  727.377923
   2.060657,  726.440748
   2.060685,  725.503573
   2.060713,  724.566688
   2.060741,  723.629859
   2.060768,  722.693030
   2.060796,  721.756201
   2.060824,  720.819372
   2.060852,  719.882543
   2.060879,  718.945714
   2.060907,  718.008885
   2.060935,  717.072056
   2.060963,  716.135227
   2.060991,  715.197913
   2.061018,  714.260503
   2.061046,  713.323093
   2.061074,  712.385684
   2.061102,  711.448274
   2.061129,  710.510864
   2.061157,  709.573455
   2.061185,  708.636045
   2.061213,  707.698635
   2.061241,  706.761226
   2.061268,  705.823705
   2.061296,  704.886162
   2.061324,  703.948619
   2.061352,  703.011076
   2.061379,  702.073534
   2.061407,  701.135991
   2.061435,  700.198448
   2.061463,  699.260905
   2.061491,  698.323363
   2.061518,  697.385820
   2.061546,  696.449284
   2.061574,  695.512944
   2.061602,  694.576604
   2.061629,  693.640264
   2.061657,  692.703923
   2.061685,  691.767583
   2.061713,  690.831243
   2.061741,  689.894903
   2.061768,  688.958563
   2.061796,  688.022223
   2.061824,  687.086500
   2.061852,  686.150897
   2.061879,  685.215293
   2.061907,  684.279690
   2.061935,  683.344087
   2.061963,  682.408484
   2.061991,  681.472880
   2.062018,  680.537277
   2.062046,  679.601674
   2.062074,  678.666071
   2.062102,  677.730910
   2.062129,  676.795835
   2.062157,  675.860761
   2.062185,  674.925686
   2.062213,  673.990611
   2.062241,  673.055537
   2.062268,  672.120462
   2.062296,  671.185387
   2.062324,  670.250313
   2.062352,  669.315238
   2.062379,  668.379747
   2.062407,  667.444175
   2.062435,  666.508603
   2.062463,  665.573031
   2.062491,  664.637460
   2.062518,  663.701888
   2.062546,  662.766316
   2.062574,  661.830744
   2.062602,  660.895172
   2.062629,  659.959600
   2.062657,  659.023909
   2.062685,  658.088196
   2.062713,  657.152482
   2.062741,  656.216769
   2.062768,  655.281055
   2.062796,  654.345341
   2.062824,  653.409628
   2.062852,  652.473914
   2.062879,  651.538200
   2.062907,  650.602487
   2.062935,  649.666756
   2.062963,  648.731021
   2.062991,  647.795287
   2.063018,  646.859552
   2.063046,  645.923818
   2.063074,  644.988083
   2.063102,  644.052349
   2.063129,  643.116614
   2.063157,  642.180880
   2.063185,  641.245145
   2.063213,  640.308919
   2.063241,  639.372597
   2.063268,  638.436275
   2.063296,  637.499953
   2.063324,  636.563631
   2.063352,  635.627309
   2.063379,  634.690987
   2.063407,  633.754665
   2.063435,  632.818343
   2.063463,  631.882021
   2.063491,  630.946190
   2.063518,  630.010455
   2.063546,  629.074720
   2.063574,  628.138985
   2.063602,  627.203250
   2.063629,  626.267515
   2.063657,  625.331780
   2.063685,  624.396045
   2.063713,  623.460310
   2.063741,  622.524575
   2.063768,  621.588523
   2.063796,  620.652408
   2.063824,  619.716294
   2.063852,  618.780180
   2.063879,  617.844065
   2.063907,  616.907951
   2.063935,  615.971836
   2.063963,  615.035722
   2.063991,  614.099608
   2.064018,  613.163493
   2.064046,  612.227402
   2.064074,  611.291316
   2.064102,  610.355229
   2.064129,  609.419143
   2.064157,  608.483056
   2.064185,  607.546970
   2.064213,  606.610883
   2.064241,  605.674797
   2.064268,  604.738710
   2.064296,  603.802624
   2.064324,  602.866849
   2.064352,  601.931134
   2.064379,  600.995420
   2.064407,  600.059706
   2.064435,  599.123991
   2.064463,  598.188277
   2.064491,  597.252563
   2.064518,  596.316848
   2.064546,  595.381134
   2.064574,  594.445420
   2.064602,  593.509228
   2.064629,  592.572943
   2.064657,  591.636658
   2.064685,  590.700372
   2.064713,  589.764087
   2.064741,  588.827802
   2.064768,  587.891517
   2.064796,  586.955232
   2.064824,  586.018947
   2.064852,  585.082662
   2.064879,  584.146265
   2.064907,  583.209846
   2.064935,  582.273427
   2.064963,  581.337008
   2.064991,  580.400589
   2.065018,  579.464170
   2.065046,  578.527752
   2.065074,  577.591333
   2.065102,  576.654914
   2.065129,  575.718495
   2.065157,  574.783076
   2.065185,  573.847853
   2.065213,  572.912630
   2.065241,  571.977407
   2.065268,  571.042183
   2.065296,  570.106960
   2.065324,  569.171737
   2.065352,  568.236513
   2.065379,  567.301290
   2.065407,  566.366067
   2.065435,  565.431443
   2.065463,  564.496937
   2.065491,  563.562431
   2.065518,  562.627924
   2.065546,  561.693418
   2.065574,  560.758912
   2.065602,  559.824406
   2.065629,  558.889899
   2.065657,  557.955393
   2.065685,  557.020887
   2.065713,  556.086798
   2.065741,  555.152791
   2.065768,  554.218784
   2.065796,  553.284777
   2.065824,  552.350770
   2.065852,  551.416762
   2.065879,  550.482755
   2.065907,  549.548748
   2.065935,  548.614741
   2.065963,  547.680734
   2.065991,  546.746277
   2.066018,  545.811732
   2.066046,  544.877187
   2.066074,  543.942643
   2.066102,  543.008098
   2.066129,  542.073553
   2.066157,  541.139009
   2.066185,  540.204464
   2.066213,  539.269919
   2.066241,  538.335375
   2.066268,  537.400676
   2.066296,  536.465947
   2.066324,  535.531218
   2.066352,  534.596488
   2.066379,  533.661759
   2.066407,  532.727030
   2.066435,  531.792301
   2.066463,  530.857572
   2.066491,  529.922843
   2.066518,  528.988114
   2.066546,  528.053331
   2.066574,  527.118538
   2.066602,  526.183745
   2.066629,  525.248951
   2.066657,  524.314158
   2.066685,  523.379365
   2.066713,  522.444571
   2.066741,  521.509778
   2.066768,  520.574985
   2.066796,  519.640191
   2.066824,  518.704869
   2.066852,  517.769444
   2.066879,  516.834019
   2.066907,  515.898594
   2.066935,  514.963169
   2.066963,  514.027744
   2.066991,  513.092319
   2.067018,  512.156894
   2.067046,  511.221469
   2.067074,  510.286044
   2.067102,  509.351080
   2.067129,  508.416207
   2.067157,  507.481334
   2.067185,  506.546460
   2.067213,  505.611587
   2.067241,  504.676713
   2.067268,  503.741840
   2.067296,  502.806966
   2.067324,  501.872093
   2.067352,  500.937220
   2.067379,  500.002001
   2.067407,  499.066715
   2.067435,  498.131429
   2.067463,  497.196143
   2.067491,  496.260857
   2.067518,  495.325570
   2.067546,  494.390284
   2.067574,  493.454998
   2.067602,  492.519712
   2.067629,  491.584426
   2.067657,  490.649143
   2.067685,  489.713861
   2.067713,  488.778579
   2.067741,  487.843297
   2.067768,  486.908015
   2.067796,  485.972733
   2.067824,  485.037451
   2.067852,  484.102169
   2.067879,  483.166887
   2.067907,  482.231605
   2.067935,  481.296623
   2.067963,  480.361700
   2.067991,  479.426777
   2.068018,  478.491853
   2.068046,  477.556930
   2.068074,  476.622006
   2.068102,  475.687083
   2.068129,  474.752160
   2.068157,  473.817236
   2.068185,  472.882313
   2.068213,  471.946905
   2.068241,  471.011403
   2.068268,  470.075901
   2.068296,  469.140399
   2.068324,  468.204897
   2.068352,  467.269394
   2.068379,  466.333892
   2.068407,  465.398390
   2.068435,  464.462888
   2.068463,  463.527386
   2.068491,  462.591774
   2.068518,  461.656141
   2.068546,  460.720508
   2.068574,  459.784875
   2.068602,  458.849243
   2.068629,  457.913610
   2.068657,  456.977977
   2.068685,  456.042344
   2.068713,  455.106711
   2.068741,  454.171078
   2.068768,  453.236460
   2.068796,  452.302040
   2.068824,  451.367620
   2.068852,  450.433200
   2.068879,  449.498780
   2.068907,  448.564359
   2.068935,  447.629939
   2.068963,  446.695519
   2.068991,  445.761099
   2.069018,  444.826679
   2.069046,  443.892878
   2.069074,  442.959198
   2.069102,  442.025517
   2.069129,  441.091837
   2.069157,  440.158157
   2.069185,  439.224476
   2.069213,  438.290796
   2.069241,  437.357116
   2.069268,  436.423435
   2.069296,  435.489755
   2.069324,  434.556516
   2.069352,  433.623362
   2.069379,  432.690209
   2.069407,  431.757055
   2.069435,  430.823902
   2.069463,  429.890749
   2.069491,  428.957595
   2.069518,  428.024442
   2.069546,  427.091288
   2.069574,  426.158135
   2.069602,  425.224555
   2.069629,  424.290891
   2.069657,  423.357228
   2.069685,  422.423564
   2.069713,  421.489901
   2.069741,  420.556238
   2.069768,  419.622574
   2.069796,  418.688911
   2.069824,  417.755247
   2.069852,  416.821584
   2.069879,  415.887792
   2.069907,  414.953975
   2.069935,  414.020159
   2.069963,  413.086342
   2.069991,  412.152525
   2.070018,  411.218708
   2.070046,  410.284891
   2.070074,  409.351075
   2.070102,  408.417258
   2.070129,  407.483441
   2.070157,  406.549597
   2.070185,  405.615747
   2.070213,  404.681898
   2.070241,  403.748048
   2.070268,  402.814198
   2.070296,  401.880349
   2.070324,  400.946499
   2.070352,  400.012649
   2.070379,  399.078800
   2.070407,  398.144950
   2.070435,  397.210594
   2.070463,  396.276140
   2.070491,  395.341686
   2.070518,  394.407231
   2.070546,  393.472777
   2.070574,  392.538322
   2.070602,  391.603868
   2.070629,  390.669414
   2.070657,  389.734959
   2.070685,  388.800505
   2.070713,  387.866535
   2.070741,  386.932661
   2.070768,  385.998786
   2.070796,  385.064911
   2.070824,  384.131037
   2.070852,  383.197162
   2.070879,  382.263287
   2.070907,  381.329412
   2.070935,  380.395538
   2.070963,  379.461663
   2.070991,  378.527459
   2.071018,  377.593190
   2.071046,  376.658921
   2.071074,  375.724653
   2.071102,  374.790384
   2.071129,  373.856115
   2.071157,  372.921847
   2.071185,  371.987578
   2.071213,  371.053309
   2.071241,  370.119041
   2.071268,  369.184787
   2.071296,  368.250537
   2.071324,  367.316286
   2.071352,  366.382036
   2.071379,  365.447785
   2.071407,  364.513535
   2.071435,  363.579284
   2.071463,  362.645034
   2.071491,  361.710783
   2.071518,  360.776533
   2.071546,  359.842589
   2.071574,  358.908706
   2.071602,  357.974823
   2.071629,  357.040940
   2.071657,  356.107056
   2.071685,  355.173173
   2.071713,  354.239290
   2.071741,  353.305407
   2.071768,  352.371523
   2.071796,  351.437640
   2.071824,  350.503270
   2.071852,  349.568806
   2.071879,  348.634341
   2.071907,  347.699877
   2.071935,  346.765412
   2.071963,  345.830948
   2.071991,  344.896483
   2.072018,  343.962019
   2.072046,  343.027554
   2.072074,  342.093090
   2.072102,  341.158510
   2.072129,  340.223907
   2.072157,  339.289304
   2.072185,  338.354701
   2.072213,  337.420098
   2.072241,  336.485496
   2.072268,  335.550893
   2.072296,  334.616290
   2.072324,  333.681687
   2.072352,  332.747085
   2.072379,  331.813490
   2.072407,  330.880092
   2.072435,  329.946694
   2.072463,  329.013296
   2.072491,  328.079898
   2.072518,  327.146500
   2.072546,  326.213102
   2.072574,  325.279704
   2.072602,  324.346306
   2.072629,  323.412908
   2.072657,  322.480117
   2.072685,  321.547443
   2.072713,  320.614770
   2.072741,  319.682097
   2.072768,  318.749423
   2.072796,  317.816750
   2.072824,  316.884077
   2.072852,  315.951403
   2.072879,  315.018730
   2.072907,  314.086057
   2.072935,  313.153808
   2.072963,  312.221642
   2.072991,  311.289475
   2.073018,  310.357309
   2.073046,  309.425143
   2.073074,  308.492977
   2.073102,  307.560811
   2.073129,  306.628645
   2.073157,  305.696479
   2.073185,  304.764312
   2.073213,  303.831698
   2.073241,  302.898995
   2.073268,  301.966293
   2.073296,  301.033590
   2.073324,  300.100888
   2.073352,  299.168185
   2.073379,  298.235483
   2.073407,  297.302780
   2.073435,  296.370078
   2.073463,  295.437376
   2.073491,  294.504523
   2.073518,  293.571642
   2.073546,  292.638761
   2.073574,  291.705879
   2.073602,  290.772998
   2.073629,  289.840116
   2.073657,  288.907235
   2.073685,  287.974354
   2.073713,  287.041472
   2.073741,  286.108591
   2.073768,  285.175662
   2.073796,  284.242723
   2.073824,  283.309785
   2.073852,  282.376846
   2.073879,  281.443908
   2.073907,  280.510969
   2.073935,  279.578031
   2.073963,  278.645092
   2.073991,  277.712154
   2.074018,  276.779216
   2.074046,  275.845751
   2.074074,  274.912183
   2.074102,  273.978615
   2.074129,  273.045048
   2.074157,  272.111480
   2.074185,  271.177912
   2.074213,  270.244345
   2.074241,  269.310777
   2.074268,  268.377210
   2.074296,  267.443642
   2.074324,  266.510546
   2.074352,  265.577542
   2.074379,  264.644538
   2.074407,  263.711534
   2.074435,  262.778530
   2.074463,  261.845526
   2.074491,  260.912522
   2.074518,  259.979518
   2.074546,  259.046515
   2.074574,  258.113511
   2.074602,  257.180164
   2.074629,  256.246750
   2.074657,  255.313337
   2.074685,  254.379923
   2.074713,  253.446510
   2.074741,  252.513096
   2.074768,  251.579683
   2.074796,  250.646269
   2.074824,  249.712856
   2.074852,  248.779442
   2.074879,  247.846036
   2.074907,  246.912632
   2.074935,  245.979228
   2.074963,  245.045823
   2.074991,  244.112419
   2.075018,  243.179015
   2.075046,  242.245610
   2.075074,  241.312206
   2.075102,  240.378802
   2.075129,  239.445398
   2.075157,  238.512299
   2.075185,  237.579260
   2.075213,  236.646221
   2.075241,  235.713181
   2.075268,  234.780142
   2.075296,  233.847103
   2.075324,  232.914064
   2.075352,  231.981025
   2.075379,  231.047986
   2.075407,  230.114947
   2.075435,  229.181420
   2.075463,  228.247799
   2.075491,  227.314178
   2.075518,  226.380557
   2.075546,  225.446936
   2.075574,  224.513315
   2.075602,  223.579693
   2.075629,  222.646072
   2.075657,  221.712451
   2.075685,  220.778830
   2.075713,  219.845098
   2.075741,  218.911345
   2.075768,  217.977591
   2.075796,  217.043838
   2.075824,  216.110085
   2.075852,  215.176331
   2.075879,  214.242578
   2.075907,  213.308825
   2.075935,  212.375071
   2.075963,  211.441318
   2.075991,  210.508586
   2.076018,  209.576053
   2.076046,  208.643521
   2.076074,  207.710988
   2.076102,  206.778455
   2.076129,  205.845923
   2.076157,  204.913390
   2.076185,  203.980857
   2.076213,  203.048325
   2.076241,  202.115792
   2.076268,  201.183880
   2.076296,  200.252090
   2.076324,  199.320299
   2.076352,  198.388508
   2.076379,  197.456718
   2.076407,  196.524927
   2.076435,  195.593136
   2.076463,  194.661346
   2.076491,  193.729555
   2.076518,  192.797765
   2.076546,  191.866414
   2.076574,  190.935150
   2.076602,  190.003885
   2.076629,  189.072620
   2.076657,  188.141356
   2.076685,  187.210091
   2.076713,  186.278827
   2.076741,  185.347562
   2.076768,  184.416298
   2.076796,  183.485033
   2.076824,  182.553333
   2.076852,  181.621548
   2.076879,  180.689762
   2.076907,  179.757977
   2.076935,  178.826192
   2.076963,  177.894407
   2.076991,  176.962622
   2.077018,  176.030836
   2.077046,  175.099051
   2.077074,  174.167266
   2.077102,  173.235345
   2.077129,  172.303399
   2.077157,  171.371452
   2.077185,  170.439505
   2.077213,  169.507558
   2.077241,  168.575611
   2.077268,  167.643664
   2.077296,  166.711717
   2.077324,  165.779770
   2.077352,  164.847823
   2.077379,  163.915842
   2.077407,  162.983855
   2.077435,  162.051868
   2.077463,  161.119880
   2.077491,  160.187893
   2.077518,  159.255905
   2.077546,  158.323918
   2.077574,  157.391931
   2.077602,  156.459943
   2.077629,  155.527956
   2.077657,  154.595452
   2.077685,  153.662848
   2.077713,  152.730243
   2.077741,  151.797638
   2.077768,  150.865034
   2.077796,  149.932429
   2.077824,  148.999825
   2.077852,  148.067220
   2.077879,  147.134616
   2.077907,  146.202011
   2.077935,  145.269890
   2.077963,  144.337863
   2.077991,  143.405837
   2.078018,  142.473810
   2.078046,  141.541783
   2.078074,  140.609756
   2.078102,  139.677729
   2.078129,  138.745703
   2.078157,  137.813676
   2.078185,  136.881649
   2.078213,  135.949285
   2.078241,  135.016855
   2.078268,  134.084424
   2.078296,  133.151994
   2.078324,  132.219564
   2.078352,  131.287134
   2.078379,  130.354704
   2.078407,  129.422274
   2.078435,  128.489844
   2.078463,  127.557414
   2.078491,  126.624995
   2.078518,  125.692578
   2.078546,  124.760161
   2.078574,  123.827745
   2.078602,  122.895328
   2.078629,  121.962911
   2.078657,  121.030494
   2.078685,  120.098078
   2.078713,  119.165661
   2.078741,  118.233244
   2.078768,  117.301134
   2.078796,  116.369084
   2.078824,  115.437034
   2.078852,  114.504984
   2.078879,  113.572934
   2.078907,  112.640884
   2.078935,  111.708834
   2.078963,  110.776784
   2.078991,  109.844733
   2.079018,  108.912683
   2.079046,  107.980141
   2.079074,  107.047502
   2.079102,  106.114864
   2.079129,  105.182225
   2.079157,  104.249587
   2.079185,  103.316948
   2.079213,  102.384309
   2.079241,  101.451671
   2.079268,  100.519032
   2.079296,   99.586394
   2.079324,   98.653638
   2.079352,   97.720859
   2.079379,   96.788080
   2.079407,   95.855301
   2.079435,   94.922522
   2.079463,   93.989743
   2.079491,   93.056964
   2.079518,   92.124185
   2.079546,   91.191406
   2.079574,   90.258628
   2.079602,   89.326866
   2.079629,   88.395302
   2.079657,   87.463739
   2.079685,   86.532175
   2.079713,   85.600611
   2.079741,   84.669048
   2.079768,   83.737484
   2.079796,   82.805921
   2.079824,   81.874357
   2.079852,   80.942793
   2.079879,   80.011843
   2.079907,   79.081012
   2.079935,   78.150180
   2.079963,   77.219349
   2.079991,   76.288518
   2.080018,   75.357687
   2.080046,   74.426856
   2.080074,   73.496025
   2.080102,   72.565194
   2.080129,   71.634363
   2.080157,   70.703962
   2.080185,   69.773645
   2.080213,   68.843328
   2.080241,   67.913011
   2.080268,   66.982694
   2.080296,   66.052377
   2.080324,   65.122061
   2.080352,   64.191744
   2.080379,   63.261427
   2.080407,   62.331110
   2.080435,   61.400343
   2.080463,   60.469489
   2.080491,   59.538635
   2.080518,   58.607781
   2.080546,   57.676927
   2.080574,   56.746073
   2.080602,   55.815219
   2.080629,   54.884365
   2.080657,   53.953511
   2.080685,   53.022656
   2.080713,   52.091574
   2.080741,   51.160447
   2.080768,   50.229320
   2.080775,   50.000000
   2.080803,   49.069012
   2.080831,   48.138025
   2.080859,   47.207037
   2.080886,   46.276050
   2.080914,   45.345062
   2.080942,   44.414075
   2.080970,   43.483689
   2.080997,   42.559941
   2.081025,   41.636194
   2.081053,   40.712446
   2.081081,   39.788698
   2.081109,   38.864950
   2.081136,   37.941202
   2.081164,   37.017455
   2.081192,   36.093707
   2.081220,   35.169959
   2.081247,   34.247499
   2.081275,   33.339230
   2.081303,   32.430962
   2.081331,   31.522693
   2.081359,   30.614425
   2.081386,   29.706156
   2.081414,   28.797888
   2.081442,   27.889619
   2.081470,   26.981351
   2.081497,   26.073082
   2.081525,   25.165938
   2.081553,   24.271190
   2.081581,   23.376443
   2.081609,   22.481696
   2.081636,   21.586948
   2.081664,   20.692201
   2.081686,   20.000000
   2.081713,   19.115197
   2.081741,   18.230395
   2.081769,   17.345592
   2.081797,   16.460790
   2.081824,   15.705490
   2.081852,   14.968728
   2.081880,   14.231966
   2.081908,   13.495204
   2.081936,   12.758442
   2.081963,   12.021680
   2.081991,   11.284918
   2.082019,   10.548156
   2.082047,    9.811394
   2.082074,    9.074632
   2.082102,    8.589107
   2.082130,    8.139546
   2.082158,    7.689985
   2.082186,    7.240423
   2.082213,    6.790862
   2.082241,    6.341301
   2.082269,    5.891739
   2.082297,    5.442178
   2.082324,    4.992617
   2.082352,    4.543056
   2.082380,    4.311336
   2.082408,    4.110798
   2.082436,    3.910261
   2.082463,    3.709724
   2.082491,    3.509187
   2.082519,    3.308650
   2.082547,    3.108113
   2.082574,    2.907576
   2.082602,    2.707039
   2.082630,    2.506502
   2.082658,    2.368230
   2.082686,    2.238871
   2.082701,    2.165354
   2.082729,    2.050053
   2.082757,    1.934752
   2.082785,    1.819451
   2.082812,    1.704150
   2.082840,    1.588848
   2.082868,    1.473547
   2.082896,    1.358246
   2.082924,    1.294035
   2.082951,    1.294035
   2.082979,    1.294035
   2.083007,    1.294035
   2.083035,    1.294035
   2.083062,    1.294035
   2.083090,    1.294035
   2.083118,    1.294035
   2.083146,    1.294035
   2.083174,    1.294035
   2.083201,    1.294035
   2.083229,    1.294035
   2.083257,    1.294035
   2.083285,    1.294035
   2.083312,    1.294035
   2.083340,    1.294035
   2.083368,    1.294035
   2.083396,    1.294035
   2.083424,    1.294035
   2.083451,    1.294035
   2.083479,    1.294035
   2.083507,    1.294035
   2.083535,    1.294035
   2.083562,    1.294035
   2.083590,    1.294035
   2.083618,    1.294035
   2.083646,    1.294035
   2.083674,    1.294035
   2.083701,    1.294035
   2.083729,    1.294035
   2.083757,    1.294035
   2.083785,    1.294035
   2.083812,    1.294035
   2.083840,    1.294035
   2.083868,    1.294035
   2.083896,    1.294035
   2.083924,    1.294035
   2.083951,    1.294035
   2.083979,    1.294035
   2.084007,    1.294035
   2.084035,    1.294035
   2.084062,    1.294035
   2.084090,    1.294035
   2.084118,    1.294035
   2.084146,    1.294035
   2.084174,    1.294035
   2.084201,    1.294035
   2.084229,    1.294035
   2.084257,    1.294035
   2.084285,    1.294035
   2.084312,    1.294035
   2.084340,    1.294035
   2.084368,    1.294035
   2.084396,    1.294035
   2.084424,    1.294035
   2.084451,    1.294035
   2.084479,    1.294035
   2.084507,    1.294035
   2.084535,    1.294035
   2.084562,    1.294035
   2.084590,    1.294035
   2.084618,    1.294035
   2.084646,    1.294035
   2.084674,    1.294035
   2.084701,    1.294035
   2.084729,    1.294035
   2.084757,    1.294035
   2.084785,    1.294035
   2.084812,    1.294035
   2.084840,    1.294035
   2.084868,    1.294035
   2.084896,    1.294035
   2.084924,    1.294035
   2.084951,    1.294035
   2.084979,    1.294035
   2.085007,    1.294035
   2.085035,    1.294035
   2.085062,    1.294035
   2.085090,    1.294035
   2.085118,    1.294035
   2.085146,    1.294035
   2.085174,    1.294035
   2.085201,    1.294035
   2.085229,    1.294035
   2.085257,    1.294035
   2.085285,    1.294035
   2.085312,    1.294035
   2.085340,    1.294035
   2.085368,    1.294035
   2.085396,    1.294035
   2.085424,    1.294035
   2.085451,    1.294035
   2.085479,    1.294035
   2.085507,    1.294035
   2.085535,    1.294035
   2.085562,    1.294035
   2.085590,    1.294035
   2.085618,    1.294035
   2.085646,    1.294035
   2.085674,    1.294035
   2.085701,    1.294035
   2.085729,    1.294035
   2.085757,    1.294035
   2.085785,    1.294035
   2.085812,    1.294035
   2.085840,    1.294035
   2.085868,    1.294035
   2.085896,    1.294035
   2.085924,    1.294035
   2.085951,    1.294035
   2.085979,    1.294035
   2.086001,    1.294035
