Speed, Forces
  78.688264, 23876.293989
  79.363815, 22275.478792
  80.039366, 21287.117302
  80.714916, 20623.876605
  81.390467, 19996.363300
  82.066018, 19641.762092
  82.741568, 19284.229816
  83.417119, 18923.766471
  84.092670, 18607.148886
  84.768220, 18344.653792
  85.443771, 18080.058405
  86.119322, 17813.362724
  86.794872, 17545.901627
  87.470423, 17324.645016
  88.145974, 17101.672975
  88.821524, 16876.985503
  89.497075, 16650.582599
  90.172626, 16426.227304
  90.848176, 16246.147784
  91.523727, 16064.724189
  92.199278, 15881.956517
  92.874828, 15697.844770
  93.550379, 15512.388947
  94.225930, 15347.303877
  94.901480, 15203.083364
  95.577031, 15057.832558
  96.252582, 14911.551460
  96.928132, 14764.240070
  97.603683, 14615.898387
  98.279234, 14472.179120
  98.954784, 14360.924775
  99.630335, 14248.908310
 100.305886, 14136.129726
 100.981436, 14022.589022
 101.656987, 13908.286199
 102.332537, 13793.221256
 103.008088, 13677.394193
 103.683639, 13594.095177
 104.359189, 13517.442760
 105.034740, 13440.292537
 105.710291, 13362.644506
 106.385841, 13284.498668
 107.061392, 13205.855024
 107.736943, 13126.713572
 108.412493, 13047.074314
 109.088044, 12977.011973
 109.763595, 12935.685864
 110.439145, 12894.104625
 111.114696, 12852.268255
 111.790247, 12810.176755
 112.465797, 12767.830124
 113.141348, 12725.228362
 113.816899, 12682.371470
 114.492449, 12639.259447
 115.168000, 12595.892293
 115.843551, 12553.984695
 116.519101, 12542.848336
 117.194652, 12531.647223
 117.870203, 12520.381357
 118.545753, 12509.050737
 119.221304, 12497.655363
 119.896855, 12486.195236
 120.572405, 12474.670354
 121.247956, 12463.080719
 121.923507, 12451.426331
 122.599057, 12439.707188
 123.274608, 12427.923292
 123.950159, 12416.074642
 124.625709, 12422.165105
 125.301260, 12439.927236
 125.976811, 12457.785389
 126.652361, 12475.739563
 127.327912, 12493.789760
 128.003463, 12511.935978
 128.679013, 12530.178218
 129.354564, 12548.516480
 130.030114, 12566.950764
 130.705665, 12585.481069
 131.381216, 12604.107397
 132.056766, 12622.829746
 132.732317, 12641.648117
 133.407868, 12660.562510
 134.083418, 12679.572924
 134.758969, 12698.679360
 135.434520, 12747.859982
 136.110070, 12798.396844
 136.785621, 12849.185157
 137.461172, 12900.224923
 138.136722, 12951.516140
 138.812273, 13003.058809
 139.487824, 13054.852931
 140.163374, 13106.898504
 140.838925, 13159.195529
 141.514476, 13211.744006
 142.190026, 13264.543935
 142.865577, 13317.595316
 143.541128, 13370.898149
 144.216678, 13424.452434
 144.892229, 13478.258171
 145.567780, 13532.315360
