Speed, Forces
  57.763095, 23876.293989
  58.760793, 21279.274600
  59.758491, 19987.976117
  60.756189, 19271.439599
  61.753888, 18594.728794
  62.751586, 18064.283158
  63.749284, 17530.195006
  64.746982, 17083.062568
  65.744681, 16628.986687
  66.742379, 16226.823706
  67.740077, 15860.165177
  68.737776, 15488.066316
  69.735474, 15182.449588
  70.733172, 14888.879180
  71.730870, 14591.138521
  72.728569, 14341.029090
  73.726267, 14114.617219
  74.723965, 13885.120563
  75.721663, 13654.014763
  76.719362, 13500.080506
  77.717060, 13344.131306
  78.714758, 13186.167163
  79.712456, 13026.188079
  80.710155, 12924.355147
  81.707853, 12840.299052
  82.705551, 12755.210282
  83.703249, 12669.088835
  84.700948, 12581.934711
  85.698646, 12539.131425
  86.696344, 12516.486971
  87.694042, 12493.580418
  88.691741, 12470.411764
  89.689439, 12446.981011
  90.687137, 12423.288159
  91.684835, 12429.324480
  92.682534, 12465.235383
  93.680232, 12501.534948
  94.677930, 12538.223174
  95.675628, 12575.300061
  96.673327, 12612.765610
  97.671025, 12650.619821
  98.668723, 12688.862692
  99.666421, 12773.031959
 100.664120, 12875.214005
 101.661818, 12978.413838
 102.659516, 13082.631457
 103.657214, 13187.866863
 104.654913, 13294.120055
 105.652611, 13401.391033
 106.650309, 13509.679797
 107.648007, 13618.986349
 108.645706, 13729.310686
 109.643404, 13869.793359
 110.641102, 14036.392781
 111.638801, 14204.501306
 112.636499, 14374.118934
 113.634197, 14545.245664
 114.631895, 14717.881496
 115.629594, 14892.026432
 116.627292, 15067.680469
 117.624990, 15244.843609
 118.622688, 15423.515852
 119.620387, 15603.697197
 120.618085, 15785.387645
 121.615783, 15968.587195
 122.613481, 16153.295848
 123.611180, 16355.216423
 124.608878, 16585.449348
 125.606576, 16817.533075
 126.604274, 17051.467602
 127.601973, 17287.252931
 128.599671, 17524.889062
 129.597369, 17764.375993
 130.595067, 18005.713725
 131.592766, 18248.902259
 132.590464, 18493.941594
 133.588162, 18740.831730
 134.585860, 18989.572667
 135.583559, 19240.164405
 136.581257, 19492.606945
 137.578955, 19746.900286
 138.576653, 20003.044428
 139.574352, 20261.039371
 140.572050, 20520.885115
 141.569748, 20782.581661
 142.567446, 21046.129007
 143.565145, 21311.527155
 144.562843, 21578.776104
 145.560541, 21873.257596
 146.558239, 22181.165746
 147.555938, 22491.177146
 148.553636, 22803.291796
 149.551334, 23117.509696
 150.549032, 23433.830846
 151.546731, 23752.255246
 152.544429, 24072.782897
 153.542127, 24395.413797
 154.539826, 24720.147948
 155.537524, 25046.985348
 156.535222, 25375.925999
