Speed, Forces
  72.526592, 23876.293989
  73.292826, 21904.394441
  74.059059, 20981.927659
  74.825292, 20161.791213
  75.591525, 19669.388731
  76.357758, 19229.274759
  77.123992, 18784.722071
  77.890225, 18446.179293
  78.656458, 18121.268283
  79.422691, 17793.176654
  80.188925, 17478.386523
  80.955158, 17205.219574
  81.721391, 16929.454830
  82.487624, 16651.092292
  83.253857, 16385.223858
  84.020091, 16163.050188
  84.786324, 15938.841091
  85.552557, 15712.596569
  86.318790, 15484.316621
  87.085024, 15292.428725
  87.851257, 15114.321764
  88.617490, 14934.654561
  89.383723, 14753.427116
  90.149956, 14570.639429
  90.916190, 14412.828402
  91.682423, 14275.309918
  92.448656, 14136.637304
  93.214889, 13996.810560
  93.981123, 13855.829687
  94.747356, 13713.694685
  95.513589, 13600.366131
  96.279822, 13506.017581
  97.046055, 13410.915169
  97.812289, 13315.058893
  98.578522, 13218.448754
  99.344755, 13121.084752
 100.110988, 13022.966886
 100.877221, 12955.055010
 101.643455, 12903.995985
 102.409688, 12852.550598
 103.175921, 12800.718849
 103.942154, 12748.500738
 104.708388, 12695.896266
 105.474621, 12642.905432
 106.240854, 12589.528236
 107.007087, 12549.795540
 107.773320, 12536.051956
 108.539554, 12522.210311
 109.305787, 12508.270605
 110.072020, 12494.232838
 110.838253, 12480.097010
 111.604487, 12465.863122
 112.370720, 12451.531172
 113.136953, 12437.101161
 113.903186, 12422.573089
 114.669419, 12416.551352
 115.435653, 12438.385517
 116.201886, 12460.365094
 116.968119, 12482.490083
 117.734352, 12504.760485
 118.500586, 12527.176300
 119.266819, 12549.737526
 120.033052, 12572.444165
 120.799285, 12595.296217
 121.565518, 12618.293680
 122.331752, 12641.436557
 123.097985, 12664.724845
 123.864218, 12688.158546
 124.630451, 12731.770294
 125.396685, 12793.897625
 126.162918, 12856.405748
 126.929151, 12919.294661
 127.695384, 12982.564365
 128.461617, 13046.214861
 129.227851, 13110.246147
 129.994084, 13174.658223
 130.760317, 13239.451091
 131.526550, 13304.624750
 132.292783, 13370.179199
 133.059017, 13436.114439
 133.825250, 13502.430471
 134.591483, 13569.127293
 135.357716, 13636.204905
 136.123950, 13703.663309
 136.890183, 13771.502504
 137.656416, 13868.413945
 138.422649, 13970.130382
 139.188882, 14072.411429
 139.955116, 14175.257086
 140.721349, 14278.667353
 141.487582, 14382.642230
 142.253815, 14487.181718
 143.020049, 14592.285815
 143.786282, 14697.954523
 144.552515, 14804.187841
 145.318748, 14910.985768
 146.084981, 15018.348306
 146.851215, 15126.275454
 147.617448, 15234.767212
 148.383681, 15343.823581
