Speed, Forces
  67.046457, 31744.183289
  67.895972, 31519.816915
  68.745487, 31315.452083
  69.595002, 31113.364348
  70.444517, 30911.276613
  71.294031, 30709.188878
  72.143546, 30507.101143
  72.993061, 30305.013408
  73.842576, 30102.925673
  74.692091, 29900.837938
  75.541605, 29698.750203
  76.391120, 29496.662468
  77.240635, 29294.574732
  78.090150, 29092.486997
  78.939665, 28890.399262
  79.789179, 28706.888741
  80.638694, 28537.961540
  81.488209, 28369.034340
  82.337724, 28200.107140
  83.187239, 28031.179939
  84.036753, 27862.252739
  84.886268, 27693.325539
  85.735783, 27524.398338
  86.585298, 27355.471138
  87.434813, 27186.543937
  88.284327, 27017.616737
  89.133842, 26848.689537
  89.983357, 26679.762336
  90.832872, 26515.775206
  91.682387, 26369.036085
  92.531901, 26222.296963
  93.381416, 26075.557842
  94.230931, 25928.818720
  95.080446, 25782.079599
  95.929961, 25635.340478
  96.779475, 25488.601356
  97.628990, 25341.862235
  98.478505, 25195.123113
  99.328020, 25048.383992
 100.177535, 24901.644871
 101.027049, 24754.905749
 101.876564, 24608.166628
 102.726079, 24474.570939
 103.575594, 24342.681885
 104.425109, 24210.792830
 105.274623, 24078.903776
 106.124138, 23947.014721
 106.973653, 23815.125667
 107.823168, 23683.236612
 108.672683, 23551.347558
 109.522197, 23419.458503
 110.371712, 23287.569449
 111.221227, 23155.680394
 112.070742, 23023.791339
 112.920257, 22891.902285
 113.769771, 22770.968770
 114.619286, 22659.090032
 115.468801, 22547.211295
 116.318316, 22435.332557
 117.167831, 22323.453819
 118.017345, 22211.575081
 118.866860, 22099.696343
 119.716375, 21987.817606
 120.565890, 21875.938868
 121.415405, 21764.060130
 122.264919, 21652.181392
 123.114434, 21540.302654
 123.963949, 21428.423917
 124.813464, 21319.861828
 125.662979, 21223.782298
 126.512493, 21127.702768
 127.362008, 21031.623239
 128.211523, 20935.543709
 129.061038, 20839.464180
 129.910553, 20743.384650
 130.760067, 20647.305120
 131.609582, 20551.225591
 132.459097, 20455.146061
 133.308612, 20359.066531
 134.158127, 20262.987002
 135.007641, 20166.907472
 135.857156, 20070.827943
 136.706671, 19985.121373
 137.556186, 19900.932751
 138.405701, 19816.744129
 139.255215, 19732.555506
 140.104730, 19648.366884
 140.954245, 19564.178262
 141.803760, 19479.989639
 142.653275, 19395.801017
 143.502789, 19311.612395
 144.352304, 19227.423772
 145.201819, 19143.235150
 146.051334, 19059.046528
 146.900849, 18974.857905
 147.750363, 18894.397952
 148.599878, 18817.181745
 149.449393, 18739.965539
 150.298908, 18662.749332
 151.148423, 18585.533125
