Speed, Forces
 161.205791, 3550.583220
 162.214764, 3535.643186
 163.223737, 3520.877965
 164.232710, 3507.163901
 165.241683, 3493.807843
 166.250657, 3481.322082
 167.259630, 3469.277060
 168.268603, 3458.020642
 169.277576, 3447.184653
 170.286549, 3437.157327
 171.295522, 3427.424491
 172.304495, 3418.624712
 173.313468, 3409.885275
 174.322441, 3402.310207
 175.331414, 3394.689536
 176.340387, 3388.096052
 177.349360, 3381.703767
 178.358333, 3375.859318
 179.367306, 3370.689785
 180.376279, 3365.490040
 181.385253, 3361.518201
 182.394226, 3357.541652
 183.403199, 3354.054458
 184.412172, 3351.292670
 185.421145, 3348.515200
 186.430118, 3346.602077
 187.439091, 3345.036582
 188.448064, 3343.462347
 189.457037, 3342.958934
 190.466010, 3342.592167
 191.474983, 3342.223386
 192.483956, 3342.957568
 193.492929, 3343.790024
 194.501902, 3344.626977
 195.510875, 3346.418887
 196.519849, 3348.449124
 197.528822, 3350.490153
 198.537795, 3353.152173
 199.546768, 3356.376809
 200.555741, 3359.618318
 201.564714, 3362.955077
 202.573687, 3367.368794
 203.582660, 3371.805249
 204.591633, 3376.264442
 205.600606, 3381.209162
 206.609579, 3386.833091
 207.618552, 3392.485408
 208.627525, 3398.166112
 209.636498, 3404.472364
 210.645471, 3411.308178
 211.654445, 3418.177815
 212.663418, 3425.081274
 213.672391, 3432.489705
 214.681364, 3440.536494
 215.690337, 3448.622325
 216.699310, 3456.747197
 217.708283, 3464.985535
 218.717256, 3474.239805
 219.726229, 3483.538119
 220.735202, 3492.880479
 221.744175, 3502.266883
 222.753148, 3512.119202
 223.762121, 3522.623707
 224.771094, 3533.177045
 225.780067, 3543.779215
 226.789041, 3554.430219
 227.798014, 3565.556923
 228.806987, 3577.312145
 229.815960, 3589.120774
 230.824933, 3600.982808
 231.833906, 3612.898248
 232.842879, 3624.940359
 233.851852, 3637.943551
 234.860825, 3651.004507
 235.869798, 3664.123227
 236.878771, 3677.299711
 237.887744, 3690.533958
 238.896717, 3704.124054
 239.905690, 3718.431146
 240.914663, 3732.800143
 241.923637, 3747.231046
 242.932610, 3761.723855
 243.941583, 3776.278569
 244.950556, 3790.971286
 245.959529, 3806.580922
 246.968502, 3822.256391
 247.977475, 3837.997692
 248.986448, 3853.804827
 249.995421, 3869.677794
 251.004394, 3885.616594
 252.013367, 3901.907581
 253.022340, 3918.884076
 254.031313, 3935.930116
 255.040286, 3953.045700
 256.049259, 3970.230828
 257.058233, 3987.485501
 258.067206, 4004.809718
 259.076179, 4022.203479
 260.085152, 4040.488749
 261.094125, 4058.903030
