Time, Horizontal Forces
   0.000000, 15391.883417
   0.100000, 15375.512800
   0.200000, 15358.870063
   0.300000, 15342.195797
   0.400000, 15325.521531
   0.500000, 15308.847264
   0.600000, 15292.172998
   0.700000, 15275.498732
   0.800000, 15258.824466
   0.900000, 15242.150200
   1.000000, 15225.475934
   1.100000, 15208.801668
   1.200000, 15191.685881
   1.300000, 15174.514966
   1.400000, 15157.344051
   1.500000, 15140.173136
   1.600000, 15123.002221
   1.700000, 15105.831305
   1.800000, 15088.660390
   1.900000, 15071.489475
   2.000000, 15054.318560
   2.100000, 15037.147645
   2.200000, 15019.560559
   2.300000, 15001.921509
   2.400000, 14984.282460
   2.500000, 14966.643411
   2.600000, 14949.004361
   2.700000, 14931.365312
   2.800000, 14913.726262
   2.900000, 14896.087213
   3.000000, 14878.448164
   3.100000, 14860.809114
   3.200000, 14842.779452
   3.300000, 14824.701018
   3.400000, 14806.622583
   3.500000, 14788.544149
   3.600000, 14770.465715
   3.700000, 14752.387281
   3.800000, 14734.308847
   3.900000, 14716.230412
   4.000000, 14698.151978
   4.100000, 14680.073544
   4.200000, 14661.630184
   4.300000, 14643.141260
   4.400000, 14624.652336
   4.500000, 14606.163412
   4.600000, 14587.674488
   4.700000, 14569.185564
   4.800000, 14550.696640
   4.900000, 14532.207717
   5.000000, 14513.718793
   5.100000, 14495.229869
   5.200000, 14474.278257
   5.300000, 14453.019156
   5.400000, 14431.760054
   5.500000, 14410.500953
   5.600000, 14389.241851
   5.700000, 14367.982750
   5.800000, 14346.723649
   5.900000, 14325.464547
   6.000000, 14304.205446
   6.100000, 14282.946345
   6.200000, 14257.248781
   6.300000, 14230.997034
   6.400000, 14204.745287
   6.500000, 14178.493540
   6.600000, 14152.241793
   6.700000, 14125.990046
   6.800000, 14099.738299
   6.900000, 14073.486552
   7.000000, 14047.234805
   7.100000, 14020.983058
   7.200000, 13994.652176
   7.300000, 13968.311413
   7.400000, 13941.970649
   7.500000, 13915.629886
   7.600000, 13889.289123
   7.700000, 13862.948360
   7.800000, 13836.607597
   7.900000, 13810.266834
   8.000000, 13783.926071
   8.100000, 13757.585308
   8.200000, 13731.195503
   8.300000, 13704.799575
   8.400000, 13678.403647
   8.500000, 13652.007719
   8.600000, 13625.611791
   8.700000, 13599.215863
   8.800000, 13572.819935
   8.900000, 13546.424007
   9.000000, 13520.028079
   9.100000, 13493.632151
   9.200000, 13467.216242
   9.300000, 13440.797837
   9.400000, 13414.379433
   9.500000, 13387.961029
   9.600000, 13361.542624
   9.700000, 13335.124220
   9.800000, 13308.705815
   9.900000, 13282.287411
  10.000000, 13255.869007
  10.100000, 13229.450602
  10.200000, 13203.040202
  10.300000, 13176.630800
  10.400000, 13150.221399
  10.500000, 13123.811998
  10.600000, 13097.402597
  10.700000, 13070.993195
  10.800000, 13044.583794
  10.900000, 13018.174393
  11.000000, 12991.764992
  11.100000, 12965.355590
  11.200000, 12938.981069
  11.300000, 12912.610903
  11.400000, 12886.240736
  11.500000, 12859.870570
  11.600000, 12833.500404
  11.700000, 12807.130238
  11.800000, 12780.760072
  11.900000, 12754.389905
  12.000000, 12728.019739
  12.100000, 12701.649573
  12.200000, 12668.298308
  12.300000, 12634.075387
  12.400000, 12599.852466
  12.500000, 12565.629546
  12.600000, 12531.406625
  12.700000, 12497.183704
  12.800000, 12462.960784
  12.900000, 12428.737863
  13.000000, 12394.514942
  13.100000, 12360.292021
  13.200000, 12326.303449
  13.300000, 12292.344137
  13.400000, 12258.384825
  13.500000, 12224.425513
  13.600000, 12190.466201
  13.700000, 12156.506889
  13.800000, 12122.547577
  13.900000, 12088.588265
  14.000000, 12054.628953
  14.100000, 12020.669641
  14.200000, 11987.169809
  14.300000, 11953.727347
  14.400000, 11920.284886
  14.500000, 11886.842424
  14.600000, 11853.399963
  14.700000, 11819.957501
  14.800000, 11786.515040
  14.900000, 11753.072578
  15.000000, 11719.630117
  15.100000, 11686.187656
  15.200000, 11653.222766
  15.300000, 11620.317505
  15.400000, 11587.412244
  15.500000, 11554.506983
  15.600000, 11521.601723
  15.700000, 11488.696462
  15.800000, 11455.791201
  15.900000, 11422.885941
  16.000000, 11389.980680
  16.100000, 11357.075419
  16.200000, 11324.663808
  16.300000, 11292.313834
  16.400000, 11259.963859
  16.500000, 11227.613885
  16.600000, 11195.263910
  16.700000, 11162.913936
  16.800000, 11130.563961
  16.900000, 11098.213987
  17.000000, 11065.864012
  17.100000, 11033.514038
  17.200000, 11001.671854
  17.300000, 10969.893072
  17.400000, 10938.114290
  17.500000, 10906.335508
  17.600000, 10874.556727
  17.700000, 10842.777945
  17.800000, 10810.999163
  17.900000, 10779.220381
  18.000000, 10747.441599
  18.100000, 10715.662818
  18.200000, 10684.404109
  18.300000, 10653.210336
  18.400000, 10622.016563
  18.500000, 10590.822790
  18.600000, 10559.629017
  18.700000, 10528.435244
  18.800000, 10497.241471
  18.900000, 10466.047699
  19.000000, 10434.853926
  19.100000, 10403.660153
  19.200000, 10373.152283
  19.300000, 10342.730054
  19.400000, 10312.307825
  19.500000, 10281.885596
  19.600000, 10251.463367
  19.700000, 10221.041138
  19.800000, 10190.618909
  19.900000, 10160.196680
  20.000000, 10129.774451
  20.100000, 10099.352222
  20.200000, 10069.646165
  20.300000, 10040.029528
  20.400000, 10010.412891
  20.500000, 9980.796255
  20.600000, 9951.179618
  20.700000, 9921.562982
  20.800000, 9891.946345
  20.900000, 9862.329708
  21.000000, 9832.713072
  21.100000, 9803.096435
  21.200000, 9774.006289
  21.300000, 9744.981879
  21.400000, 9715.957470
  21.500000, 9686.933061
  21.600000, 9657.908652
  21.700000, 9628.884243
  21.800000, 9599.859834
  21.900000, 9570.835425
  22.000000, 9541.811016
  22.100000, 9512.786606
  22.200000, 9484.277217
  22.300000, 9455.832133
  22.400000, 9427.387048
  22.500000, 9398.941964
  22.600000, 9370.496879
  22.700000, 9342.051795
  22.800000, 9313.606711
  22.900000, 9285.161626
  23.000000, 9256.716542
  23.045050, 9243.902109
  23.145050, 9077.417404
  23.245050, 9047.998596
  23.345050, 9018.579788
  23.445050, 8989.160979
  23.545050, 8959.742171
  23.645050, 8930.323363
  23.745050, 8900.904555
  23.845050, 8871.485747
  23.945050, 8842.066938
  24.045050, 8812.648130
  24.145050, 8773.882157
  24.245050, 8716.930975
  24.345050, 8659.979793
  24.445050, 8603.028611
  24.545050, 8546.077429
  24.645050, 8489.126247
  24.745050, 8432.175065
  24.845050, 8375.223883
  24.945050, 8318.272702
  25.045050, 8261.321520
  25.145050, 8201.900680
  25.245050, 8137.675042
  25.345050, 8073.449403
  25.445050, 8009.223765
  25.545050, 7944.998127
  25.645050, 7880.772488
  25.745050, 7816.546850
  25.845050, 7752.321212
  25.945050, 7688.095573
  26.045050, 7623.869935
  26.111100, 7581.448725
  26.211100, 7074.113713
  26.311100, 6566.778702
  26.411100, 6059.443691
  26.511100, 5552.108679
  26.611100, 5044.773668
  26.711100, 4537.438656
  26.811100, 4030.103645
  26.911100, 3522.768634
  27.011100, 3015.433622
  27.111100, 2508.098611
  27.211100, 2216.947399
  27.311100, 1925.796188
  27.411100, 1634.644977
  27.511100, 1343.493766
  27.611100, 1052.342554
  27.711100,  765.617990
  27.811100,  478.893426
  27.911100,  192.168862
  28.011100,  -94.555703
  28.111100, -381.280267
  28.211100, -660.716419
  28.311100, -940.152572
  28.411100, -1219.588725
  28.511100, -1499.024877
