Ground distance, Altitude
   0.000000,  457.200000
   5.676463,  456.902926
  11.352939,  456.605855
  17.029416,  456.308784
  22.706064,  456.011852
  28.382728,  455.714931
  34.059391,  455.418010
  39.736055,  455.121089
  45.412718,  454.824168
  51.089382,  454.527247
  56.766045,  454.230327
  62.442709,  453.933406
  68.119372,  453.636485
  73.796036,  453.339564
  79.472942,  453.042848
  85.149869,  452.746150
  90.826796,  452.449452
  96.503722,  452.152754
 102.180649,  451.856055
 107.857576,  451.559357
 113.534503,  451.262659
 119.211430,  450.965961
 124.888357,  450.669263
 130.565284,  450.372564
 136.242446,  450.075958
 141.919629,  449.779360
 147.596811,  449.482761
 153.273994,  449.186163
 158.951177,  448.889565
 164.628359,  448.592967
 170.305542,  448.296368
 175.982724,  447.999770
 181.659907,  447.703172
 187.337089,  447.406573
 193.014501,  447.110037
 198.691932,  446.813507
 204.369364,  446.516976
 210.046795,  446.220446
 215.724226,  445.923915
 221.401657,  445.627385
 227.079089,  445.330854
 232.756520,  445.034324
 238.433951,  444.737793
 244.111383,  444.441263
 249.789081,  444.144598
 255.466801,  443.847922
 261.144522,  443.551246
 266.822243,  443.254570
 272.499964,  442.957895
 278.177685,  442.661219
 283.855405,  442.364543
 289.533126,  442.067867
 295.210847,  441.771191
 300.888568,  441.474515
 306.566552,  441.177881
 312.244559,  440.881251
 317.922565,  440.584621
 323.600572,  440.287991
 329.278579,  439.991361
 334.956585,  439.694730
 340.634592,  439.398100
 346.312598,  439.101470
 351.990605,  438.804840
 357.668612,  438.508210
 363.346858,  438.211693
 369.025124,  437.915187
 374.703390,  437.618681
 380.381657,  437.322174
 386.059923,  437.025668
 391.738189,  436.729161
 397.416456,  436.432655
 403.094722,  436.136148
 408.772988,  435.839642
 414.451255,  435.543135
 420.129750,  435.246713
 425.808265,  434.950298
 431.486780,  434.653883
 437.165295,  434.357468
 442.843810,  434.061053
 448.522325,  433.764638
 454.200840,  433.468223
 459.879355,  433.171808
 465.557870,  432.875393
 471.236385,  432.578978
 476.915164,  432.282450
 482.593964,  431.985911
 488.272765,  431.689373
 493.951566,  431.392835
 499.630366,  431.096297
 505.309167,  430.799758
 510.987968,  430.503220
 516.666769,  430.206682
 522.345569,  429.910143
 528.024370,  429.613605
 533.703428,  429.317127
 539.382507,  429.020654
 545.061587,  428.724181
 550.740666,  428.427708
 556.419746,  428.131234
 562.098825,  427.834761
 567.777905,  427.538288
 573.456984,  427.241815
 579.136063,  426.945342
 584.815143,  426.648869
 590.494453,  426.352525
 596.173782,  426.056191
 601.853112,  425.759858
 607.532441,  425.463525
 613.211771,  425.167191
 618.891100,  424.870858
 624.570429,  424.574525
 630.249759,  424.278191
 635.929088,  423.981858
 641.608418,  423.685525
 647.287966,  423.389287
 652.967532,  423.093057
 658.647099,  422.796827
 664.326665,  422.500597
 670.006232,  422.204367
 675.685798,  421.908137
 681.365365,  421.611907
 687.044931,  421.315678
 692.724498,  421.019448
 698.404064,  420.723218
 704.083882,  420.426879
 709.763722,  420.130532
 715.443562,  419.834184
 721.123402,  419.537836
 726.803242,  419.241489
 732.483082,  418.945141
 738.162922,  418.648793
 743.842762,  418.352446
 749.522601,  418.056098
 755.202441,  417.759750
 760.882527,  417.463464
 766.562633,  417.167183
 772.242739,  416.870902
 777.922846,  416.574621
 783.602952,  416.278340
 789.283058,  415.982058
 794.963164,  415.685777
 800.643271,  415.389496
 806.323377,  415.093215
 812.003483,  414.796934
 817.683809,  414.500778
 823.364154,  414.204633
 829.044499,  413.908488
 834.724843,  413.612343
 840.405188,  413.316198
 846.085533,  413.020053
 851.765878,  412.723908
 857.446222,  412.427763
 863.126567,  412.131618
 868.806912,  411.835473
 874.487466,  411.539416
 880.168038,  411.243365
 885.848610,  410.947315
 891.529182,  410.651265
 897.209754,  410.355215
 902.890326,  410.059165
 908.570898,  409.763114
 914.251470,  409.467064
 919.932042,  409.171014
 925.612614,  408.874964
 931.293430,  408.578794
 936.974268,  408.282615
 942.655106,  407.986435
 948.335943,  407.690255
 954.016781,  407.394075
 959.697619,  407.097896
 965.378456,  406.801716
 971.059294,  406.505536
 976.740132,  406.209356
 982.420969,  405.913177
 988.102048,  405.617044
 993.783147,  405.320916
 999.464246,  405.024788
1005.145346,  404.728660
1010.826445,  404.432531
1016.507544,  404.136403
1022.188643,  403.840275
1027.869742,  403.544147
1033.550841,  403.248019
1039.231941,  402.951890
1044.913258,  402.655872
1050.594593,  402.359863
1056.275929,  402.063854
1061.957265,  401.767845
1067.638600,  401.471836
1073.319936,  401.175827
1079.001272,  400.879818
1084.682608,  400.583809
1090.363943,  400.287800
1096.045279,  399.991791
1101.726825,  399.695853
1107.408389,  399.399921
1113.089954,  399.103989
1118.771518,  398.808057
1124.453082,  398.512125
1130.134646,  398.216193
1135.816210,  397.920261
1141.497774,  397.624329
1147.179339,  397.328397
1152.860903,  397.032465
1158.542716,  396.736398
1164.224550,  396.440318
1169.906384,  396.144239
1175.588219,  395.848159
1181.270053,  395.552080
1186.951887,  395.256000
1192.633721,  394.959921
1198.315555,  394.663841
1203.997390,  394.367762
1209.679224,  394.071682
1215.361306,  393.775635
1221.043409,  393.479591
1226.725511,  393.183546
1232.407614,  392.887502
1238.089717,  392.591458
1243.771820,  392.295413
1249.453923,  391.999369
1255.136026,  391.703324
1260.818129,  391.407280
1266.500232,  391.111236
1272.182561,  390.815288
1277.864910,  390.519349
1283.547259,  390.223409
1289.229608,  389.927470
1294.911957,  389.631531
1300.594306,  389.335591
1306.276655,  389.039652
1311.959004,  388.743713
1317.641352,  388.447774
1323.323701,  388.151834
1329.006271,  387.855955
1334.688860,  387.560082
1340.371449,  387.264208
1346.054037,  386.968335
1351.736626,  386.672461
1357.419215,  386.376587
1363.101804,  386.080714
1368.784392,  385.784840
1374.466981,  385.488966
1380.149570,  385.193093
1385.832419,  384.897076
1391.515291,  384.601046
1397.198162,  384.305017
1402.881034,  384.008987
1408.563905,  383.712958
1414.246776,  383.416929
1419.929648,  383.120899
1425.612519,  382.824870
1431.295391,  382.528841
1436.978262,  382.232811
1442.661393,  381.936810
1448.344547,  381.640812
1454.027700,  381.344814
1459.710853,  381.048815
1465.394007,  380.752817
1471.077160,  380.456818
1476.760313,  380.160820
1482.443467,  379.864821
1488.126620,  379.568823
1493.809773,  379.272824
1499.493165,  378.976923
1505.176578,  378.681029
1510.859990,  378.385136
1516.543402,  378.089242
1522.226815,  377.793348
1527.910227,  377.497455
1533.593640,  377.201561
1539.277052,  376.905668
1544.960465,  376.609774
1550.643877,  376.313881
1556.327522,  376.018051
1562.011186,  375.722226
1567.694851,  375.426402
1573.378516,  375.130577
1579.062180,  374.834753
1584.745845,  374.538928
1590.429509,  374.243104
1596.113174,  373.947279
1601.796839,  373.651455
1607.480503,  373.355631
1613.164438,  373.059669
1618.848397,  372.763695
1624.532355,  372.467721
1630.216314,  372.171747
1635.900272,  371.875774
1641.584230,  371.579800
1647.268189,  371.283826
1652.952147,  370.987852
1658.636105,  370.691879
1664.320064,  370.395905
1670.004291,  370.099969
1675.688540,  369.804035
1681.372790,  369.508102
1687.057039,  369.212169
1692.741289,  368.916235
1698.425538,  368.620302
1704.109788,  368.324369
1709.794038,  368.028436
1715.478287,  367.732502
1721.162537,  367.436569
1726.847032,  367.140743
1732.531548,  366.844927
1738.216063,  366.549110
1743.900579,  366.253294
1749.585095,  365.957477
1755.269611,  365.661660
1760.954127,  365.365844
1766.638643,  365.070027
1772.323159,  364.774211
1778.007674,  364.478394
1783.692427,  364.182653
1789.377200,  363.886919
1795.061973,  363.591184
1800.746746,  363.295450
1806.431519,  362.999716
1812.116292,  362.703981
1817.801065,  362.408247
1823.485838,  362.112512
1829.170610,  361.816778
1834.855383,  361.521044
1840.540429,  361.225184
1846.225499,  360.929313
1851.910568,  360.633443
1857.595637,  360.337573
1863.280706,  360.041702
1868.965775,  359.745832
1874.650845,  359.449961
1880.335914,  359.154091
1886.020983,  358.858221
1891.706052,  358.562350
1897.391390,  358.266529
1903.076751,  357.970713
1908.762112,  357.674896
1914.447472,  357.379080
1920.132833,  357.083263
1925.818194,  356.787446
1931.503554,  356.491630
1937.188915,  356.195813
1942.874276,  355.899996
1948.559636,  355.604180
1954.245241,  355.308482
1959.930866,  355.012794
1965.616491,  354.717107
1971.302116,  354.421419
1976.987741,  354.125732
1982.673366,  353.830044
1988.358991,  353.534356
1994.044617,  353.238669
1999.730242,  352.942981
2005.415867,  352.647293
2011.101725,  352.351691
2016.787604,  352.056096
2022.473483,  351.760502
2028.159361,  351.464907
2033.845240,  351.169312
2039.531118,  350.873717
2045.216997,  350.578122
2050.902875,  350.282527
2056.588754,  349.986932
2062.274632,  349.691338
2067.960780,  349.395625
2073.646950,  349.099902
2079.333120,  348.804179
2085.019290,  348.508456
2090.705460,  348.212733
2096.391630,  347.917010
2102.077800,  347.621288
2107.763970,  347.325565
2113.450140,  347.029842
2119.136310,  346.734119
2124.822743,  346.438451
2130.509199,  346.142787
2136.195654,  345.847124
2141.882110,  345.551460
2147.568566,  345.255797
2153.255021,  344.960133
2158.941477,  344.664470
2164.627933,  344.368806
2170.314389,  344.073143
2176.000844,  343.777479
2181.687538,  343.481937
2187.374252,  343.186406
2193.060966,  342.890874
2198.747680,  342.595343
2204.434394,  342.299811
2210.121108,  342.004279
2215.807822,  341.708748
2221.494536,  341.413216
2227.181250,  341.117684
2232.867964,  340.822153
2238.554906,  340.526707
2244.241868,  340.231268
2249.928829,  339.935829
2255.615791,  339.640390
2261.302752,  339.344951
2266.989714,  339.049512
2272.676675,  338.754073
2278.363636,  338.458634
2284.050598,  338.163195
2289.737559,  337.867756
2295.424785,  337.572196
2301.112032,  337.276626
2306.799280,  336.981056
2312.486527,  336.685486
2318.173775,  336.389916
2323.861023,  336.094346
2329.548270,  335.798775
2335.235518,  335.503205
2340.922765,  335.207635
2346.610013,  334.912065
2352.297520,  334.616545
2357.985049,  334.321028
2363.672578,  334.025512
2369.360107,  333.729996
2375.047636,  333.434480
2380.735165,  333.138964
2386.422694,  332.843448
2392.110223,  332.547932
2397.797752,  332.252415
2403.485281,  331.956899
2409.173046,  331.661498
2414.860830,  331.366106
2420.548614,  331.070715
2426.236399,  330.775323
2431.924183,  330.479932
2437.611968,  330.184540
2443.299752,  329.889148
2448.987536,  329.593757
2454.675321,  329.298365
2460.363105,  329.002974
2466.051116,  328.707659
2471.739147,  328.412351
2477.427177,  328.117044
2483.115208,  327.821736
2488.803238,  327.526428
2494.491269,  327.231120
2500.179299,  326.935812
2505.867330,  326.640505
2511.555361,  326.345197
2517.243391,  326.049889
2522.931686,  325.754451
2528.620003,  325.459002
2534.308320,  325.163553
2539.996637,  324.868103
2545.684954,  324.572654
2551.373271,  324.277205
2557.061589,  323.981756
2562.749906,  323.686307
2568.438223,  323.390858
2574.126540,  323.095409
2579.815119,  322.800000
2585.503719,  322.504594
2591.192320,  322.209189
2596.880921,  321.913784
2602.569522,  321.618378
2608.258123,  321.322973
2613.946724,  321.027568
2619.635325,  320.732162
2625.323925,  320.436757
2631.012526,  320.141352
2636.701366,  319.846052
2642.390226,  319.550762
2648.079086,  319.255471
2653.767947,  318.960181
2659.456807,  318.664890
2665.145667,  318.369599
2670.834527,  318.074309
2676.523387,  317.779018
2682.212247,  317.483728
2687.901107,  317.188437
2693.590199,  316.893216
2699.279311,  316.598000
2704.968423,  316.302784
2710.657535,  316.007569
2716.346646,  315.712353
2722.035758,  315.417137
2727.724870,  315.121921
2733.413982,  314.826706
2739.103093,  314.531490
2744.792205,  314.236274
2750.481587,  313.940921
2756.170992,  313.645556
2761.860397,  313.350191
2767.549803,  313.054826
2773.239208,  312.759461
2778.928613,  312.464096
2784.618018,  312.168731
2790.307423,  311.873366
2795.996828,  311.578001
2801.686233,  311.282636
2807.375907,  310.987306
2813.065604,  310.691979
2818.755300,  310.396652
2824.444997,  310.101325
2830.134693,  309.805998
2835.824390,  309.510671
2841.514087,  309.215344
2847.203783,  308.920017
2852.893480,  308.624690
2858.583176,  308.329363
2864.273119,  308.034138
2869.963084,  307.738922
2875.653048,  307.443706
2881.343012,  307.148490
2887.032976,  306.853274
2892.722940,  306.558058
2898.412904,  306.262842
2904.102869,  305.967626
2909.792833,  305.672410
2915.482797,  305.377194
2921.173001,  305.082045
2926.863225,  304.786902
2932.553449,  304.491760
2938.243673,  304.196617
2943.933898,  303.901474
2949.624122,  303.606331
2955.314346,  303.311188
2961.004570,  303.016046
2966.694794,  302.720903
2972.385019,  302.425760
2978.075521,  302.130480
2983.766047,  301.835188
2989.456573,  301.539896
2995.147099,  301.244604
3000.837625,  300.949312
3006.528151,  300.654020
3012.218677,  300.358728
3017.909203,  300.063437
3023.599729,  299.768145
3029.290255,  299.472853
3034.981057,  299.177598
3040.671882,  298.882347
3046.362708,  298.587095
3052.053533,  298.291844
3057.744358,  297.996593
3063.435183,  297.701341
3069.126009,  297.406090
3074.816834,  297.110838
3080.507659,  296.815587
3086.198485,  296.520336
3091.889563,  296.225191
3097.580663,  295.930055
3103.271763,  295.634919
3108.962863,  295.339783
3114.653962,  295.044647
3120.345062,  294.749511
3126.036162,  294.454375
3131.727262,  294.159240
3137.418362,  293.864104
3143.109462,  293.568968
3148.800807,  293.273905
3154.492173,  292.978848
3160.183538,  292.683791
3165.874904,  292.388735
3171.566270,  292.093678
3177.257636,  291.798621
3182.949002,  291.503564
3188.640368,  291.208508
3194.331734,  290.913451
3200.023099,  290.618394
3205.714748,  290.323206
3211.406420,  290.028007
3217.098092,  289.732808
3222.789765,  289.437609
3228.481437,  289.142409
3234.173109,  288.847210
3239.864782,  288.552011
3245.556454,  288.256812
3251.248127,  287.961613
3256.939799,  287.666414
3262.631750,  287.371259
3268.323725,  287.076108
3274.015700,  286.780957
3279.707675,  286.485805
3285.399650,  286.190654
3291.091625,  285.895503
3296.783600,  285.600352
3302.475575,  285.305201
3308.167551,  285.010050
3313.859526,  284.714899
3319.551755,  284.419861
3325.244006,  284.124834
3330.936257,  283.829806
3336.628508,  283.534778
3342.320759,  283.239750
3348.013010,  282.944722
3353.705261,  282.649695
3359.397512,  282.354667
3365.089763,  282.059639
3370.782014,  281.764611
3376.474509,  281.469663
3382.167025,  281.174722
3387.859541,  280.879780
3393.552057,  280.584839
3399.244573,  280.289897
3404.937089,  279.994956
3410.629605,  279.700014
3416.322121,  279.405073
3422.014637,  279.110131
3427.707153,  278.815190
3433.399947,  278.520122
3439.092766,  278.225043
3444.785584,  277.929964
3450.478402,  277.634886
3456.171221,  277.339807
3461.864039,  277.044728
3467.556857,  276.749650
3473.249675,  276.454571
3478.942494,  276.159492
3484.635312,  275.864414
3490.328404,  275.569382
3496.021520,  275.274354
3501.714636,  274.979327
3507.407751,  274.684299
3513.100867,  274.389272
3518.793982,  274.094244
3524.487098,  273.799217
3530.180214,  273.504189
3535.873329,  273.209161
3541.566445,  272.914134
3547.259809,  272.619220
3552.953195,  272.324317
3558.646581,  272.029413
3564.339966,  271.734509
3570.033352,  271.439605
3575.726738,  271.144702
3581.420123,  270.849798
3587.113509,  270.554894
3592.806895,  270.259991
3598.500280,  269.965087
3604.193905,  269.670260
3609.887550,  269.375441
3615.581194,  269.080621
3621.274839,  268.785801
3626.968484,  268.490981
3632.662129,  268.196161
3638.355774,  267.901341
3644.049419,  267.606522
3649.743064,  267.311702
3655.436709,  267.016882
3661.130628,  266.721931
3666.824570,  266.426969
3672.518513,  266.132006
3678.212455,  265.837044
3683.906398,  265.542082
3689.600340,  265.247119
3695.294282,  264.952157
3700.988225,  264.657195
3706.682167,  264.362232
3712.376110,  264.067270
3718.070323,  263.772348
3723.764560,  263.477430
3729.458796,  263.182511
3735.153032,  262.887593
3740.847269,  262.592674
3746.541505,  262.297756
3752.235742,  262.002838
3757.929978,  261.707919
3763.624214,  261.413001
3769.318451,  261.118082
3775.012934,  260.823270
3780.707439,  260.528467
3786.401944,  260.233663
3792.096448,  259.938860
3797.790953,  259.644057
3803.485458,  259.349253
3809.179962,  259.054450
3814.874467,  258.759647
3820.568972,  258.464843
3826.263476,  258.170040
3831.958220,  257.875305
3837.652983,  257.580575
3843.347747,  257.285846
3849.042511,  256.991117
3854.737275,  256.696387
3860.432039,  256.401658
3866.126802,  256.106929
3871.821566,  255.812199
3877.516330,  255.517470
3883.211094,  255.222741
3888.906133,  254.927870
3894.601197,  254.632987
3900.296260,  254.338105
3905.991323,  254.043222
3911.686386,  253.748340
3917.381450,  253.453457
3923.076513,  253.158575
3928.771576,  252.863692
3934.466639,  252.568810
3940.161702,  252.273927
3945.857040,  251.979076
3951.552401,  251.684227
3957.247761,  251.389378
3962.943122,  251.094529
3968.638483,  250.799680
3974.333844,  250.504831
3980.029204,  250.209982
3985.724565,  249.915133
3991.419926,  249.620285
3997.115287,  249.325436
4002.810899,  249.030684
4008.506533,  248.735941
4014.202168,  248.441198
4019.897802,  248.146455
4025.593436,  247.851711
4031.289070,  247.556968
4036.984704,  247.262225
4042.680338,  246.967482
4048.375972,  246.672739
4054.071607,  246.377996
4059.767449,  246.083577
4065.463308,  245.789187
4071.159168,  245.494796
4076.855028,  245.200405
4082.550888,  244.906014
4088.246747,  244.611624
4093.942607,  244.317233
4099.638467,  244.022842
4105.334326,  243.728451
4111.030186,  243.434061
4116.726236,  243.139673
4122.422302,  242.845286
4128.118367,  242.550899
4133.814433,  242.256512
4139.510499,  241.962124
4145.206565,  241.667737
4150.902631,  241.373350
4156.598697,  241.078963
4162.294762,  240.784575
4167.990828,  240.490188
4173.687116,  240.195772
4179.383423,  239.901353
4185.079730,  239.606935
4190.776036,  239.312516
4196.472343,  239.018097
4202.168650,  238.723679
4207.864957,  238.429260
4213.561264,  238.134841
4219.257570,  237.840423
4224.953877,  237.546004
4230.650379,  237.251692
4236.346897,  236.957390
4242.043415,  236.663087
4247.739933,  236.368784
4253.436451,  236.074481
4259.132970,  235.780179
4264.829488,  235.485876
4270.526006,  235.191573
4276.222524,  234.897270
4281.919042,  234.602968
4287.615790,  234.308544
4293.312557,  234.014110
4299.009324,  233.719675
4304.706091,  233.425241
4310.402858,  233.130807
4316.099625,  232.836373
4321.796392,  232.541938
4327.493160,  232.247504
4333.189927,  231.953070
4338.886694,  231.658636
4344.583688,  231.364236
4350.280703,  231.069839
4355.977717,  230.775442
4361.674731,  230.481045
4367.371745,  230.186648
4373.068759,  229.892252
4378.765773,  229.597855
4384.462787,  229.303458
4390.159801,  229.009061
4395.856815,  228.714664
4401.554048,  228.420191
4407.251299,  228.125710
4412.948550,  227.831230
4418.645801,  227.536750
4424.343052,  227.242270
4430.040303,  226.947790
4435.737554,  226.653310
4441.434805,  226.358830
4447.132056,  226.064350
4452.829307,  225.769870
4458.526905,  225.474992
4464.224531,  225.180081
4469.922158,  224.885170
4475.619785,  224.590259
4481.317411,  224.295347
4487.015038,  224.000436
4492.712665,  223.705525
4498.410292,  223.410614
4504.107918,  223.115702
4509.805545,  222.820791
4515.503490,  222.525790
4521.201461,  222.230782
4526.899433,  221.935773
4532.597405,  221.640765
4538.295376,  221.345757
4543.993348,  221.050748
4549.691320,  220.755740
4555.389292,  220.460731
4561.087263,  220.165723
4566.785235,  219.870714
4572.483634,  219.575314
4578.182070,  219.279880
4583.880506,  218.984446
4589.578941,  218.689012
4595.277377,  218.393578
4600.975813,  218.098143
4606.674249,  217.802709
4612.372684,  217.507275
4618.071120,  217.211841
4623.769556,  216.916407
4629.468400,  216.620984
4635.167279,  216.325561
4640.866157,  216.030139
4646.565036,  215.734716
4652.263915,  215.439293
4657.962794,  215.143871
4663.661673,  214.848448
4669.360552,  214.553026
4675.059431,  214.257603
4680.758310,  213.962181
4686.457569,  213.666879
4692.156860,  213.371588
4697.856152,  213.076297
4703.555443,  212.781006
4709.254735,  212.485715
4714.954026,  212.190424
4720.653318,  211.895133
4726.352609,  211.599842
4732.051901,  211.304551
4737.751192,  211.009260
4743.450873,  210.713847
4749.150587,  210.418424
4754.850300,  210.123001
4760.550014,  209.827577
4766.249728,  209.532154
4771.949442,  209.236731
4777.649155,  208.941307
4783.348869,  208.645884
4789.048583,  208.350461
4794.748296,  208.055038
4800.448523,  207.759229
4806.148793,  207.463388
4811.849063,  207.167546
4817.549333,  206.871705
4823.249603,  206.575863
4828.949872,  206.280022
4834.650142,  205.984180
4840.350412,  205.688339
4846.050682,  205.392498
4851.750952,  205.096656
4857.451695,  204.800844
4863.152478,  204.505035
4868.853262,  204.209226
4874.554045,  203.913417
4880.254828,  203.617608
4885.955611,  203.321799
4891.656394,  203.025990
4897.357178,  202.730181
4903.057961,  202.434372
4908.758744,  202.138562
4914.460028,  201.842649
4920.161354,  201.546727
4925.862681,  201.250806
4931.564007,  200.954884
4937.265333,  200.658962
4942.966660,  200.363040
4948.667986,  200.067118
4954.369313,  199.771196
4960.070639,  199.475274
4965.771965,  199.179352
4971.473798,  198.883323
4977.175673,  198.587286
4982.877548,  198.291248
4988.579423,  197.995210
4994.281299,  197.699173
4999.983174,  197.403135
5005.685049,  197.107097
5011.386924,  196.811059
5017.088800,  196.515022
5022.790675,  196.218984
5028.493155,  195.922598
5034.195688,  195.626183
5039.898220,  195.329767
5045.600752,  195.033351
5051.303284,  194.736936
5057.005816,  194.440520
5062.708348,  194.144105
5068.410881,  193.847689
5074.113413,  193.551274
5079.815945,  193.254858
5085.519072,  192.958307
5091.222250,  192.661745
5096.925428,  192.365183
5102.628605,  192.068621
5108.331783,  191.772059
5114.034961,  191.475497
5119.738139,  191.178935
5125.441317,  190.882373
5131.144495,  190.585811
5136.847673,  190.289249
5142.551543,  189.992341
5148.255473,  189.695403
5153.959403,  189.398465
5159.663333,  189.101527
5165.367263,  188.804589
5171.071193,  188.507651
5176.775123,  188.210713
5182.479053,  187.913776
5188.182983,  187.616838
5193.886913,  187.319900
5199.591484,  187.023176
5205.296110,  186.726472
5211.000736,  186.429767
5216.705362,  186.133062
5222.409988,  185.836357
5228.114615,  185.539652
5233.819241,  185.242947
5239.523867,  184.946242
5245.228493,  184.649537
5250.933119,  184.352832
5256.638367,  184.056115
5262.343667,  183.759397
5268.048968,  183.462679
5273.754269,  183.165961
5279.459569,  182.869243
5285.164870,  182.572525
5290.870171,  182.275808
5296.575472,  181.979090
5302.280772,  181.682372
5307.986073,  181.385654
5313.691984,  181.089153
5319.397948,  180.792670
5325.103911,  180.496188
5330.809874,  180.199705
5336.515838,  179.903223
5342.221801,  179.606740
5347.927764,  179.310258
5353.633728,  179.013775
5359.339691,  178.717293
5365.045654,  178.420810
5370.752211,  178.124307
5376.458817,  177.827802
5382.165424,  177.531296
5387.872030,  177.234791
5393.578637,  176.938286
5399.285243,  176.641781
5404.991850,  176.345275
5410.698456,  176.048770
5416.405063,  175.752265
5422.111670,  175.455760
5427.818862,  175.159452
5433.526103,  174.863162
5439.233345,  174.566872
5444.940587,  174.270581
5450.647829,  173.974291
5456.355071,  173.678000
5462.062313,  173.381710
5467.769555,  173.085419
5473.476797,  172.789129
5479.184039,  172.492839
5484.891844,  172.196548
5490.599696,  171.900257
5496.307549,  171.603967
5502.015402,  171.307676
5507.723254,  171.011385
5513.431107,  170.715095
5519.138960,  170.418804
5524.846812,  170.122513
5530.554665,  169.826222
5536.262518,  169.529932
5541.970969,  169.233481
5547.679472,  168.937016
5553.387974,  168.640552
5559.096477,  168.344087
5564.804979,  168.047622
5570.513482,  167.751158
5576.221984,  167.454693
5581.930487,  167.158229
5587.638989,  166.861764
5593.347492,  166.565300
5599.056696,  166.268462
5604.765960,  165.971593
5610.475224,  165.674724
5616.184488,  165.377855
5621.893751,  165.080986
5627.603015,  164.784117
5633.312279,  164.487248
5639.021543,  164.190379
5644.730807,  163.893510
5650.440071,  163.596641
5656.149988,  163.299963
5661.859962,  163.003302
5667.569935,  162.706641
5673.279909,  162.409980
5678.989882,  162.113319
5684.699856,  161.816658
5690.409829,  161.519997
5696.119803,  161.223336
5701.829776,  160.926675
5707.539750,  160.630014
5713.250360,  160.333320
5718.961026,  160.036623
5724.671691,  159.739926
5730.382356,  159.443228
5736.093021,  159.146531
5741.803687,  158.849834
5747.514352,  158.553137
5753.225017,  158.256440
5758.935683,  157.959743
5764.646348,  157.663046
5770.357642,  157.366549
5776.068991,  157.070069
5781.780339,  156.773589
5787.491687,  156.477109
5793.203035,  156.180629
5798.914384,  155.884149
5804.625732,  155.587669
5810.337080,  155.291189
5816.048429,  154.994709
5821.759777,  154.698229
5827.471739,  154.401715
5833.183753,  154.105198
5838.895767,  153.808681
5844.607781,  153.512164
5850.319795,  153.215647
5856.031809,  152.919130
5861.743822,  152.622613
5867.455836,  152.326096
5873.167850,  152.029579
5878.879864,  151.733062
5884.592486,  151.436736
5890.305159,  151.140426
5896.017832,  150.844116
5901.730505,  150.547806
5907.443178,  150.251496
5913.155851,  149.955186
5918.868525,  149.658876
5924.581198,  149.362566
5930.293871,  149.066256
5936.006544,  148.769946
5941.719802,  148.473633
5947.433110,  148.177320
5953.146417,  147.881006
5958.859725,  147.584693
5964.573033,  147.288380
5970.286341,  146.992067
5975.999649,  146.695754
5981.712956,  146.399441
5987.426264,  146.103127
5993.139572,  145.806814
5998.853500,  145.510343
6004.567481,  145.213858
6010.281462,  144.917373
6015.995443,  144.620888
6021.709424,  144.324403
6027.423405,  144.027918
6033.137386,  143.731433
6038.851367,  143.434948
6044.565349,  143.138463
6050.279330,  142.841978
6055.994032,  142.545127
6061.708797,  142.248244
6067.423561,  141.951361
6073.138326,  141.654478
6078.853090,  141.357595
6084.567855,  141.060712
6090.282619,  140.763829
6095.997384,  140.466946
6101.712148,  140.170063
6107.426913,  139.873180
6113.142349,  139.576501
6118.857842,  139.279840
6124.573336,  138.983178
6130.288830,  138.686517
6136.004323,  138.389855
6141.719817,  138.093194
6147.435311,  137.796533
6153.150804,  137.499871
6158.866298,  137.203210
6164.581791,  136.906548
6170.297938,  136.609868
6176.014139,  136.313187
6181.730341,  136.016506
6187.446543,  135.719825
6193.162745,  135.423143
6198.878947,  135.126462
6204.595149,  134.829781
6210.311351,  134.533099
6216.027553,  134.236418
6221.743755,  133.939737
6227.460598,  133.643274
6233.177496,  133.346829
6238.894394,  133.050385
6244.611292,  132.753941
6250.328190,  132.457496
6256.045088,  132.161052
6261.761986,  131.864608
6267.478884,  131.568163
6273.195782,  131.271719
6278.912680,  130.975274
6284.630200,  130.678814
6290.347774,  130.382353
6296.065347,  130.085892
6301.782920,  129.789430
6307.500493,  129.492969
6313.218067,  129.196508
6318.935640,  128.900046
6324.653213,  128.603585
6330.370787,  128.307124
6336.088360,  128.010662
6341.806546,  127.714411
6347.524784,  127.418178
6353.243023,  127.121945
6358.961261,  126.825712
6364.679499,  126.529478
6370.397738,  126.233245
6376.115976,  125.937012
6381.834214,  125.640779
6387.552453,  125.344546
6393.270691,  125.048313
6398.989527,  124.752046
6404.708413,  124.455776
6410.427300,  124.159506
6416.146186,  123.863236
6421.865072,  123.566966
6427.583959,  123.270696
6433.302845,  122.974426
6439.021732,  122.678156
6444.740618,  122.381886
6450.459505,  122.085616
6456.179019,  121.789208
6461.898586,  121.492788
6467.618154,  121.196367
6473.337721,  120.899947
6479.057289,  120.603527
6484.776857,  120.307107
6490.496424,  120.010687
6496.215992,  119.714267
6501.935559,  119.417847
6507.655127,  119.121426
6513.375421,  118.824658
6519.095776,  118.527860
6524.816132,  118.231062
6530.536487,  117.934263
6536.256843,  117.637465
6541.977198,  117.340667
6547.697554,  117.043869
6553.417910,  116.747071
6559.138265,  116.450273
6564.858621,  116.153475
6570.579649,  115.856900
6576.300735,  115.560344
6582.021820,  115.263788
6587.742906,  114.967233
6593.463992,  114.670677
6599.185078,  114.374121
6604.906163,  114.077565
6610.627249,  113.781010
6616.348335,  113.484454
6622.069420,  113.187898
6627.791157,  112.891340
6633.512949,  112.594781
6639.234741,  112.298223
6644.956533,  112.001664
6650.678325,  111.705106
6656.400118,  111.408547
6662.121910,  111.111988
6667.843702,  110.815430
6673.565494,  110.518871
6679.287286,  110.222313
6685.009716,  109.925986
6690.732200,  109.629678
6696.454684,  109.333371
6702.177168,  109.037064
6707.899652,  108.740756
6713.622136,  108.444449
6719.344620,  108.148142
6725.067105,  107.851835
6730.789589,  107.555527
6736.512073,  107.259220
6742.235174,  106.962905
6747.958328,  106.666590
6753.681482,  106.370275
6759.404636,  106.073959
6765.127789,  105.777644
6770.850943,  105.481329
6776.574097,  105.185013
6782.297251,  104.888698
6788.020405,  104.592383
6793.743559,  104.296067
6799.467320,  103.999967
6805.191132,  103.703886
6810.914945,  103.407804
6816.638758,  103.111722
6822.362571,  102.815640
6828.086384,  102.519559
6833.810196,  102.223477
6839.534009,  101.927395
6845.257822,  101.631313
6850.981635,  101.335231
6856.706039,  101.039115
6862.430494,  100.742996
6868.154949,  100.446877
6873.879404,  100.150758
6879.603859,   99.854639
6885.328314,   99.558520
6891.052769,   99.262401
6896.777224,   98.966282
6902.501678,   98.670163
6908.226133,   98.374044
6913.951212,   98.077782
6919.676343,   97.781507
6925.401474,   97.485232
6931.126605,   97.188958
6936.851737,   96.892683
6942.576868,   96.596408
6948.301999,   96.300133
6954.027130,   96.003859
6959.752262,   95.707584
6965.477393,   95.411309
6971.203248,   95.114677
6976.929164,   94.818013
6982.655081,   94.521350
6988.380997,   94.224687
6994.106914,   93.928024
6999.832830,   93.631361
7005.558747,   93.334698
7011.284663,   93.038035
7017.010580,   92.741371
7022.736496,   92.444708
7028.463085,   92.148258
7034.189731,   91.851826
7039.916377,   91.555394
7045.643023,   91.258962
7051.369669,   90.962530
7057.096315,   90.666098
7062.822961,   90.369666
7068.549606,   90.073234
7074.276252,   89.776802
7080.002898,   89.480370
7085.730197,   89.183922
7091.457551,   88.887472
7097.184905,   88.591023
7102.912259,   88.294573
7108.639614,   87.998123
7114.366968,   87.701673
7120.094322,   87.405224
7125.821676,   87.108774
7131.549030,   86.812324
7137.276385,   86.515875
7143.004381,   86.219643
7148.732432,   85.923429
7154.460482,   85.627215
7160.188533,   85.331002
7165.916584,   85.034788
7171.644635,   84.738574
7177.372686,   84.442360
7183.100737,   84.146147
7188.828788,   83.849933
7194.556838,   83.553719
7200.285513,   83.257483
7206.014242,   82.961244
7211.742970,   82.665006
7217.471698,   82.368767
7223.200426,   82.072528
7228.929154,   81.776290
7234.657882,   81.480051
7240.386610,   81.183812
7246.115338,   80.887574
7251.844067,   80.591335
7257.573411,   80.295298
7263.302809,   79.999277
7269.032206,   79.703257
7274.761604,   79.407236
7280.491001,   79.111216
7286.220398,   78.815195
7291.949796,   78.519175
7297.679193,   78.223154
7303.408590,   77.927134
7309.137988,   77.631113
7314.867988,   77.335045
7320.598039,   77.038972
7326.328091,   76.742899
7332.058142,   76.446826
7337.788193,   76.150753
7343.518245,   75.854680
7349.248296,   75.558607
7354.978347,   75.262534
7360.708399,   74.966461
7366.438450,   74.670388
7372.169136,   74.374159
7377.899876,   74.077916
7383.630617,   73.781674
7389.361357,   73.485431
7395.092097,   73.189189
7400.822837,   72.892946
7406.553578,   72.596704
7412.284318,   72.300462
7418.015058,   72.004219
7423.745798,   71.707977
7429.477273,   71.411364
7435.208810,   71.114720
7440.940348,   70.818075
7446.671885,   70.521431
7452.403422,   70.224787
7458.134960,   69.928142
7463.866497,   69.631498
7469.598035,   69.334854
7475.329572,   69.038209
7481.061109,   68.741565
7486.793331,   68.445125
7492.525612,   68.148703
7498.257892,   67.852280
7503.990172,   67.555858
7509.722453,   67.259436
7515.454733,   66.963014
7521.187013,   66.666591
7526.919294,   66.370169
7532.651574,   66.073747
7538.383854,   65.777324
7544.116798,   65.480878
7549.849799,   65.184430
7555.582799,   64.887982
7561.315799,   64.591534
7567.048800,   64.295086
7572.781800,   63.998638
7578.514801,   63.702190
7584.247801,   63.405742
7589.980802,   63.109294
7595.713802,   62.812846
7601.447455,   62.516610
7607.181164,   62.220393
7612.914873,   61.924175
7618.648582,   61.627957
7624.382291,   61.331739
7630.116000,   61.035522
7635.849709,   60.739304
7641.583418,   60.443086
7647.317127,   60.146868
7653.050836,   59.850651
7658.785178,   59.554405
7664.519574,   59.258157
7670.253969,   58.961909
7675.988365,   58.665661
7681.722761,   58.369413
7687.457157,   58.073165
7693.191553,   57.776917
7698.925948,   57.480669
7704.660344,   57.184421
7710.394740,   56.888174
7716.129761,   56.592123
7721.864835,   56.296090
7727.599910,   56.000056
7733.334984,   55.704022
7739.070058,   55.407989
7744.805133,   55.111955
7750.540207,   54.815922
7756.275281,   54.519888
7762.010356,   54.223855
7767.745430,   53.927821
7773.481114,   53.631735
7779.216850,   53.335645
7784.952586,   53.039555
7790.688323,   52.743465
7796.424059,   52.447375
7802.159795,   52.151284
7807.895531,   51.855194
7813.631267,   51.559104
7819.367003,   51.263014
7825.102739,   50.966924
7830.839118,   50.670673
7836.575550,   50.374409
7842.311983,   50.078145
7848.048416,   49.781880
7853.784849,   49.485616
7859.521282,   49.189352
7865.257715,   48.893088
7870.994148,   48.596823
7876.730581,   48.300559
7882.467013,   48.004295
7888.204189,   47.707655
7893.941428,   47.410984
7899.678666,   47.114312
7905.415905,   46.817641
7911.153144,   46.520969
7916.890383,   46.224298
7922.627622,   45.927627
7928.364861,   45.630955
7934.102099,   45.334284
7939.839338,   45.037612
7945.577270,   44.741143
7951.315261,   44.444691
7957.053252,   44.148240
7962.791243,   43.851788
7968.529234,   43.555336
7974.267225,   43.258884
7980.005215,   42.962432
7985.743206,   42.665981
7991.481197,   42.369529
7997.219188,   42.073077
8002.957851,   41.776599
8008.696572,   41.480119
8014.435292,   41.183639
8020.174013,   40.887158
8025.912734,   40.590678
8031.651454,   40.294198
8037.390175,   39.997718
8043.128895,   39.701237
8048.867616,   39.404757
8054.606336,   39.108277
8060.345719,   38.812008
8066.085157,   38.515757
8071.824596,   38.219506
8077.564035,   37.923255
8083.303474,   37.627004
8089.042912,   37.330753
8094.782351,   37.034502
8100.521790,   36.738251
8106.261229,   36.442000
8112.000667,   36.145749
8117.740748,   35.849469
8123.480884,   35.553186
8129.221019,   35.256904
8134.961155,   34.960621
8140.701290,   34.664339
8146.441425,   34.368056
8152.181561,   34.071774
8157.921696,   33.775491
8163.661832,   33.479209
8169.401967,   33.182927
8175.142737,   32.886842
8180.883561,   32.590775
8186.624385,   32.294707
8192.365209,   31.998640
8198.106032,   31.702572
8203.846856,   31.406504
8209.587680,   31.110437
8215.328504,   30.814369
8221.069328,   30.518302
8226.810151,   30.222234
8232.551594,   29.926115
8238.293089,   29.629991
8244.034584,   29.333867
8249.776080,   29.037743
8255.517575,   28.741619
8261.259070,   28.445495
8267.000566,   28.149372
8272.742061,   27.853248
8278.483556,   27.557124
8284.225051,   27.261000
8289.967197,   26.964716
8295.709399,   26.668419
8301.451600,   26.372121
8307.193802,   26.075824
8312.936003,   25.779526
8318.678205,   25.483229
8324.420407,   25.186931
8330.162608,   24.890634
8335.904810,   24.594336
8341.647011,   24.298039
8347.389964,   24.001366
8353.132981,   23.704662
8358.875998,   23.407957
8364.619015,   23.111252
8370.362032,   22.814548
8376.105049,   22.517843
8381.848066,   22.221139
8387.591083,   21.924434
8393.334100,   21.627730
8399.077117,   21.331025
8404.820835,   21.034526
8410.564613,   20.738044
8416.308391,   20.441563
8422.052169,   20.145081
8427.795947,   19.848599
8433.539725,   19.552118
8439.283503,   19.255636
8445.027281,   18.959154
8450.771059,   18.662673
8456.514837,   18.366191
8462.259295,   18.069685
8468.003811,   17.773178
8473.748327,   17.476670
8479.492843,   17.180163
8485.237359,   16.883655
8490.981875,   16.587147
8496.726391,   16.290640
8502.470907,   15.994132
8508.215423,   15.697624
8513.959939,   15.401117
8517.081215,   15.240000
8522.826473,   14.943739
8528.571731,   14.647477
8534.316989,   14.351216
8540.062247,   14.054955
8545.807505,   13.758694
8551.552763,   13.462432
8557.298021,   13.166171
8563.043278,   12.869910
8568.788536,   12.573648
8574.513849,   12.278423
8580.216194,   11.984392
8585.918538,   11.690360
8591.620883,   11.396328
8597.323228,   11.102296
8603.025572,   10.808265
8608.727917,   10.514233
8614.430261,   10.220201
8620.132606,    9.926169
8625.834950,    9.632138
8631.496797,    9.340186
8637.112006,    9.050631
8642.727215,    8.761076
8648.342425,    8.471520
8653.957634,    8.181965
8659.572843,    7.892410
8665.188052,    7.602854
8670.803262,    7.313299
8676.418471,    7.023744
8682.033680,    6.734188
8687.625018,    6.445874
8693.188866,    6.158988
8694.410454,    6.096000
8699.930002,    5.811109
8705.449550,    5.526218
8710.969097,    5.241327
8716.488645,    4.956436
8722.008193,    4.671545
8727.527741,    4.386654
8733.047289,    4.101763
8738.566837,    3.816872
8744.000984,    3.574492
8749.395738,    3.351722
8754.790492,    3.128951
8760.185246,    2.906181
8765.580000,    2.683411
8770.974754,    2.460640
8776.369508,    2.237870
8781.764262,    2.015100
8787.159016,    1.792329
8792.553769,    1.569559
8797.809230,    1.428306
8803.000437,    1.324656
8808.191643,    1.221005
8813.382850,    1.117355
8818.574057,    1.013705
8823.765264,    0.910055
8828.956471,    0.806404
8834.147677,    0.702754
8836.288970,    0.660000
8841.337220,    0.623104
8846.371072,    0.589780
8851.270595,    0.589780
8856.170119,    0.589780
8861.069642,    0.589780
8865.969165,    0.589780
8870.868688,    0.589780
8875.768212,    0.589780
8880.667735,    0.589780
8885.567258,    0.589780
8890.466781,    0.589780
8895.343748,    0.589780
8900.010288,    0.589780
8904.676828,    0.589780
8909.343368,    0.589780
8914.009908,    0.589780
8918.676448,    0.589780
8923.342988,    0.589780
8928.009528,    0.589780
8932.676068,    0.589780
8937.342607,    0.589780
8941.976714,    0.589780
8946.308248,    0.589780
8950.639782,    0.589780
8954.971316,    0.589780
8959.302850,    0.589780
8963.634384,    0.589780
8967.965918,    0.589780
8972.297452,    0.589780
8976.628986,    0.589780
8980.960520,    0.589780
8985.127121,    0.589780
8989.046069,    0.589780
8992.965017,    0.589780
8996.883965,    0.589780
9000.802914,    0.589780
9004.721862,    0.589780
9008.640810,    0.589780
9012.559758,    0.589780
9016.478707,    0.589780
9020.397655,    0.589780
9024.149486,    0.589780
9027.650383,    0.589780
9031.151281,    0.589780
9034.652179,    0.589780
9038.153077,    0.589780
9041.653974,    0.589780
9045.154872,    0.589780
9048.655770,    0.589780
9052.156667,    0.589780
9055.657565,    0.589780
9058.992590,    0.589780
9062.078550,    0.589780
9065.164511,    0.589780
9068.250471,    0.589780
9071.336432,    0.589780
9074.422392,    0.589780
9077.508352,    0.589780
9080.594313,    0.589780
9083.680273,    0.589780
9086.766234,    0.589780
9089.688435,    0.589780
9092.364746,    0.589780
9095.041056,    0.589780
9097.717367,    0.589780
9100.393678,    0.589780
9103.069988,    0.589780
9105.746299,    0.589780
9108.422610,    0.589780
9111.098920,    0.589780
9113.775231,    0.589780
9116.289419,    0.589780
9118.560173,    0.589780
9120.830928,    0.589780
9123.101682,    0.589780
9125.372436,    0.589780
9127.643191,    0.589780
9129.913945,    0.589780
9132.184699,    0.589780
9134.455454,    0.589780
9136.726208,    0.589780
9138.834740,    0.589780
9140.699687,    0.589780
9142.564635,    0.589780
9144.429583,    0.589780
9146.294531,    0.589780
9148.159479,    0.589780
9150.024427,    0.589780
9151.889374,    0.589780
9153.754322,    0.589780
9155.619270,    0.589780
9157.322450,    0.589780
9158.782729,    0.589780
9160.243008,    0.589780
9161.703288,    0.589780
9163.163567,    0.589780
9164.623846,    0.589780
9166.084125,    0.589780
9167.544404,    0.589780
9169.004684,    0.589780
9170.464963,    0.589780
9171.764767,    0.589780
9172.823612,    0.589780
9173.882457,    0.589780
9174.941303,    0.589780
9176.000148,    0.589780
9177.058993,    0.589780
9178.117838,    0.589780
9179.176683,    0.589780
9180.235529,    0.589780
9181.294374,    0.589780
9182.194849,    0.589780
9182.857525,    0.589780
9183.520201,    0.589780
9184.182876,    0.589780
9184.845552,    0.589780
9185.508228,    0.589780
9186.170904,    0.589780
9186.833580,    0.589780
9187.496256,    0.589780
9188.158932,    0.589780
9188.666111,    0.589780
9188.939805,    0.589780
9189.213499,    0.589780
9189.487194,    0.589780
9189.760888,    0.589780
9190.034582,    0.589780
9190.308277,    0.589780
9190.581971,    0.589780
9190.855665,    0.589780
9191.129360,    0.589780
9191.310367,    0.589780
9191.352200,    0.589780
9191.382300,    0.589780
