Time, Horizontal Forces
   0.000000,    0.000000
   0.100000,    0.049082
   0.200000,    0.535627
   0.300000,    1.076105
   0.400000,    1.616583
   0.500000,    2.157062
   0.600000,    2.697540
   0.700000,    3.238018
   0.800000,    3.778496
   0.900000,    4.318975
   1.000000,    4.859453
   1.100000,    5.399931
   1.200000,    6.708764
   1.300000,    8.113534
   1.400000,    9.518303
   1.500000,   10.923073
   1.600000,   12.327842
   1.700000,   13.732612
   1.800000,   15.137381
   1.900000,   16.542151
   2.000000,   17.946920
   2.100000,   19.351690
   2.200000,   21.499917
   2.300000,   23.740972
   2.400000,   25.982026
   2.500000,   28.223081
   2.600000,   30.464136
   2.700000,   32.705190
   2.800000,   34.946245
   2.900000,   37.187300
   3.000000,   39.428355
   3.100000,   41.669409
   3.200000,   44.628341
   3.300000,   47.676907
   3.400000,   50.725473
   3.500000,   53.774039
   3.600000,   56.822605
   3.700000,   59.871170
   3.800000,   62.919736
   3.900000,   65.968302
   4.000000,   69.016868
   4.100000,   72.065433
   4.200000,   75.805708
   4.300000,   79.632348
   4.400000,   83.458988
   4.500000,   87.285629
   4.600000,   91.112269
   4.700000,   94.938909
   4.800000,   98.765550
   4.900000,  102.592190
   5.000000,  106.418830
   5.100000,  110.245471
   5.200000,  114.737155
   5.300000,  119.311875
   5.400000,  123.886596
   5.500000,  128.461317
   5.600000,  133.036038
   5.700000,  137.610758
   5.800000,  142.185479
   5.900000,  146.760200
   6.000000,  151.334921
   6.100000,  155.909641
   6.200000,  161.114536
   6.300000,  166.398113
   6.400000,  171.681690
   6.500000,  176.965268
   6.600000,  182.248845
   6.700000,  187.532422
   6.800000,  192.816000
   6.900000,  198.099577
   7.000000,  203.383154
   7.100000,  208.666732
   7.200000,  214.533543
   7.300000,  220.473176
   7.400000,  226.412809
   7.500000,  232.352442
   7.600000,  238.292076
   7.700000,  244.231709
   7.800000,  250.171342
   7.900000,  256.110976
   8.000000,  262.050609
   8.100000,  267.990242
   8.200000,  274.477238
   8.300000,  281.032578
   8.400000,  287.587917
   8.500000,  294.143256
   8.600000,  300.698596
   8.700000,  307.253935
   8.800000,  313.809275
   8.900000,  320.364614
   9.000000,  326.919954
   9.100000,  333.475293
   9.200000,  340.542960
   9.300000,  347.674595
   9.400000,  354.806231
   9.500000,  361.937867
   9.600000,  369.069502
   9.700000,  376.201138
   9.800000,  383.332773
   9.900000,  390.464409
  10.000000,  397.596045
  10.100000,  404.727680
  10.200000,  412.337226
  10.300000,  420.006444
  10.400000,  427.675661
  10.500000,  435.344878
  10.600000,  443.014096
  10.700000,  450.683313
  10.800000,  458.352531
  10.900000,  466.021748
  11.000000,  473.690966
  11.100000,  481.360183
  11.200000,  489.473583
  11.300000,  497.642444
  11.400000,  505.811304
  11.500000,  513.980165
  11.600000,  522.149025
  11.700000,  530.317886
  11.800000,  538.486746
  11.900000,  546.655607
  12.000000,  554.824467
  12.100000,  562.993328
  12.200000,  571.573397
  12.300000,  580.204809
  12.400000,  588.836222
  12.500000,  597.467634
  12.600000,  606.099047
  12.700000,  614.730459
  12.800000,  623.361871
  12.900000,  631.993284
  13.000000,  640.624696
  13.100000,  649.256109
  13.200000,  658.246916
  13.300000,  667.282598
  13.400000,  676.318280
  13.500000,  685.353961
  13.600000,  694.389643
  13.700000,  703.425325
  13.800000,  712.461006
  13.900000,  721.496688
  14.000000,  730.532370
  14.100000,  739.568051
  14.200000,  748.897568
  14.300000,  758.263773
  14.400000,  767.629978
  14.500000,  776.996183
  14.600000,  786.362388
  14.700000,  795.728593
  14.800000,  805.094798
  14.900000,  814.461003
  15.000000,  823.827208
  15.100000,  833.193413
  15.200000,  842.816430
  15.300000,  852.471512
  15.400000,  862.126594
  15.500000,  871.781676
  15.600000,  881.436759
  15.700000,  891.091841
  15.800000,  900.746923
  15.900000,  910.402005
  16.000000,  920.057087
  16.100000,  929.712169
  16.200000,  939.589407
  16.300000,  949.494383
  16.400000,  959.399358
  16.500000,  969.304334
  16.600000,  979.209310
  16.700000,  989.114285
  16.800000,  999.019261
  16.900000, 1008.924237
  17.000000, 1018.829212
  17.100000, 1028.734188
  17.200000, 1038.828530
  17.300000, 1048.946515
  17.400000, 1059.064501
  17.500000, 1069.182486
  17.600000, 1079.300472
  17.700000, 1089.418458
  17.800000, 1099.536443
  17.900000, 1109.654429
  18.000000, 1119.772414
  18.100000, 1129.890400
  18.200000, 1140.166801
  18.300000, 1150.462982
  18.400000, 1160.759163
  18.500000, 1171.055344
  18.600000, 1181.351525
  18.700000, 1191.647706
  18.800000, 1201.943887
  18.900000, 1212.240068
  19.000000, 1222.536249
  19.100000, 1232.832430
  19.200000, 1243.257882
  19.300000, 1253.699475
  19.400000, 1264.141068
  19.500000, 1274.582660
  19.600000, 1285.024253
  19.700000, 1295.465846
  19.800000, 1305.907439
  19.900000, 1316.349032
  20.000000, 1326.790625
  20.100000, 1337.232217
  20.200000, 1347.775703
  20.300000, 1358.331912
  20.400000, 1368.888120
  20.500000, 1379.444329
  20.600000, 1390.000537
  20.700000, 1400.556745
  20.800000, 1411.112954
  20.900000, 1421.669162
  21.000000, 1432.225371
  21.100000, 1442.781579
  21.200000, 1453.414685
  21.300000, 1464.057393
  21.400000, 1474.700100
  21.500000, 1485.342808
  21.600000, 1495.985516
  21.700000, 1506.628223
  21.800000, 1517.270931
  21.900000, 1527.913639
  22.000000, 1538.556346
  22.100000, 1549.199054
  22.200000, 1559.897242
  22.300000, 1570.602357
  22.400000, 1581.307473
  22.500000, 1592.012588
  22.600000, 1602.717703
  22.700000, 1613.422818
  22.800000, 1624.127933
  22.900000, 1634.833049
  23.000000, 1645.538164
  23.100000, 1656.243279
  23.200000, 1666.981970
  23.300000, 1677.724852
  23.400000, 1688.467735
  23.500000, 1699.210618
  23.600000, 1709.953500
  23.700000, 1720.696383
  23.800000, 1731.439266
  23.900000, 1742.182148
  24.000000, 1752.925031
  24.100000, 1763.667914
  24.200000, 1774.423486
  24.300000, 1785.180644
  24.400000, 1795.937801
  24.500000, 1806.694958
  24.600000, 1817.452115
  24.700000, 1828.209272
  24.800000, 1838.966430
  24.852132, 1844.574361
  24.952132, 1935.344158
  25.052132, 2026.113955
  25.152132, 2087.761079
  25.252132, 2107.555532
  25.352132, 2127.349984
  25.452132, 2147.144437
  25.552132, 2166.938889
  25.652132, 2186.733341
  25.752132, 2206.527794
  25.852132, 2226.322246
  25.952132, 2246.116699
  26.052132, 2265.911151
  26.152132, 2297.276814
  26.252132, 2345.271655
  26.352132, 2393.266495
  26.452132, 2441.261335
  26.552132, 2489.256176
  26.652132, 2537.251016
  26.752132, 2585.245856
  26.852132, 2633.240697
  26.952132, 2681.235537
  27.052132, 2729.230377
  27.152132, 2779.202268
  27.252132, 2832.015412
  27.352132, 2884.828555
  27.452132, 2937.641698
  27.552132, 2990.454842
  27.652132, 3043.267985
  27.752132, 3096.081128
  27.852132, 3148.894272
  27.952132, 3201.707415
  28.052132, 3254.520558
  28.152132, 3308.551021
  28.252132, 3364.330914
  28.352132, 3420.110806
  28.452132, 3475.890699
  28.552132, 3531.670592
  28.652132, 3587.450485
  28.752132, 3643.230377
  28.852132, 3699.010270
  28.952132, 3754.790163
  29.052132, 3810.570055
  29.111100, 3843.462288
  29.211100, 4062.963880
  29.311100, 4282.465473
  29.411100, 4501.967066
  29.511100, 4721.468658
  29.611100, 4940.970251
  29.711100, 5160.471843
  29.811100, 5379.973436
  29.911100, 5599.475028
  30.011100, 5818.976621
  30.111100, 6038.478213
  30.211100, 6043.777455
  30.311100, 6049.076696
  30.411100, 6054.375937
  30.511100, 6059.675179
  30.611100, 6064.974420
  30.711100, 6066.203704
  30.811100, 6067.432988
  30.911100, 6068.662271
  31.011100, 6069.891555
  31.111100, 6071.120839
  31.211100, 6066.922604
  31.311100, 6062.724369
  31.411100, 6058.526134
  31.511100, 6054.327899
  31.611100, 6050.129664
  31.711100, 6045.931429
  31.811100, 6041.733194
  31.911100, 6037.534959
