Time, Horizontal Forces
   0.000000,    0.000000
   0.100000,    0.048888
   0.200000,    0.533504
   0.300000,    1.071839
   0.400000,    1.610175
   0.500000,    2.148511
   0.600000,    2.686847
   0.700000,    3.225182
   0.800000,    3.763518
   0.900000,    4.301854
   1.000000,    4.840189
   1.100000,    5.378525
   1.200000,    6.682180
   1.300000,    8.081393
   1.400000,    9.480606
   1.500000,   10.879818
   1.600000,   12.279031
   1.700000,   13.678244
   1.800000,   15.077456
   1.900000,   16.476669
   2.000000,   17.875881
   2.100000,   19.275094
   2.200000,   21.414855
   2.300000,   23.647080
   2.400000,   25.879305
   2.500000,   28.111530
   2.600000,   30.343755
   2.700000,   32.575980
   2.800000,   34.808205
   2.900000,   37.040431
   3.000000,   39.272656
   3.100000,   41.504881
   3.200000,   44.452218
   3.300000,   47.488843
   3.400000,   50.525468
   3.500000,   53.562093
   3.600000,   56.598718
   3.700000,   59.635343
   3.800000,   62.671969
   3.900000,   65.708594
   4.000000,   68.745219
   4.100000,   71.781844
   4.200000,   75.507572
   4.300000,   79.319340
   4.400000,   83.131109
   4.500000,   86.942877
   4.600000,   90.754646
   4.700000,   94.566414
   4.800000,   98.378183
   4.900000,  102.189951
   5.000000,  106.001719
   5.100000,  109.813488
   5.200000,  114.287868
   5.300000,  118.844981
   5.400000,  123.402094
   5.500000,  127.959207
   5.600000,  132.516320
   5.700000,  137.073434
   5.800000,  141.630547
   5.900000,  146.187660
   6.000000,  150.744773
   6.100000,  155.301886
   6.200000,  160.486951
   6.300000,  165.750422
   6.400000,  171.013893
   6.500000,  176.277364
   6.600000,  181.540835
   6.700000,  186.804306
   6.800000,  192.067777
   6.900000,  197.331248
   7.000000,  202.594719
   7.100000,  207.858190
   7.200000,  213.702946
   7.300000,  219.620280
   7.400000,  225.537614
   7.500000,  231.454949
   7.600000,  237.372283
   7.700000,  243.289617
   7.800000,  249.206952
   7.900000,  255.124286
   8.000000,  261.041620
   8.100000,  266.958954
   8.200000,  273.421934
   8.300000,  279.953043
   8.400000,  286.484152
   8.500000,  293.015261
   8.600000,  299.546370
   8.700000,  306.077479
   8.800000,  312.608588
   8.900000,  319.139697
   9.000000,  325.670806
   9.100000,  332.201915
   9.200000,  339.243867
   9.300000,  346.349602
   9.400000,  353.455338
   9.500000,  360.561073
   9.600000,  367.666808
   9.700000,  374.772544
   9.800000,  381.878279
   9.900000,  388.984014
  10.000000,  396.089749
  10.100000,  403.195485
  10.200000,  410.777878
  10.300000,  418.419787
  10.400000,  426.061696
  10.500000,  433.703604
  10.600000,  441.345513
  10.700000,  448.987422
  10.800000,  456.629331
  10.900000,  464.271239
  11.000000,  471.913148
  11.100000,  479.555057
  11.200000,  487.640127
  11.300000,  495.780530
  11.400000,  503.920933
  11.500000,  512.061336
  11.600000,  520.201739
  11.700000,  528.342143
  11.800000,  536.482546
  11.900000,  544.622949
  12.000000,  552.763352
  12.100000,  560.903755
  12.200000,  569.454573
  12.300000,  578.056635
  12.400000,  586.658697
  12.500000,  595.260759
  12.600000,  603.862821
  12.700000,  612.464883
  12.800000,  621.066944
  12.900000,  629.669006
  13.000000,  638.271068
  13.100000,  646.873130
  13.200000,  655.833977
  13.300000,  664.839622
  13.400000,  673.845267
  13.500000,  682.850912
  13.600000,  691.856556
  13.700000,  700.862201
  13.800000,  709.867846
  13.900000,  718.873491
  14.000000,  727.879135
  14.100000,  736.884780
  14.200000,  746.184056
  14.300000,  755.519995
  14.400000,  764.855933
  14.500000,  774.191872
  14.600000,  783.527811
  14.700000,  792.863749
  14.800000,  802.199688
  14.900000,  811.535627
  15.000000,  820.871565
  15.100000,  830.207504
  15.200000,  839.800278
  15.300000,  849.425120
  15.400000,  859.049963
  15.500000,  868.674805
  15.600000,  878.299647
  15.700000,  887.924490
  15.800000,  897.549332
  15.900000,  907.174174
  16.000000,  916.799017
  16.100000,  926.423859
  16.200000,  936.271083
  16.300000,  946.146074
  16.400000,  956.021064
  16.500000,  965.896055
  16.600000,  975.771045
  16.700000,  985.646036
  16.800000,  995.521026
  16.900000, 1005.396017
  17.000000, 1015.271007
  17.100000, 1025.145998
  17.200000, 1035.210769
  17.300000, 1045.299235
  17.400000, 1055.387702
  17.500000, 1065.476169
  17.600000, 1075.564635
  17.700000, 1085.653102
  17.800000, 1095.741569
  17.900000, 1105.830035
  18.000000, 1115.918502
  18.100000, 1126.006969
  18.200000, 1136.254439
  18.300000, 1146.521762
  18.400000, 1156.789085
  18.500000, 1167.056408
  18.600000, 1177.323731
  18.700000, 1187.591054
  18.800000, 1197.858377
  18.900000, 1208.125700
  19.000000, 1218.393023
  19.100000, 1228.660346
  19.200000, 1239.057686
  19.300000, 1249.471260
  19.400000, 1259.884834
  19.500000, 1270.298407
  19.600000, 1280.711981
  19.700000, 1291.125555
  19.800000, 1301.539129
  19.900000, 1311.952703
  20.000000, 1322.366276
  20.100000, 1332.779850
  20.200000, 1343.296206
  20.300000, 1353.825395
  20.400000, 1364.354584
  20.500000, 1374.883774
  20.600000, 1385.412963
  20.700000, 1395.942152
  20.800000, 1406.471341
  20.900000, 1417.000531
  21.000000, 1427.529720
  21.100000, 1438.058909
  21.200000, 1448.666015
  21.300000, 1459.282849
  21.400000, 1469.899683
  21.500000, 1480.516517
  21.600000, 1491.133351
  21.700000, 1501.750185
  21.800000, 1512.367019
  21.900000, 1522.983853
  22.000000, 1533.600687
  22.100000, 1544.217521
  22.200000, 1554.890993
  22.300000, 1565.571536
  22.400000, 1576.252080
  22.500000, 1586.932623
  22.600000, 1597.613166
  22.700000, 1608.293709
  22.800000, 1618.974253
  22.900000, 1629.654796
  23.000000, 1640.335339
  23.100000, 1651.015882
  23.200000, 1661.731226
  23.300000, 1672.450914
  23.400000, 1683.170603
  23.500000, 1693.890291
  23.600000, 1704.609980
  23.700000, 1715.329668
  23.800000, 1726.049356
  23.900000, 1736.769045
  24.000000, 1747.488733
  24.100000, 1758.208422
  24.200000, 1768.940936
  24.300000, 1779.675052
  24.400000, 1790.409167
  24.500000, 1801.143283
  24.541539, 1805.602088
  24.641539, 1841.296142
  24.741539, 1876.990195
  24.841539, 1912.684249
  24.941539, 1948.378303
  25.041539, 1984.072357
  25.141539, 2019.117646
  25.241539, 2052.680313
  25.341539, 2086.242981
  25.441539, 2119.805648
  25.541539, 2153.368315
  25.641539, 2186.930983
  25.741539, 2220.493650
  25.841539, 2254.056317
  25.941539, 2287.618985
  26.041539, 2321.181652
  26.141539, 2362.236763
  26.241539, 2420.414347
  26.341539, 2478.591931
  26.441539, 2536.769515
  26.541539, 2594.947099
  26.641539, 2653.124683
  26.741539, 2711.302268
  26.841539, 2769.479852
  26.941539, 2827.657436
  27.041539, 2885.835020
  27.141539, 2945.502438
  27.241539, 3008.574571
  27.341539, 3071.646705
  27.441539, 3134.718838
  27.541539, 3197.790972
  27.641539, 3260.863106
  27.741539, 3323.935239
  27.841539, 3387.007373
  27.941539, 3450.079506
  28.041539, 3513.151640
  28.111100, 3557.025480
  28.211100, 3785.442010
  28.311100, 4013.858540
  28.411100, 4242.275071
  28.511100, 4470.691601
  28.611100, 4699.108132
  28.711100, 4927.524662
  28.811100, 5155.941193
  28.911100, 5384.357723
  29.011100, 5612.774253
  29.111100, 5841.190784
  29.211100, 5846.902565
  29.311100, 5852.614347
  29.411100, 5858.326128
  29.511100, 5864.037910
  29.611100, 5869.749691
  29.711100, 5871.161768
  29.811100, 5872.573845
  29.911100, 5873.985922
  30.011100, 5875.397999
  30.111100, 5876.810076
  30.211100, 5872.739859
  30.311100, 5868.669642
  30.411100, 5864.599425
  30.511100, 5860.529208
  30.611100, 5856.458990
  30.711100, 5852.388773
  30.811100, 5848.318556
  30.911100, 5844.248339
