Time, Horizontal Forces
   0.000000, 15399.985964
   0.100000, 15385.972113
   0.200000, 15372.013983
   0.300000, 15358.064455
   0.400000, 15344.114927
   0.500000, 15330.165400
   0.600000, 15316.215872
   0.700000, 15302.266344
   0.800000, 15288.316816
   0.900000, 15274.367289
   1.000000, 15260.417761
   1.100000, 15246.468233
   1.200000, 15232.646916
   1.300000, 15218.841608
   1.400000, 15205.036299
   1.500000, 15191.230991
   1.600000, 15177.425682
   1.700000, 15163.620374
   1.800000, 15149.815065
   1.900000, 15136.009757
   2.000000, 15122.204449
   2.100000, 15108.399140
   2.200000, 15094.726078
   2.300000, 15081.069529
   2.400000, 15067.412979
   2.500000, 15053.756429
   2.600000, 15040.099880
   2.700000, 15026.443330
   2.800000, 15012.786780
   2.900000, 14999.130231
   3.000000, 14985.473681
   3.100000, 14971.817132
   3.200000, 14958.296648
   3.300000, 14944.793153
   3.400000, 14931.289658
   3.500000, 14917.786163
   3.600000, 14904.282669
   3.700000, 14890.779174
   3.800000, 14877.275679
   3.900000, 14863.772184
   4.000000, 14850.268689
   4.100000, 14836.765194
   4.200000, 14823.401366
   4.300000, 14810.054975
   4.400000, 14796.708585
   4.500000, 14783.362195
   4.600000, 14770.015805
   4.700000, 14756.669415
   4.800000, 14743.323025
   4.900000, 14729.976634
   5.000000, 14716.630244
   5.100000, 14703.283854
   5.200000, 14690.080510
   5.300000, 14676.895026
   5.400000, 14663.709542
   5.500000, 14650.524058
   5.600000, 14637.338574
   5.700000, 14624.153090
   5.800000, 14610.967607
   5.900000, 14597.782123
   6.000000, 14584.596639
   6.100000, 14571.411155
   6.200000, 14553.993424
   6.300000, 14536.047257
   6.400000, 14518.101091
   6.500000, 14500.154924
   6.600000, 14482.208757
   6.700000, 14464.262590
   6.800000, 14446.316424
   6.900000, 14428.370257
   7.000000, 14410.424090
   7.100000, 14392.477923
   7.200000, 14373.878474
   7.300000, 14355.197456
   7.400000, 14336.516438
   7.500000, 14317.835420
   7.600000, 14299.154402
   7.700000, 14280.473384
   7.800000, 14261.792366
   7.900000, 14243.111348
   8.000000, 14224.430330
   8.100000, 14205.749312
   8.200000, 14187.363863
   8.300000, 14169.015318
   8.400000, 14150.666773
   8.500000, 14132.318228
   8.600000, 14113.969683
   8.700000, 14095.621138
   8.800000, 14077.272594
   8.900000, 14058.924049
   9.000000, 14040.575504
   9.100000, 14022.226959
   9.200000, 14004.175153
   9.300000, 13986.160397
   9.400000, 13968.145641
   9.500000, 13950.130886
   9.600000, 13932.116130
   9.700000, 13914.101375
   9.800000, 13896.086619
   9.900000, 13878.071864
  10.000000, 13860.057108
  10.100000, 13842.042352
  10.200000, 13824.325134
  10.300000, 13806.645066
  10.400000, 13788.964998
  10.500000, 13771.284930
  10.600000, 13753.604862
  10.700000, 13735.924794
  10.800000, 13718.244725
  10.900000, 13700.564657
  11.000000, 13682.884589
  11.100000, 13665.204521
  11.200000, 13647.822429
  11.300000, 13630.477542
  11.400000, 13613.132654
  11.500000, 13595.787767
  11.600000, 13578.442880
  11.700000, 13561.097993
  11.800000, 13543.753105
  11.900000, 13526.408218
  12.000000, 13509.063331
  12.100000, 13491.718444
  12.200000, 13474.671624
  12.300000, 13457.662020
  12.400000, 13440.652417
  12.500000, 13423.642813
  12.600000, 13406.633210
  12.700000, 13389.623606
  12.800000, 13372.614003
  12.900000, 13355.604399
  13.000000, 13338.594796
  13.100000, 13321.585192
  13.200000, 13299.443773
  13.300000, 13276.661598
  13.400000, 13253.879422
  13.500000, 13231.097247
  13.600000, 13208.315072
  13.700000, 13185.532897
  13.800000, 13162.750722
  13.900000, 13139.968547
  14.000000, 13117.186372
  14.100000, 13094.404197
  14.200000, 13071.412727
  14.300000, 13048.395125
  14.400000, 13025.377523
  14.500000, 13002.359921
  14.600000, 12979.342319
  14.700000, 12956.324717
  14.800000, 12933.307115
  14.900000, 12910.289513
  15.000000, 12887.271911
  15.100000, 12864.254309
  15.200000, 12841.775961
  15.300000, 12819.364944
  15.400000, 12796.953928
  15.500000, 12774.542911
  15.600000, 12752.131894
  15.700000, 12729.720877
  15.800000, 12707.309861
  15.900000, 12684.898844
  16.000000, 12662.487827
  16.100000, 12640.076810
  16.200000, 12618.197535
  16.300000, 12596.384653
  16.400000, 12574.571770
  16.500000, 12552.758888
  16.600000, 12530.946006
  16.700000, 12509.133123
  16.800000, 12487.320241
  16.900000, 12465.507359
  17.000000, 12443.694476
  17.100000, 12421.881594
  17.200000, 12400.592605
  17.300000, 12379.369030
  17.400000, 12358.145454
  17.500000, 12336.921878
  17.600000, 12315.698303
  17.700000, 12294.474727
  17.800000, 12273.251151
  17.900000, 12252.027576
  18.000000, 12230.804000
  18.100000, 12209.580424
  18.200000, 12188.872593
  18.300000, 12168.229157
  18.400000, 12147.585720
  18.500000, 12126.942284
  18.600000, 12106.298848
  18.700000, 12085.655412
  18.800000, 12065.011976
  18.900000, 12044.368540
  19.000000, 12023.725104
  19.100000, 12003.081668
  19.200000, 11982.945557
  19.300000, 11962.872791
  19.400000, 11942.800025
  19.500000, 11922.727259
  19.600000, 11902.654492
  19.700000, 11882.581726
  19.800000, 11862.508960
  19.900000, 11842.436194
  20.000000, 11822.363427
  20.100000, 11802.290661
  20.200000, 11782.716564
  20.300000, 11763.204731
  20.400000, 11743.692897
  20.500000, 11724.181064
  20.600000, 11704.669230
  20.700000, 11685.157396
  20.800000, 11665.645563
  20.900000, 11646.133729
  21.000000, 11626.621896
  21.100000, 11607.110062
  21.200000, 11588.263721
  21.300000, 11569.500474
  21.400000, 11550.737226
  21.500000, 11531.973978
  21.600000, 11513.210730
  21.700000, 11494.447482
  21.800000, 11475.684234
  21.900000, 11456.920987
  22.000000, 11438.157739
  22.100000, 11419.394491
  22.200000, 11401.220173
  22.300000, 11383.119389
  22.400000, 11365.018605
  22.500000, 11346.917821
  22.600000, 11328.817037
  22.700000, 11310.716253
  22.800000, 11292.615469
  22.900000, 11274.514685
  23.000000, 11256.413901
  23.100000, 11238.313118
  23.200000, 11220.670021
  23.300000, 11203.084072
  23.400000, 11185.498122
  23.500000, 11167.912172
  23.600000, 11150.326223
  23.700000, 11132.740273
  23.800000, 11115.154323
  23.900000, 11097.568374
  24.000000, 11079.982424
  24.100000, 11062.396475
  24.200000, 11045.201935
  24.300000, 11028.056267
  24.400000, 11010.910600
  24.500000, 10993.764932
  24.600000, 10976.619264
  24.700000, 10959.473596
  24.800000, 10942.327928
  24.852132, 10933.389531
  24.952132, 10913.328553
  25.052132, 10893.267575
  25.152132, 10874.479989
  25.252132, 10857.522419
  25.352132, 10840.564848
  25.452132, 10823.607277
  25.552132, 10806.649706
  25.652132, 10789.692136
  25.752132, 10772.734565
  25.852132, 10755.776994
  25.952132, 10738.819423
  26.052132, 10721.861853
  26.152132, 10704.009764
  26.252132, 10684.872149
  26.352132, 10665.734534
  26.452132, 10646.596919
  26.552132, 10627.459304
  26.652132, 10608.321689
  26.752132, 10589.184074
  26.852132, 10570.046459
  26.952132, 10550.908845
  27.052132, 10531.771230
  27.152132, 10512.481157
  27.252132, 10492.971985
  27.352132, 10473.462813
  27.452132, 10453.953641
  27.552132, 10434.444468
  27.652132, 10414.935296
  27.752132, 10395.426124
  27.852132, 10375.916952
  27.952132, 10356.407780
  28.052132, 10336.898608
  28.152132, 10317.517898
  28.252132, 10298.321803
  28.352132, 10279.125709
  28.452132, 10259.929614
  28.552132, 10240.733519
  28.652132, 10221.537425
  28.752132, 10202.341330
  28.852132, 10183.145236
  28.952132, 10163.949141
  29.052132, 10144.753046
  29.111100, 10133.433512
  29.211100, 10119.964851
  29.311100, 10106.496189
  29.411100, 10093.027528
  29.511100, 10079.558866
  29.611100, 10066.090204
  29.711100, 10052.621543
  29.811100, 10039.152881
  29.911100, 10025.684220
  30.011100, 10012.215558
  30.111100, 9998.746897
  30.211100, 9995.791990
  30.311100, 9992.837083
  30.411100, 9989.882176
  30.511100, 9986.927269
  30.611100, 9983.972362
  30.711100, 9983.108377
  30.811100, 9982.244392
  30.911100, 9981.380406
  31.011100, 9980.516421
  31.111100, 9979.652436
  31.211100, 9981.571311
  31.311100, 9983.490185
  31.411100, 9985.409060
  31.511100, 9987.327935
  31.611100, 9989.246810
  31.711100, 9991.165684
  31.811100, 9993.084559
  31.911100, 9995.003434
