Time, Horizontal Forces
   0.000000, 14159.885741
   0.100000, 14145.838718
   0.200000, 14131.536650
   0.300000, 14117.204871
   0.400000, 14102.873093
   0.500000, 14088.541314
   0.600000, 14074.209535
   0.700000, 14059.877756
   0.800000, 14045.545978
   0.900000, 14031.214199
   1.000000, 14016.882420
   1.100000, 14002.550641
   1.200000, 13987.801245
   1.300000, 13972.999706
   1.400000, 13958.198166
   1.500000, 13943.396627
   1.600000, 13928.595087
   1.700000, 13913.793548
   1.800000, 13898.992008
   1.900000, 13884.190469
   2.000000, 13869.388929
   2.100000, 13854.587390
   2.200000, 13839.389955
   2.300000, 13824.143089
   2.400000, 13808.896223
   2.500000, 13793.649357
   2.600000, 13778.402492
   2.700000, 13763.155626
   2.800000, 13747.908760
   2.900000, 13732.661894
   3.000000, 13717.415028
   3.100000, 13702.168162
   3.200000, 13686.547392
   3.300000, 13670.879936
   3.400000, 13655.212480
   3.500000, 13639.545025
   3.600000, 13623.877569
   3.700000, 13608.210113
   3.800000, 13592.542657
   3.900000, 13576.875201
   4.000000, 13561.207746
   4.100000, 13545.540290
   4.200000, 13529.521120
   4.300000, 13513.458035
   4.400000, 13497.394950
   4.500000, 13481.331865
   4.600000, 13465.268780
   4.700000, 13449.205695
   4.800000, 13433.142610
   4.900000, 13417.079526
   5.000000, 13401.016441
   5.100000, 13384.953356
   5.200000, 13368.560879
   5.300000, 13352.127273
   5.400000, 13335.693668
   5.500000, 13319.260063
   5.600000, 13302.826458
   5.700000, 13286.392853
   5.800000, 13269.959248
   5.900000, 13253.525643
   6.000000, 13237.092038
   6.100000, 13220.658433
   6.200000, 13199.544914
   6.300000, 13177.847065
   6.400000, 13156.149215
   6.500000, 13134.451365
   6.600000, 13112.753515
   6.700000, 13091.055665
   6.800000, 13069.357815
   6.900000, 13047.659965
   7.000000, 13025.962115
   7.100000, 13004.264266
   7.200000, 12981.498813
   7.300000, 12958.600060
   7.400000, 12935.701307
   7.500000, 12912.802554
   7.600000, 12889.903801
   7.700000, 12867.005049
   7.800000, 12844.106296
   7.900000, 12821.207543
   8.000000, 12798.308790
   8.100000, 12775.410037
   8.200000, 12752.418014
   8.300000, 12729.414346
   8.400000, 12706.410678
   8.500000, 12683.407009
   8.600000, 12660.403341
   8.700000, 12637.399673
   8.800000, 12614.396004
   8.900000, 12591.392336
   9.000000, 12568.388668
   9.100000, 12545.384999
   9.200000, 12522.314119
   9.300000, 12499.234848
   9.400000, 12476.155576
   9.500000, 12453.076304
   9.600000, 12429.997032
   9.700000, 12406.917761
   9.800000, 12383.838489
   9.900000, 12360.759217
  10.000000, 12337.679945
  10.100000, 12314.600674
  10.200000, 12291.479438
  10.300000, 12268.352962
  10.400000, 12245.226487
  10.500000, 12222.100011
  10.600000, 12198.973536
  10.700000, 12175.847060
  10.800000, 12152.720585
  10.900000, 12129.594109
  11.000000, 12106.467634
  11.100000, 12083.341158
  11.200000, 12060.197116
  11.300000, 12037.050881
  11.400000, 12013.904646
  11.500000, 11990.758411
  11.600000, 11967.612176
  11.700000, 11944.465941
  11.800000, 11921.319705
  11.900000, 11898.173470
  12.000000, 11875.027235
  12.100000, 11851.881000
  12.200000, 11828.740714
  12.300000, 11805.601171
  12.400000, 11782.461627
  12.500000, 11759.322084
  12.600000, 11736.182540
  12.700000, 11713.042997
  12.800000, 11689.903454
  12.900000, 11666.763910
  13.000000, 11643.624367
  13.100000, 11620.484824
  13.200000, 11591.958155
  13.300000, 11562.758853
  13.400000, 11533.559551
  13.500000, 11504.360249
  13.600000, 11475.160948
  13.700000, 11445.961646
  13.800000, 11416.762344
  13.900000, 11387.563042
  14.000000, 11358.363740
  14.100000, 11329.164438
  14.200000, 11299.547108
  14.300000, 11269.877584
  14.400000, 11240.208059
  14.500000, 11210.538534
  14.600000, 11180.869009
  14.700000, 11151.199485
  14.800000, 11121.529960
  14.900000, 11091.860435
  15.000000, 11062.190910
  15.100000, 11032.521386
  15.200000, 11003.208681
  15.300000, 10973.940529
  15.400000, 10944.672378
  15.500000, 10915.404226
  15.600000, 10886.136074
  15.700000, 10856.867922
  15.800000, 10827.599770
  15.900000, 10798.331618
  16.000000, 10769.063466
  16.100000, 10739.795314
  16.200000, 10710.901089
  16.300000, 10682.053551
  16.400000, 10653.206014
  16.500000, 10624.358477
  16.600000, 10595.510939
  16.700000, 10566.663402
  16.800000, 10537.815864
  16.900000, 10508.968327
  17.000000, 10480.120790
  17.100000, 10451.273252
  17.200000, 10422.815085
  17.300000, 10394.405535
  17.400000, 10365.995985
  17.500000, 10337.586435
  17.600000, 10309.176885
  17.700000, 10280.767334
  17.800000, 10252.357784
  17.900000, 10223.948234
  18.000000, 10195.538684
  18.100000, 10167.129134
  18.200000, 10139.122790
  18.300000, 10111.166791
  18.400000, 10083.210792
  18.500000, 10055.254792
  18.600000, 10027.298793
  18.700000, 9999.342794
  18.800000, 9971.386795
  18.900000, 9943.430795
  19.000000, 9915.474796
  19.100000, 9887.518797
  19.200000, 9859.978289
  19.300000, 9832.489659
  19.400000, 9805.001029
  19.500000, 9777.512399
  19.600000, 9750.023769
  19.700000, 9722.535139
  19.800000, 9695.046509
  19.900000, 9667.557879
  20.000000, 9640.069249
  20.100000, 9612.580619
  20.200000, 9585.518273
  20.300000, 9558.509151
  20.400000, 9531.500030
  20.500000, 9504.490909
  20.600000, 9477.481787
  20.700000, 9450.472666
  20.800000, 9423.463544
  20.900000, 9396.454423
  21.000000, 9369.445302
  21.100000, 9342.436180
  21.200000, 9316.037923
  21.300000, 9289.715937
  21.400000, 9263.393951
  21.500000, 9237.071966
  21.600000, 9210.749980
  21.700000, 9184.427994
  21.800000, 9158.106009
  21.900000, 9131.784023
  22.000000, 9105.462038
  22.100000, 9079.140052
  22.200000, 9053.367586
  22.300000, 9027.663734
  22.400000, 9001.959881
  22.500000, 8976.256028
  22.600000, 8950.552175
  22.700000, 8924.848322
  22.800000, 8899.144469
  22.900000, 8873.440617
  23.000000, 8847.736764
  23.100000, 8822.032911
  23.200000, 8796.762896
  23.300000, 8771.547051
  23.400000, 8746.331205
  23.500000, 8721.115359
  23.600000, 8695.899513
  23.700000, 8670.683668
  23.800000, 8645.467822
  23.900000, 8620.251976
  24.000000, 8595.036130
  24.100000, 8569.820284
  24.200000, 8544.986835
  24.300000, 8520.201132
  24.400000, 8495.415428
  24.500000, 8470.629725
  24.600000, 8445.844022
  24.700000, 8421.058318
  24.800000, 8396.272615
  24.852132, 8383.351308
  24.952132, 8328.233920
  25.052132, 8273.116533
  25.152132, 8228.993487
  25.252132, 8200.670590
  25.352132, 8172.347692
  25.452132, 8144.024795
  25.552132, 8115.701898
  25.652132, 8087.379001
  25.752132, 8059.056104
  25.852132, 8030.733206
  25.952132, 8002.410309
  26.052132, 7974.087412
  26.152132, 7938.878478
  26.252132, 7893.773507
  26.352132, 7848.668537
  26.452132, 7803.563566
  26.552132, 7758.458595
  26.652132, 7713.353625
  26.752132, 7668.248654
  26.852132, 7623.143683
  26.952132, 7578.038712
  27.052132, 7532.933742
  27.152132, 7485.415993
  27.252132, 7434.430800
  27.352132, 7383.445607
  27.452132, 7332.460414
  27.552132, 7281.475221
  27.652132, 7230.490028
  27.752132, 7179.504835
  27.852132, 7128.519642
  27.952132, 7077.534449
  28.052132, 7026.549256
  28.152132, 6974.123559
  28.252132, 6919.627690
  28.352132, 6865.131821
  28.452132, 6810.635951
  28.552132, 6756.140082
  28.652132, 6701.644213
  28.752132, 6647.148344
  28.852132, 6592.652475
  28.952132, 6538.156605
  29.052132, 6483.660736
  29.111100, 6451.525665
  29.211100, 6039.839069
  29.311100, 5628.152474
  29.411100, 5216.465878
  29.511100, 4804.779282
  29.611100, 4393.092686
  29.711100, 3981.406090
  29.811100, 3569.719494
  29.911100, 3158.032899
  30.011100, 2746.346303
  30.111100, 2334.659707
  30.211100, 2121.315951
  30.311100, 1907.972194
  30.411100, 1694.628438
  30.511100, 1481.284682
  30.611100, 1267.940925
  30.711100, 1056.697461
  30.811100,  845.453997
  30.911100,  634.210533
  31.011100,  422.967070
  31.111100,  211.723606
  31.211100,    7.633660
  31.311100, -196.456286
  31.411100, -400.546232
  31.511100, -604.636178
  31.611100, -808.726123
  31.711100, -1012.816069
  31.811100, -1216.906015
  31.911100, -1420.995961
