%Altitude_evolution
\begin{tikzpicture}

\begin{axis}[
width=\figurewidth,
height=\figureheight,
scaled ticks=false, tick label style={/pgf/number format/fixed},
xmin=0.0,
xmax=36.200607172711976,
xlabel={Time (s)},
xmajorgrids,
ymin=0.0,
ymax=11.524627909985105,
ylabel={Altitude (m)},
ymajorgrids,
legend style={at={(1.03,0.5)},anchor=west,draw=black,fill=white,legend cell align=left}
]

\addplot [
color=black,
solid
]
table[row sep=crcr]{
9.999999999999999E-5	0.0\\
4.0547702617548074E-4	0.0\\
0.001196196967808376	0.0\\
0.0026958808139129764	0.0\\
0.006734436226007948	0.0\\
0.012583276805863283	0.0\\
0.018457806172094755	0.0\\
0.02429219050256265	0.0\\
0.030017904499968336	0.0\\
0.03575400700179285	0.0\\
0.041686579125301784	0.0\\
0.047401510441287875	0.0\\
0.0532426278454841	0.0\\
0.05917770148974735	0.0\\
0.06509525148233775	0.0\\
0.07081173477647887	0.0\\
0.07663177401470739	0.0\\
0.08253675300583271	0.0\\
0.08846659573818472	0.0\\
0.0943564246796969	0.0\\
0.10027056775172982	0.0\\
0.10617294239867406	0.0\\
0.11207535845534253	0.0\\
0.11800582220492661	0.0\\
0.12376291940795892	0.0\\
0.12965100558933124	0.0\\
0.13559111591206763	0.0\\
0.14153380607004395	0.0\\
0.14732972089239282	0.0\\
0.15327957474058274	0.0\\
0.15917034117396422	0.0\\
0.16507371529231413	0.0\\
0.1710232395716046	0.0\\
0.17682686972327583	0.0\\
0.18271575534650525	0.0\\
0.1886385357637314	0.0\\
0.19458225343809432	0.0\\
0.2004410112755598	0.0\\
0.20633199362796506	0.0\\
0.21234798087791135	0.0\\
0.21830705141439688	0.0\\
0.22423138614813115	0.0\\
0.23016439060097166	0.0\\
0.23614057393883153	0.0\\
0.2420023819843708	0.0\\
0.24795110420776945	0.0\\
0.2539664905634961	0.0\\
0.2599660111732972	0.0\\
0.2659283667522704	0.0\\
0.2719973391127448	0.0\\
0.2780386308457713	0.0\\
0.284132617359787	0.0\\
0.2902248732549294	0.0\\
0.2961664299284925	0.0\\
0.30215989857992076	0.0\\
0.3082310668543051	0.0\\
0.31431116975132833	0.0\\
0.32029529302462845	0.0\\
0.326347342784167	0.0\\
0.3324667812137151	0.0\\
0.3385290366110344	0.0\\
0.3446145177473007	0.0\\
0.3507197817207012	0.0\\
0.35679760288092055	0.0\\
0.36286291134593496	0.0\\
0.36886336980853573	0.0\\
0.3750565396004314	0.0\\
0.38126534787624	0.0\\
0.38742476564250405	0.0\\
0.3935327577383366	0.0\\
0.3996192679566035	0.0\\
0.40575669500556344	0.0\\
0.41202481820806436	0.0\\
0.4181556430789263	0.0\\
0.42423064890541584	0.0\\
0.4304112098435454	0.0\\
0.4364765987525594	0.0\\
0.442584003662597	0.0\\
0.44871481733334917	0.0\\
0.45483482022990784	0.0\\
0.4609666033143648	0.0\\
0.4672427160443794	0.0\\
0.4734095120023969	0.0\\
0.47964435058959254	0.0\\
0.4858371556376402	0.0\\
0.4920885496620572	0.0\\
0.49824479306099034	0.0\\
0.5045547851729122	0.0\\
0.5107469284743078	0.0\\
0.517013968825013	0.0\\
0.5232261898421899	0.0\\
0.5294066212869812	0.0\\
0.5356022608950848	0.0\\
0.5417406727964182	0.0\\
0.548080136178335	0.0\\
0.5544890855169049	0.0\\
0.5607782954463256	0.0\\
0.5671303634219682	0.0\\
0.5735003434450916	0.0\\
0.579900777012536	0.0\\
0.5863582325952419	0.0\\
0.5927797012632887	0.0\\
0.5992074736586412	0.0\\
0.6055863390546237	0.0\\
0.6120511027656939	0.0\\
0.6184770466728966	0.0\\
0.6248867088779297	0.0\\
0.6314094057120201	0.0\\
0.6379350592700459	0.0\\
0.644398335550247	0.0\\
0.650889601455553	0.0\\
0.6573188994239518	0.0\\
0.6639014517182129	0.0\\
0.6702888329673691	0.0\\
0.6767331281558815	0.0\\
0.6832624643777421	0.0\\
0.6897959267187759	0.0\\
0.6962813249548181	0.0\\
0.7028113590033003	0.0\\
0.7093342036238466	0.0\\
0.7158717660442286	0.0\\
0.7224489336189932	0.0\\
0.7289701243636699	0.0\\
0.7356837010084729	0.0\\
0.7421775893871871	0.0\\
0.7486873129992784	0.0\\
0.7556957261179245	0.0\\
0.7621939640604103	0.0\\
0.7686833973954623	0.0\\
0.7755020614391348	0.0\\
0.7822002017460417	0.0\\
0.7889241714949806	0.0\\
0.7957293588213747	0.0\\
0.8024151048692536	0.0\\
0.80900212564417	0.0\\
0.8157744487211462	0.0\\
0.8225220340374826	0.0\\
0.829227709219873	0.0\\
0.8358487304125071	0.0\\
0.8425935098401209	0.0\\
0.8493457787023899	0.0\\
0.856129782890813	0.0\\
0.8628227899125622	0.0\\
0.8695857982968453	0.0\\
0.8766439923487208	0.0\\
0.8834493279950899	0.0\\
0.890172015305216	0.0\\
0.8969713405175066	0.0\\
0.9037077446651056	0.0\\
0.9105940277912643	0.0\\
0.9175954285452084	0.0\\
0.9244283840465026	0.0\\
0.9315039211564726	0.0\\
0.9382985962221368	0.0\\
0.9451428496389234	0.0\\
0.9521229307115626	0.0\\
0.9591820264932818	0.0\\
0.9662467436267195	0.0\\
0.9732588580728241	0.0\\
0.9801264725221341	0.0\\
0.9870741906646414	0.0\\
0.9939957249747153	0.0\\
1.001117988303609	0.0\\
1.0082880645602064	0.0\\
1.0152290701988127	0.0\\
1.0222328854356326	0.0\\
1.029098810341401	0.0\\
1.036199320057893	0.0\\
1.04340261806021	0.0\\
1.0504599367517606	0.0\\
1.057594872639966	0.0\\
1.064553379755889	0.0\\
1.0716410244816816	0.0\\
1.0788688502605868	0.0\\
1.0861307977642398	0.0\\
1.0932865866418577	0.0\\
1.1004614609949837	0.0\\
1.1074728450348106	0.0\\
1.1146796509827066	0.0\\
1.121777900632292	0.0\\
1.1290062595641395	0.0\\
1.1360501772088667	0.0\\
1.1433523102096217	0.0\\
1.1507543861469505	0.0\\
1.1579624760769773	0.0\\
1.165168233861892	0.0\\
1.172461087291162	0.0\\
1.1797650186364446	0.0\\
1.18725734336379	0.0\\
1.1945357730944504	0.0\\
1.201899401924348	0.0\\
1.2092242046059969	0.0\\
1.2165437089229831	0.0\\
1.2237146966403913	0.0\\
1.2310102753001093	0.0\\
1.2384487829374242	0.0\\
1.245760412506518	0.0\\
1.2533664280665664	0.0\\
1.2607219458615475	0.0\\
1.2683135551487577	0.0\\
1.275875438621965	0.0\\
1.2833799777296413	0.0\\
1.290933432412952	0.0\\
1.2983067102331387	0.0\\
1.305934870341682	0.0\\
1.3132878456689694	0.0\\
1.3209332976035477	0.0\\
1.3283529878207951	0.0\\
1.3359075868034926	0.0\\
1.3435205781826758	0.0\\
1.3509924302622855	0.0\\
1.3584839956572563	0.0\\
1.3662016366979763	0.0\\
1.3738302145974859	0.0\\
1.381648346796171	0.0\\
1.3893021759394864	0.0\\
1.3968870817018098	0.0\\
1.4045531675438054	0.0\\
1.4120883413928236	0.0\\
1.4198358423142774	0.0\\
1.4275843646991317	0.0\\
1.435354025696268	0.0\\
1.4430932446242601	0.0\\
1.4509115371416792	0.0\\
1.4584942958394707	0.0\\
1.4664579909826587	0.0\\
1.4743419900624728	0.0\\
1.4820718924563847	0.0\\
1.489993594775179	0.0\\
1.4978757388746615	0.0\\
1.5058978947469805	0.0\\
1.5137754742497815	0.0\\
1.5218684092997181	0.0\\
1.5297817333057746	0.0\\
1.537754774763831	0.0\\
1.545731959662778	0.0\\
1.5534856806127775	0.0\\
1.5613660873177282	0.0\\
1.5690928869570864	0.0\\
1.5770042672115068	0.0\\
1.5848557665012333	0.0\\
1.5928276121492093	0.0\\
1.6010819327688477	0.0\\
1.6091874481676816	0.0\\
1.61728311452758	0.0\\
1.6252960442574227	0.0\\
1.633382133824075	0.0\\
1.6415374602635464	0.0\\
1.6495150885763712	0.0\\
1.6577631251521638	0.0\\
1.6658680234223677	0.0\\
1.6739540140276947	0.0\\
1.6821634837156898	0.0\\
1.6905359188141467	0.0\\
1.698621569192753	0.0\\
1.7069289502364833	0.0\\
1.7152812631936127	0.0\\
1.7236081964567065	0.0\\
1.731951456080965	0.0\\
1.7403513361614178	0.0\\
1.7485687350914905	0.0\\
1.757059750482846	0.0\\
1.7654601349619803	0.0\\
1.7738068203956723	0.0\\
1.7820847935175435	0.0\\
1.7903170335739031	0.0\\
1.7988605555688566	0.0\\
1.807193932991403	0.0\\
1.8154685497228398	0.0\\
1.8238934617852536	0.0\\
1.8323495306731448	0.0\\
1.840776767362415	0.0\\
1.8490758797733715	0.0\\
1.8574405372778529	0.0\\
1.8660145723444996	0.0\\
1.874507266050761	0.0\\
1.8830241417460991	0.0\\
1.8914075687484972	0.0\\
1.8998756058770616	0.0\\
1.908244553078151	0.0\\
1.9169478409085459	0.0\\
1.9256230337356235	0.0\\
1.9340952866412793	0.0\\
1.9426806906458691	0.0\\
1.9511628353910555	0.0\\
1.9598627721124875	0.0\\
1.9683855089895812	0.0\\
1.9770728713930348	0.0\\
1.9856007804229634	0.0\\
1.9942010800598808	0.0\\
2.0028861494615215	0.0\\
2.0116009144601117	0.0\\
2.020353714340297	0.0\\
2.029047649429484	0.0\\
2.0375333017747295	0.0\\
2.046369658534136	0.0\\
2.055081770633172	0.0\\
2.0637950913981866	0.0\\
2.0728341366628884	0.0\\
2.08147820034561	0.0\\
2.0903292864905545	0.0\\
2.099170927523625	0.0\\
2.1078510007891564	0.0\\
2.1168154987114365	0.0\\
2.1256861546803307	0.0\\
2.134439410361769	0.0\\
2.1433403633119807	0.0\\
2.152161811823154	0.0\\
2.1610991783413827	0.0\\
2.1698757741219206	0.0\\
2.1788585903239746	0.0\\
2.1876149361065185	0.0\\
2.1965541952657937	0.0\\
2.205587271930688	0.0\\
2.214674728012043	0.0\\
2.223850531353073	0.0\\
2.2328439426971434	0.0\\
2.2419732319944705	0.0\\
2.2511529098768417	0.0\\
2.260342492183261	0.0\\
2.2695720369241137	0.0\\
2.2785368254908205	0.0\\
2.2876492378443816	0.0\\
2.2966975432354353	0.0\\
2.305710137056688	0.0\\
2.3148171809159894	0.0\\
2.324114766737555	0.0\\
2.333177244207784	0.0\\
2.3424006479074215	0.0\\
2.351822693762088	0.0\\
2.3610614675442	0.0\\
2.3702660131357094	0.0\\
2.3794623749758363	0.0\\
2.3889194007877146	0.0\\
2.3981155603817017	0.0\\
2.407556900967881	0.0\\
2.416833469698724	0.0\\
2.4261814800343062	0.0\\
2.4355627007177665	0.0\\
2.444888837130298	0.0\\
2.454347482038858	0.0\\
2.463593680693747	0.0\\
2.473009310006751	0.0\\
2.482424937855005	0.0\\
2.4917175271199064	0.0\\
2.501127389210267	0.0\\
2.5106227478935548	0.0\\
2.520087436093971	0.0\\
2.5295471374381906	0.0\\
2.539081955114021	0.0\\
2.5486487204052297	0.0\\
2.5581823540082382	0.0\\
2.5676924267106767	0.0\\
2.577158744443369	0.0\\
2.58661801360622	0.0\\
2.5960627702022343	0.0\\
2.605850099430663	0.0\\
2.6155915763837996	0.0\\
2.625065578552059	0.0\\
2.6345510531080336	0.0\\
2.644118611081919	0.0\\
2.653839595010677	0.0\\
2.6633753413006556	0.0\\
2.6731315493050385	0.0\\
2.6828516657631374	0.0\\
2.6924551951542766	0.0\\
2.7024153803082696	0.0\\
2.7120418971150633	0.0\\
2.7219843794052476	0.0\\
2.7319181471154925	0.0\\
2.74154323663139	0.0\\
2.7516547540912004	0.0\\
2.7613864429913395	0.0\\
2.771108993101363	0.0\\
2.7810433228738765	0.0\\
2.790957558894746	0.0\\
2.8007071757910804	0.0\\
2.810655205412429	0.0\\
2.8206722783576295	0.0\\
2.830636945961488	0.0\\
2.8405836927602826	0.0\\
2.8505730318391116	0.0\\
2.8604252252262112	0.0\\
2.870458807228858	0.0\\
2.8803878091364776	0.0\\
2.890378193375999	0.0\\
2.900280433709484	0.0\\
2.910304253627131	0.0\\
2.9202990488494667	0.0\\
2.9304067355566605	0.0\\
2.940544551800839	0.0\\
2.9504614505046405	0.0\\
2.960358819449146	0.0\\
2.9704693460662677	0.0\\
2.980620081230759	0.0\\
2.9910140906840734	0.0\\
3.0014062807431054	0.0\\
3.0116692919724493	0.0\\
3.02188541127072	0.0\\
3.0318701390596727	0.0\\
3.0422578843956947	0.0\\
3.0524417276279356	0.0\\
3.062752425457412	0.0\\
3.0732720912040223	0.0\\
3.0833956590318463	0.0\\
3.0935670329138096	0.0\\
3.1037842737669212	0.0\\
3.1141920286765012	0.0\\
3.12464635825667	0.0\\
3.135085961427399	0.0\\
3.145480019600135	0.0\\
3.155944242539409	0.0\\
3.1662058304902043	0.0\\
3.176733429910483	0.0\\
3.187138514960039	0.0\\
3.1976777044325946	0.0\\
3.2080571934217943	0.0\\
3.2185142017274115	0.0\\
3.228790879196394	0.0\\
3.239501335127403	0.0\\
3.249982823068162	0.0\\
3.260466265110786	0.0\\
3.271128134919401	0.0\\
3.2817378855750903	0.0\\
3.2925680633187646	0.0\\
3.303372058742977	0.0\\
3.313993427370571	0.0\\
3.324757612789692	0.0\\
3.335600772356692	0.0\\
3.3463351599075057	0.0\\
3.3572382777068377	0.0\\
3.367967869726791	0.0\\
3.3787511495718663	0.0\\
3.389497773176413	0.0\\
3.4001706382540267	0.0\\
3.410909787581418	0.0\\
3.4216605449565805	0.0\\
3.432354606152331	0.0\\
3.443080186769482	0.0\\
3.4539672765861242	0.0\\
3.464956763397389	0.0\\
3.4758683482368093	0.0\\
3.4866869619015866	0.0\\
3.4977029667388235	0.0\\
3.508649224287554	0.0\\
3.5196958962591216	0.0\\
3.53065933444618	0.0\\
3.5415838984881933	0.0\\
3.552654417528518	0.0\\
3.563725481668018	0.0\\
3.574589794514206	0.0\\
3.5855528503799414	0.0\\
3.596624795812917	0.0\\
3.607692674030103	0.0\\
3.6188152428487985	0.0\\
3.629891988086336	0.0\\
3.640901675793163	0.0\\
3.651940157881305	0.0\\
3.6631274985264266	0.0\\
3.6741079963338583	0.0\\
3.68521690381123	0.0\\
3.69652398728007	0.0\\
3.7076862958250114	0.0\\
3.7187266880290553	0.0\\
3.729959062670588	0.0\\
3.740991004510814	0.0\\
3.7522986293045966	0.0\\
3.763572773991119	0.0\\
3.774741743843637	0.0\\
3.785733186049571	0.0\\
3.796997932248999	0.0\\
3.808535794598253	0.0\\
3.819771534180049	0.0\\
3.8309907896128816	0.0\\
3.8425301401517196	0.0\\
3.8539512846739754	0.0\\
3.865361095376504	0.0\\
3.876774375021796	0.0\\
3.8880855483487995	0.0\\
3.8993529756927288	0.0\\
3.9109822501378586	0.0\\
3.9223141840869777	0.0\\
3.933794032809213	0.0\\
3.9452653133924285	0.0\\
3.9569210457510415	0.0\\
3.9684449235254524	0.0\\
3.979905384247468	0.0\\
3.9914492033994637	0.0\\
4.002911284889684	0.0\\
4.014403887047324	0.0\\
4.025844491220427	0.0\\
4.037242532802624	0.0\\
4.048660990243452	0.0\\
4.060097337090836	0.0\\
4.071743791366616	0.0\\
4.083182838517299	0.0\\
4.094570452390354	0.0\\
4.106324047076811	0.0\\
4.117884120439719	0.0\\
4.1294298652319394	0.0\\
4.140911136831027	0.0\\
4.15242538812522	0.0\\
4.163828896372346	0.0\\
4.175638391490143	0.0\\
4.187442935377785	0.0\\
4.199029312657453	0.0\\
4.21057171024078	0.0\\
4.222093716689848	0.0\\
4.233483926080037	0.0\\
4.245087277276609	0.0\\
4.256886134288191	0.0\\
4.268437523081332	0.0\\
4.280047602405437	0.0\\
4.291512832438382	0.0\\
4.303147857715819	0.0\\
4.314682715261618	0.0\\
4.31701429334862	0.0\\
4.322725661726659	0.0\\
4.324867588221913	0.0\\
4.325113891086676	0.0\\
4.325247301174311	0.0\\
4.325433592693496	0.0\\
4.326264763177315	0.0\\
4.3291859139637	0.0\\
4.337115977357227	0.0\\
4.347997230752965	0.0\\
4.358644984578888	0.0\\
4.369239760609062	0.0\\
4.379879804230695	0.0\\
4.390815805701358	0.0\\
4.401704661870987	0.0\\
4.412409420170164	0.0\\
4.4233148259766875	0.0\\
4.434366172259896	0.0\\
4.4451851365587185	0.0\\
4.456101131463464	0.0\\
4.467039463247481	0.0\\
4.478000914376036	0.0\\
4.489004612775222	0.0\\
4.499898356548108	0.0\\
4.510787285193558	0.0\\
4.521898427841023	0.0\\
4.532922583998394	0.0\\
4.543917321410266	0.0\\
4.5548960081568595	0.0\\
4.566000653244528	0.0\\
4.577065662927573	0.0\\
4.588122911716267	0.0\\
4.599207926455284	0.0\\
4.610360144546931	0.0\\
4.621484131496189	0.0\\
4.632732074699071	0.0\\
4.643886782099029	0.0\\
4.655282663048974	0.0\\
4.66666188715778	0.0\\
4.6780784565626465	0.0\\
4.689294450107408	0.0\\
4.700489591036796	0.0\\
4.711829402321133	0.0\\
4.723084583642862	0.0\\
4.734413266734316	0.0\\
4.745889055680442	0.0\\
4.757361431046267	0.0\\
4.768688041634192	0.0\\
4.780131642698395	0.0\\
4.791549261556463	0.0\\
4.802936865944449	0.0\\
4.814366484095384	0.0\\
4.825802100470794	0.0\\
4.837204219632243	0.0\\
4.8487143460468385	0.0\\
4.860117515450803	0.0\\
4.871662067245204	0.0\\
4.8831147895169185	0.0\\
4.894781304392961	0.0\\
4.90632990159799	0.0\\
4.918010397267999	0.0\\
4.929535584092418	0.0\\
4.941191999726286	0.0\\
4.952857084935378	0.0\\
4.964355519942785	0.0\\
4.975870815345409	0.0\\
4.987338998995362	0.0\\
4.9988954860768136	0.0\\
5.010430433777408	0.0\\
5.0221523051473955	0.0\\
5.033956289943099	0.0\\
5.0456994687467756	0.0\\
5.057497618657102	0.0\\
5.069034586567909	0.0\\
5.080575929053595	0.0\\
5.0923255560893566	0.0\\
5.103917622895734	0.0\\
5.115668595752297	0.0\\
5.127377368134924	0.0\\
5.139029021487506	0.0\\
5.150701201492598	0.0\\
5.1623983439666645	0.0\\
5.17419900180006	0.0\\
5.18597338189366	0.0\\
5.197772669795556	0.0\\
5.209700678653464	0.0\\
5.221473501845731	0.0\\
5.233244198978653	0.0\\
5.245106646475838	0.0\\
5.257015347920104	0.0\\
5.2689876917598415	0.0\\
5.280772178454367	0.0\\
5.292431495266214	0.0\\
5.304193066773255	0.0\\
5.3158574509347325	0.0\\
5.327491523636368	0.0\\
5.339274659933444	0.0\\
5.351118044380936	0.0\\
5.363001196346863	0.0\\
5.374881160821488	0.0\\
5.386657214774887	0.0\\
5.398619266942223	0.0\\
5.410346947364699	0.0\\
5.422317128051709	0.0\\
5.434111506654158	0.0\\
5.4459530460108745	0.0\\
5.457852067879932	0.0\\
5.469576363829907	0.0\\
5.481413461611654	0.0\\
5.493233400818694	0.0\\
5.505357270365007	0.0\\
5.517255092207392	0.0\\
5.529054494751993	0.0\\
5.541025259170379	0.0\\
5.552937205218072	0.0\\
5.56485757704997	0.0\\
5.576776720399044	0.0\\
5.588790183324127	0.0\\
5.600673601841049	0.0\\
5.612726161483149	0.0\\
5.624628542837781	0.0\\
5.636488131813019	0.0\\
5.648515805590289	0.0\\
5.660470227233057	0.0\\
5.672426527528847	0.0\\
5.684215440382999	0.0\\
5.696291465263974	0.0\\
5.70837664116039	0.0\\
5.720420068728723	0.0\\
5.732330546241403	0.0\\
5.744274649830171	0.0\\
5.756229377600938	0.0\\
5.768379827156451	0.0\\
5.780389095621759	0.0\\
5.792315295222993	0.0\\
5.804303439523602	0.0\\
5.816210143986643	0.0\\
5.828172466481375	0.0\\
5.840149152679418	0.0\\
5.852126290295805	0.0\\
5.86407468392434	0.0\\
5.876216352095536	0.0\\
5.888143760368907	0.0\\
5.9000584012946895	0.0\\
5.9119675398847615	0.0\\
5.923932918442954	0.0\\
5.935979471405245	0.0\\
5.948037709255267	0.0\\
5.95999145417683	0.0\\
5.971982470164143	0.0\\
5.983956434664261	0.0\\
5.99615327533189	0.0\\
6.008315779888422	0.0\\
6.020322992518686	0.0\\
6.032528709146401	0.0\\
6.044741343894909	0.0\\
6.056892798457486	0.0\\
6.068981612842961	0.0\\
6.081001484750889	0.0\\
6.093136210974793	0.0\\
6.105310641820008	0.0\\
6.11723838724407	0.0\\
6.129462924153316	0.0\\
6.141484993605266	0.0\\
6.153562752718939	0.0\\
6.165721384073073	0.0\\
6.177968242484932	0.0\\
6.190214286503881	0.0\\
6.20230599355043	0.0\\
6.214462618672398	0.0\\
6.226559441029034	0.0\\
6.2386981419010965	0.0\\
6.250908105952252	0.0\\
6.263128072668897	0.0\\
6.275347493392804	0.0\\
6.287635331247028	0.0\\
6.299872085168479	0.0\\
6.3121526124470275	0.0\\
6.324322313309251	0.0\\
6.336603431048873	0.0\\
6.348658326781335	0.0\\
6.360927561789847	0.0\\
6.373184675549933	0.0\\
6.38547929432837	0.0\\
6.397864772976263	0.0\\
6.410082894996961	0.0\\
6.4222590906128225	0.0\\
6.434458714200357	0.0\\
6.446811780815759	0.0\\
6.458992251726988	0.0\\
6.471269308749365	0.0\\
6.483612329222108	0.0\\
6.495973144164717	0.0\\
6.508373453626913	0.0\\
6.520581955022243	0.0\\
6.53273765889379	0.0\\
6.5452559516554025	0.0\\
6.557637414441853	0.0\\
6.57015674544197	0.0\\
6.582577231753362	0.0\\
6.594940072625819	0.0\\
6.607324320165244	0.0\\
6.619794630472851	0.0\\
6.632247283868379	0.0\\
6.644627055056141	0.0\\
6.657162259851111	0.0\\
6.669569545868157	0.0\\
6.681970682980944	0.0\\
6.694421218228106	0.0\\
6.706848056928576	0.0\\
6.719386134521134	0.0\\
6.731941557196112	0.0\\
6.7445130371968105	0.0\\
6.7569929272469285	0.0\\
6.769515673424831	0.0\\
6.78199578887639	0.0\\
6.7946192614380205	0.0\\
6.80723181684858	0.0\\
6.819812494236469	0.0\\
6.832487762272576	0.0\\
6.845070460318864	0.0\\
6.857707071426548	0.0\\
6.870434370769772	0.0\\
6.883134585314091	0.0\\
6.895704156593858	0.0\\
6.908347980716327	0.0\\
6.921015383268795	0.0\\
6.933710099214355	0.0\\
6.946397217399374	0.0\\
6.959125617557524	0.0\\
6.971866876546812	0.0\\
6.984556409305403	0.0\\
6.997218330342568	0.0\\
7.0099944426153	0.0\\
7.022820257222477	0.0\\
7.035666950211855	0.0\\
7.048537671760117	0.0\\
7.061393660233952	0.0\\
7.074445027382755	0.0\\
7.087306481725008	0.0\\
7.100154905706081	0.0\\
7.113149071424813	0.0\\
7.126096515692328	0.0\\
7.139042605107706	0.0\\
7.152013972527275	0.0\\
7.165105671302653	0.0\\
7.178082608304919	0.0\\
7.19108929304196	0.0\\
7.203974814618837	0.0\\
7.217055091171812	0.0\\
7.22997365463282	0.0\\
7.242961807879336	0.0\\
7.255949545567642	0.0\\
7.2690189799733425	0.0\\
7.2821715800486775	0.0\\
7.295334252389486	0.0\\
7.308513650304649	0.0\\
7.321627776497662	0.0\\
7.334990806909396	0.0\\
7.348386553451924	0.0\\
7.3615309498570145	0.0\\
7.3748819129228345	0.0\\
7.388213750426587	0.0\\
7.4014054025314024	0.0\\
7.414827732308565	0.0\\
7.428166653942155	0.0\\
7.44161403587241	0.0\\
7.455033731914156	0.0\\
7.468575383170384	0.0\\
7.482022410932338	0.0\\
7.495687952125891	0.0\\
7.509290246555926	0.0\\
7.522979782886674	0.0\\
7.536587570451266	0.0\\
7.550287465895089	0.0\\
7.56388852898945	0.0\\
7.5776033114631645	0.0\\
7.59120077698473	0.0\\
7.604998565340894	0.0\\
7.618706998254236	0.0\\
7.6324636081946196	0.0\\
7.6462897574122834	0.0\\
7.659975718746841	0.0\\
7.673762575568752	0.0\\
7.687756575488157	0.0\\
7.70166262605585	0.0\\
7.715635319023027	0.0\\
7.729558949986744	0.0\\
7.743548179243668	0.0\\
7.757653475380705	0.0\\
7.771718488340127	0.0\\
7.785755962763076	0.0\\
7.799679786612163	0.0\\
7.813830234703699	0.0\\
7.827991309411054	0.0\\
7.842117669279826	0.0\\
7.856488297984653	0.0\\
7.8708180799187115	0.0\\
7.885045702834487	0.0\\
7.899433369963434	0.0\\
7.913803256567837	0.0\\
7.928127056706863	0.0\\
7.9424194632838745	0.0\\
7.956968264605152	0.0\\
7.971568728625156	0.0\\
7.986077084204471	0.0\\
8.000738377853676	0.0\\
8.015232132649999	0.0\\
8.029836160796595	0.0\\
8.04437432436821	0.0\\
8.059157368947478	0.0\\
8.073953127582552	0.0\\
8.088732067371389	0.0\\
8.10372329730109	0.0\\
8.118518663411749	0.0\\
8.133325612129706	0.0\\
8.148186755568332	0.0\\
8.163093456427134	0.0\\
8.178251495719994	0.0\\
8.193069607203178	0.0\\
8.20813933827932	0.0\\
8.223122843077796	0.0\\
8.238122141387528	0.0\\
8.253572341130933	0.0\\
8.268541967428767	0.0\\
8.283754370673616	0.0\\
8.299005160709807	0.0\\
8.314150764129781	0.0\\
8.32945955173333	0.0\\
8.344850593069669	0.0\\
8.36023404299776	0.0\\
8.37553337034118	0.0\\
8.390653363993618	0.0\\
8.405852356305342	0.0\\
8.421175357661209	0.0\\
8.436238225533	0.0\\
8.45157488515327	0.0\\
8.466782621620851	0.0\\
8.481958379675298	0.0\\
8.497263427947829	0.0\\
8.512503291696262	0.0\\
8.527915262142525	0.0\\
8.543103997832645	0.0\\
8.558348822457383	0.0\\
8.57359106969561	0.0\\
8.588874467361357	0.0\\
8.60403967231867	0.0\\
8.61914322410956	0.0\\
8.634505838135723	0.0\\
8.649543487113945	0.0\\
8.66470163062042	0.0\\
8.679769073968423	0.0\\
8.694644511631616	0.0\\
8.70963772792797	0.0\\
8.72462979930474	0.0\\
8.739722470371596	0.0\\
8.754635168015312	0.0\\
8.769408758471148	0.0\\
8.784236768862634	0.0\\
8.79909479663014	0.0\\
8.8139089046341	0.0\\
8.828563012746535	0.0\\
8.84317876038482	0.0\\
8.857816225460429	0.0\\
8.872441565327772	0.0\\
8.887005910445371	0.0\\
8.90154953891086	0.0\\
8.916143976701544	0.0\\
8.919033952417763	0.0\\
8.91923847200933	0.0\\
8.919425972644227	0.0\\
8.920286676184741	0.0\\
8.923584259875522	0.0\\
8.93399265748193	0.0\\
8.946732242514024	0.0\\
8.95958092861163	0.0\\
8.972601232037547	0.0\\
8.9855828301366	0.0\\
8.998666484963138	0.0\\
9.011665138671095	0.0\\
9.02477745868823	0.0\\
9.037977158154401	0.0\\
9.05119546126663	0.0\\
9.064554830005804	0.0\\
9.077963443608784	0.0\\
9.091366995229503	0.0\\
9.104872676329492	0.0\\
9.118401968283017	0.0\\
9.13195346809109	0.0\\
9.145473873415185	0.0\\
9.159198118325733	0.0\\
9.172884321747336	0.0\\
9.186528362026529	0.0\\
9.200141988363807	0.0\\
9.21410352096104	0.0\\
9.228047665093701	0.0\\
9.24193268485421	0.0\\
9.256013399436597	0.0\\
9.269972693501092	0.0\\
9.284072065295408	0.0\\
9.298105539915309	0.0\\
9.312236614427835	0.0\\
9.326473519757737	0.0\\
9.340680604226424	0.0\\
9.355018090136358	0.0\\
9.369387197028448	0.0\\
9.383736990739074	0.0\\
9.398280647499696	0.0\\
9.412762101632488	0.0\\
9.427450507300051	0.0\\
9.441982417410046	0.0\\
9.456559568789928	0.0\\
9.471187850141494	0.0\\
9.485797972633584	0.0\\
9.500594146169327	0.0\\
9.51541731956781	0.0\\
9.53031692862207	0.0\\
9.545078193509639	0.0\\
9.559859877191244	0.0\\
9.57458867745147	0.0\\
9.589416283420498	0.0\\
9.604115909012023	0.0\\
9.618913783042078	0.0\\
9.633495686615937	0.0\\
9.648243385600232	0.0\\
9.662984086106277	0.0\\
9.677750932015908	0.0\\
9.692595338257437	0.0\\
9.707426513935705	0.0\\
9.722218406872305	0.0\\
9.73690914415333	0.0\\
9.751658459715241	0.0\\
9.76638649425562	0.0\\
9.781086549690201	0.0\\
9.79566169141787	0.0\\
9.810201599774622	0.0\\
9.824829352108232	0.0\\
9.839424037175903	0.0\\
9.853849353591976	0.0\\
9.86826021343251	0.0\\
9.882723869515367	0.0\\
9.897216407989564	0.0\\
9.91168895854301	0.0\\
9.926039287428043	0.0\\
9.940473079677215	0.0\\
9.954762591588107	0.0\\
9.969148581395302	0.0\\
9.983494846736921	0.0\\
9.997826857951054	0.0\\
10.012016630193912	0.0\\
10.026314926082033	0.0\\
10.040593633566658	0.0\\
10.054740227620456	0.0\\
10.068858749295092	0.0\\
10.083006649193162	0.0\\
10.097140771771496	0.0\\
10.11126704246039	0.0\\
10.125388114235843	0.0\\
10.139398845683836	0.0\\
10.153394209633245	0.0\\
10.167365272051622	0.0\\
10.181406324551883	0.0\\
10.195412083174368	0.0\\
10.20929144009595	0.0\\
10.223317751513417	0.0\\
10.237139344229195	0.0\\
10.250964610265278	0.0\\
10.264880405517186	0.0\\
10.278855767758742	0.0\\
10.29269879284534	0.0\\
10.306483788400595	0.0\\
10.320258218092523	0.0\\
10.334004261249937	0.0\\
10.347816109923443	0.0\\
10.361544244173814	0.0\\
10.375347145543937	0.0\\
10.389150280799903	0.0\\
10.402811181508987	0.0\\
10.416540368872553	0.0\\
10.430309843593701	0.0\\
10.444007745464141	0.0\\
10.457632811782311	0.0\\
10.471347784830343	0.0\\
10.484990668634648	0.0\\
10.498740102019024	0.0\\
10.512405483011992	0.0\\
10.526007789432274	0.0\\
10.539612189335433	0.0\\
10.553145527947205	0.0\\
10.566784338999138	0.0\\
10.580391579920711	0.0\\
10.594022277935743	0.0\\
10.60756661473485	0.0\\
10.6211891488079	0.0\\
10.634745595162546	0.0\\
10.648378416445613	0.0\\
10.662002344583076	0.0\\
10.675493484470259	0.0\\
10.689055761355174	0.0\\
10.702654082841583	0.0\\
10.716167825424883	0.0\\
10.729734183702593	0.0\\
10.743271782184124	0.0\\
10.756764646873059	0.0\\
10.770277455958173	0.0\\
10.783880398251679	0.0\\
10.797337612871228	0.0\\
10.81082946373509	0.0\\
10.824307997600073	0.0\\
10.83789448968692	0.0\\
10.851382259495242	0.0\\
10.864873100609234	0.0\\
10.878350178429198	0.0\\
10.891790029864595	0.0\\
10.905328559094116	0.0\\
10.918774746109289	0.0\\
10.932351678888669	0.0\\
10.945903604293825	0.0\\
10.959377804446085	0.0\\
10.972833546501814	0.0\\
10.986353481650099	0.0\\
10.99981729619778	0.0\\
11.013340957936503	0.0\\
11.026786631586596	0.0\\
11.04028582716931	0.0\\
11.053716935926467	0.0\\
11.067136169422536	0.0\\
11.080625994537534	0.0\\
11.094094350428193	0.0\\
11.107613562978155	0.0\\
11.12107183924337	0.0\\
11.134507253041779	0.0\\
11.14796415865699	0.0\\
11.161458130884547	0.0\\
11.175019099087812	0.0\\
11.188482334119286	0.0\\
11.202076343028725	0.0\\
11.215573348844408	0.0\\
11.229152726696853	0.0\\
11.242659433421462	0.0\\
11.256226950112776	0.0\\
11.269780862551716	0.0\\
11.283347505524695	0.0\\
11.296855641318281	0.0\\
11.310370021611075	0.0\\
11.323954606467904	0.0\\
11.337546337224133	0.0\\
11.351156395729223	0.0\\
11.364798355510029	0.0\\
11.378424716345712	0.0\\
11.391942680604561	0.0\\
11.405441125198458	0.0\\
11.419038183110388	0.0\\
11.432631701218352	0.0\\
11.446262423666056	0.0\\
11.459956960716568	0.0\\
11.47365706229797	0.0\\
11.487299707196424	0.0\\
11.50096452221893	0.0\\
11.514612180032643	0.0\\
11.52829299477855	0.0\\
11.54195182141235	0.0\\
11.55568875840175	0.0\\
11.569449159626497	0.0\\
11.583136433152994	0.0\\
11.596811832333398	0.0\\
11.610531227069071	0.0\\
11.624326175789278	0.0\\
11.638051310016188	0.0\\
11.651782374827416	0.0\\
11.665615192435574	0.0\\
11.679452446634947	0.0\\
11.693242793165307	0.0\\
11.707084645462729	0.0\\
11.721008560505492	0.0\\
11.734874462089333	0.0\\
11.748771158530793	0.0\\
11.762709492571638	0.0\\
11.776629053395755	0.0\\
11.79061763846627	0.0\\
11.804581792026607	0.0\\
11.818644072092837	0.0\\
11.832621810018637	0.0\\
11.846538062907563	0.0\\
11.860534709623206	0.0\\
11.874610531363434	0.0\\
11.888625709976061	0.0\\
11.902719653300103	0.0\\
11.916827650247455	0.0\\
11.930977469576664	0.0\\
11.945072546290735	0.0\\
11.959233532979088	0.0\\
11.973322373129967	0.0\\
11.987486714093691	0.0\\
12.001703655362494	0.0\\
12.015885930033207	0.0\\
12.03008290301284	0.0\\
12.044314071352247	0.0\\
12.058635817084074	0.0\\
12.072953780432826	0.0\\
12.087317481396063	0.0\\
12.101722129228111	0.0\\
12.116094797878873	0.0\\
12.13044888650305	0.0\\
12.144905459134218	0.0\\
12.159292145084514	0.0\\
12.17384151266672	0.0\\
12.188345112103118	0.0\\
12.202834277909314	0.0\\
12.2173457848683	0.0\\
12.231896326383005	0.0\\
12.24657922923003	0.0\\
12.261170052571899	0.0\\
12.275814686968577	0.0\\
12.290471601328242	0.0\\
12.305123676259633	0.0\\
12.319885903991064	0.0\\
12.334677233852027	0.0\\
12.349331133333656	0.0\\
12.364231473187576	0.0\\
12.379102480479613	0.0\\
12.393995101370898	0.0\\
12.408946546061689	0.0\\
12.42395800738823	0.0\\
12.438899349712294	0.0\\
12.453922208416802	0.0\\
12.469016174255987	0.0\\
12.484088539900085	0.0\\
12.499260044626531	0.0\\
12.514466202923323	0.0\\
12.529606487650724	0.0\\
12.544817978025623	0.0\\
12.560214422002886	0.0\\
12.575560535540951	0.0\\
12.591018466592583	0.0\\
12.60642399938365	0.0\\
12.621943947725129	0.0\\
12.637529575511149	0.0\\
12.653192875226601	0.0\\
12.66878286970525	0.0\\
12.684576130627121	0.0\\
12.700385104220135	0.0\\
12.716216490821271	0.0\\
12.732051714302816	0.0\\
12.747909748275713	0.0\\
12.76383270875155	0.0\\
12.779851128950312	0.0\\
12.795954949679185	0.0\\
12.812228237065845	0.0\\
12.828419667272549	0.0\\
12.844771742323154	0.0\\
12.861070938372567	0.0\\
12.877465741863837	0.0\\
12.894047943409358	0.0\\
12.910608589654501	0.0\\
12.927423361609879	0.0\\
12.944220393733676	0.0\\
12.961037058813307	0.0\\
12.977896521206635	0.0\\
12.99497873530041	0.0\\
13.012192058740048	0.0\\
13.029313914211212	0.0\\
13.046479425975484	0.0\\
13.063685168512087	0.0\\
13.08099423521438	0.0\\
13.098462743720216	0.0\\
13.116160995365455	0.0\\
13.133910784131146	0.0\\
13.151682707539223	0.0\\
13.169533483612017	0.0\\
13.187548939816924	0.0\\
13.20568185507867	0.0\\
13.22397695730617	0.0\\
13.242287182530049	0.0\\
13.26074073407273	0.0\\
13.27916968924238	0.0\\
13.297710006653858	0.0\\
13.316292142098522	0.0\\
13.335007126804843	0.0\\
13.353610291503095	0.0\\
13.372312011503244	0.0\\
13.390928663732208	0.0\\
13.40971389083979	0.0\\
13.42856068052415	0.0\\
13.447416596024222	0.0\\
13.46611708787757	0.0\\
13.484666198138115	0.0\\
13.503031753145372	0.0\\
13.521615069026545	0.0\\
13.53998750862937	0.0\\
13.55831261215118	0.0\\
13.576520825815411	0.0\\
13.59474764661094	0.0\\
13.612719842953286	0.0\\
13.630728169970762	0.0\\
13.648425710635795	0.0\\
13.666117981118255	0.0\\
13.683708681006348	0.0\\
13.701197928467245	0.0\\
13.718649334375694	0.0\\
13.736045485026015	0.0\\
13.753020621831062	0.0\\
13.769983156630936	0.0\\
13.786989924514383	0.0\\
13.803765684676005	0.0\\
13.820449669645182	0.0\\
13.83713056337772	0.0\\
13.853664246299196	0.0\\
13.870177314081062	0.0\\
13.88652373200621	0.0\\
13.90280669134588	0.0\\
13.919022336647952	0.0\\
13.935110373404019	0.0\\
13.95110431233461	0.0\\
13.954290756120997	0.0\\
13.964193518674989	0.0\\
13.964456280142478	0.0\\
13.964595105043728	0.0\\
13.964745584238834	0.0\\
13.965499020082518	0.0\\
13.96879377780154	0.0\\
13.978374900571065	0.0\\
13.992067561718919	0.0\\
14.005856950761494	0.0\\
14.019707708667944	0.0\\
14.033662648417565	0.0\\
14.047693374758559	0.0\\
14.061722461258086	0.0\\
14.075887073474934	0.0\\
14.09013680228178	0.0\\
14.104411185472031	0.0\\
14.118751819176538	0.0\\
14.133206186556993	0.0\\
14.147780671040234	0.0\\
14.162340365116723	0.0\\
14.177073044569223	0.0\\
14.191816631001231	0.0\\
14.206707726848084	0.0\\
14.221731268794944	0.0\\
14.236803487765776	0.0\\
14.25193599855718	0.0\\
14.267148833818368	0.0\\
14.282501118328781	0.0\\
14.297964042103544	0.0\\
14.313470452654588	0.0\\
14.329177632269563	0.0\\
14.344837243054275	0.0\\
14.360704083243867	0.0\\
14.376644291412664	0.0\\
14.392641060548929	0.0\\
14.408786279445252	0.0\\
14.425090666238209	0.0\\
14.441521602462267	0.0\\
14.4581671708689	0.0\\
14.474786004721796	0.0\\
14.491602964116744	0.0\\
14.508373739396792	0.0\\
14.525424695964183	0.0\\
14.542513303543934	0.0\\
14.559687769902382	0.0\\
14.576964812785391	0.0\\
14.594227571655637	0.0\\
14.61156091596051	0.0\\
14.62888503901129	0.0\\
14.646226881826738	0.0\\
14.663776484374626	0.0\\
14.681314695747492	0.0\\
14.698695803171827	0.0\\
14.716089206454171	0.0\\
14.733299503424771	0.0\\
14.75066191183559	0.0\\
14.767856668443443	0.0\\
14.78517006666203	0.0\\
14.802219363799502	0.0\\
14.819211778168146	0.0\\
14.836068260481621	0.0\\
14.85312613491891	0.0\\
14.869763264587622	0.0\\
14.88634177371243	0.0\\
14.902904150979897	0.0\\
14.919437600462217	0.0\\
14.935845114688998	0.0\\
14.952178134444729	0.0\\
14.96859377516666	0.0\\
14.984723128595753	0.0\\
15.000846633213921	0.0\\
15.01681865039231	0.0\\
15.03280617750422	0.0\\
15.048652315890372	0.0\\
15.064563319101392	0.0\\
15.080239405664884	0.0\\
15.095984461468472	0.0\\
15.111590411887157	0.0\\
15.127220424876981	0.0\\
15.142803242083634	0.0\\
15.158383157025398	0.0\\
15.173776056413896	0.0\\
15.189148515495315	0.0\\
15.204518059114644	0.0\\
15.219830031879006	0.0\\
15.235096538990529	0.0\\
15.250321219597463	0.0\\
15.265439733250687	0.0\\
15.280530455122229	0.0\\
15.29558493213532	0.0\\
15.310674430850256	0.0\\
15.325627576267216	0.0\\
15.340622384741192	0.0\\
15.355438593767616	0.0\\
15.370455386542538	0.0\\
15.385324479686702	0.0\\
15.400148223957803	0.0\\
15.414958596792601	0.0\\
15.429704496394105	0.0\\
15.444566736254657	0.0\\
15.459281099399956	0.0\\
15.474070427636157	0.0\\
15.488795922278634	0.0\\
15.503452001832205	0.0\\
15.518019431527847	0.0\\
15.532606692809402	0.0\\
15.54722450284477	0.0\\
15.561808105538997	0.0\\
15.57639672034864	0.0\\
15.590968607900361	0.0\\
15.605457472821339	0.0\\
15.619959707988986	0.0\\
15.634417129423316	0.0\\
15.648907384027872	0.0\\
15.66329536792572	0.0\\
15.677681884888273	0.0\\
15.69207038453364	0.0\\
15.706425766538604	0.0\\
15.720860472699414	0.0\\
15.73519990892662	0.0\\
15.74950746903227	0.0\\
15.763836649376447	0.0\\
15.778095465356465	0.0\\
15.792350703657348	0.0\\
15.806603299999907	0.0\\
15.820870387860047	0.0\\
15.83514858157735	0.0\\
15.849372003461124	0.0\\
15.863524959257521	0.0\\
15.877812353649702	0.0\\
15.892059166894295	0.0\\
15.906268199784957	0.0\\
15.92052019603874	0.0\\
15.934652423063184	0.0\\
15.948944070227153	0.0\\
15.963107112835083	0.0\\
15.97732902682517	0.0\\
15.991453659160037	0.0\\
16.005620212296023	0.0\\
16.019764419000403	0.0\\
16.033903513928315	0.0\\
16.048017501963415	0.0\\
16.062160256914815	0.0\\
16.076329820734216	0.0\\
16.09044292649144	0.0\\
16.104629592666996	0.0\\
16.11870539395816	0.0\\
16.132838168720873	0.0\\
16.14700528330048	0.0\\
16.161124163967038	0.0\\
16.17522545679838	0.0\\
16.18930943445772	0.0\\
16.203377363182824	0.0\\
16.217469461779487	0.0\\
16.231614734613217	0.0\\
16.245731239792654	0.0\\
16.2598591311827	0.0\\
16.27398812663173	0.0\\
16.28806007692743	0.0\\
16.30219255422012	0.0\\
16.31637300476647	0.0\\
16.330455234169285	0.0\\
16.344640038417246	0.0\\
16.358809083244815	0.0\\
16.372910440690767	0.0\\
16.38703223236365	0.0\\
16.401212622007307	0.0\\
16.415329324942576	0.0\\
16.42948225084541	0.0\\
16.443656559639756	0.0\\
16.45775918939345	0.0\\
16.47184211715804	0.0\\
16.485981714322982	0.0\\
16.500048641407034	0.0\\
16.51419555837898	0.0\\
16.5282788941052	0.0\\
16.54247617301033	0.0\\
16.556619779784363	0.0\\
16.57081924375162	0.0\\
16.58497669315311	0.0\\
16.59915710587962	0.0\\
16.613320994252923	0.0\\
16.627499641230195	0.0\\
16.641672681057628	0.0\\
16.65593916978854	0.0\\
16.670072613497993	0.0\\
16.68435757496956	0.0\\
16.698637843691685	0.0\\
16.7128358367693	0.0\\
16.727031413688238	0.0\\
16.741235382294334	0.0\\
16.75551768280569	0.0\\
16.769796769860918	0.0\\
16.784016999774366	0.0\\
16.798368946826415	0.0\\
16.812712125549666	0.0\\
16.82694136692711	0.0\\
16.84126054398456	0.0\\
16.855577042023427	0.0\\
16.86991504638616	0.0\\
16.88427333465338	0.0\\
16.898603388397945	0.0\\
16.912952989645802	0.0\\
16.927281301831933	0.0\\
16.941629133228034	0.0\\
16.95605353179949	0.0\\
16.97043181818684	0.0\\
16.98486721936179	0.0\\
16.999287719664977	0.0\\
17.013705019751924	0.0\\
17.028131731650262	0.0\\
17.04259860786197	0.0\\
17.05713262614129	0.0\\
17.071596645084703	0.0\\
17.08607132942946	0.0\\
17.100587506954987	0.0\\
17.115142718759003	0.0\\
17.129757888779793	0.0\\
17.144321866616202	0.0\\
17.158917446694105	0.0\\
17.173516115390974	0.0\\
17.188137368713015	0.0\\
17.202807108472804	0.0\\
17.21749410193175	0.0\\
17.23224258325026	0.0\\
17.246929495562703	0.0\\
17.26164699828928	0.0\\
17.276336922161704	0.0\\
17.291097979063274	0.0\\
17.305885992565337	0.0\\
17.320667008922868	0.0\\
17.33541336564108	0.0\\
17.350290357130724	0.0\\
17.365117247207976	0.0\\
17.37999340111272	0.0\\
17.394868536694	0.0\\
17.409769278502786	0.0\\
17.424673706378478	0.0\\
17.439607556220935	0.0\\
17.454696959431296	0.0\\
17.469641305711164	0.0\\
17.484666964949064	0.0\\
17.49967824135873	0.0\\
17.51476720633822	0.0\\
17.529837106188488	0.0\\
17.54496331829433	0.0\\
17.560150332783934	0.0\\
17.575318372816263	0.0\\
17.59046896995369	0.0\\
17.605555151400658	0.0\\
17.620813986517575	0.0\\
17.636121501389184	0.0\\
17.65139002454856	0.0\\
17.6667043673246	0.0\\
17.682013828037903	0.0\\
17.697382338581306	0.0\\
17.712826790730475	0.0\\
17.728218149793044	0.0\\
17.74363824306331	0.0\\
17.75915193237561	0.0\\
17.774758337927643	0.0\\
17.790261316625802	0.0\\
17.805832007201204	0.0\\
17.821438855225438	0.0\\
17.83707617553096	0.0\\
17.85279131227788	0.0\\
17.868564883259467	0.0\\
17.884364268477654	0.0\\
17.90011884530208	0.0\\
17.91592017858799	0.0\\
17.931810456098937	0.0\\
17.94770580660979	0.0\\
17.963697077201076	0.0\\
17.979722338380185	0.0\\
17.99580670331462	0.0\\
18.01184115705319	0.0\\
18.027914828782585	0.0\\
18.04408992469527	0.0\\
18.060293361242017	0.0\\
18.076525936298033	0.0\\
18.09280609366065	0.0\\
18.109152313628314	0.0\\
18.125590381375034	0.0\\
18.142058462301968	0.0\\
18.15866308219568	0.0\\
18.175239195856214	0.0\\
18.19194561289641	0.0\\
18.208652663196943	0.0\\
18.225317832085864	0.0\\
18.24218171455049	0.0\\
18.258964635508562	0.0\\
18.27598545704189	0.0\\
18.293008622913348	0.0\\
18.31007513041289	0.0\\
18.327201791908244	0.0\\
18.344362601552895	0.0\\
18.361640045984977	0.0\\
18.379017864309418	0.0\\
18.396432548850555	0.0\\
18.413913643144966	0.0\\
18.43146070689015	0.0\\
18.449138254801284	0.0\\
18.46687380605303	0.0\\
18.484719375260212	0.0\\
18.50268690109325	0.0\\
18.520727491283324	0.0\\
18.538850130513588	0.0\\
18.557081867660116	0.0\\
18.57545962921001	0.0\\
18.59389434809119	0.0\\
18.612493288614402	0.0\\
18.631253108557445	0.0\\
18.650174788520857	0.0\\
18.669231563858368	0.0\\
18.688328404788642	0.0\\
18.707697856814598	0.0\\
18.7271464360822	0.0\\
18.746683530341492	0.0\\
18.766420271133512	0.0\\
18.78646548874081	0.0\\
18.806739246406465	0.0\\
18.827139819992517	0.0\\
18.84780617598493	0.0\\
18.86871514962131	0.0\\
18.889805793279642	0.0\\
18.911102046739586	0.0\\
18.932616098256872	0.0\\
18.954463545411983	0.0\\
18.976662043313766	0.0\\
18.999170735191584	0.0\\
19.02182085306964	0.0\\
19.044456942501007	0.0\\
19.067397970885203	0.0\\
19.09032538135733	0.0\\
19.113049642758703	0.0\\
19.135856447582007	0.0\\
19.158404241991704	0.0\\
19.180740136747197	0.0\\
19.20278385335874	0.0\\
19.224481329459998	0.0\\
19.2459961123578	0.0\\
19.267392715124636	0.0\\
19.288253784049225	0.0\\
19.30893389214293	0.0\\
19.329377048164474	0.0\\
19.34963700355828	0.0\\
19.369621125604397	0.0\\
19.38941360092805	0.0\\
19.40910654518099	0.0\\
19.428410472737916	0.0\\
19.447610135203547	0.0\\
19.466684781382966	0.0\\
19.48560651047508	0.0\\
19.50433787113238	0.0\\
19.52294651170604	0.0\\
19.541438541716907	0.0\\
19.559757146262783	0.0\\
19.577923055851414	0.0\\
19.596021197543386	0.0\\
19.61392115579183	0.0\\
19.63180265935086	0.0\\
19.649472869959247	0.0\\
19.667158355534134	0.0\\
19.684738304875864	0.0\\
19.70211781843517	0.0\\
19.719453675717233	0.0\\
19.736722565819242	0.0\\
19.753905086740325	0.0\\
19.770993064926557	0.0\\
19.78793562013675	0.0\\
19.791327466606447	0.0\\
19.791578561624767	0.0\\
19.791765730620362	0.0\\
19.791935415342103	0.0\\
19.792936893779938	0.0\\
19.79671487105262	0.0\\
19.80677759999267	0.0\\
19.823731678137264	0.0\\
19.84026024136456	0.0\\
19.856891648350306	0.0\\
19.873581148702932	0.0\\
19.890395745495283	0.0\\
19.907326548463637	0.0\\
19.92428053558116	0.0\\
19.941353795176425	0.0\\
19.958568326833138	0.0\\
19.975925043467292	0.0\\
19.993399002001972	0.0\\
20.010998447239544	0.0\\
20.028607225361938	0.0\\
20.046419161021255	0.0\\
20.064347309604408	0.0\\
20.082369787599454	0.0\\
20.10054013978131	0.0\\
20.11892812276008	0.0\\
20.137372891505663	0.0\\
20.155918484413334	0.0\\
20.17473644715288	0.0\\
20.19374633627524	0.0\\
20.21291021405004	0.0\\
20.23216030291193	0.0\\
20.251762463198112	0.0\\
20.271429467015963	0.0\\
20.291294544226467	0.0\\
20.311468775854287	0.0\\
20.33184408053215	0.0\\
20.35245329793053	0.0\\
20.37328516029814	0.0\\
20.39431464010402	0.0\\
20.415468384560157	0.0\\
20.436768232379187	0.0\\
20.4581872573848	0.0\\
20.479779367635615	0.0\\
20.501522911472087	0.0\\
20.523450506302495	0.0\\
20.545179642449362	0.0\\
20.566957126909493	0.0\\
20.58849116005942	0.0\\
20.610104942594248	0.0\\
20.63156981769346	0.0\\
20.652802861382327	0.0\\
20.67390024872509	0.0\\
20.69469012467313	0.0\\
20.715418134866795	0.0\\
20.735969778027567	0.0\\
20.756286343710713	0.0\\
20.776447949858323	0.0\\
20.796431649970636	0.0\\
20.816266289244844	0.0\\
20.835969161795113	0.0\\
20.85555075452475	0.0\\
20.875142797618913	0.0\\
20.894542710363474	0.0\\
20.913776796817935	0.0\\
20.93283914095049	0.0\\
20.951898171283695	0.0\\
20.970868559863995	0.0\\
20.98968643199786	0.0\\
21.008390208657147	0.0\\
21.026966759909513	0.0\\
21.045543558770554	0.0\\
21.063961978835735	0.0\\
21.082337557207993	0.0\\
21.100610231211363	0.0\\
21.118906045303646	0.0\\
21.137089192483003	0.0\\
21.15521388502124	0.0\\
21.17325152703667	0.0\\
21.191183179680444	0.0\\
21.209035351500454	0.0\\
21.226819179785736	0.0\\
21.24457051764356	0.0\\
21.262339953059147	0.0\\
21.279977113750384	0.0\\
21.29757735332617	0.0\\
21.315134774213597	0.0\\
21.33257890473945	0.0\\
21.35003175543988	0.0\\
21.3674749107995	0.0\\
21.38483998617012	0.0\\
21.402173770147932	0.0\\
21.41952047930713	0.0\\
21.436778458490856	0.0\\
21.454023151754498	0.0\\
21.471198843447908	0.0\\
21.48830028086757	0.0\\
21.505364648037116	0.0\\
21.52258946055013	0.0\\
21.539619091980498	0.0\\
21.55669703623873	0.0\\
21.573766373901144	0.0\\
21.590742494302965	0.0\\
21.607846111671194	0.0\\
21.624797767654478	0.0\\
21.641688936644684	0.0\\
21.658539191705486	0.0\\
21.675334830613423	0.0\\
21.692139950742117	0.0\\
21.7089341835135	0.0\\
21.72569327916314	0.0\\
21.74247431985409	0.0\\
21.7592211951823	0.0\\
21.775949282356216	0.0\\
21.792670135911123	0.0\\
21.809302026157972	0.0\\
21.82589289641495	0.0\\
21.842546279377977	0.0\\
21.859209384799996	0.0\\
21.875793491336637	0.0\\
21.89242741699374	0.0\\
21.908977934383145	0.0\\
21.92557849085157	0.0\\
21.942132393881465	0.0\\
21.958676530961505	0.0\\
21.975232101305203	0.0\\
21.991746897328852	0.0\\
22.00828294599946	0.0\\
22.024866507615386	0.0\\
22.04139016014514	0.0\\
22.05784850912221	0.0\\
22.074410985484903	0.0\\
22.09092832636844	0.0\\
22.10735466631855	0.0\\
22.12384317258052	0.0\\
22.140232720135153	0.0\\
22.156717529825684	0.0\\
22.17321716346236	0.0\\
22.189633947441322	0.0\\
22.20612372840477	0.0\\
22.222606216019273	0.0\\
22.239018538751004	0.0\\
22.25545250621952	0.0\\
22.271958973803777	0.0\\
22.288381996933317	0.0\\
22.304835862676065	0.0\\
22.321245287485873	0.0\\
22.337610265342292	0.0\\
22.35401027015628	0.0\\
22.37041856243868	0.0\\
22.386895121985397	0.0\\
22.403241365040643	0.0\\
22.419638658177647	0.0\\
22.436017420071437	0.0\\
22.452450282493764	0.0\\
22.468897433991224	0.0\\
22.485324077484385	0.0\\
22.501775282710334	0.0\\
22.518177765618894	0.0\\
22.53460642979968	0.0\\
22.55105786861551	0.0\\
22.5674922566332	0.0\\
22.58393279127789	0.0\\
22.600314258139697	0.0\\
22.616694109864376	0.0\\
22.633201328720872	0.0\\
22.64968766892622	0.0\\
22.66616821979548	0.0\\
22.682589890461863	0.0\\
22.699013511741335	0.0\\
22.715418145813175	0.0\\
22.73185282139294	0.0\\
22.74829377664149	0.0\\
22.76476150799673	0.0\\
22.781210289905523	0.0\\
22.797622035854545	0.0\\
22.814034998738194	0.0\\
22.830511853777935	0.0\\
22.84695995805344	0.0\\
22.86345889891121	0.0\\
22.879939819864916	0.0\\
22.896418563957603	0.0\\
22.91296922913004	0.0\\
22.929454626209804	0.0\\
22.945991998262166	0.0\\
22.962501614375732	0.0\\
22.979086420027883	0.0\\
22.995705675417412	0.0\\
23.0122694382709	0.0\\
23.028864855916744	0.0\\
23.045491999640944	0.0\\
23.062081847951873	0.0\\
23.07869040033617	0.0\\
23.095331805321102	0.0\\
23.1119381500138	0.0\\
23.128562036691008	0.0\\
23.145195395167207	0.0\\
23.161801768979885	0.0\\
23.17848916676357	0.0\\
23.195157410694364	0.0\\
23.211842083120125	0.0\\
23.228613388411475	0.0\\
23.245300987616844	0.0\\
23.262058811851603	0.0\\
23.278853119264603	0.0\\
23.295647425207385	0.0\\
23.312410320274473	0.0\\
23.329227437000696	0.0\\
23.346111446154545	0.0\\
23.362975604148154	0.0\\
23.37983176414977	0.0\\
23.39664490055889	0.0\\
23.413486955320856	0.0\\
23.430315622660665	0.0\\
23.4471580544108	0.0\\
23.4640143671269	0.0\\
23.48082189403977	0.0\\
23.497698490762595	0.0\\
23.51470301926772	0.0\\
23.531649303221265	0.0\\
23.548610401198673	0.0\\
23.56562745193701	0.0\\
23.582643711316997	0.0\\
23.599626496616587	0.0\\
23.616692273477682	0.0\\
23.633795276621967	0.0\\
23.65087497831997	0.0\\
23.667979973744437	0.0\\
23.685043993066017	0.0\\
23.70218919530449	0.0\\
23.719264843862597	0.0\\
23.73645242459682	0.0\\
23.753662042087605	0.0\\
23.77086921125899	0.0\\
23.78812499981815	0.0\\
23.805411839198932	0.0\\
23.822662648634292	0.0\\
23.839970345787556	0.0\\
23.857259879618326	0.0\\
23.87465662709249	0.0\\
23.89204703687186	0.0\\
23.90950769987146	0.0\\
23.926928655631144	0.0\\
23.94439736091323	0.0\\
23.961931607848562	0.0\\
23.979484430812235	0.0\\
23.996981157622272	0.0\\
24.014594149413803	0.0\\
24.03220772946449	0.0\\
24.04987003273356	0.0\\
24.067514983420565	0.0\\
24.08515169409037	0.0\\
24.102881844761	0.0\\
24.120635261448314	0.0\\
24.138405762533957	0.0\\
24.156278392364733	0.0\\
24.17408874725067	0.0\\
24.191901522719625	0.0\\
24.209738583436014	0.0\\
24.227699784758364	0.0\\
24.245660074200657	0.0\\
24.263706628180337	0.0\\
24.281778345326785	0.0\\
24.29978215378062	0.0\\
24.317817883040625	0.0\\
24.335943824365415	0.0\\
24.35416029284876	0.0\\
24.37230750180479	0.0\\
24.390538776194163	0.0\\
24.408783440076576	0.0\\
24.427060633187658	0.0\\
24.44544101617575	0.0\\
24.46380735298184	0.0\\
24.48225216778662	0.0\\
24.50073060596059	0.0\\
24.51922514486975	0.0\\
24.537751087290665	0.0\\
24.556251963112494	0.0\\
24.574838965106274	0.0\\
24.59357698201042	0.0\\
24.61227877812216	0.0\\
24.63105567922488	0.0\\
24.649845548226757	0.0\\
24.668634266594175	0.0\\
24.68758791197054	0.0\\
24.706539222872337	0.0\\
24.72549367585996	0.0\\
24.744543210223533	0.0\\
24.763531958506974	0.0\\
24.782709931603122	0.0\\
24.801917363348338	0.0\\
24.821168902566022	0.0\\
24.84047921884406	0.0\\
24.859830228350106	0.0\\
24.879354827321393	0.0\\
24.898834563995663	0.0\\
24.91837556811671	0.0\\
24.93798558269164	0.0\\
24.957720799124814	0.0\\
24.977437945581336	0.0\\
24.997287916067464	0.0\\
25.017153277362354	0.0\\
25.0371684532304	0.0\\
25.057105868738326	0.0\\
25.077280852352253	0.0\\
25.09743939844177	0.0\\
25.11775820873907	0.0\\
25.138111411138276	0.0\\
25.158522343783837	0.0\\
25.17896626508712	0.0\\
25.199576018210493	0.0\\
25.2202630671539	0.0\\
25.241044413680868	0.0\\
25.261868397663918	0.0\\
25.282786160844424	0.0\\
25.303904367613093	0.0\\
25.32511982394675	0.0\\
25.346439317244332	0.0\\
25.367867404752545	0.0\\
25.378179598884003	0.0\\
25.38932446108631	0.0\\
25.41082209507359	0.0\\
25.432622437468147	0.0\\
25.454518430633634	0.0\\
25.476514834486785	0.0\\
25.49880182427954	0.0\\
25.52121212160595	0.0\\
25.543766444672144	0.0\\
25.56653317665551	0.0\\
25.589402907529156	0.0\\
25.612430041191267	0.0\\
25.635787398113592	0.0\\
25.659273724011236	0.0\\
25.682975823646053	0.0\\
25.707045313542345	0.0\\
25.731272966965506	0.0\\
25.75566128216756	0.0\\
25.78042124208433	0.0\\
25.80532717846041	0.0\\
25.83078737025265	0.0\\
25.85639364394997	0.0\\
25.882458513497077	0.0\\
25.908712039744017	0.0\\
25.935674217136153	0.0\\
25.963136627135945	0.0\\
25.990918403666925	0.0\\
26.019307566497005	0.0\\
26.04820157737359	0.0\\
26.0779127416238	0.0\\
26.107863966312607	0.0\\
26.138513813647407	0.0\\
26.169318259237407	0.0\\
26.19994139216155	0.0\\
26.230198925552195	0.0\\
26.260107044337964	0.0\\
26.289325129701183	0.0\\
26.31807851043635	0.0\\
26.346249563207188	0.0\\
26.374066219374214	0.0\\
26.401317681920332	0.0\\
26.428069431680306	0.0\\
26.45442534276785	0.0\\
26.48041464986933	0.0\\
26.506032750560557	0.0\\
26.531405379111376	0.0\\
26.556500304122615	0.0\\
26.581270650049134	0.0\\
26.60575679605082	0.0\\
26.63017737994599	0.0\\
26.654241994962945	0.0\\
26.67805268788112	0.0\\
26.70171200536069	0.0\\
26.725247973031045	0.0\\
26.74861189607929	0.0\\
26.771862466718275	0.0\\
26.795011464148352	0.0\\
26.8179723812113	0.0\\
26.840801967532336	0.0\\
26.86350177077803	0.0\\
26.886084230769335	0.0\\
26.908523622818088	0.0\\
26.930783049773822	0.0\\
26.952982209330642	0.0\\
26.97507292679161	0.0\\
26.979472524874815	0.0\\
26.982354900385523	0.0\\
26.991682136662945	0.0\\
26.992752335455812	0.0\\
26.99305501926522	0.0\\
26.993335441714756	0.0\\
26.995059184611158	0.0\\
27.001309222121485	0.0\\
27.019266412294385	0.0\\
27.041754387439227	0.0\\
27.06454597965294	0.0\\
27.08751365424007	0.0\\
27.110621600857264	0.0\\
27.13406373652402	0.0\\
27.15767942611543	0.0\\
27.181663975500896	0.0\\
27.205781161891927	0.0\\
27.23026362078314	0.0\\
27.255002897544664	0.0\\
27.280070212606994	0.0\\
27.305397777638873	0.0\\
27.331020322207458	0.0\\
27.357145512811123	0.0\\
27.383483882539288	0.0\\
27.410188276639282	0.0\\
27.437235217123124	0.0\\
27.464804846808917	0.0\\
27.492793947960436	0.0\\
27.5212153189049	0.0\\
27.549926415634303	0.0\\
27.578841494184445	0.0\\
27.607934401914505	0.0\\
27.637161078403473	0.0\\
27.666209136166756	0.0\\
27.69523830986796	0.0\\
27.724172966913038	0.0\\
27.752765001583683	0.0\\
27.781095174216638	0.0\\
27.808991457314733	0.0\\
27.836748891760763	0.0\\
27.864265798045736	0.0\\
27.891305627673013	0.0\\
27.918220858300288	0.0\\
27.944823281400218	0.0\\
27.97102665868966	0.0\\
27.997009042035074	0.0\\
28.022899992933098	0.0\\
28.048526084937883	0.0\\
28.07400445000725	0.0\\
28.099300671657865	0.0\\
28.12444360422853	0.0\\
28.149500837547777	0.0\\
28.174309219579015	0.0\\
28.198931623218762	0.0\\
28.22350301772604	0.0\\
28.247943455090912	0.0\\
28.27220294448187	0.0\\
28.29634522503074	0.0\\
28.320370618169072	0.0\\
28.344330293287214	0.0\\
28.368217795468404	0.0\\
28.392056290837537	0.0\\
28.415873427075567	0.0\\
28.439542492586376	0.0\\
28.462996420079755	0.0\\
28.486426106101263	0.0\\
28.509905383753747	0.0\\
28.533319804048098	0.0\\
28.556641145092364	0.0\\
28.57988927505646	0.0\\
28.603080769848596	0.0\\
28.62615517171828	0.0\\
28.649274740457017	0.0\\
28.672232925060968	0.0\\
28.695159318054316	0.0\\
28.718076225353272	0.0\\
28.740875380303976	0.0\\
28.763679647440547	0.0\\
28.786392989926867	0.0\\
28.809108105000398	0.0\\
28.83174753417631	0.0\\
28.854495413886724	0.0\\
28.8771784470255	0.0\\
28.899715337979295	0.0\\
28.922334825506205	0.0\\
28.94487614729431	0.0\\
28.948727545336602	2.349666376478696E-6\\
28.95268178481153	9.693654511601743E-6\\
28.9564271996379	2.132837990766412E-5\\
28.960162993894826	3.753682154852722E-5\\
28.963921439074987	5.855078503131549E-5\\
28.96786484893775	8.574848009878692E-5\\
28.971791605204892	1.1814689034438699E-4\\
28.975738688012605	1.5613707463919905E-4\\
28.979670412117095	1.994637555500798E-4\\
28.983436538658758	2.4617055761480826E-4\\
28.987373038732997	3.005101167469319E-4\\
28.991180173249077	3.585023129802134E-4\\
28.99502422573186	4.2255579665116E-4\\
28.999005419843364	4.947960070129948E-4\\
29.002972568693195	5.728330283353955E-4\\
29.006357194935227	6.442474658394184E-4\\
29.009880805634076	7.233844304052866E-4\\
29.013409834527742	8.075953918454777E-4\\
29.017316106229224	9.066546288646784E-4\\
29.020932681282794	0.0010039063433060131\\
29.024553624499625	0.0011066743770833734\\
29.02835631920999	0.001220482520384029\\
29.032180926548804	0.0013410931404184137\\
29.036174946183856	0.0014737030127538213\\
29.040096610484525	0.0016106044049544054\\
29.04408049227404	0.0017565490945849731\\
29.047831151980176	0.0019003508515260232\\
29.05165107399708	0.0020532612117959\\
29.05558692478543	0.002217697741891354\\
29.05914486865811	0.002372423598945024\\
29.06313960007251	0.0025530971326304525\\
29.066678681141973	0.00271936797440184\\
29.070538425023628	0.002907421568866686\\
29.074407503153516	0.003103033767394117\\
29.078426595749576	0.003313840459754469\\
29.08243307378295	0.0035317839954574094\\
29.086259580065594	0.0037472824222056908\\
29.089818770767394	0.003954232635366352\\
29.093782791966646	0.004192175721145516\\
29.097620774540367	0.004430107496427671\\
29.10144526484781	0.004674668690480891\\
29.105482256337574	0.004940982199488367\\
29.10952187386779	0.005215942304665072\\
29.113340371377042	0.005483720203411332\\
29.117159864370528	0.005759291223001997\\
29.120881143417733	0.006035272607969933\\
29.124902849990804	0.006341929643410196\\
29.128921287581527	0.006657125990233362\\
29.132732762755232	0.006964281555635448\\
29.136717865902398	0.00729403732962665\\
29.140711830772	0.007633433711243318\\
29.144295450525817	0.00794561660546515\\
29.147956705415986	0.00827210639587686\\
29.15196958928496	0.008638782806350713\\
29.15603579579234	0.00901983048217141\\
29.159928510277425	0.009393656426879077\\
29.16391558560762	0.009785787347592528\\
29.16794112054408	0.010191270748909801\\
29.171954104559553	0.010605142279739698\\
29.175867014091388	0.011018050730806802\\
29.1797056273655	0.011432171585087015\\
29.18358417542573	0.011859780367137716\\
29.18767218257009	0.012320550267363617\\
29.191775761996112	0.012793551407445921\\
29.19587556430031	0.013276685342660018\\
29.199857241580872	0.013756092640764207\\
29.203937784128115	0.01425790999788534\\
29.207885262469006	0.014753563387129093\\
29.211994864482094	0.015280315591252355\\
29.216111741680926	0.015819073192771094\\
29.219704177183807	0.016298323285921144\\
29.223366302320713	0.01679568846759688\\
29.227250191688313	0.017332967706443665\\
29.2313080501562	0.017905160769006973\\
29.235245096639225	0.01847099088073298\\
29.239209671994544	0.019051478263886763\\
29.243312670439593	0.019663623124584015\\
29.247395844496246	0.020284395711548664\\
29.251382293627067	0.02090169499447498\\
29.255499109848643	0.021550914510471635\\
29.259596421091757	0.02220898017448615\\
29.263583696914132	0.022860874390726177\\
29.267589667583962	0.023527331106961223\\
29.2716295872589	0.024211197122350696\\
29.275559577741795	0.02488786601481744\\
29.2794127669043	0.025562312003256274\\
29.28321903598998	0.02623931025096677\\
29.287360524212474	0.026988166512673488\\
29.291366529379296	0.027724736134476485\\
29.295541507747366	0.028505240978397635\\
29.299578811402185	0.029272581203263072\\
29.303767796694686	0.03008190800734694\\
29.307803524693007	0.03087438256734501\\
29.311918915198127	0.03169547990199492\\
29.31599201518035	0.03252112909233178\\
29.32019583346947	0.03338691675521023\\
29.32435218864083	0.034256640625237714\\
29.32855655719711	0.03515037388009619\\
29.33277262180819	0.03606078696846804\\
29.336835563263058	0.03695167024715282\\
29.341026259599552	0.03788457484956129\\
29.345057990116786	0.03879560138394286\\
29.34923423975821	0.03975334235098911\\
29.353356084357955	0.040712720484837775\\
29.357389010825656	0.04166505772446087\\
29.361615782377697	0.04267775499362496\\
29.36581591180245	0.043698945769745784\\
29.37004769504533	0.044742923815966215\\
29.37431977239641	0.045812302271766345\\
29.37858728140521	0.04689614119464493\\
29.38271632424361	0.04795974884487096\\
29.38676351575605	0.049016613520559985\\
29.39088302664819	0.05010702950836737\\
29.39502792411413	0.051219184691984165\\
29.399073011655418	0.05231916871012311\\
29.403334606266526	0.053493729763374284\\
29.407502440900203	0.0546581215767115\\
29.4117412834063	0.0558583410562927\\
29.41599956618021	0.05708039465047521\\
29.420256588109147	0.05831854099513836\\
29.42453969776078	0.05958097470398134\\
29.42872973660765	0.06083227757045198\\
29.433074290732236	0.06214684763471302\\
29.43739136545117	0.06347046864706152\\
29.44167197091832	0.06480009780737611\\
29.445839222650733	0.0661110526611561\\
29.450155909184488	0.06748631513759282\\
29.454391062402237	0.06885280194173868\\
29.45857228101194	0.07021869098469438\\
29.46278049606461	0.07161034926717083\\
29.467145877128402	0.07307204884283056\\
29.47150410640564	0.07454980552839485\\
29.475836260501282	0.07603709282948884\\
29.480115938388316	0.07752444754302915\\
29.484501999604703	0.07906752431737432\\
29.488877824118482	0.0806260143986321\\
29.49296311307677	0.08209826130136422\\
29.496729068166275	0.08347024446842036\\
29.500648438069305	0.0849132870902802\\
29.505054143374387	0.08655394840054492\\
29.509336246491173	0.08816749717483041\\
29.51358692862557	0.08978774480545287\\
29.51762514064204	0.09134419898711135\\
29.52191592336827	0.09301645259166977\\
29.526345450051878	0.09476281940927353\\
29.530725992881152	0.09650999843775918\\
29.53491910488369	0.09820126244110083\\
29.539356678721916	0.10001130332726399\\
29.543721494096964	0.10181200517658556\\
29.548094064577434	0.10363623286793344\\
29.552519639753022	0.10550339354034069\\
29.556937182294682	0.10738815724943618\\
29.561293615981306	0.10926749050584972\\
29.565740096628197	0.11120691226694782\\
29.5702052666296	0.11317618740997276\\
29.574666398897705	0.1151655068048455\\
29.578883636554053	0.11706622420918833\\
29.5832570450918	0.11905811968848792\\
29.58767964819956	0.12109405003252555\\
29.59220026955144	0.12319768892953673\\
29.59662607774787	0.12527943358089327\\
29.601128978353543	0.1274201178858962\\
29.60528165645357	0.12941467491556657\\
29.609826748430095	0.13162021991851858\\
29.61431611767874	0.1338219235374415\\
29.618718528058352	0.1360034762598366\\
29.623290294796327	0.13829264021386162\\
29.627797412190276	0.1405731691230031\\
29.63216149243098	0.14280388543658074\\
29.636500964295948	0.14504413472372168\\
29.640985717449624	0.1473826585350822\\
29.645547348774244	0.14978564698702096\\
29.649816241048406	0.15205679438383402\\
29.65425875707851	0.15444338257448192\\
29.658859685773407	0.15693998381909335\\
29.66296974044608	0.15919175108978328\\
29.667498030768307	0.16169628432920857\\
29.67204784775671	0.16423777816032276\\
29.67658862021306	0.1667993706914096\\
29.680791648696747	0.1691929210184358\\
29.68545357233009	0.1718732069101115\\
29.690084689715555	0.174562347082154\\
29.694384386022392	0.1770828493036275\\
29.69886790762107	0.17973563291265482\\
29.703425738449567	0.18245815223550493\\
29.70807718644992	0.18526349392772284\\
29.71249589776781	0.18795374746540994\\
29.716954343684733	0.19069326298042183\\
29.72122143280032	0.19333887960099227\\
29.72596550817356	0.19630753496427933\\
29.730701474123187	0.1992999106574379\\
29.735390249321092	0.20229093484750926\\
29.739847771209668	0.20516081436895306\\
29.744074548939366	0.2079059788705076\\
29.748461167034613	0.21077959791617001\\
29.753180190437043	0.21389910816970054\\
29.75775477828067	0.21695109010853797\\
29.762304274462053	0.2200137365495723\\
29.766983321470782	0.22319221942935824\\
29.771658350566184	0.22639708087031363\\
29.776364445775137	0.22965274700247984\\
29.780775226483513	0.2327311015755371\\
29.785406472022068	0.23599153949336565\\
29.78970662465327	0.23904486400796654\\
29.794491830533204	0.24247212695812947\\
29.799119939585317	0.24581657524528633\\
29.803561111637826	0.24905350624614037\\
29.808363003798952	0.2525838489815214\\
29.813254653205902	0.2562128957385521\\
29.818028778842006	0.25978672025798555\\
29.822540056580685	0.2631929169612762\\
29.827219309230486	0.2667559717944218\\
29.832064731345575	0.2704779096040497\\
29.83695536838666	0.2742680892260303\\
29.841553120602022	0.2778621110524161\\
29.846281450662957	0.28158948566112896\\
29.851090518802856	0.2854131676823626\\
29.85587733926735	0.2892519970361064\\
29.860870903146292	0.29329167719202953\\
29.865785072661055	0.2973022092592439\\
29.870671353032414	0.30132462184107456\\
29.875570017506014	0.305392039789271\\
29.880434239367467	0.3094654821416284\\
29.88490662586198	0.3132413492050783\\
29.889896830360783	0.3174890808315637\\
29.894689614458024	0.3216033366970761\\
29.899674334970605	0.32591843165426637\\
29.904459481108645	0.33009549632796165\\
29.90930693374304	0.33436177473806783\\
29.914012480143832	0.33853681024486615\\
29.919029870505547	0.3430251872549528\\
29.923574013651013	0.34712297850456286\\
29.928640224447292	0.35172841158487755\\
29.933617962682817	0.3562913991795249\\
29.9386078494952	0.36090345088350506\\
29.943555405033308	0.3655140091118294\\
29.948609458989992	0.3702626475974178\\
29.953140027462368	0.37455291708111016\\
29.957764925560497	0.37896528080630754\\
29.962901217161395	0.38390447081074686\\
29.96772838941478	0.388583882422343\\
29.972565789770663	0.3933097748308987\\
29.97753756867006	0.3982052275765846\\
29.982536269962516	0.40316644808145596\\
29.987631339847837	0.4082639717391854\\
29.992738922413217	0.4134153602262931\\
29.99777092584651	0.4185311513308122\\
30.003297846169936	0.4241967447024019\\
30.008493892732233	0.4295678580753347\\
30.01335432085913	0.43463140267132294\\
30.018142966739475	0.43965750302676265\\
30.023585573221794	0.4454151470173864\\
30.028825588428795	0.4510040229168176\\
30.033773819951662	0.45632286294745983\\
30.039064053066923	0.46205371588304645\\
30.0440128467527	0.4674563667609507\\
30.049289970783356	0.47326200305715727\\
30.05442005378157	0.4789500933892149\\
30.059382688341273	0.4844941530028395\\
30.064282036959384	0.4900078101878209\\
30.06967614135442	0.4961247253552895\\
30.074960740199536	0.5021648485829351\\
30.08015540837212	0.5081480577247528\\
30.085358955618794	0.5141872497770954\\
30.09023569181452	0.5198888593909663\\
30.09545268795587	0.5260331160424869\\
30.100689739840284	0.5322477591514687\\
30.106041465395087	0.5386470540315511\\
30.111040273042597	0.5446688471125689\\
30.11643175726504	0.5512120203508015\\
30.121339244975623	0.5572115674568876\\
30.12662388129211	0.5637189812776049\\
30.131983652675373	0.5703686384043725\\
30.137103179566935	0.5767670898514838\\
30.142210074726336	0.5831954056787017\\
30.147150416898498	0.5894574975688158\\
30.152411054796048	0.5961725649222629\\
30.157859631814226	0.6031786655509983\\
30.163276686879705	0.6101958590713739\\
30.16824070110134	0.6166714254792101\\
30.173065191581607	0.623006472773368\\
30.1787337957988	0.6305022289114237\\
30.18400810833885	0.6375273945649849\\
30.18897364853335	0.6441860730137539\\
30.194385937837986	0.6514933450299325\\
30.199997615246673	0.6591243957101633\\
30.205691485018583	0.6669240596039296\\
30.21095688791865	0.6741877951605764\\
30.216211330447003	0.681485306137487\\
30.22160587860302	0.689028257443163\\
30.22669559471686	0.6961922565623748\\
30.232413955914637	0.7042959084547689\\
30.237923788504858	0.712158956252289\\
30.243464669846063	0.7201207049865317\\
30.248853425820386	0.7279162261280563\\
30.254266390989855	0.7357987951462992\\
30.259484557602534	0.7434470933155648\\
30.264607247867893	0.751002663382095\\
30.270251984987837	0.7593824255624786\\
30.27569997271445	0.7675240570906712\\
30.281063953719475	0.7755919623817151\\
30.286421608036584	0.7837017159241633\\
30.292122599045456	0.7923875902539399\\
30.297326862598062	0.8003674954747768\\
30.303191391753295	0.8094180002280977\\
30.30867334365216	0.8179338904814641\\
30.314371151808587	0.8268422964985185\\
30.31974850830826	0.835303200643563\\
30.32529125913137	0.8440787774588003\\
30.330750058122064	0.8527754919985229\\
30.336611897431006	0.8621740909161786\\
30.342045967546746	0.87094216502776\\
30.348088228512403	0.8807541472614633\\
30.35363946510799	0.8898268783133223\\
30.35907966902753	0.8987721854411008\\
30.36454634671587	0.9078149548038079\\
30.36989884038021	0.9167212665048401\\
30.375467733013323	0.9260427553855706\\
30.380863485249634	0.935128072196741\\
30.386118001175518	0.944026352890766\\
30.3919680740077	0.9539921705943983\\
30.39764971787745	0.9637306044115592\\
30.402780897301966	0.97257599259659\\
30.40836891809783	0.9822634254776508\\
30.414141541545106	0.99233062224454\\
30.41955575134139	1.0018279740043106\\
30.42578150453145	1.012815010038342\\
30.43151992155012	1.0230046941838795\\
30.43762507126312	1.0339116582057106\\
30.4431298396526	1.0438044772107697\\
30.449073368182184	1.0545480853315468\\
30.45450305594374	1.0644194309230954\\
30.459896272272026	1.0742779758864587\\
30.465537029182606	1.0846461085392654\\
30.47127854438132	1.0952594371964803\\
30.476723509765755	1.1053805458867796\\
30.482171766974112	1.1155623393544167\\
30.48816324153792	1.1268223706896778\\
30.49375642604914	1.1373935415479046\\
30.499270969241003	1.1478725244245478\\
30.504585134006184	1.158023805039393\\
30.510535607217662	1.1694524389599672\\
30.516601659519168	1.1811703759367522\\
30.52227993424247	1.1922008692243526\\
30.52772209584799	1.2028286704246298\\
30.53345799015733	1.2140894378804017\\
30.539452220672736	1.2259225039362138\\
30.54503862276527	1.2370104556824968\\
30.550761946030548	1.2484302169640897\\
30.55671516692702	1.2603732256380673\\
30.56213875836285	1.2713110455777978\\
30.567970517317953	1.2831330453777219\\
30.57430332937365	1.2960424406559068\\
30.580155260204585	1.3080379530533808\\
30.58602300864375	1.3201299661972197\\
30.59198759523518	1.3324873485794995\\
30.597761225851222	1.3445123516079187\\
30.603240133003403	1.3559810918767181\\
30.6085245452048	1.3670958544302865\\
30.614670663126596	1.3800887458911828\\
30.620265693359627	1.3919781093026256\\
30.626392055188624	1.405063789467516\\
30.631983652675373	1.4170686326175406\\
30.632334906887614	1.4178247125879673\\
30.63846102548272	1.4310484833408998\\
30.644244332129688	1.4435966872508912\\
30.650311105740457	1.4568268199956997\\
30.655835491950697	1.4689334125111002\\
30.661209749590796	1.4807649323727108\\
30.66676484052671	1.4930501867309012\\
30.672821891913095	1.5065096653963033\\
30.678494014985766	1.5191741374237178\\
30.684344710192335	1.5322981374190685\\
30.69024696337867	1.5456000445505733\\
30.69648210340676	1.5597197260605795\\
30.70241603685784	1.5732214168970788\\
30.70830256036959	1.5866766485718564\\
30.71413905028922	1.6000775721333698\\
30.72028890130202	1.614262332786942\\
30.726735659834794	1.6292023992768336\\
30.732815100467704	1.6433569341416785\\
30.738862556536205	1.6574998964519838\\
30.744829662016194	1.6715160729838665\\
30.751093196003353	1.6862934644835668\\
30.757081212303078	1.7004826551528671\\
30.763105164564195	1.714817603444605\\
30.76922055181727	1.7294319427689584\\
30.775574282890695	1.744681428877819\\
30.78159304903552	1.7591882201478812\\
30.787486830058377	1.773451148643462\\
30.794291244502084	1.7899879832181602\\
30.800468814773907	1.8050661340262195\\
30.806652072420462	1.8202194437371255\\
30.812801970861038	1.8353514224902532\\
30.81891440889084	1.8504505554244757\\
30.82524021256743	1.866138624957082\\
30.831618827495447	1.8820209784600799\\
30.837775755371986	1.8974112415590847\\
30.843975923611332	1.9129686462093365\\
30.85018006392238	1.928594942336801\\
30.85652253677104	1.9446301728400037\\
30.862306826360708	1.9593071777090536\\
30.868360271721222	1.974720894896402\\
30.87446744422226	1.9903267701271168\\
30.880598201818707	2.006048455800576\\
30.886540232708725	2.0213389161322164\\
30.893033703526086	2.0381073346124516\\
30.899192321015164	2.054067544087782\\
30.90528089631251	2.0698999090619674\\
30.91151996551656	2.0861785730605593\\
30.917701078675414	2.102360492671634\\
30.924129880047694	2.1192479459758484\\
30.930276797887586	2.135448982354312\\
30.93695972393131	2.1531222239857284\\
30.943008515775247	2.1691715098578905\\
30.94930758923774	2.1859380038899827\\
30.955186377511637	2.2016343569509944\\
30.96157053120846	2.2187327114531152\\
30.967718460322224	2.2352498574606754\\
30.97372071318688	2.2514239524779045\\
30.980007730677237	2.268416193072058\\
30.986290085600523	2.2854473501425208\\
30.992575939923896	2.302539121002715\\
30.998866176044878	2.3196935855916134\\
31.005128746890755	2.336822652119234\\
31.011094677103536	2.3531864301884555\\
31.01726686620068	2.3701628662310092\\
31.023807124696944	2.388203309552342\\
31.03007054270966	2.405529521399977\\
31.036040287361367	2.4220879483239885\\
31.04236846391899	2.4396876746515437\\
31.048945938906975	2.458031691524038\\
31.05537530339594	2.4760123891184938\\
31.061846506842336	2.4941592997429085\\
31.06812034079188	2.511799435644342\\
31.07454861037923	2.5299210434266213\\
31.080907849638074	2.5478946745579476\\
31.087307106873716	2.566027781860721\\
31.09348656002873	2.5835817809945034\\
31.09968689140311	2.601237867474417\\
31.106282603485973	2.6200664333393844\\
31.11254591941666	2.637990160813704\\
31.11855249192982	2.6552190670601616\\
31.12477876175651	2.6731189753043223\\
31.131393715448368	2.6921814143713547\\
31.137885618307948	2.7109339863755073\\
31.14413556500405	2.7290290686859677\\
31.150599415311163	2.7477857546271967\\
31.157076362377843	2.766623144854443\\
31.163655818992517	2.7858019657830617\\
31.170047650483497	2.804475203376753\\
31.176336705770993	2.8228875110089913\\
31.18264208748613	2.8413863467853053\\
31.18909457858225	2.8603564834233763\\
31.195375131472794	2.878859278234545\\
31.201759009795488	2.89770460571369\\
31.207715814053472	2.9153234895263074\\
31.21410636970758	2.934261689753285\\
31.22056398029762	2.9534364310258194\\
31.226844300839417	2.9721207832809995\\
31.23302117160965	2.9905316183192836\\
31.23883864371075	3.007901924117668\\
31.245403898553818	3.0275403583528533\\
31.251368311138314	3.0454136268246534\\
31.257668284976205	3.0643252324068104\\
31.264005807638227	3.0833831206231235\\
31.270107897507536	3.101764439651676\\
31.276451341026892	3.1209050354579206\\
31.28295332484265	3.1405576866022313\\
31.289240510110893	3.159593089433354\\
31.29551554821373	3.1786226498885446\\
31.302026101759594	3.198398650520816\\
31.3083683266347	3.2176944671442396\\
31.31472248185507	3.2370569374317233\\
31.32121210632704	3.256863125342506\\
31.327410070224985	3.275807917339212\\
31.333439280975597	3.294263445331996\\
31.33964493452214	3.3132860128259374\\
31.34565986930741	3.3317496701386684\\
31.35203003540564	3.3513309372345965\\
31.358428921922403	3.3710282142170387\\
31.364715311938376	3.3904058315809635\\
31.370978308850034	3.409737163810675\\
31.37709952509323	3.4286553818959673\\
31.383443436456133	3.4482870023583088\\
31.389810917785596	3.468016871153888\\
31.396267946978647	3.488049653863378\\
31.402569645155495	3.5076247999454226\\
31.408870008117297	3.5272193367024567\\
31.415190463142643	3.54689958276634\\
31.421814884175888	3.5675507990302657\\
31.42816210572787	3.5873609447720183\\
31.434434954197776	3.6069607190848076\\
31.440776061547524	3.6267953184199087\\
31.44716861666258	3.6468123361054126\\
31.453661617718133	3.6671655182389546\\
31.459958081713616	3.6869230196699654\\
31.4662727380979	3.706757334325485\\
31.472632165625562	3.726751809631737\\
31.478920114708316	3.7465403999214537\\
31.4853008758327	3.7666397968672314\\
31.49171032393359	3.7868481032744663\\
31.498014780951095	3.8067430832954985\\
31.504266995087548	3.8264901102742135\\
31.51062133946131	3.846576529780144\\
31.51679866444548	3.8661192293066406\\
31.523004109308545	3.8857662064829244\\
31.529362261350137	3.9059121682424385\\
31.535737248782254	3.9261267933063833\\
31.542146036977847	3.9464636162728084\\
31.54840733224743	3.966346517469419\\
31.554758165797814	3.9865275627040813\\
31.56108724437094	4.006652887825494\\
31.5674145766478	4.02678560918892\\
31.573640584114685	4.046608146775384\\
31.57980828279866	4.066256579068419\\
31.586139837373338	4.0864385324161425\\
31.592474758052624	4.106642476877022\\
31.598807031395054	4.126848802671724\\
31.60508131134624	4.146880318842829\\
31.611420715545044	4.1671296810338685\\
31.617671078533213	4.187103976394798\\
31.624071342142564	4.207566489901861\\
31.63016328972654	4.227051500996954\\
31.636485315431464	4.24728099075654\\
31.64942247574075	4.288706039696642\\
31.66715638230957	4.345551849239758\\
31.687327050219118	4.410295075389007\\
31.706408523492577	4.47162687123474\\
31.725389245167655	4.532716452427799\\
31.744056840074705	4.592877621847419\\
31.762969156589442	4.653907739947753\\
31.78137343823566	4.7133759806796025\\
31.800262113613037	4.774488933343932\\
31.819940977772205	4.838244159537927\\
31.838873208775787	4.899662959800391\\
31.859251299760977	4.965862726964348\\
31.87842564748643	5.028237607455377\\
31.8977798415031	5.091281650565108\\
31.917581792983846	5.155871659782752\\
31.93743277924169	5.2207103714296\\
31.956759491651816	5.283922027699461\\
31.975729242090672	5.346048061869766\\
31.995005998389452	5.409262633153949\\
32.01501987239149	5.474983053874039\\
32.034239445450936	5.538180146181137\\
32.05398150419781	5.603181897487941\\
32.07329930957782	5.666871749831241\\
32.09224192726444	5.72940623341907\\
32.112305116913376	5.795728117007631\\
32.13222932600475	5.861680256337792\\
32.152484532340964	5.9288196335674765\\
32.1716844738925	5.992546388210799\\
32.190015900193984	6.053467840565496\\
32.210434820538254	6.121415727212321\\
32.23003769109445	6.18673627584209\\
32.2499219076919	6.253082602308165\\
32.27139881773306	6.324843017124222\\
32.29184581412365	6.393258541365711\\
32.312031046383765	6.460890363986858\\
32.33170186134613	6.526886679113103\\
32.35140708869095	6.593085602203486\\
32.372145197521306	6.662848638718465\\
32.39222222073869	6.730479789240324\\
32.412157641734666	6.797723484822734\\
32.432617636910095	6.866829371005009\\
32.45380194101581	6.938480685817504\\
32.4747189061092	7.009326583174294\\
32.4954385097797	7.07960078275436\\
32.51598235674642	7.149373939224699\\
32.536408728556864	7.218841946990901\\
32.55587094658324	7.285117992272124\\
32.57459544020787	7.348961953150765\\
32.578678671217546	7.362894776274365\\
32.579826806013415	7.366813121126269\\
32.58029692242181	7.36841761572868\\
32.58055795235278	7.36930852521713\\
32.58131818759949	7.371903336858583\\
32.581327943998645	7.371936637942849\\
32.5813387302324	7.37197345414077\\
32.581422261071026	7.372258567320779\\
32.58172170815459	7.373280673467814\\
32.58265169927945	7.376455150900476\\
32.58447322113909	7.382673384764406\\
32.58836076883148	7.395947016559711\\
32.59499891204416	7.418620102401221\\
32.606561797241255	7.458137599445497\\
32.62724559317343	7.528901578751947\\
32.6475358334156	7.598412228162612\\
32.6684404332602	7.670123991342736\\
32.68772918675094	7.736379502841036\\
32.70798685819983	7.806052849866054\\
32.729127819383436	7.878862088280107\\
32.74939807579766	7.948766547658247\\
32.770248589212414	8.020768003798825\\
32.79160962770413	8.094633259521352\\
32.8124801386289	8.166900851856013\\
32.83358266433703	8.240070851179972\\
32.855231520838956	8.315238617058004\\
32.87620388315207	8.388157386693372\\
32.89818868785474	8.464701822877686\\
32.91945777726518	8.538857110266903\\
32.940833151440344	8.613484753844485\\
32.962473491732126	8.689141398643393\\
32.98522356790069	8.768790506755725\\
33.00711721368941	8.845550285196701\\
33.028624143730255	8.921058366994057\\
33.05145883914942	9.001341004755467\\
33.07405757699651	9.08090855888329\\
33.095849913548065	9.157744723311282\\
33.116134267771955	9.229359129855208\\
33.138435776647086	9.308200990858879\\
33.16017597130495	9.385165134835692\\
33.18282396035221	9.465455015460392\\
33.20426793757014	9.541581826175452\\
33.226131792909484	9.619304644873324\\
33.2475744158735	9.695633413370896\\
33.268315169995915	9.769561128204575\\
33.289274365954356	9.844364698314159\\
33.31086814978647	9.921535337868573\\
33.332384729151144	9.998533233397374\\
33.354641234419304	10.078287310219633\\
33.37629249582183	10.155978235611432\\
33.4001336790609	10.241647770905956\\
33.422107695970794	10.320719802760483\\
33.443287255087185	10.397034563844432\\
33.464463544677514	10.473437161829807\\
33.48645302577725	10.552879096284656\\
33.50783183900825	10.630217783837121\\
33.51908071547405	10.670951768504725\\
};
\end{axis}
\end{tikzpicture}%
