%CL_evolution
\begin{tikzpicture}

\begin{axis}[
width=\figurewidth,
height=\figureheight,
scaled ticks=false, tick label style={/pgf/number format/fixed},
xmin=0.0,
xmax=36.19713128358251,
xlabel={Time (s)},
xmajorgrids,
ymin=0.0,
ymax=1.8829999312631553,
ylabel={CL },
ymajorgrids,
legend style={at={(1.03,0.5)},anchor=west,draw=black,fill=white,legend cell align=left}
]

\addplot [
color=black,
solid
]
table[row sep=crcr]{
9.999999999999999E-5	0.982\\
4.0547702617548074E-4	0.982\\
0.001196196967808376	0.982\\
0.0026958808139129764	0.982\\
0.0050498318402017826	0.982\\
0.008346026110849714	0.982\\
0.01351752110456549	0.982\\
0.019087548778946015	0.982\\
0.02492589881970618	0.982\\
0.03079449088510841	0.982\\
0.0366945502645773	0.982\\
0.04254864061183096	0.982\\
0.04846424891367422	0.982\\
0.05439247269538339	0.982\\
0.06025582016582863	0.982\\
0.0661595091405967	0.982\\
0.07207599598046407	0.982\\
0.0779372716883329	0.982\\
0.08362560263579366	0.982\\
0.08936262275480425	0.982\\
0.09529662225307367	0.982\\
0.10118363851227594	0.982\\
0.10697635402918232	0.982\\
0.11291393693360971	0.982\\
0.11876299082523295	0.982\\
0.12464857538741272	0.982\\
0.13059308446065004	0.982\\
0.1364596944671448	0.982\\
0.14240338747782189	0.982\\
0.14836067058947716	0.982\\
0.15432346851716316	0.982\\
0.16008960462681382	0.982\\
0.16599105972938605	0.982\\
0.17184304370275538	0.982\\
0.17775874867677788	0.982\\
0.18363387927537522	0.982\\
0.18965943713391414	0.982\\
0.19565044930051417	0.982\\
0.20156433422803932	0.982\\
0.20743550933230764	0.982\\
0.21331999254137418	0.982\\
0.21920725520778656	0.982\\
0.22504914079759714	0.982\\
0.2310431123652395	0.982\\
0.23696613562853247	0.982\\
0.2429105662110479	0.982\\
0.24885679105740016	0.982\\
0.2547696471968015	0.982\\
0.26080130958015946	0.982\\
0.26681030725126686	0.982\\
0.2727932385157229	0.982\\
0.27878600417022703	0.982\\
0.2847606661391243	0.982\\
0.2907985209614272	0.982\\
0.29682605815512464	0.982\\
0.3027621532876251	0.982\\
0.3087555753087391	0.982\\
0.314788539650662	0.982\\
0.32080374181820226	0.982\\
0.32678515068908975	0.982\\
0.3327758966132278	0.982\\
0.33871352390937937	0.982\\
0.3447980068492985	0.982\\
0.350835476437522	0.982\\
0.35680265631199404	0.982\\
0.36278679553551274	0.982\\
0.36882365055353694	0.982\\
0.3749424220715054	0.982\\
0.3809516117778061	0.982\\
0.38702859081536	0.982\\
0.39319446410027004	0.982\\
0.39931954830573246	0.982\\
0.40539251303719404	0.982\\
0.4114943953635234	0.982\\
0.4176101392013625	0.982\\
0.42370997981758973	0.982\\
0.4298945190846628	0.982\\
0.4360920097583978	0.982\\
0.44226529373739165	0.982\\
0.44852046279226354	0.982\\
0.4547229060757423	0.982\\
0.46100550927525785	0.982\\
0.46707700321774925	0.982\\
0.47324309173595214	0.982\\
0.4795225244331909	0.982\\
0.485649399081477	0.982\\
0.49195160709741015	0.982\\
0.49826776491186386	0.982\\
0.5044437535789883	0.982\\
0.5107641433743382	0.982\\
0.5169461924364238	0.982\\
0.523239722009458	0.982\\
0.5293945294616309	0.982\\
0.5356108186408004	0.982\\
0.5417639152143858	0.982\\
0.548154556714135	0.982\\
0.5545462247192741	0.982\\
0.5608458001221222	0.982\\
0.5671474959087845	0.982\\
0.5735426942555504	0.982\\
0.5799856720361938	0.982\\
0.5863873003207367	0.982\\
0.5927516015611922	0.982\\
0.5991605590771147	0.982\\
0.6054653833088299	0.982\\
0.6117874437057309	0.982\\
0.6182820451610449	0.982\\
0.6247050735142101	0.982\\
0.631115953157942	0.982\\
0.6375779695282531	0.982\\
0.6439447854000866	0.982\\
0.6503388250474857	0.982\\
0.6567360519430736	0.982\\
0.6632378060923863	0.982\\
0.6698092559463902	0.982\\
0.6763162459993386	0.982\\
0.6829232338103424	0.982\\
0.6894413566454458	0.982\\
0.6959468530668422	0.982\\
0.702474292592804	0.982\\
0.709063086372508	0.982\\
0.715756050889377	0.982\\
0.7223285929985699	0.982\\
0.7289549793911274	0.982\\
0.7356355755627579	0.982\\
0.7421743890212742	0.982\\
0.7487439256807782	0.982\\
0.7553487488937218	0.982\\
0.7619687237490347	0.982\\
0.7687972605347875	0.982\\
0.7754678258250336	0.982\\
0.7821025872314755	0.982\\
0.788733685771229	0.982\\
0.7955121239005505	0.982\\
0.80219559471791	0.982\\
0.8089602267230807	0.982\\
0.815668325286067	0.982\\
0.8222971443190825	0.982\\
0.8289844562724609	0.982\\
0.8357637419527064	0.982\\
0.8426052414176959	0.982\\
0.8493357955687988	0.982\\
0.8558656439620691	0.982\\
0.8628166307736735	0.982\\
0.8697121265423227	0.982\\
0.8765852601521791	0.982\\
0.8834550126370755	0.982\\
0.8900828948028865	0.982\\
0.8969197792477539	0.982\\
0.9038222550496873	0.982\\
0.9106884529436272	0.982\\
0.9175870057543603	0.982\\
0.9244021256924329	0.982\\
0.931352815788753	0.982\\
0.9380031151235124	0.982\\
0.9448668607908959	0.982\\
0.9516750271981869	0.982\\
0.9585483928523635	0.982\\
0.9655092112134946	0.982\\
0.972338654143944	0.982\\
0.9791094621470875	0.982\\
0.9859788981598718	0.982\\
0.9930464850855358	0.982\\
1.0000793834874915	0.982\\
1.0072592509613614	0.982\\
1.014416738256838	0.982\\
1.0213829683377202	0.982\\
1.0284448958020995	0.982\\
1.035428628289207	0.982\\
1.0424783263868966	0.982\\
1.049520422659994	0.982\\
1.05658170206171	0.982\\
1.063714009090778	0.982\\
1.0707145987880806	0.982\\
1.0780071169724175	0.982\\
1.0851648355649819	0.982\\
1.0922371820684464	0.982\\
1.0995170098825335	0.982\\
1.1067076848412523	0.982\\
1.113707881557271	0.982\\
1.1208568196215274	0.982\\
1.1283367204803283	0.982\\
1.1355443153823699	0.982\\
1.1426704612921061	0.982\\
1.1498743905869584	0.982\\
1.1569720385165074	0.982\\
1.1642253177432624	0.982\\
1.1714978661753173	0.982\\
1.1788383096111947	0.982\\
1.1860059415682018	0.982\\
1.1932148461062981	0.982\\
1.2005572573615733	0.982\\
1.207895295935009	0.982\\
1.2152918887094266	0.982\\
1.2225683351980163	0.982\\
1.229959519141401	0.982\\
1.23765087849626	0.982\\
1.2450897669115557	0.982\\
1.2527200543590649	0.982\\
1.2600471509283224	0.982\\
1.2675912758105894	0.982\\
1.274962900275205	0.982\\
1.2824117607088659	0.982\\
1.2898921400646546	0.982\\
1.2974205251804936	0.982\\
1.3050768075183128	0.982\\
1.3125234823226815	0.982\\
1.3199472756245676	0.982\\
1.327495212537099	0.982\\
1.3351578963951325	0.982\\
1.342740811454497	0.982\\
1.3504009135067996	0.982\\
1.3580588347835234	0.982\\
1.3657862505461953	0.982\\
1.3732924322509144	0.982\\
1.3812281989648096	0.982\\
1.3888072353839926	0.982\\
1.3966276958347188	0.982\\
1.4044102052472884	0.982\\
1.4121694616331566	0.982\\
1.4199725270159873	0.982\\
1.427730824554366	0.982\\
1.4355123135364707	0.982\\
1.4432200714429264	0.982\\
1.450899846390667	0.982\\
1.4587377760522156	0.982\\
1.466479772216016	0.982\\
1.474521864844311	0.982\\
1.4824128388788465	0.982\\
1.4905397106209866	0.982\\
1.498373032111342	0.982\\
1.5060372898223595	0.982\\
1.5140493896939438	0.982\\
1.521987433222538	0.982\\
1.5299859311519	0.982\\
1.537962779058251	0.982\\
1.545840353840637	0.982\\
1.553790993118589	0.982\\
1.561701251119655	0.982\\
1.5696564218605218	0.982\\
1.5774171461461908	0.982\\
1.585631490504404	0.982\\
1.5936074414572552	0.982\\
1.6014886389459053	0.982\\
1.6096254599921513	0.982\\
1.617937356565649	0.982\\
1.62589120599737	0.982\\
1.6340853265943553	0.982\\
1.642042804239352	0.982\\
1.6499773593840454	0.982\\
1.658043909444379	0.982\\
1.666225137897197	0.982\\
1.6741392795694252	0.982\\
1.6825795711088225	0.982\\
1.6907305842566567	0.982\\
1.698954668056511	0.982\\
1.7070947943988508	0.982\\
1.7152151741330273	0.982\\
1.723395409065382	0.982\\
1.7314533777429792	0.982\\
1.739653005547937	0.982\\
1.7478466953613738	0.982\\
1.7561584846186498	0.982\\
1.764362712113655	0.982\\
1.7725653001031798	0.982\\
1.7805689958742517	0.982\\
1.7889885389044453	0.982\\
1.7971846440511752	0.982\\
1.8053338004079937	0.982\\
1.8137068110859107	0.982\\
1.8219753989593643	0.982\\
1.8301558560838984	0.982\\
1.8384496317858625	0.982\\
1.847162774974839	0.982\\
1.8554014745510612	0.982\\
1.863711147604918	0.982\\
1.8721141462382307	0.982\\
1.8805240495598072	0.982\\
1.8891013121523246	0.982\\
1.8974128401521408	0.982\\
1.9059245208389926	0.982\\
1.914358259005399	0.982\\
1.923145996776599	0.982\\
1.9316047239722698	0.982\\
1.9400124525510138	0.982\\
1.9485931838678439	0.982\\
1.9570578222289368	0.982\\
1.9657310540328345	0.982\\
1.9741041387299068	0.982\\
1.982529754035523	0.982\\
1.9911711851183673	0.982\\
1.999830671187408	0.982\\
2.008323064650659	0.982\\
2.01681262002874	0.982\\
2.025515133262295	0.982\\
2.0343546038700264	0.982\\
2.043126061154906	0.982\\
2.0520332980257336	0.982\\
2.0609004533151296	0.982\\
2.0696597649135517	0.982\\
2.078450779612667	0.982\\
2.0871172726831357	0.982\\
2.0961200474104045	0.982\\
2.1048733905852606	0.982\\
2.1137239082281614	0.982\\
2.122489431264725	0.982\\
2.1315204412413005	0.982\\
2.1403500165339784	0.982\\
2.149335903162835	0.982\\
2.158269177799504	0.982\\
2.167164205130165	0.982\\
2.1759469057837606	0.982\\
2.184563102046149	0.982\\
2.1937064572938043	0.982\\
2.2026350121964526	0.982\\
2.2117048406011497	0.982\\
2.220520830755003	0.982\\
2.229617474427907	0.982\\
2.23864863654852	0.982\\
2.2476199799186842	0.982\\
2.2567973179409	0.982\\
2.2657913631141176	0.982\\
2.2748875882529784	0.982\\
2.284147736416905	0.982\\
2.2933444254462803	0.982\\
2.302647397168162	0.982\\
2.311834330802313	0.982\\
2.320958083852368	0.982\\
2.3301870417988173	0.982\\
2.339204753764877	0.982\\
2.3486226921118103	0.982\\
2.3576785291415625	0.982\\
2.366854627567596	0.982\\
2.3760873792673225	0.982\\
2.385309630414808	0.982\\
2.3946680684888966	0.982\\
2.4040050910542865	0.982\\
2.413387137327317	0.982\\
2.422671106707159	0.982\\
2.4318187883618636	0.982\\
2.4414838619923644	0.982\\
2.4509785782210107	0.982\\
2.4602307663724554	0.982\\
2.469547102319254	0.982\\
2.47908573728874	0.982\\
2.4884197052887345	0.982\\
2.497917255903345	0.982\\
2.5075023040368123	0.982\\
2.5169986011141905	0.982\\
2.5267314634399805	0.982\\
2.5363086828626136	0.982\\
2.5458039127519276	0.982\\
2.5553908309993814	0.982\\
2.564854842096623	0.982\\
2.574297035645036	0.982\\
2.5836890181567256	0.982\\
2.5930763004866817	0.982\\
2.602565694416869	0.982\\
2.612119222219472	0.982\\
2.621753134500997	0.982\\
2.631288513337629	0.982\\
2.6408069417224267	0.982\\
2.6506845410455595	0.982\\
2.660445573391205	0.982\\
2.6701547692071648	0.982\\
2.6799341375755565	0.982\\
2.6897678517916965	0.982\\
2.6993836484922733	0.982\\
2.7093084805720373	0.982\\
2.718904384680176	0.982\\
2.728993869154797	0.982\\
2.7388950218513557	0.982\\
2.748906154361517	0.982\\
2.758731790400839	0.982\\
2.768578071448676	0.982\\
2.7783538402650025	0.982\\
2.7883547431269893	0.982\\
2.7982814474899804	0.982\\
2.808106513789208	0.982\\
2.8181343426645435	0.982\\
2.8280140315833133	0.982\\
2.8380454523628442	0.982\\
2.8482429138818155	0.982\\
2.8583097916270708	0.982\\
2.8684563201272333	0.982\\
2.878380327306168	0.982\\
2.8883559384552395	0.982\\
2.8982647179357715	0.982\\
2.908425142505699	0.982\\
2.9184278705877444	0.982\\
2.928533529946429	0.982\\
2.9385832166491896	0.982\\
2.948785676080865	0.982\\
2.9588657970525505	0.982\\
2.9689494050557688	0.982\\
2.9793273535425486	0.982\\
2.9896186662981092	0.982\\
2.999908894639229	0.982\\
3.010141717570594	0.982\\
3.0204345088301965	0.982\\
3.030612733923234	0.982\\
3.0407875400531363	0.982\\
3.0511532244880675	0.982\\
3.061515271244465	0.982\\
3.0719992790986455	0.982\\
3.082193217790868	0.982\\
3.0926044018975354	0.982\\
3.102872084338034	0.982\\
3.1132694634825473	0.982\\
3.1239540998336315	0.982\\
3.134349901425346	0.982\\
3.1447351902935257	0.982\\
3.155297602934228	0.982\\
3.1656837612367896	0.982\\
3.1760535131087346	0.982\\
3.18656057249041	0.982\\
3.1971403613563734	0.982\\
3.2077712675048247	0.982\\
3.218157703512106	0.982\\
3.228838310637679	0.982\\
3.239397986683846	0.982\\
3.250012696413572	0.982\\
3.2604640110378167	0.982\\
3.271019544362103	0.982\\
3.2817455338397368	0.982\\
3.292559819560312	0.982\\
3.3030931106291783	0.982\\
3.313663237933153	0.982\\
3.324205002810232	0.982\\
3.3350072944493165	0.982\\
3.3457866036326847	0.982\\
3.3564931491418415	0.982\\
3.3670701971608548	0.982\\
3.37790548649951	0.982\\
3.3887067358203593	0.982\\
3.3996391932218817	0.982\\
3.4104732551878447	0.982\\
3.4212489648741977	0.982\\
3.4319054479508484	0.982\\
3.4425353592704555	0.982\\
3.4532203468879876	0.982\\
3.463999112166822	0.982\\
3.4747588009567565	0.982\\
3.4857765732824904	0.982\\
3.4967017612281666	0.982\\
3.507468858564465	0.982\\
3.518416165326906	0.982\\
3.5296106109255048	0.982\\
3.5405701338408413	0.982\\
3.551404832903895	0.982\\
3.5622758714786524	0.982\\
3.5730788651750514	0.982\\
3.5840876886619624	0.982\\
3.595095197128116	0.982\\
3.606150700435955	0.982\\
3.617437179832761	0.982\\
3.6284914655242275	0.982\\
3.6397178693755396	0.982\\
3.6508680588839697	0.982\\
3.662237523603098	0.982\\
3.673429659855133	0.982\\
3.684472258147692	0.982\\
3.69569933741328	0.982\\
3.706939382754519	0.982\\
3.7181548647978726	0.982\\
3.7294446437840882	0.982\\
3.7408477343303828	0.982\\
3.7522083034783584	0.982\\
3.763454698463665	0.982\\
3.77476075383378	0.982\\
3.786246578262986	0.982\\
3.7974303124749547	0.982\\
3.808837727876986	0.982\\
3.8201802166948164	0.982\\
3.8316060120821405	0.982\\
3.842946500016759	0.982\\
3.854202132275603	0.982\\
3.8654760227998484	0.982\\
3.8768002752049533	0.982\\
3.8882594111195976	0.982\\
3.8995259709900756	0.982\\
3.9110242815959824	0.982\\
3.9223970949164917	0.982\\
3.933681585886764	0.982\\
3.945219661598152	0.982\\
3.956728754261806	0.982\\
3.9680745190681757	0.982\\
3.979522253792581	0.982\\
3.9909235394485023	0.982\\
4.002357467107501	0.982\\
4.013991167721445	0.982\\
4.025615150134927	0.982\\
4.03703848290608	0.982\\
4.048525935040896	0.982\\
4.060097192365841	0.982\\
4.071490832892094	0.982\\
4.082971648599212	0.982\\
4.09446820230062	0.982\\
4.106116280361155	0.982\\
4.117692004290809	0.982\\
4.129176646572198	0.982\\
4.140829662317788	0.982\\
4.152305629068099	0.982\\
4.164103673181714	0.982\\
4.175776939843214	0.982\\
4.187350483601534	0.982\\
4.198992915568345	0.982\\
4.210669268563015	0.982\\
4.222206943980982	0.982\\
4.233754284516136	0.982\\
4.245249527607971	0.982\\
4.256738275424288	0.982\\
4.268313001899783	0.982\\
4.27993679780918	0.982\\
4.291446332512825	0.982\\
4.302889971953711	0.982\\
4.314629643336817	0.982\\
4.316980179178396	0.982\\
4.322817233807111	0.982\\
4.324976747798649	0.982\\
4.325133923898225	0.982\\
4.325233024346929	0.982\\
4.325339600420401	0.982\\
4.325955088541832	0.982\\
4.327805217662343	0.982\\
4.333346612941886	0.982\\
4.344595373312735	0.982\\
4.355418527330176	0.982\\
4.36625804095225	0.982\\
4.377001236468878	0.982\\
4.3878024097088275	0.982\\
4.398543607286124	0.982\\
4.409427314059975	0.982\\
4.4203425738094815	0.982\\
4.431335475475073	0.982\\
4.442252608745841	0.982\\
4.453147039979315	0.982\\
4.464155528328753	0.982\\
4.475324300871348	0.982\\
4.486353445439958	0.982\\
4.497249580105345	0.982\\
4.508174475025985	0.982\\
4.519293478223847	0.982\\
4.530421347842696	0.982\\
4.541443023729327	0.982\\
4.552431036712701	0.982\\
4.563546333427134	0.982\\
4.5746114883066955	0.982\\
4.585772091777059	0.982\\
4.596725427297091	0.982\\
4.607919764237749	0.982\\
4.619140836744506	0.982\\
4.630310741577695	0.982\\
4.641475488016706	0.982\\
4.652669853583367	0.982\\
4.663947688751401	0.982\\
4.675390293992521	0.982\\
4.68678454426062	0.982\\
4.697998029448897	0.982\\
4.709286661831484	0.982\\
4.720584830290482	0.982\\
4.731727091823053	0.982\\
4.743025128752626	0.982\\
4.7544970327849185	0.982\\
4.765897063655762	0.982\\
4.777371981917513	0.982\\
4.7887211669906815	0.982\\
4.800046324807166	0.982\\
4.811434968404669	0.982\\
4.822869733364465	0.982\\
4.8343948128582355	0.982\\
4.845931778937842	0.982\\
4.857361316962759	0.982\\
4.86902060139723	0.982\\
4.880548706109357	0.982\\
4.892048876768394	0.982\\
4.903602263648091	0.982\\
4.91520531657074	0.982\\
4.926732140226873	0.982\\
4.938281557091015	0.982\\
4.949874485081654	0.982\\
4.961368036391031	0.982\\
4.9730107497036915	0.982\\
4.9847061416614675	0.982\\
4.996443050329129	0.982\\
5.008135609761444	0.982\\
5.019846592751598	0.982\\
5.031489067392847	0.982\\
5.043235750575203	0.982\\
5.054992299088358	0.982\\
5.06666234107664	0.982\\
5.07833961390036	0.982\\
5.089919201492359	0.982\\
5.101618883836052	0.982\\
5.113362392583971	0.982\\
5.124975023455473	0.982\\
5.1367279344521375	0.982\\
5.148542121321743	0.982\\
5.1601604915162245	0.982\\
5.172005526751089	0.982\\
5.183780543489599	0.982\\
5.195466141206815	0.982\\
5.207382926633148	0.982\\
5.2191547216069445	0.982\\
5.2310503934086	0.982\\
5.242758474155311	0.982\\
5.254488877199604	0.982\\
5.26628510474136	0.982\\
5.278201085229526	0.982\\
5.290107813067989	0.982\\
5.302026470340035	0.982\\
5.313759659534206	0.982\\
5.325685798679318	0.982\\
5.337342056901999	0.982\\
5.3490985067336165	0.982\\
5.36078953746839	0.982\\
5.372695181401873	0.982\\
5.38464159168033	0.982\\
5.396475528039106	0.982\\
5.40835516364479	0.982\\
5.420225989392652	0.982\\
5.431995088864774	0.982\\
5.443961088030404	0.982\\
5.455878640497588	0.982\\
5.467976782748934	0.982\\
5.479781279552078	0.982\\
5.491654339616614	0.982\\
5.503508742651215	0.982\\
5.515497398747751	0.982\\
5.527504553066764	0.982\\
5.539327354299656	0.982\\
5.551446215826855	0.982\\
5.5633799899858225	0.982\\
5.575407308276045	0.982\\
5.587562510126128	0.982\\
5.599488898217073	0.982\\
5.611514149483705	0.982\\
5.623411858841605	0.982\\
5.635374622221505	0.982\\
5.64732861629815	0.982\\
5.659296979586216	0.982\\
5.671383857796631	0.982\\
5.683345189461736	0.982\\
5.695223584458574	0.982\\
5.7071641346436515	0.982\\
5.719078347869905	0.982\\
5.731043812592398	0.982\\
5.743081605224663	0.982\\
5.754964805167301	0.982\\
5.766924225204251	0.982\\
5.778909908339552	0.982\\
5.790787575837337	0.982\\
5.802787056709809	0.982\\
5.814863610726444	0.982\\
5.826876299323905	0.982\\
5.8389118753685505	0.982\\
5.851011652640265	0.982\\
5.862992073523678	0.982\\
5.875025467669014	0.982\\
5.887149532529971	0.982\\
5.899003373824639	0.982\\
5.910988095368955	0.982\\
5.922953928516089	0.982\\
5.934972291971702	0.982\\
5.947133928305675	0.982\\
5.959076622218806	0.982\\
5.9712504312970385	0.982\\
5.983314263777336	0.982\\
5.995408826996401	0.982\\
6.007341595534246	0.982\\
6.019454386509938	0.982\\
6.031505166551105	0.982\\
6.0436840431553165	0.982\\
6.055938019340132	0.982\\
6.067998541252134	0.982\\
6.080009904245738	0.982\\
6.092049530647094	0.982\\
6.104112834131524	0.982\\
6.116189908296162	0.982\\
6.128320016641004	0.982\\
6.1403681849165395	0.982\\
6.152358991427652	0.982\\
6.164351311331648	0.982\\
6.176484802094816	0.982\\
6.188754512339759	0.982\\
6.2008839288010655	0.982\\
6.2131634355656615	0.982\\
6.225393633955292	0.982\\
6.237429645658155	0.982\\
6.2496288345311655	0.982\\
6.261715489527642	0.982\\
6.273921766515617	0.982\\
6.286173201630259	0.982\\
6.29852987438222	0.982\\
6.310515258317141	0.982\\
6.322781858752929	0.982\\
6.335060408276394	0.982\\
6.347251055127137	0.982\\
6.359495727918789	0.982\\
6.371709213965888	0.982\\
6.383940239860095	0.982\\
6.396173464334822	0.982\\
6.4083819062506	0.982\\
6.420603385157197	0.982\\
6.432781107009934	0.982\\
6.445067031542569	0.982\\
6.457459128326711	0.982\\
6.469659583894057	0.982\\
6.48199295276685	0.982\\
6.494234715099994	0.982\\
6.506561497962412	0.982\\
6.518878280632645	0.982\\
6.531342003773387	0.982\\
6.54385895491324	0.982\\
6.556384752534042	0.982\\
6.568808329083934	0.982\\
6.581253627342772	0.982\\
6.593807758340757	0.982\\
6.606138354224019	0.982\\
6.618661432326423	0.982\\
6.631131155600475	0.982\\
6.643494992961928	0.982\\
6.656156734272768	0.982\\
6.66873452738947	0.982\\
6.681173989064115	0.982\\
6.693690454189426	0.982\\
6.706056263225673	0.982\\
6.718476606483515	0.982\\
6.730996963341369	0.982\\
6.743626880942797	0.982\\
6.756078395715859	0.982\\
6.7686585222456745	0.982\\
6.781171227484531	0.982\\
6.793789193197625	0.982\\
6.806287119315895	0.982\\
6.818866873713034	0.982\\
6.831492009989086	0.982\\
6.844264614060961	0.982\\
6.8569021534165735	0.982\\
6.8695121091510725	0.982\\
6.882264796162843	0.982\\
6.89491983111199	0.982\\
6.907591085353928	0.982\\
6.920208227907873	0.982\\
6.932799630927594	0.982\\
6.945502665944698	0.982\\
6.958218269898991	0.982\\
6.971010739585726	0.982\\
6.983757905872528	0.982\\
6.996452115087864	0.982\\
7.009129298377058	0.982\\
7.022006381067559	0.982\\
7.035082386445389	0.982\\
7.047827212455836	0.982\\
7.060592557499026	0.982\\
7.073482702165391	0.982\\
7.086425223806881	0.982\\
7.099317396383393	0.982\\
7.112205166693663	0.982\\
7.125078486780193	0.982\\
7.138085146857954	0.982\\
7.151120016190838	0.982\\
7.164229407448973	0.982\\
7.177278376294659	0.982\\
7.190321758273756	0.982\\
7.2033650619669505	0.982\\
7.216391937412833	0.982\\
7.229587191408179	0.982\\
7.242746501405955	0.982\\
7.255866219064181	0.982\\
7.269045193997574	0.982\\
7.28214977701389	0.982\\
7.295352597947929	0.982\\
7.3084974113430885	0.982\\
7.321705579555299	0.982\\
7.334943596131838	0.982\\
7.348186871421504	0.982\\
7.361460786958824	0.982\\
7.374649427933992	0.982\\
7.388035211755698	0.982\\
7.401406209073773	0.982\\
7.414577357493309	0.982\\
7.427947894998889	0.982\\
7.441329505535812	0.982\\
7.454854566757275	0.982\\
7.468324757618776	0.982\\
7.481880538649383	0.982\\
7.4954724563010835	0.982\\
7.508966228017586	0.982\\
7.522648622332177	0.982\\
7.5361702304924805	0.982\\
7.549881583397356	0.982\\
7.563633647487189	0.982\\
7.577353653380412	0.982\\
7.59098740422589	0.982\\
7.604686424762338	0.982\\
7.618660883923752	0.982\\
7.632410070127563	0.982\\
7.646050142894017	0.982\\
7.6598093086302	0.982\\
7.673615836159648	0.982\\
7.687363177648589	0.982\\
7.70142577281919	0.982\\
7.715380751883265	0.982\\
7.729261007883055	0.982\\
7.743168092408009	0.982\\
7.757286269704538	0.982\\
7.771406250306324	0.982\\
7.785300858379967	0.982\\
7.799479263188649	0.982\\
7.813618976131368	0.982\\
7.82768611553303	0.982\\
7.8416569195749535	0.982\\
7.855791527354258	0.982\\
7.8700743591572735	0.982\\
7.884483963978383	0.982\\
7.898833824402651	0.982\\
7.913127286990047	0.982\\
7.927492049905506	0.982\\
7.941852264395854	0.982\\
7.956550558029839	0.982\\
7.97089234937107	0.982\\
7.98552073496314	0.982\\
8.000169215658389	0.982\\
8.014640426459135	0.982\\
8.029208786617684	0.982\\
8.043805743218133	0.982\\
8.05854494842879	0.982\\
8.073327519250235	0.982\\
8.088026315956785	0.982\\
8.102774849763627	0.982\\
8.117591739726041	0.982\\
8.132461417912221	0.982\\
8.147276406965648	0.982\\
8.162179292137438	0.982\\
8.177140245120448	0.982\\
8.192106166478819	0.982\\
8.207228929942929	0.982\\
8.222319456207654	0.982\\
8.237361699220163	0.982\\
8.252659071274298	0.982\\
8.26773276681098	0.982\\
8.283010005300024	0.982\\
8.298185482011874	0.982\\
8.313229762527591	0.982\\
8.328281657761895	0.982\\
8.343471091938664	0.982\\
8.358498065000276	0.982\\
8.373810206516836	0.982\\
8.389098704104725	0.982\\
8.404528189736016	0.982\\
8.419749743044612	0.982\\
8.434990530290612	0.982\\
8.450149368407565	0.982\\
8.465277946135814	0.982\\
8.480635642891617	0.982\\
8.496061186357121	0.982\\
8.511229635987831	0.982\\
8.526264582896001	0.982\\
8.541457569300832	0.982\\
8.556631014450321	0.982\\
8.57189658321451	0.982\\
8.587024434333344	0.982\\
8.602183832394136	0.982\\
8.617448568542258	0.982\\
8.632605740416796	0.982\\
8.647915435286844	0.982\\
8.66316637797124	0.982\\
8.678222223257325	0.982\\
8.693179349360477	0.982\\
8.708156384327314	0.982\\
8.723207263255762	0.982\\
8.738083603252438	0.982\\
8.752912069742198	0.982\\
8.767789885287211	0.982\\
8.782658512859317	0.982\\
8.797482961111307	0.982\\
8.812227163509437	0.982\\
8.826928689042855	0.982\\
8.841628035004895	0.982\\
8.856101548436307	0.982\\
8.87063118014958	0.982\\
8.885207282874262	0.982\\
8.899696483505664	0.982\\
8.91421148347549	0.982\\
8.917118632614198	0.982\\
8.918680905034716	0.982\\
8.918936205290223	0.982\\
8.919182532663314	0.982\\
8.91978537879432	0.982\\
8.920328523571168	0.982\\
8.922126728915124	0.982\\
8.92705682036356	0.982\\
8.93907576649666	0.982\\
8.951938311234962	0.982\\
8.964803411291111	0.982\\
8.977606812173232	0.982\\
8.990667713916594	0.982\\
9.003676371759308	0.982\\
9.016808784653843	0.982\\
9.029951738797656	0.982\\
9.043085451646636	0.982\\
9.0563369824844	0.982\\
9.069663820974824	0.982\\
9.082953262124278	0.982\\
9.096344611734509	0.982\\
9.109799113583296	0.982\\
9.123387351611733	0.982\\
9.136885980708424	0.982\\
9.150547067566794	0.982\\
9.164194919560284	0.982\\
9.17786508088135	0.982\\
9.191589429726665	0.982\\
9.205294743473974	0.982\\
9.219231743600261	0.982\\
9.233196527811451	0.982\\
9.24718998192451	0.982\\
9.26116353140134	0.982\\
9.275228752773405	0.982\\
9.289345322666591	0.982\\
9.303625769696232	0.982\\
9.317845134456032	0.982\\
9.332057529599322	0.982\\
9.34647966602805	0.982\\
9.36091199528201	0.982\\
9.375379807818618	0.982\\
9.38986020532558	0.982\\
9.404295212337882	0.982\\
9.418870628743932	0.982\\
9.43349982683969	0.982\\
9.448092994827896	0.982\\
9.462712270181314	0.982\\
9.4772666661069	0.982\\
9.492001238108973	0.982\\
9.506671310307027	0.982\\
9.521390497984314	0.982\\
9.536121841736378	0.982\\
9.550928234401272	0.982\\
9.565750394709475	0.982\\
9.580539139176313	0.982\\
9.59543816846536	0.982\\
9.610374515624159	0.982\\
9.625128578314218	0.982\\
9.639910996148718	0.982\\
9.654619381027821	0.982\\
9.669274070084047	0.982\\
9.684012394146897	0.982\\
9.698863531677468	0.982\\
9.713631579805263	0.982\\
9.728396311392423	0.982\\
9.742925958044072	0.982\\
9.757557199652208	0.982\\
9.772136303185675	0.982\\
9.786671625869207	0.982\\
9.801380266375357	0.982\\
9.81591713065141	0.982\\
9.830507324764167	0.982\\
9.844973556167336	0.982\\
9.85952901971276	0.982\\
9.874094726574118	0.982\\
9.888649851746102	0.982\\
9.903078008919358	0.982\\
9.917523826035811	0.982\\
9.932053833630043	0.982\\
9.946360111454997	0.982\\
9.960593708720559	0.982\\
9.97487410906816	0.982\\
9.98917640582285	0.982\\
10.00342511151462	0.982\\
10.01767415525876	0.982\\
10.031952699507755	0.982\\
10.04617091788909	0.982\\
10.060281761829128	0.982\\
10.074480340834157	0.982\\
10.08860602176005	0.982\\
10.10268475090686	0.982\\
10.116661500196432	0.982\\
10.130662303229922	0.982\\
10.144767627656027	0.982\\
10.158842050833915	0.982\\
10.172873000914397	0.982\\
10.186853649243684	0.982\\
10.20093562775013	0.982\\
10.214965442710795	0.982\\
10.228940996449545	0.982\\
10.24276857458256	0.982\\
10.25677172352636	0.982\\
10.270574673428921	0.982\\
10.284492381080195	0.982\\
10.298287164596996	0.982\\
10.31218382736224	0.982\\
10.325926002377884	0.982\\
10.339768116092031	0.982\\
10.353554940138324	0.982\\
10.367198824531386	0.982\\
10.381027599845293	0.982\\
10.39485818148324	0.982\\
10.40866991299173	0.982\\
10.422275760798808	0.982\\
10.436035248296577	0.982\\
10.449743604748438	0.982\\
10.463388959646501	0.982\\
10.477061685124884	0.982\\
10.490804754111444	0.982\\
10.504485347739681	0.982\\
10.518085270730637	0.982\\
10.531755106850305	0.982\\
10.545456967900908	0.982\\
10.559144023506871	0.982\\
10.57272884450462	0.982\\
10.586325321786337	0.982\\
10.599868549246068	0.982\\
10.613495004555972	0.982\\
10.627079082436982	0.982\\
10.640675190681016	0.982\\
10.654244229490473	0.982\\
10.667806112262266	0.982\\
10.681439316095968	0.982\\
10.694918328081098	0.982\\
10.708414258852788	0.982\\
10.722058433472725	0.982\\
10.735588132869747	0.982\\
10.74910164079931	0.982\\
10.762668257150004	0.982\\
10.776137759002065	0.982\\
10.78966459236321	0.982\\
10.803212498786674	0.982\\
10.81670645012585	0.982\\
10.830134008958314	0.982\\
10.843605552910265	0.982\\
10.857028797677561	0.982\\
10.870464645699684	0.982\\
10.883951685976797	0.982\\
10.897406156753839	0.982\\
10.910864633955402	0.982\\
10.92428434031941	0.982\\
10.937680364791891	0.982\\
10.951146704552073	0.982\\
10.964599199391579	0.982\\
10.978102569773778	0.982\\
10.99152518190676	0.982\\
11.005010353955768	0.982\\
11.018501661725104	0.982\\
11.031957722183872	0.982\\
11.045430985342716	0.982\\
11.058998048090945	0.982\\
11.072466703366821	0.982\\
11.085880100834718	0.982\\
11.099398804139025	0.982\\
11.112858490350355	0.982\\
11.126398090875878	0.982\\
11.139928277847371	0.982\\
11.15342083976703	0.982\\
11.166907150940244	0.982\\
11.18043628406026	0.982\\
11.193941297046681	0.982\\
11.207444566796163	0.982\\
11.22086598852314	0.982\\
11.234418647888859	0.982\\
11.247945161237727	0.982\\
11.261490010644238	0.982\\
11.275010230274674	0.982\\
11.288607839621989	0.982\\
11.302172975607345	0.982\\
11.315714970229351	0.982\\
11.329250260077885	0.982\\
11.34278558823464	0.982\\
11.356305274103871	0.982\\
11.369839981928187	0.982\\
11.383508730353043	0.982\\
11.39711249289828	0.982\\
11.410719182162751	0.982\\
11.424413599520413	0.982\\
11.438127049989415	0.982\\
11.451875055238204	0.982\\
11.465452531915023	0.982\\
11.47907483111446	0.982\\
11.492746587362365	0.982\\
11.50643411765828	0.982\\
11.520112602795496	0.982\\
11.533702638297171	0.982\\
11.547478658043179	0.982\\
11.561205411249741	0.982\\
11.57490618493794	0.982\\
11.588592267312457	0.982\\
11.602372787271548	0.982\\
11.616136404296835	0.982\\
11.629817551818068	0.982\\
11.643681689362491	0.982\\
11.657482205305751	0.982\\
11.671285244299437	0.982\\
11.685157434571156	0.982\\
11.699044308721877	0.982\\
11.71290263398042	0.982\\
11.726787148222133	0.982\\
11.7406820592848	0.982\\
11.754578588547016	0.982\\
11.768484542727592	0.982\\
11.782423946488361	0.982\\
11.796420365667736	0.982\\
11.810326856561762	0.982\\
11.824307398603324	0.982\\
11.838200221895672	0.982\\
11.852276426330931	0.982\\
11.86625504767045	0.982\\
11.880329010132495	0.982\\
11.894379898540208	0.982\\
11.908366904980571	0.982\\
11.922452000251866	0.982\\
11.936577533615708	0.982\\
11.950737092310408	0.982\\
11.964903217428272	0.982\\
11.97913453758639	0.982\\
11.993268776415082	0.982\\
12.00748051820906	0.982\\
12.021778438797533	0.982\\
12.03605809034908	0.982\\
12.050326060681545	0.982\\
12.064627908499887	0.982\\
12.078932092364816	0.982\\
12.09326678307017	0.982\\
12.107580727509628	0.982\\
12.12193500146578	0.982\\
12.13630451906376	0.982\\
12.150830025253708	0.982\\
12.165232624797586	0.982\\
12.179816958843688	0.982\\
12.194343700415736	0.982\\
12.20895937364536	0.982\\
12.2234973897144	0.982\\
12.238138888077025	0.982\\
12.252811028537401	0.982\\
12.267426500072375	0.982\\
12.282067049090337	0.982\\
12.296768860813089	0.982\\
12.311526181042314	0.982\\
12.326200513755644	0.982\\
12.340931006426047	0.982\\
12.355776564048966	0.982\\
12.370659041129208	0.982\\
12.3855888736324	0.982\\
12.400492917935562	0.982\\
12.415427421545207	0.982\\
12.430369206648813	0.982\\
12.445398446782217	0.982\\
12.46041005799977	0.982\\
12.475488843418677	0.982\\
12.490682964362318	0.982\\
12.50581100958022	0.982\\
12.520980968712038	0.982\\
12.536220719431718	0.982\\
12.55152384341444	0.982\\
12.566881875189722	0.982\\
12.58218070909971	0.982\\
12.597579944669526	0.982\\
12.613195145283218	0.982\\
12.62864785566265	0.982\\
12.644275505926664	0.982\\
12.659958574353531	0.982\\
12.675652408403966	0.982\\
12.691481899364899	0.982\\
12.707245007648549	0.982\\
12.723133489562695	0.982\\
12.73900002276433	0.982\\
12.754951567022445	0.982\\
12.77094787358411	0.982\\
12.787120687629919	0.982\\
12.80324608641163	0.982\\
12.819422277458909	0.982\\
12.835563292769713	0.982\\
12.851995041052646	0.982\\
12.868284855937691	0.982\\
12.884864948018368	0.982\\
12.901529431766672	0.982\\
12.918103154174783	0.982\\
12.934829773067136	0.982\\
12.951597899996198	0.982\\
12.968417110558192	0.982\\
12.985343960535303	0.982\\
13.002221728313152	0.982\\
13.019273578968868	0.982\\
13.036431024629394	0.982\\
13.05372853682196	0.982\\
13.071181418049704	0.982\\
13.088632320522532	0.982\\
13.10621621741986	0.982\\
13.123884048629822	0.982\\
13.14186384694803	0.982\\
13.159683297804722	0.982\\
13.17751726223893	0.982\\
13.195563182953485	0.982\\
13.213675740677566	0.982\\
13.23175186095619	0.982\\
13.24993547265693	0.982\\
13.268361379487352	0.982\\
13.286831664408144	0.982\\
13.305492144132149	0.982\\
13.324161014964126	0.982\\
13.342725594373103	0.982\\
13.361602843226834	0.982\\
13.380215787649092	0.982\\
13.398891307177717	0.982\\
13.417616876825964	0.982\\
13.436418560612715	0.982\\
13.455179620043907	0.982\\
13.473879423150287	0.982\\
13.4924400853523	0.982\\
13.510937883884385	0.982\\
13.529301808977849	0.982\\
13.547774558538126	0.982\\
13.566177428819852	0.982\\
13.584257539252363	0.982\\
13.60234070595192	0.982\\
13.620336496074103	0.982\\
13.63832846337883	0.982\\
13.656182707896026	0.982\\
13.673780807319496	0.982\\
13.691367209141557	0.982\\
13.708910892895162	0.982\\
13.726245700862112	0.982\\
13.743603889667188	0.982\\
13.760754107368157	0.982\\
13.777642694258883	0.982\\
13.794574796696132	0.982\\
13.81137080070545	0.982\\
13.82801747441923	0.982\\
13.844530621257107	0.982\\
13.8609520202663	0.982\\
13.877321946628943	0.982\\
13.893634449527816	0.982\\
13.90985014138123	0.982\\
13.925989900368098	0.982\\
13.942051025820206	0.982\\
13.95805019644169	0.982\\
13.961233898662456	0.982\\
13.963138247233513	0.982\\
13.964283386829049	0.982\\
13.964544526640744	0.982\\
13.965780788681517	0.982\\
13.9669040451578	0.982\\
13.971254757173565	0.982\\
13.982797625380567	0.982\\
13.99655902625117	0.982\\
14.01037235613093	0.982\\
14.024323469607229	0.982\\
14.038256599047813	0.982\\
14.052253026931169	0.982\\
14.066268816033556	0.982\\
14.080459221687807	0.982\\
14.094690801733773	0.982\\
14.108975260458372	0.982\\
14.123397303621005	0.982\\
14.137868142044617	0.982\\
14.152368014996952	0.982\\
14.167067414803988	0.982\\
14.1817838022884	0.982\\
14.196534674566433	0.982\\
14.211458274492522	0.982\\
14.226398004408125	0.982\\
14.241486950428811	0.982\\
14.256668075431932	0.982\\
14.271936342912106	0.982\\
14.287322962641454	0.982\\
14.30274477427474	0.982\\
14.318344468449212	0.982\\
14.333997035142794	0.982\\
14.34968570326205	0.982\\
14.365542851994618	0.982\\
14.381543132797958	0.982\\
14.397666004106533	0.982\\
14.41392904077939	0.982\\
14.430276157469798	0.982\\
14.446700942453965	0.982\\
14.463346151004188	0.982\\
14.480085377612134	0.982\\
14.49686487665722	0.982\\
14.513724640811244	0.982\\
14.530741496135146	0.982\\
14.547910425076086	0.982\\
14.565240146431147	0.982\\
14.582361055045332	0.982\\
14.599633525108938	0.982\\
14.617057364028643	0.982\\
14.634563836634811	0.982\\
14.651895042021934	0.982\\
14.6692608785484	0.982\\
14.686700716819338	0.982\\
14.704202715164023	0.982\\
14.721565712003503	0.982\\
14.738924980989044	0.982\\
14.75608459833174	0.982\\
14.773263819216027	0.982\\
14.790402817425797	0.982\\
14.807376183035025	0.982\\
14.824389211938552	0.982\\
14.841328413349107	0.982\\
14.858217627277078	0.982\\
14.874954851773126	0.982\\
14.891466356320581	0.982\\
14.90799748630285	0.982\\
14.924500921061288	0.982\\
14.94081502260795	0.982\\
14.957050414305137	0.982\\
14.97322531861574	0.982\\
14.989405245041418	0.982\\
15.00548865850826	0.982\\
15.021388800039887	0.982\\
15.037292086485241	0.982\\
15.053141347905342	0.982\\
15.068974972998863	0.982\\
15.084776396353153	0.982\\
15.100609503124733	0.982\\
15.116310874542705	0.982\\
15.131988730949825	0.982\\
15.147503327962461	0.982\\
15.162975208360425	0.982\\
15.17848528844311	0.982\\
15.19378814827353	0.982\\
15.209124301292942	0.982\\
15.224402761971032	0.982\\
15.23962289641685	0.982\\
15.254835270656276	0.982\\
15.269983716597391	0.982\\
15.28502202556567	0.982\\
15.300111146996365	0.982\\
15.315173331243948	0.982\\
15.330113556790778	0.982\\
15.34527739228847	0.982\\
15.360213142035686	0.982\\
15.375136469211217	0.982\\
15.390053699829505	0.982\\
15.404873199233709	0.982\\
15.419627062256826	0.982\\
15.434376826964378	0.982\\
15.449145371305843	0.982\\
15.463867559014794	0.982\\
15.478551460677103	0.982\\
15.493296174621275	0.982\\
15.507924190464422	0.982\\
15.522533792003262	0.982\\
15.537159654019344	0.982\\
15.551681813230445	0.982\\
15.56619345459023	0.982\\
15.58076738231972	0.982\\
15.595266475318908	0.982\\
15.60973020635329	0.982\\
15.62421797246753	0.982\\
15.638704001460876	0.982\\
15.65311928283089	0.982\\
15.66758783881794	0.982\\
15.681940891467892	0.982\\
15.696365856343466	0.982\\
15.710711879827162	0.982\\
15.72507685696235	0.982\\
15.73943799046841	0.982\\
15.753771979680202	0.982\\
15.768086790935378	0.982\\
15.782407183555048	0.982\\
15.796767403102528	0.982\\
15.81101501584645	0.982\\
15.82530755769356	0.982\\
15.839609961152984	0.982\\
15.85387446362692	0.982\\
15.868136953671225	0.982\\
15.882358131539036	0.982\\
15.896630688546605	0.982\\
15.910841220564201	0.982\\
15.92515169221221	0.982\\
15.939349831380667	0.982\\
15.95349969057187	0.982\\
15.96767962056552	0.982\\
15.981808120406559	0.982\\
15.995971001823918	0.982\\
16.010142772401956	0.982\\
16.02429692138662	0.982\\
16.038477709388673	0.982\\
16.05268771593144	0.982\\
16.066770099158063	0.982\\
16.080902354847588	0.982\\
16.095001798718073	0.982\\
16.109141650628835	0.982\\
16.123286017320396	0.982\\
16.13746658064668	0.982\\
16.15164675014818	0.982\\
16.165726864258538	0.982\\
16.179784767775637	0.982\\
16.193910034269663	0.982\\
16.208035814658892	0.982\\
16.222245354617407	0.982\\
16.236322669401503	0.982\\
16.250496748567194	0.982\\
16.26463416576083	0.982\\
16.2787508225138	0.982\\
16.292953253396377	0.982\\
16.307116060452067	0.982\\
16.321222622416116	0.982\\
16.33533540957857	0.982\\
16.3494311833514	0.982\\
16.36360030609749	0.982\\
16.37774917598604	0.982\\
16.391856018752136	0.982\\
16.405960057631816	0.982\\
16.420036954268937	0.982\\
16.43417854033823	0.982\\
16.44828659375461	0.982\\
16.462380382654004	0.982\\
16.476458374404345	0.982\\
16.490555744902693	0.982\\
16.504668730680628	0.982\\
16.51888629319003	0.982\\
16.533042006618203	0.982\\
16.547170037185765	0.982\\
16.561321538036538	0.982\\
16.57553454738092	0.982\\
16.589640438348603	0.982\\
16.603862908489866	0.982\\
16.617987749541882	0.982\\
16.63223692352142	0.982\\
16.646432964583703	0.982\\
16.660576306353676	0.982\\
16.674754614508835	0.982\\
16.689029122745183	0.982\\
16.703243930340534	0.982\\
16.717382096828743	0.982\\
16.731660908138977	0.982\\
16.74592803882259	0.982\\
16.760216487742156	0.982\\
16.774424560710315	0.982\\
16.78876113778253	0.982\\
16.80305886482045	0.982\\
16.81737442551273	0.982\\
16.831680062881823	0.982\\
16.845968082012327	0.982\\
16.860301033624218	0.982\\
16.874602279615488	0.982\\
16.889016753445453	0.982\\
16.903377722288468	0.982\\
16.917777153336367	0.982\\
16.932191244807214	0.982\\
16.94662306815883	0.982\\
16.961017333529483	0.982\\
16.975434102566076	0.982\\
16.989821428968263	0.982\\
17.004326777461863	0.982\\
17.01874590819515	0.982\\
17.03323245801694	0.982\\
17.04770848569367	0.982\\
17.06212034692308	0.982\\
17.076646368106495	0.982\\
17.09120217310705	0.982\\
17.105760926037114	0.982\\
17.120337607623156	0.982\\
17.134897773850064	0.982\\
17.149393526729952	0.982\\
17.16392884069858	0.982\\
17.17858028952149	0.982\\
17.193225591231794	0.982\\
17.20779322093395	0.982\\
17.222437346172484	0.982\\
17.237098891788534	0.982\\
17.251786089526327	0.982\\
17.266506329238013	0.982\\
17.28123185428325	0.982\\
17.295963722122117	0.982\\
17.31075000257487	0.982\\
17.325524884777245	0.982\\
17.340344189093223	0.982\\
17.355178635400684	0.982\\
17.37002346363056	0.982\\
17.384930333929887	0.982\\
17.399853073459674	0.982\\
17.41477425887313	0.982\\
17.429685256269394	0.982\\
17.44464962084541	0.982\\
17.45955558964379	0.982\\
17.47447140172804	0.982\\
17.489506811883167	0.982\\
17.504563315332064	0.982\\
17.519627589169552	0.982\\
17.53479183136446	0.982\\
17.549905231575003	0.982\\
17.56502983930556	0.982\\
17.580146771610828	0.982\\
17.595420053416795	0.982\\
17.610654855842412	0.982\\
17.625897148800085	0.982\\
17.641199605916704	0.982\\
17.65646538864651	0.982\\
17.67182056445096	0.982\\
17.68714305361572	0.982\\
17.70253591253725	0.982\\
17.717938028179134	0.982\\
17.733387041604253	0.982\\
17.74882672664218	0.982\\
17.764364105821798	0.982\\
17.779926428397914	0.982\\
17.795489140621086	0.982\\
17.811078140428222	0.982\\
17.8267536373111	0.982\\
17.842435787178232	0.982\\
17.85818298194063	0.982\\
17.873904806808135	0.982\\
17.88966516606677	0.982\\
17.905492644987746	0.982\\
17.921341146112447	0.982\\
17.93717097288991	0.982\\
17.953102126585414	0.982\\
17.969025582531565	0.982\\
17.984952587736842	0.982\\
18.00102378015616	0.982\\
18.017126707495855	0.982\\
18.033302540988068	0.982\\
18.049491458515895	0.982\\
18.065751709768627	0.982\\
18.081995175871953	0.982\\
18.09832224616838	0.982\\
18.114658848218063	0.982\\
18.131108758882128	0.982\\
18.14760632243226	0.982\\
18.16412390674278	0.982\\
18.18070575323557	0.982\\
18.19736241940668	0.982\\
18.21411856609189	0.982\\
18.230857792721878	0.982\\
18.247679795286167	0.982\\
18.264563036196144	0.982\\
18.281503921993682	0.982\\
18.298555191307813	0.982\\
18.315606853461865	0.982\\
18.332794992375	0.982\\
18.34998241610728	0.982\\
18.367273899849813	0.982\\
18.384581280923207	0.982\\
18.40199890389188	0.982\\
18.41957159502978	0.982\\
18.437182523981065	0.982\\
18.45484283878114	0.982\\
18.472584255360097	0.982\\
18.490576964381795	0.982\\
18.508586332157186	0.982\\
18.52666967655857	0.982\\
18.544800135939795	0.982\\
18.56292754244076	0.982\\
18.58113178638017	0.982\\
18.599523694847115	0.982\\
18.618216632979042	0.982\\
18.637136785649517	0.982\\
18.656135444669133	0.982\\
18.675067336022778	0.982\\
18.694107816441935	0.982\\
18.713468805508164	0.982\\
18.73299335657149	0.982\\
18.752696481274818	0.982\\
18.772412805088614	0.982\\
18.79242304083637	0.982\\
18.81264494974426	0.982\\
18.833146470950176	0.982\\
18.853857610572874	0.982\\
18.874816493417143	0.982\\
18.89605782141826	0.982\\
18.917481704088814	0.982\\
18.939462787938318	0.982\\
18.961577258418117	0.982\\
18.983694146939463	0.982\\
19.006054699848832	0.982\\
19.028789506424424	0.982\\
19.051390640164165	0.982\\
19.07430086056798	0.982\\
19.097252420674728	0.982\\
19.12008880550553	0.982\\
19.14282853458075	0.982\\
19.165280287141513	0.982\\
19.18763038965951	0.982\\
19.20967225199235	0.982\\
19.231391178460477	0.982\\
19.252834888102377	0.982\\
19.273980107356742	0.982\\
19.29489363819261	0.982\\
19.315450935689412	0.982\\
19.33599859528544	0.982\\
19.35610365170667	0.982\\
19.376032735228343	0.982\\
19.395805938527452	0.982\\
19.415322712502785	0.982\\
19.434668069957816	0.982\\
19.453847633016125	0.982\\
19.472891998636882	0.982\\
19.49175075723106	0.982\\
19.510446147875847	0.982\\
19.529006428040233	0.982\\
19.547440041493523	0.982\\
19.565744134342644	0.982\\
19.58398772211534	0.982\\
19.601928128761053	0.982\\
19.619887309471437	0.982\\
19.637668909678943	0.982\\
19.655341276307233	0.982\\
19.67286983414005	0.982\\
19.690386364175602	0.982\\
19.707717421503517	0.982\\
19.72502498040948	0.982\\
19.742175475045677	0.982\\
19.759351630929913	0.982\\
19.77640027128937	0.982\\
19.77979639344351	0.982\\
19.7899579508926	0.982\\
19.790625962535692	0.982\\
19.79119579678811	0.982\\
19.79147972085798	0.982\\
19.79166410860224	0.982\\
19.791876158004186	0.982\\
19.7929497896343	0.982\\
19.797138839418096	0.982\\
19.809848626659033	0.982\\
19.826236314842028	0.982\\
19.842810508857845	0.982\\
19.859428169955727	0.982\\
19.87615524586822	0.982\\
19.89298365821446	0.982\\
19.90997457677544	0.982\\
19.927000737013174	0.982\\
19.944099147628286	0.982\\
19.961294097288842	0.982\\
19.97866156624498	0.982\\
19.996099174397827	0.982\\
20.013738748314083	0.982\\
20.031333187981616	0.982\\
20.049133250858475	0.982\\
20.067115358790083	0.982\\
20.08512016545756	0.982\\
20.103326754027414	0.982\\
20.12166803635987	0.982\\
20.14017892875465	0.982\\
20.15885448995887	0.982\\
20.177692339000217	0.982\\
20.19665004516576	0.982\\
20.21593751799756	0.982\\
20.23520550957101	0.982\\
20.254717722838762	0.982\\
20.27443107845051	0.982\\
20.29439408559871	0.982\\
20.314601193496763	0.982\\
20.335038463106436	0.982\\
20.35571258206422	0.982\\
20.37642755043089	0.982\\
20.397461792422796	0.982\\
20.418634787318837	0.982\\
20.44007648795847	0.982\\
20.4616586549989	0.982\\
20.48327867211013	0.982\\
20.504905614576224	0.982\\
20.52664324149997	0.982\\
20.548329237972233	0.982\\
20.569867815354414	0.982\\
20.591430231224727	0.982\\
20.61291219742163	0.982\\
20.6342308367973	0.982\\
20.655465979256945	0.982\\
20.676476756853916	0.982\\
20.69731517061762	0.982\\
20.717987625972107	0.982\\
20.738536717092188	0.982\\
20.758918049017005	0.982\\
20.77916477132353	0.982\\
20.79917706475387	0.982\\
20.81917384810457	0.982\\
20.83887576151573	0.982\\
20.858536962953494	0.982\\
20.877973407916947	0.982\\
20.897433399870316	0.982\\
20.91673747662734	0.982\\
20.935833076746633	0.982\\
20.954791117623735	0.982\\
20.973644213315858	0.982\\
20.992450748150993	0.982\\
21.011097069153628	0.982\\
21.02971847140727	0.982\\
21.04818328693657	0.982\\
21.066654135762803	0.982\\
21.08495634002408	0.982\\
21.103311887591154	0.982\\
21.121578827611216	0.982\\
21.139655517605938	0.982\\
21.157771653188547	0.982\\
21.175846883933545	0.982\\
21.19377057746106	0.982\\
21.211623167398308	0.982\\
21.229536357699182	0.982\\
21.247303944555043	0.982\\
21.26506952633101	0.982\\
21.282746748350277	0.982\\
21.300342795023788	0.982\\
21.317989025957708	0.982\\
21.335600554202777	0.982\\
21.353051417203325	0.982\\
21.37055616867501	0.982\\
21.387952164890045	0.982\\
21.40524859691073	0.982\\
21.422501694886755	0.982\\
21.439760393320093	0.982\\
21.456990359089104	0.982\\
21.474212778159277	0.982\\
21.491373882437507	0.982\\
21.508563847903723	0.982\\
21.525635314621752	0.982\\
21.542702723684023	0.982\\
21.559798683699007	0.982\\
21.576762765211186	0.982\\
21.593705424434965	0.982\\
21.610700381027158	0.982\\
21.627659042143016	0.982\\
21.644583469773103	0.982\\
21.66144315091052	0.982\\
21.678330814700693	0.982\\
21.69514460089445	0.982\\
21.711945709226697	0.982\\
21.728748190971103	0.982\\
21.745472768138228	0.982\\
21.76219599560452	0.982\\
21.778915413075033	0.982\\
21.795617271551258	0.982\\
21.81228345090335	0.982\\
21.828940547239746	0.982\\
21.845610423734016	0.982\\
21.86222051425206	0.982\\
21.878982274411158	0.982\\
21.895642419721725	0.982\\
21.912259988297798	0.982\\
21.928891928241725	0.982\\
21.945395105069196	0.982\\
21.961965538201284	0.982\\
21.978570076548714	0.982\\
21.995102185819626	0.982\\
22.011606562501633	0.982\\
22.028172415007717	0.982\\
22.044666662033627	0.982\\
22.061203407560967	0.982\\
22.07772726430767	0.982\\
22.09420096472507	0.982\\
22.110711195316007	0.982\\
22.127141812435895	0.982\\
22.1436066717527	0.982\\
22.160057294789	0.982\\
22.17652734237361	0.982\\
22.19301818453146	0.982\\
22.209473821582115	0.982\\
22.225884348309656	0.982\\
22.24227974454714	0.982\\
22.25870366700174	0.982\\
22.27515761422027	0.982\\
22.291592988826388	0.982\\
22.308016771480688	0.982\\
22.32447396614363	0.982\\
22.3408688712694	0.982\\
22.357230697811346	0.982\\
22.373681452362057	0.982\\
22.39015445799337	0.982\\
22.4065711655306	0.982\\
22.423013009588978	0.982\\
22.439437427525462	0.982\\
22.455919743802134	0.982\\
22.472325859234836	0.982\\
22.48868440389782	0.982\\
22.505184494784764	0.982\\
22.521614299206668	0.982\\
22.538046937254407	0.982\\
22.55448142386888	0.982\\
22.570860969008592	0.982\\
22.587346771606185	0.982\\
22.603807839895104	0.982\\
22.62019840574083	0.982\\
22.63661010646826	0.982\\
22.65307980279632	0.982\\
22.669517434737223	0.982\\
22.685976369134515	0.982\\
22.70238744936527	0.982\\
22.718880593288738	0.982\\
22.73533163428136	0.982\\
22.751813758730144	0.982\\
22.768340961579156	0.982\\
22.78480386304073	0.982\\
22.801321935121123	0.982\\
22.8178337901275	0.982\\
22.834358869809066	0.982\\
22.85085201914149	0.982\\
22.867395115208126	0.982\\
22.883841235544146	0.982\\
22.900317194264915	0.982\\
22.91684996031909	0.982\\
22.933407992086273	0.982\\
22.949971227018438	0.982\\
22.966462695974336	0.982\\
22.983066110292505	0.982\\
22.999630287064285	0.982\\
23.016157220501093	0.982\\
23.032763556981138	0.982\\
23.049352108875716	0.982\\
23.065924069872757	0.982\\
23.082503518011023	0.982\\
23.099189021083376	0.982\\
23.11580262497587	0.982\\
23.132393656410123	0.982\\
23.149096096757383	0.982\\
23.16571489901999	0.982\\
23.182391021590604	0.982\\
23.199129262150876	0.982\\
23.215805686358422	0.982\\
23.232473530122952	0.982\\
23.249130920442106	0.982\\
23.26586334352927	0.982\\
23.28263346853896	0.982\\
23.299363505387745	0.982\\
23.316163060757212	0.982\\
23.332886186082	0.982\\
23.349640381771806	0.982\\
23.366441718807053	0.982\\
23.383291659356814	0.982\\
23.400194961544486	0.982\\
23.417038954973314	0.982\\
23.433902081079026	0.982\\
23.450848396648944	0.982\\
23.4677392497775	0.982\\
23.484620325713912	0.982\\
23.501577168822372	0.982\\
23.518541907460722	0.982\\
23.53556024624526	0.982\\
23.55250153457171	0.982\\
23.569432464488088	0.982\\
23.58646948986228	0.982\\
23.60354700128731	0.982\\
23.620564771991646	0.982\\
23.6376473805851	0.982\\
23.654797335252162	0.982\\
23.671884679890724	0.982\\
23.689092729412614	0.982\\
23.70620822880184	0.982\\
23.72343290495813	0.982\\
23.74062777536843	0.982\\
23.757898854580766	0.982\\
23.77519349352491	0.982\\
23.792525564951262	0.982\\
23.809824579941804	0.982\\
23.827112501172373	0.982\\
23.844500652024706	0.982\\
23.8617969412988	0.982\\
23.879175481425186	0.982\\
23.89661589411555	0.982\\
23.91408627380612	0.982\\
23.93160606330362	0.982\\
23.94910878431081	0.982\\
23.966614203265593	0.982\\
23.984140143833436	0.982\\
24.00169301414521	0.982\\
24.01926033622741	0.982\\
24.03682212461802	0.982\\
24.05444131808681	0.982\\
24.07210532320827	0.982\\
24.08979406969187	0.982\\
24.107486495059824	0.982\\
24.125229743387884	0.982\\
24.142997019647787	0.982\\
24.160839920822887	0.982\\
24.178644055268315	0.982\\
24.1964036602604	0.982\\
24.214338207089938	0.982\\
24.232312168255525	0.982\\
24.250263622714854	0.982\\
24.26824924329226	0.982\\
24.286296309902028	0.982\\
24.30433709084415	0.982\\
24.32249385967947	0.982\\
24.340589681097924	0.982\\
24.358752281662014	0.982\\
24.376968823486905	0.982\\
24.395177103459837	0.982\\
24.413412187530064	0.982\\
24.43174820577798	0.982\\
24.450129293946198	0.982\\
24.468570689364206	0.982\\
24.48698731393246	0.982\\
24.505510522219048	0.982\\
24.52396999643654	0.982\\
24.54255661925726	0.982\\
24.561150247440388	0.982\\
24.579779396074613	0.982\\
24.598515947494533	0.982\\
24.617331262279215	0.982\\
24.636054079134027	0.982\\
24.654896338530378	0.982\\
24.673757249796402	0.982\\
24.692689456329887	0.982\\
24.711608237105395	0.982\\
24.73063497509029	0.982\\
24.749684553920922	0.982\\
24.76880180126024	0.982\\
24.78792540502065	0.982\\
24.80715676504694	0.982\\
24.826439280188744	0.982\\
24.845741105825333	0.982\\
24.865185863006758	0.982\\
24.884617444819384	0.982\\
24.90409238630062	0.982\\
24.92371661663595	0.982\\
24.94341072356827	0.982\\
24.963072437607202	0.982\\
24.98285172735921	0.982\\
25.002691624982177	0.982\\
25.022464372154552	0.982\\
25.042367344890557	0.982\\
25.062390486918247	0.982\\
25.082615110561207	0.982\\
25.1027850539134	0.982\\
25.123061398844214	0.982\\
25.143424421370185	0.982\\
25.163942003165708	0.982\\
25.18449490676013	0.982\\
25.20513278165506	0.982\\
25.225811135680694	0.982\\
25.246577057374473	0.982\\
25.267522284632975	0.982\\
25.28856341245838	0.982\\
25.30969146116555	0.982\\
25.33090436394057	0.982\\
25.35212789440955	0.982\\
25.373602176334025	0.982\\
25.378179902184932	0.982\\
25.395087662237025	0.982\\
25.41666979010555	0.9855137182851338\\
25.43853460494202	0.9899901423021424\\
25.46058081789328	0.9945139616553953\\
25.48276538653935	0.999063861238119\\
25.50511496224003	1.003630725439137\\
25.52755654277248	1.0082198386362433\\
25.550211229223677	1.0128160189468134\\
25.572974142298307	1.0174438895075353\\
25.595859542598426	1.022081773313345\\
25.618922518151635	1.026732427022997\\
25.64224021061989	1.031406851744128\\
25.665828548824507	1.036120388146944\\
25.689664163863526	1.0408758682621024\\
25.713575335518804	1.0456681857666303\\
25.737887839287907	1.0504625377053318\\
25.762415774519468	1.055323976193206\\
25.78740866334676	1.0602148007846286\\
25.812632850434547	1.0651843016312323\\
25.838134236983336	1.0701854006683988\\
25.863811976967817	1.0752268158881286\\
25.889932967245784	1.080288231563762\\
25.916419349737915	1.0854218378966958\\
25.9435880245668	1.0906116438315965\\
25.971130367520885	1.0959189507108995\\
25.999262393197625	1.1012824690686043\\
26.02803586451688	1.106743496385203\\
26.057168773211615	1.1123110006632202\\
26.086629587479578	1.117929431170839\\
26.11696270333116	1.1235920952010252\\
26.147571474741923	1.1294027028384188\\
26.178358263884057	1.1352456943598408\\
26.208886487831798	1.1411020142756978\\
26.238968180585772	1.1468886222942205\\
26.26856760200574	1.1525706044450263\\
26.297703613687382	1.1581421826111256\\
26.326235717240635	1.163607893438801\\
26.35426388676811	1.1689424100033918\\
26.381760212929272	1.1741655414255505\\
26.408761678111986	1.1792730727636953\\
26.435347772987342	1.1842728477124993\\
26.461636751603336	1.1891804480159816\\
26.487554107268735	1.194018389738991\\
26.513128524221287	1.198773545568956\\
26.538421719923804	1.2034518183202416\\
26.56340919541786	1.2080650618792999\\
26.588165088606587	1.2126093097002644\\
26.61268161549622	1.2170985252846622\\
26.636994615100278	1.221531697716849\\
26.661054472478114	1.2259156922725785\\
26.68493948832905	1.2302419309379506\\
26.7085837469225	1.2345248668933178\\
26.732079553270296	1.2387530044673638\\
26.755456251352193	1.2429431891432694\\
26.77860292629059	1.247100885810243\\
26.801576816151403	1.2512066218488147\\
26.8244437714893	1.2552708794434877\\
26.8472323088262	1.2593055488254847\\
26.86981190748407	1.263315825390004\\
26.892344461967397	1.267278936750584\\
26.914727621027374	1.2712235380885915\\
26.937020837793654	1.2751318485119474\\
26.959209682305698	1.2790144503848158\\
26.981226058177263	1.2828689832673914\\
26.985620576496885	1.2866838121679272\\
26.98856424761032	1.287443335813966\\
26.990277879815906	1.2879518465455724\\
26.991496561200982	1.2882477715374328\\
26.99237223810934	1.288458182687129\\
26.992782766114857	1.2886093513239758\\
26.993021665696403	1.2886802138976905\\
26.993319472310105	1.2887214491874321\\
26.995108329058652	1.288772850722276\\
27.00206133067551	1.2890815975204293\\
27.021118506502916	1.2902814007331604\\
27.043868949554074	1.2935672632522721\\
27.066738018088756	1.2974813405603662\\
27.089832979672813	1.3014055493448624\\
27.11299684800656	1.3053581144498922\\
27.13646926944353	1.3093119603638934\\
27.16016780019529	1.3133078176273285\\
27.184202226016737	1.3173312942884636\\
27.20839783501085	1.3214006954376134\\
27.232912441761783	1.325486082430106\\
27.257642473655117	1.3296138326363809\\
27.2826816440382	1.3337661356143582\\
27.30820492202198	1.3379584071360702\\
27.333908003987474	1.3422194467151571\\
27.35990940768378	1.3464979292069579\\
27.386338932357674	1.3508132968440862\\
27.413077979582248	1.355186623196068\\
27.440354714123508	1.359597740213732\\
27.46794226823112	1.3640837442766016\\
27.49594558967418	1.3686066571685704\\
27.524298177345386	1.3731831919132866\\
27.552917424609056	1.3778019085082136\\
27.581796255787147	1.3824488878478975\\
27.61104262145672	1.387122608256231\\
27.640252311712352	1.3918401159512714\\
27.669473676866204	1.3965358865268742\\
27.69846231658549	1.4012177792847709\\
27.72725475887995	1.4058468013916086\\
27.755818818175648	1.4104291911378692\\
27.783999967524387	1.4149602047027179\\
27.81199736802185	1.4194158178900604\\
27.839568886294593	1.4238280564677215\\
27.866825679622806	1.4281592107095662\\
27.894003829447634	1.4324273710315953\\
27.920897493455854	1.4366698977798238\\
27.947372482710655	1.440854915940668\\
27.973583585672344	1.444962061227363\\
27.999711772224714	1.449015908772736\\
28.02540075818819	1.4530447710738408\\
28.050998970767786	1.4569940272408346\\
28.07641855693179	1.4609177213095568\\
28.101648051613026	1.4648025839280547\\
28.1267722305423	1.468647141489233\\
28.151688873103446	1.472464560442794\\
28.176456469557223	1.4762395249169922\\
28.201121722247073	1.4799811734237338\\
28.22563342621506	1.4836967646091856\\
28.250024794451356	1.4873787681878095\\
28.27427864137151	1.49103238412341\\
28.298436507903006	1.494655226225801\\
28.322540257582055	1.4982536828504605\\
28.346559760544103	1.501834119739045\\
28.370364530033534	1.5053921681806472\\
28.39412203927312	1.508908683057288\\
28.41781704190717	1.512408624359054\\
28.441379647876133	1.5158898354104997\\
28.464943582766033	1.5193421771311668\\
28.488330263167597	1.5227853731967729\\
28.511740708266622	1.5261934230343006\\
28.535112294531096	1.5295957755356837\\
28.558459245459105	1.5329833505167585\\
28.58175745033475	1.5363582740068362\\
28.604809352568324	1.539717123060553\\
28.627929053039892	1.543031573269559\\
28.650962003458027	1.5463469734057653\\
28.673987394909062	1.5496411657096427\\
28.696961988850816	1.552925568124742\\
28.71990755612208	1.556194060887838\\
28.74276753834333	1.5594498132549313\\
28.765549110083363	1.5626848765937227\\
28.788350948011903	1.565900381643261\\
28.811158013289905	1.5691103289233883\\
28.833876820008463	1.572312606470973\\
28.856633041241658	1.5754941387934593\\
28.87925064476503	1.5786725979929277\\
28.901861894848125	1.5818234418412693\\
28.924389717946397	1.5849652205876636\\
28.947055618959958	1.58808728097569\\
28.951000647948533	1.5912203522763013\\
28.954926285631032	1.5917642482014374\\
28.958876304423896	1.5923052255248975\\
28.962751710362426	1.5928493173703595\\
28.96665388473228	1.5933828896359037\\
28.970623840861535	1.5939199083657045\\
28.97440815593464	1.5944660104663235\\
28.978378803903603	1.5949863387388326\\
28.982318463544885	1.5955320498290588\\
28.986244845109923	1.5960732551540928\\
28.990223095442445	1.5966123924401896\\
28.994109490590667	1.5971584056438743\\
28.997862392989866	1.5976915681195836\\
29.001820611550812	1.5982061874037625\\
29.005663141723105	1.5987487269284046\\
29.00944972052404	1.5992751700803352\\
29.01311107153831	1.5997937187775948\\
29.017082463163092	1.60029490031072\\
29.020900419091447	1.6008382930127378\\
29.024893999667185	1.60136045340061\\
29.028868453402602	1.6019063935605276\\
29.032837401636627	1.602449469867342\\
29.036841357906994	1.6029915464136921\\
29.04055394675627	1.6035381551340402\\
29.044367754371038	1.6040447542030054\\
29.048283732201305	1.604564943184834\\
29.052267283276436	1.6050988339132117\\
29.056250249896962	1.6056416931531645\\
29.060121758277504	1.6061842244924835\\
29.06399508795611	1.606711332623218\\
29.067862448365602	1.6072384543091727\\
29.071820737163875	1.6077645295765755\\
29.07581754201827	1.6083027347031806\\
29.07962311090474	1.608845929844115\\
29.08360685311569	1.6093628972684315\\
29.08754157182375	1.6099038321847567\\
29.091528129990117	1.6104378660368472\\
29.095456202563433	1.6109786912841566\\
29.0994759540855	1.611511338332168\\
29.103437933027273	1.6120561712216555\\
29.107259670530475	1.6125929258327971\\
29.11128880981829	1.613110445513832\\
29.115155854300234	1.6136558110489947\\
29.11854339106104	1.6141789940444609\\
29.122534300833713	1.614637099643934\\
29.12656369508578	1.6151765910662088\\
29.13061983837173	1.6157210352330513\\
29.134614562229054	1.6162688401259022\\
29.138682268278693	1.6168080987254076\\
29.142740632792943	1.6173569575347968\\
29.146759073516186	1.6179043001343731\\
29.150807348814332	1.6184460057674515\\
29.15455827426382	1.6189914814600286\\
29.158596455371118	1.6194966565023337\\
29.16241846269427	1.6200402849442472\\
29.166502101686895	1.620554573057154\\
29.170563585854175	1.62110382511317\\
29.174568944709904	1.6216498412020148\\
29.178656401920023	1.6221880608385741\\
29.18272782472404	1.6227370598427262\\
29.18681759664903	1.6232836485788034\\
29.19075099271153	1.6238324440230993\\
29.19482934417615	1.6243600079677538\\
29.198735512656953	1.6249067669154256\\
29.20273955360502	1.6254301971564586\\
29.206794631341317	1.6259665017644747\\
29.210794802401395	1.6265093925859633\\
29.214706481885344	1.6270446832012677\\
29.21876369197294	1.6275678917339553\\
29.222869020410087	1.6281103220535735\\
29.226833750737	1.6286589298966463\\
29.230556326831213	1.6291884994415793\\
29.234038517472932	1.629685498070244\\
29.237675897439246	1.6301502042933893\\
29.2418007819416	1.6306354268082424\\
29.24576988123649	1.6311854520931166\\
29.24981107851316	1.6317144538251473\\
29.253960074245924	1.632252819325807\\
29.258049971766525	1.632805289200395\\
29.262089361673077	1.6333496302732846\\
29.266212909139085	1.6338869966246565\\
29.27031394542132	1.6344353041720603\\
29.274336770022174	1.6349803602318809\\
29.278439918700407	1.6355147696658636\\
29.28246259379631	1.6360595979339763\\
29.286546124937324	1.6365934890424376\\
29.29026220117069	1.6371352066731761\\
29.294452199124628	1.6376279469288577\\
29.298642490928394	1.6381832906972456\\
29.302772314202265	1.6387384062298147\\
29.306917826432574	1.639285247879331\\
29.310818643845813	1.639833906667442\\
29.315006755450383	1.640349934350915\\
29.319220269703024	1.6409037192013658\\
29.32342611569249	1.6414605950791679\\
29.327637674090496	1.6420161885724518\\
29.33163131831813	1.6425722680170456\\
29.335804759635614	1.643099319855149\\
29.33982736314885	1.6436498474413548\\
29.343912912497807	1.6441802234234344\\
29.347900031596566	1.6447186499546997\\
29.352061781982442	1.6452438580728952\\
29.35631075150458	1.6457918187469973\\
29.360426846523062	1.6463509958861478\\
29.364367713820158	1.6468924220784535\\
29.368396186963487	1.6474105540453243\\
29.37257393823007	1.6479399644808141\\
29.376773168952575	1.6484887386772809\\
29.380979291383575	1.64904006975158\\
29.385202986791136	1.64959203940706\\
29.38918527565884	1.6501460474887262\\
29.393423780490288	1.6506681377679953\\
29.39767596765531	1.6512235646713993\\
29.40194338352	1.651780513380547\\
29.406227027283506	1.6523391838481163\\
29.410347303917312	1.6528997040263114\\
29.414287570537915	1.6534385822426896\\
29.418465265517497	1.6539536737156284\\
29.422718223888566	1.6544995559460507\\
29.426800778129405	1.6550550059760631\\
29.43100805751005	1.6555879403160918\\
29.435324575049485	1.6561368987651104\\
29.439532749794232	1.6566998383512477\\
29.44375773662002	1.6572483763948673\\
29.448057943638084	1.657798839809519\\
29.45217289348743	1.6583588317012308\\
29.456323270785568	1.6588944340138858\\
29.460627162008528	1.6594343923367196\\
29.464585432215415	1.6599940557846486\\
29.46891483217223	1.6605085214937017\\
29.473314017514447	1.6610709680783673\\
29.477403351388297	1.6616421966219987\\
29.48176883090194	1.6621729231483424\\
29.486078724000976	1.6627392227042397\\
29.489968736743528	1.6632980312385435\\
29.49432600758891	1.663802149691088\\
29.498649225326922	1.6643665693241698\\
29.50299958386931	1.664926297720187\\
29.507077240267982	1.6654892604658227\\
29.51099134817739	1.6660166703343626\\
29.515111733796815	1.6665226895899818\\
29.519096257010176	1.6670551372156939\\
29.523267612825926	1.6675697847377264\\
29.527677403398656	1.6681083173792592\\
29.53198478956238	1.6686773598873268\\
29.53622773641193	1.6692329066339222\\
29.540475511809298	1.6697798716567274\\
29.544918138095163	1.670327192373661\\
29.54911974428328	1.670899340211883\\
29.553302266833207	1.6714401720376246\\
29.557487575340268	1.6719782876941056\\
29.561823427155545	1.6725165032004774\\
29.565827254280705	1.6730738100935694\\
29.569999119110136	1.6735881841366766\\
29.574400527015626	1.6741238996997507\\
29.578825427184483	1.674688820516498\\
29.583338335817032	1.6752564695582821\\
29.587583186374864	1.6758351146506196\\
29.591911633358876	1.676379107321647\\
29.59599482070152	1.6769335428208487\\
29.600260467176156	1.6774563028171214\\
29.604789793730703	1.6780021665585982\\
29.609334350714654	1.678581488887158\\
29.613798437083958	1.67916245697654\\
29.61831992851289	1.6797328400712765\\
29.62274586359954	1.680310261789316\\
29.627157976214	1.6808751869590348\\
29.631483628473497	1.6814380616517588\\
29.636058428296977	1.68198962662201\\
29.64035545037779	1.682572670743607\\
29.64487812264648	1.6831200252944254\\
29.649284329351865	1.6836958389322487\\
29.65383296147631	1.6842565332034236\\
29.658394604971782	1.6848350584278733\\
29.662981810495943	1.685414935522549\\
29.667494666215283	1.685997756655525\\
29.6720701781057	1.6865708293880493\\
29.676651351612918	1.6871515575629705\\
29.681315071466905	1.687732698857204\\
29.685902966444395	1.6883240003222726\\
29.69056775553439	1.688905376663358\\
29.695128085131977	1.6894961856170374\\
29.69952613756054	1.6900734551288172\\
29.70421539592627	1.6906298912765596\\
29.708824298301188	1.6912228708527244\\
29.713555045993104	1.6918053752318767\\
29.71825732905276	1.6924029628533812\\
29.722921956643162	1.6929966321892382\\
29.727626140568738	1.6935852295195573\\
29.732258463933803	1.6941785002817373\\
29.73699564389633	1.6947623927697455\\
29.741736414410518	1.6953591845817266\\
29.74645232067777	1.6959561038894098\\
29.75109468024965	1.6965495692843953\\
29.755350084486977	1.6971334629904562\\
29.7595055955164	1.6976684020280552\\
29.764406598296667	1.6981905284446843\\
29.768992267568365	1.6988060296624785\\
29.773308359513862	1.699381605090108\\
29.777774897957627	1.699923058986934\\
29.782361487319385	1.7004831087288594\\
29.78711052450486	1.7010579164698254\\
29.791971026455883	1.701652769328861\\
29.796739703356486	1.7022612520280922\\
29.801145887774254	1.7028579060595406\\
29.80591336866585	1.7034089033986102\\
29.810384854517608	1.7040047795813507\\
29.815290686332567	1.7045633541211505\\
29.82000090961361	1.7051758721942711\\
29.82460569296942	1.7057636362910822\\
29.82905122161867	1.706337932339352\\
29.833759660790882	1.7068920734431778\\
29.838671624902446	1.7074786871251364\\
29.843439312351627	1.708090326680781\\
29.848113767198264	1.7086836660384543\\
29.852647348343098	1.7092650841394876\\
29.857583706286164	1.7098286774418745\\
29.862404608426523	1.7104420226158976\\
29.86736745346731	1.7110406828465945\\
29.872309003462078	1.7116566284395258\\
29.876789884265804	1.7122695816063729\\
29.88165035507096	1.712825077708513\\
29.886192278474716	1.7134273216940485\\
29.891136454364613	1.7139897815206766\\
29.89610925087922	1.7146017359435186\\
29.901057676141	1.7152168834214905\\
29.906162862374913	1.715828666612882\\
29.91094368676132	1.7164594718593533\\
29.915938022948787	1.7170498521615511\\
29.921018950013845	1.7176662603292578\\
29.925748643522724	1.7182929960728395\\
29.93062739072422	1.718876066577621\\
29.935727677440575	1.7194771856173907\\
29.94040973343124	1.7201052489192572\\
29.94529543912656	1.7206814725109068\\
29.95038963851369	1.721282436163823\\
29.955289485162552	1.7219086939724724\\
29.96008051754012	1.722510706614898\\
29.964840787789313	1.7230990187883544\\
29.970002469956164	1.7236832319982764\\
29.97514491361796	1.724316363018219\\
29.980310568379352	1.7249467604240538\\
29.985148986040095	1.7255796293234762\\
29.989874034001076	1.726172055275322\\
29.99440944546363	1.7267502786070612\\
29.99985317742128	1.727304994246737\\
30.004936079790617	1.7279704577435833\\
30.009610226877946	1.7285914236296485\\
30.014458011944043	1.729162119620034\\
30.019161724037012	1.7297536985112196\\
30.024442509502308	1.7303273765793032\\
30.029447657273423	1.7309710883210199\\
30.034607546279766	1.7315808307409024\\
30.039664273782307	1.732209062977287\\
30.04459007112613	1.7328243702384223\\
30.049623763828627	1.733423397803933\\
30.0548991595166	1.7340352003466344\\
30.059809337934183	1.734676009263247\\
30.065281091351295	1.7352720935140933\\
30.070223468148896	1.7359359771782876\\
30.075588759694597	1.7365352552515088\\
30.08090205431717	1.7371854438438026\\
30.08595208973079	1.737828934582048\\
30.09093330883598	1.738440169003273\\
30.096288450149693	1.7390427246171587\\
30.101638126687625	1.7396901414297519\\
30.107012761717726	1.7403364999094117\\
30.112547718274065	1.7409854750594769\\
30.117647246195183	1.741653396250385\\
30.12287532282673	1.7422683817804727\\
30.128022152555864	1.7428985006876427\\
30.133675657245078	1.7435184548732918\\
30.13938265752033	1.7435184548732918\\
30.144531902525024	1.7435184548732918\\
30.149665563083737	1.7435184548732918\\
30.155443185730476	1.7435184548732918\\
30.160711107625936	1.7435184548732918\\
30.165973449708112	1.7435184548732918\\
30.17145393286983	1.7435184548732918\\
30.1764211029785	1.7435184548732918\\
30.181571390684162	1.7435184548732918\\
30.186555936853857	1.7435184548732918\\
30.19180712272606	1.7435184548732918\\
30.197345393929446	1.7435184548732918\\
30.20286277346836	1.7435184548732918\\
30.20823299368	1.7435184548732918\\
30.213931974830423	1.7435184548732918\\
30.219247504954417	1.7435184548732918\\
30.22445891508729	1.7435184548732918\\
30.229289901863254	1.7435184548732918\\
30.235198132132616	1.7435184548732918\\
30.24068585140568	1.7435184548732918\\
30.24571217605397	1.7435184548732918\\
30.251161688325013	1.7435184548732918\\
30.256464275596898	1.7435184548732918\\
30.261994722623555	1.7435184548732918\\
30.26727879852733	1.7435184548732918\\
30.2721801366337	1.7435184548732918\\
30.277367786233135	1.7435184548732918\\
30.283028917475825	1.7435184548732918\\
30.288246421475215	1.7435184548732918\\
30.293779666695272	1.7435184548732918\\
30.29898086096032	1.7435184548732918\\
30.30406020818866	1.7435184548732918\\
30.309530410589012	1.7435184548732918\\
30.31571148287481	1.7435184548732918\\
30.321463000397365	1.7435184548732918\\
30.32666472535287	1.7435184548732918\\
30.331681024342956	1.7435184548732918\\
30.337181480697964	1.7435184548732918\\
30.342300810093235	1.7435184548732918\\
30.347906998744968	1.7435184548732918\\
30.353178469872937	1.7435184548732918\\
30.35899221983776	1.7435184548732918\\
30.364374067418076	1.7435184548732918\\
30.369368623113104	1.7435184548732918\\
30.374421848675198	1.7435184548732918\\
30.37935723408257	1.7435184548732918\\
30.384858241793843	1.7435184548732918\\
30.390849490769902	1.7435184548732918\\
30.396440192907725	1.7435184548732918\\
30.40242086673657	1.7435184548732918\\
30.408189159341518	1.7435184548732918\\
30.41373752400736	1.7435184548732918\\
30.4192571823135	1.7435184548732918\\
30.42442378568105	1.7435184548732918\\
30.429924353629744	1.7435184548732918\\
30.43536029188138	1.7435184548732918\\
30.44056372994512	1.7435184548732918\\
30.445949208561863	1.7435184548732918\\
30.451859727387358	1.7435184548732918\\
30.457772574662464	1.7435184548732918\\
30.463447517251396	1.7435184548732918\\
30.46936950615204	1.7435184548732918\\
30.47473529675036	1.7435184548732918\\
30.480123912092203	1.7435184548732918\\
30.48555675355201	1.7435184548732918\\
30.490962435332357	1.7435184548732918\\
30.49704583091846	1.7435184548732918\\
30.5030175455744	1.7435184548732918\\
30.5088565216601	1.7435184548732918\\
30.514319513663843	1.7435184548732918\\
30.52048795548371	1.7435184548732918\\
30.526205088335587	1.7435184548732918\\
30.531841482846275	1.7435184548732918\\
30.537499078048583	1.7435184548732918\\
30.54309974373036	1.7435184548732918\\
30.548742032645784	1.7435184548732918\\
30.55448802059977	1.7435184548732918\\
30.56037821532322	1.7435184548732918\\
30.56588506626229	1.7435184548732918\\
30.5712817245891	1.7435184548732918\\
30.576674633877253	1.7435184548732918\\
30.58245206244262	1.7435184548732918\\
30.588575779904616	1.7435184548732918\\
30.5943533280023	1.7435184548732918\\
30.600557667708706	1.7435184548732918\\
30.60625166407918	1.7435184548732918\\
30.612285053858315	1.7435184548732918\\
30.61825465506191	1.7435184548732918\\
30.623902307729452	1.7435184548732918\\
30.629751988525044	1.7435184548732918\\
30.633675657245078	1.7435184548732918\\
30.635695662214232	1.7435184548732918\\
30.642161703068084	1.7429700235241663\\
30.648252840872075	1.7412144934323457\\
30.65398976928848	1.7395607495185619\\
30.660036618274297	1.7380031734535084\\
30.665954448486048	1.7363614539538585\\
30.67160130994928	1.7347547630513684\\
30.67740008875522	1.7332216401641005\\
30.683323399472314	1.731647271718288\\
30.68911440344933	1.730039092858597\\
30.69504899238691	1.728466835278837\\
30.70148569638235	1.7268555943822848\\
30.707647582450527	1.7251080292475227\\
30.71381537929914	1.7234350771800124\\
30.720062907725257	1.7217605203356134\\
30.726000828161972	1.7200643163679232\\
30.732011749061392	1.7184521709693552\\
30.738534478218433	1.7168202059451625\\
30.745163514924087	1.7150492849790258\\
30.751335928343558	1.7132495015134408\\
30.757058161323727	1.7115736912700545\\
30.763329871206402	1.7100201050159387\\
30.769831356415388	1.7083173357827923\\
30.775957947181375	1.7065521825485526\\
30.781778020980433	1.704888813155587\\
30.787553552563466	1.703308663119143\\
30.793491542874193	1.7017406062943494\\
30.79948618902906	1.7001284419249871\\
30.805541369502876	1.6985008954939405\\
30.811859234747473	1.6968569139952996\\
30.818031501328633	1.6951416135813915\\
30.823705085132715	1.6934658432046064\\
30.829565695638692	1.6919254652017983\\
30.835423045525744	1.6903343094494256\\
30.841103064208177	1.688744038955091\\
30.84725818814293	1.6872019138828103\\
30.853415922857998	1.6855307977345246\\
30.859125759706835	1.683858972759384\\
30.865389726749378	1.6823087520549247\\
30.871557929771427	1.6806080850028744\\
30.877614220739353	1.678933417882388\\
30.884033625171078	1.677289134884596\\
30.89007879958261	1.6755462665813827\\
30.896567022355292	1.6739050017286516\\
30.903067226537168	1.6721434492458687\\
30.909359205501346	1.6703786438104893\\
30.91564468194428	1.6686703715217148\\
30.921845319989465	1.6669638646674585\\
30.928118480831344	1.6652803914381904\\
30.934111906468907	1.6635772282696206\\
30.940345584348123	1.6619500132090224\\
30.946321513759507	1.6602575696648152\\
30.9531659619648	1.6586351048296242\\
30.959376160269265	1.6567768371418872\\
30.96592847079016	1.655090768302225\\
30.972286516113165	1.6533118159958018\\
30.97824240456771	1.651585606690606\\
30.985163318528194	1.6499685829751973\\
30.991410391802795	1.6480895548349257\\
30.99745938003948	1.6463934744408717\\
31.003472809165835	1.6447511741346115\\
31.00966692900318	1.6431185281268061\\
31.01593435975785	1.6414368245909667\\
31.022241579982115	1.6397352171410742\\
31.028619015747772	1.638022806850186\\
31.035217982047925	1.6362913330398103\\
31.04174146310924	1.6344997136893187\\
31.048146557515636	1.6327285885811718\\
31.054377800794178	1.6309896054498352\\
31.06053704738529	1.629297822899711\\
31.06692303753909	1.6276255874502246\\
31.073227777193445	1.6258917911234672\\
31.07946515062848	1.6241800543073102\\
31.085288954739895	1.6224866074196984\\
31.091792315599804	1.6209054446034492\\
31.098270159405807	1.6191397821299836\\
31.104668630952148	1.6173810475366537\\
31.11053483617416	1.6156438625118223\\
31.117004871160326	1.614051187794046\\
31.12324281976128	1.612294573295302\\
31.129495138824737	1.6106009702501427\\
31.13574330136725	1.6089034656244143\\
31.141998811927884	1.6072070894941222\\
31.148117380784107	1.60550871837691\\
31.154461458929212	1.6038475269324453\\
31.160756571594042	1.6021251097160492\\
31.167190024907754	1.600415986627548\\
31.17358812640871	1.5986693040528752\\
31.179721971343497	1.5969322194953657\\
31.185861024434686	1.595266880595571\\
31.191873999405637	1.593600127681313\\
31.198185748450562	1.5919676049767002\\
31.20454650869045	1.5902539651110028\\
31.210803858260924	1.5885270187058738\\
31.21737939738128	1.5868281482974895\\
31.22368750980992	1.585042889426313\\
31.230007427569234	1.5833302369019369\\
31.236163801067974	1.5816143792302835\\
31.24218885400837	1.5799429238253755\\
31.248400280752932	1.5783071219520584\\
31.254792187567226	1.5766207195909092\\
31.261192924544098	1.5748853168908286\\
31.267233108290725	1.5731475168016078\\
31.273253918822277	1.5715076069143987\\
31.27934389254193	1.569872956855082\\
31.285686959451816	1.5682195289901961\\
31.29198803659616	1.5664973863241625\\
31.298418426186288	1.5647866438794733\\
31.304676976703853	1.5630407931057533\\
31.31107724727333	1.5613415966402344\\
31.317489604427927	1.559603923180621\\
31.323847394617715	1.5578629682131484\\
31.3302994788951	1.5561368281766208\\
31.33642671433322	1.5543850872953109\\
31.342782916890123	1.5527215428738608\\
31.349186305998032	1.5509958338796621\\
31.355561452411592	1.5492573137368648\\
31.36190456444489	1.547526461485583\\
31.36836399907729	1.5458043065685423\\
31.374604732938955	1.5440505700658465\\
31.380980247258165	1.542356210822404\\
31.387434434301674	1.5406252586847384\\
31.393970907164864	1.5388729469024258\\
31.40040970278158	1.53709829452007\\
31.406730470314045	1.5353501615101313\\
31.413115693565594	1.533634073125067\\
31.419396121668186	1.5319004850122717\\
31.4257137823544	1.530195348782418\\
31.43188568667587	1.5284801039061109\\
31.438116312741293	1.526804431882832\\
31.444365161302976	1.5251128169060693\\
31.45056210816748	1.5234162545215724\\
31.456796598578357	1.5217337834478593\\
31.463161752712544	1.5200411193013064\\
31.469541045923826	1.5183129799538748\\
31.47588331299238	1.5165810018470116\\
31.48221907937546	1.514859076337899\\
31.4885722813042	1.5131389157648927\\
31.49494123384489	1.51141402144124\\
31.50139017213339	1.5096848508264427\\
31.507729723875244	1.507933964081115\\
31.513979324321042	1.5062127757832018\\
31.520152938255983	1.5045160092621677\\
31.526314701332524	1.5028398730788313\\
31.532665354325978	1.5011669544035502\\
31.53901778908211	1.4994427521158273\\
31.54541195780849	1.4977180660795377\\
31.551676766482515	1.4959820492703253\\
31.557872120979233	1.4942811537153275\\
31.56421039458862	1.4925991149694684\\
31.570515153335165	1.4908782736845199\\
31.576901677574625	1.489166531684833\\
31.58329536474489	1.4874325903538197\\
31.589702029519955	1.4856967042870923\\
31.596088324864155	1.4839572948006625\\
31.60246954730607	1.4822234156147123\\
31.608767768989452	1.480490913721732\\
31.615030840131453	1.4787809465346942\\
31.621290803096976	1.4770805227196409\\
31.6276277517955	1.4753809427745015\\
31.633781945452995	1.4761932292045956\\
31.640129530936562	1.4760095975067569\\
31.649326868341475	1.4757437336965524\\
31.66276249617973	1.4753558003749698\\
31.682450832316363	1.4747882829760777\\
31.70266033384246	1.4742069198653145\\
31.721661435567853	1.4736614042001939\\
31.74059221055367	1.4731189521657206\\
31.75887315255268	1.4725961087272106\\
31.778717131964086	1.4720296586140924\\
31.79782987341953	1.4714851595828484\\
31.816860029199518	1.470944062230421\\
31.83536573494858	1.470418879040358\\
31.854857398254524	1.469866781553839\\
31.874120729793113	1.4693222249628946\\
31.89387759303616	1.468764823274593\\
31.914310172154828	1.4681895342528892\\
31.93365451149088	1.4676459858029773\\
31.952970651450876	1.467104296079014\\
31.973716461962333	1.4665236983147316\\
31.994364779423364	1.4659470452393264\\
32.01373614750672	1.4654071551517263\\
32.03309564036145	1.4648686592202935\\
32.0532047305566	1.4643104362337276\\
32.07215319997971	1.4637854775533754\\
32.09247515729791	1.463223592750292\\
32.111858802374186	1.4626887352605344\\
32.13260150965121	1.4621175468185719\\
32.15210204112846	1.4615816651370253\\
32.1722400214592	1.4610293842182984\\
32.19197902455173	1.4604891457860554\\
32.21092809541476	1.4599715503488864\\
32.23096530251895	1.4594253208632963\\
32.25127029012471	1.4588729308696264\\
32.27166501358781	1.4583192521387354\\
32.2922921924563	1.4577604354026041\\
32.312391248761685	1.45721705859455\\
32.33232441907063	1.4566792684461414\\
32.35119596496041	1.4561711300600988\\
32.371956544142165	1.4556132594709539\\
32.392221662508206	1.4550698447490331\\
32.41249154609686	1.4545274288246175\\
32.43216257911797	1.4540021133025034\\
32.45279751841686	1.4534521929297701\\
32.472995341569245	1.4529150464183649\\
32.492266819846535	1.4524035708367034\\
32.513207012115515	1.4518489508882497\\
32.53378162161306	1.451305172299656\\
32.55380705407545	1.450777009010537\\
32.57373967911306	1.4502523698805774\\
32.57807471716865	1.450138410961112\\
32.57960826932775	1.4500981092778094\\
32.58298078425956	1.4500095020417476\\
32.58329488287724	1.450001251182532\\
32.5833266726429	1.4500004161319753\\
32.58334306713854	1.4499999854839791\\
32.58336412237131	1.4499994324095542\\
32.58348228389137	1.449996328590014\\
32.583900684954784	1.4499853385041368\\
32.58501477033737	1.4499560772955769\\
32.58773521010821	1.4498846397514291\\
32.59177279265755	1.449778651782962\\
32.6003323880265	1.4495541061658916\\
32.61133808450664	1.449265684399181\\
32.62697711124382	1.4488564050969517\\
32.64685248399	1.4483372168443116\\
32.66713770820617	1.4478084259984576\\
32.68799084924153	1.4472659908197376\\
32.70945902969768	1.4467087833660042\\
32.73014191238609	1.4461731327224203\\
32.75257841035234	1.445593367161406\\
32.773658511748124	1.4450498821703142\\
32.795150406892645	1.444497005634167\\
32.8169324762937	1.4439379242344323\\
32.837735721217044	1.4434051481423829\\
32.8592256101479	1.442855996980054\\
32.88024773077974	1.4423199866850351\\
32.90174415901592	1.4417730949277832\\
32.92303038848486	1.4412327562789469\\
32.94424422823165	1.4406954462769619\\
32.96564496648104	1.4401546049244647\\
32.987589102861094	1.4396012824336246\\
33.008555547571305	1.4390737940896192\\
33.03028176240596	1.438528406729257\\
33.050449083064834	1.4380232571995006\\
33.07199214676551	1.4374848214576108\\
33.092976521442154	1.436961512319129\\
33.11429800072412	1.436430969723384\\
33.135333825734705	1.4359086917879407\\
33.15692653432768	1.4353737801520805\\
33.17788736066581	1.43485567544231\\
33.19984883033766	1.4343140536467038\\
33.22165204726113	1.4337775638220236\\
33.243305713260696	1.4332459634952721\\
33.265387501432386	1.4327050917026447\\
33.28756294399008	1.4321631824923862\\
33.309089149302196	1.4316383409591846\\
33.33124791911702	1.431099310941267\\
33.35443371158556	1.430536635704645\\
33.37722505607091	1.4299848637213002\\
33.39857747130138	1.4294691223611302\\
33.41902073356523	1.4289764211931566\\
33.440527942950084	1.4284592169004953\\
33.46294840265095	1.4279212916533532\\
33.485553920056006	1.4273802061461622\\
33.50782994111623	1.4268482619309064\\
33.51586229961343	1.4266567567643609\\
};
\end{axis}
\end{tikzpicture}%
