%CL_evolution
\begin{tikzpicture}

\begin{axis}[
width=\figurewidth,
height=\figureheight,
scaled ticks=false, tick label style={/pgf/number format/fixed},
xmin=0.0,
xmax=34.79733245530347,
xlabel={Time (s)},
xmajorgrids,
ymin=0.0,
ymax=1.883030610799397,
ylabel={CL },
ymajorgrids,
legend style={at={(1.03,0.5)},anchor=west,draw=black,fill=white,legend cell align=left}
]

\addplot [
color=black,
solid
]
table[row sep=crcr]{
9.999999999999999E-5	0.982\\
0.0010999999999999998	0.982\\
0.003446429333058075	0.982\\
0.0068142272826717705	0.982\\
0.011724593613291177	0.982\\
0.017617678954588448	0.982\\
0.02349467632174624	0.982\\
0.0292417109025502	0.982\\
0.03513962680399378	0.982\\
0.04095058140485462	0.982\\
0.046880842440410825	0.982\\
0.05271084740945334	0.982\\
0.058592431198329395	0.982\\
0.06436291565317803	0.982\\
0.07028035693273094	0.982\\
0.0761670037914988	0.982\\
0.08204273653260605	0.982\\
0.08789325702034645	0.982\\
0.09383582391285747	0.982\\
0.09977332881533571	0.982\\
0.10568874135149536	0.982\\
0.11164173040862582	0.982\\
0.11757357362487458	0.982\\
0.123500593454579	0.982\\
0.12933155184443618	0.982\\
0.13525668990067624	0.982\\
0.14120030857786559	0.982\\
0.14714074725822313	0.982\\
0.15309593525660187	0.982\\
0.15900611887167643	0.982\\
0.16496096996739218	0.982\\
0.17090085994188825	0.982\\
0.1768859257425252	0.982\\
0.1827444852083177	0.982\\
0.18867627919740226	0.982\\
0.19457637214368118	0.982\\
0.20052559841545853	0.982\\
0.2064798782544522	0.982\\
0.21247959926841858	0.982\\
0.21847370857871828	0.982\\
0.22442716454873574	0.982\\
0.23037411838281513	0.982\\
0.23635461383599365	0.982\\
0.24232611554097244	0.982\\
0.2483805781581983	0.982\\
0.2542537982007297	0.982\\
0.2601646702524867	0.982\\
0.2661731733625975	0.982\\
0.27217441374685436	0.982\\
0.27822890971834846	0.982\\
0.28427506675449044	0.982\\
0.29033319695483417	0.982\\
0.29641139263194394	0.982\\
0.3024689604442732	0.982\\
0.30847732656556504	0.982\\
0.3145262603667315	0.982\\
0.32066780725504385	0.982\\
0.3267871689010283	0.982\\
0.33278294111748863	0.982\\
0.33882283087719745	0.982\\
0.3449328432187606	0.982\\
0.35101302402342105	0.982\\
0.3570137376787478	0.982\\
0.3630984828918675	0.982\\
0.36919097775486576	0.982\\
0.37539956905922167	0.982\\
0.38161401641113835	0.982\\
0.38766686182847976	0.982\\
0.3938069954707789	0.982\\
0.39998393939135046	0.982\\
0.4061396787249053	0.982\\
0.4123189909331305	0.982\\
0.4185616641885037	0.982\\
0.4247572255561143	0.982\\
0.43096783003717254	0.982\\
0.43708845073024194	0.982\\
0.4433078559567477	0.982\\
0.44949337358086827	0.982\\
0.45572124290559046	0.982\\
0.46199798735085784	0.982\\
0.4683729907449887	0.982\\
0.474548954609897	0.982\\
0.4807434262097491	0.982\\
0.4869474167167348	0.982\\
0.49323844893655644	0.982\\
0.49939662329308987	0.982\\
0.5056794458310834	0.982\\
0.5118325355695967	0.982\\
0.5181500232303857	0.982\\
0.5245293595645402	0.982\\
0.530836628046824	0.982\\
0.5372710403759633	0.982\\
0.5436032653706993	0.982\\
0.5499419692119849	0.982\\
0.5563175433290959	0.982\\
0.5626310223206978	0.982\\
0.5690251822126422	0.982\\
0.5754718257307851	0.982\\
0.5818321071796309	0.982\\
0.5882770338876742	0.982\\
0.5946032419734084	0.982\\
0.6010527236749654	0.982\\
0.607540797390119	0.982\\
0.6139996627537878	0.982\\
0.6203873320727593	0.982\\
0.6268683382515163	0.982\\
0.6334275775127423	0.982\\
0.6398718462620852	0.982\\
0.6462092120761878	0.982\\
0.6525527517398091	0.982\\
0.6589744525196701	0.982\\
0.6653423613615219	0.982\\
0.671719742348331	0.982\\
0.6783100345873887	0.982\\
0.684882097814443	0.982\\
0.6912612108810396	0.982\\
0.697865133310184	0.982\\
0.7045704955053094	0.982\\
0.7110540154447367	0.982\\
0.7175745210860105	0.982\\
0.72419793626963	0.982\\
0.7308081659349814	0.982\\
0.7372672028123566	0.982\\
0.7439346806130087	0.982\\
0.7505409748520113	0.982\\
0.7571308228008671	0.982\\
0.7636419253133071	0.982\\
0.7701982660587039	0.982\\
0.776672887172613	0.982\\
0.7831624462550737	0.982\\
0.7898518336510836	0.982\\
0.7965362106949443	0.982\\
0.8031727401523663	0.982\\
0.8098134786727982	0.982\\
0.8165131499968212	0.982\\
0.8233124542821557	0.982\\
0.8299980314902373	0.982\\
0.8368997867615044	0.982\\
0.843647367386879	0.982\\
0.8503947403759649	0.982\\
0.8570400734682855	0.982\\
0.8636872902390706	0.982\\
0.8705747608375911	0.982\\
0.8773929967577918	0.982\\
0.8840859227002158	0.982\\
0.8907231859722995	0.982\\
0.8975795967062574	0.982\\
0.904492949430316	0.982\\
0.9112799706685786	0.982\\
0.9181357222518853	0.982\\
0.9250811433626154	0.982\\
0.9319308931873882	0.982\\
0.9387464008453457	0.982\\
0.94568832117363	0.982\\
0.9527834385798502	0.982\\
0.9595928251615786	0.982\\
0.9663662919683103	0.982\\
0.9732340971492575	0.982\\
0.980258314581328	0.982\\
0.9871607504715052	0.982\\
0.9940059435517925	0.982\\
1.0010816753253922	0.982\\
1.0081043979199955	0.982\\
1.0151557550026058	0.982\\
1.0221544903699402	0.982\\
1.0291978491461515	0.982\\
1.036195392262493	0.982\\
1.0432064631907716	0.982\\
1.0504994119759625	0.982\\
1.0577242336384147	0.982\\
1.0647661390833507	0.982\\
1.071856816697606	0.982\\
1.0788896960406897	0.982\\
1.0861179845410271	0.982\\
1.0932633989216853	0.982\\
1.1003908824298194	0.982\\
1.1076685668138642	0.982\\
1.114855855144814	0.982\\
1.1221217856424786	0.982\\
1.1293233415179715	0.982\\
1.1366246459409637	0.982\\
1.1437412585182791	0.982\\
1.1510588076686585	0.982\\
1.1585318823487532	0.982\\
1.1658441897566578	0.982\\
1.1732204480775201	0.982\\
1.180610850702224	0.982\\
1.1880244448000612	0.982\\
1.195484442879493	0.982\\
1.2028124343631075	0.982\\
1.2102787661838947	0.982\\
1.217492611210651	0.982\\
1.2249316425976517	0.982\\
1.2322371057262793	0.982\\
1.2396700264026999	0.982\\
1.2471617591175423	0.982\\
1.2548633998754912	0.982\\
1.2623425894122668	0.982\\
1.2697445552886109	0.982\\
1.2770475666755177	0.982\\
1.2844106850754855	0.982\\
1.2919331944292698	0.982\\
1.2996140490244277	0.982\\
1.3072041656327138	0.982\\
1.3146476311384978	0.982\\
1.3221506607695885	0.982\\
1.3296010197272903	0.982\\
1.3372099691977275	0.982\\
1.3447684832894553	0.982\\
1.3523622221484168	0.982\\
1.3599141000500388	0.982\\
1.3676647037052674	0.982\\
1.3752292325357867	0.982\\
1.382820083827362	0.982\\
1.3904674405929804	0.982\\
1.398305595983988	0.982\\
1.4060994542283112	0.982\\
1.4137263103077902	0.982\\
1.4211765798670974	0.982\\
1.4289879677101118	0.982\\
1.4369377410533768	0.982\\
1.4446823746830417	0.982\\
1.452407468624954	0.982\\
1.4599550008942117	0.982\\
1.467568025037084	0.982\\
1.4754363265291537	0.982\\
1.4830596247800116	0.982\\
1.490969068813408	0.982\\
1.4987836732339312	0.982\\
1.5065812660008358	0.982\\
1.5145448189220039	0.982\\
1.5223908372782402	0.982\\
1.5301958995372131	0.982\\
1.537965487612107	0.982\\
1.5458529174929883	0.982\\
1.553798479502487	0.982\\
1.5617204637139892	0.982\\
1.5695746693804695	0.982\\
1.5775370556127442	0.982\\
1.5855217509739248	0.982\\
1.5936333783494425	0.982\\
1.6017466098891862	0.982\\
1.6096961089752142	0.982\\
1.6174494072321992	0.982\\
1.62556241961241	0.982\\
1.633616036355142	0.982\\
1.6416280702464832	0.982\\
1.6496913813385499	0.982\\
1.6578868567301082	0.982\\
1.66584952040006	0.982\\
1.674014201068192	0.982\\
1.6821971509009028	0.982\\
1.6901286940222358	0.982\\
1.6985168023332289	0.982\\
1.7068464712877947	0.982\\
1.7150856832708117	0.982\\
1.7233144236986528	0.982\\
1.73155584661494	0.982\\
1.739788947751245	0.982\\
1.7479024264544414	0.982\\
1.756047438971187	0.982\\
1.7645269380971809	0.982\\
1.7729732927740867	0.982\\
1.7812918172577388	0.982\\
1.7896676712026522	0.982\\
1.7979494084500027	0.982\\
1.8062911226539309	0.982\\
1.8146603561081123	0.982\\
1.8230816902318123	0.982\\
1.831748564212313	0.982\\
1.8403435310040348	0.982\\
1.8488012836259475	0.982\\
1.857297232473408	0.982\\
1.8657533086021232	0.982\\
1.8742756754018495	0.982\\
1.882715911439488	0.982\\
1.8911224334810561	0.982\\
1.8996881504837582	0.982\\
1.908343493711441	0.982\\
1.9169041084945442	0.982\\
1.9252796979213338	0.982\\
1.9339042355218057	0.982\\
1.9424503503941706	0.982\\
1.9508079840138097	0.982\\
1.959434479078186	0.982\\
1.9678688911157316	0.982\\
1.9764622427882683	0.982\\
1.9854040284324843	0.982\\
1.994129993591006	0.982\\
2.0026853957555115	0.982\\
2.0112640573402585	0.982\\
2.020085386689095	0.982\\
2.028496705760209	0.982\\
2.037103111610569	0.982\\
2.0458039878202046	0.982\\
2.0547034604386427	0.982\\
2.063365128881065	0.982\\
2.072147682991935	0.982\\
2.0809728924355015	0.982\\
2.0898810058761095	0.982\\
2.0987704922924717	0.982\\
2.1076829425772026	0.982\\
2.1166158446199965	0.982\\
2.1256048757598993	0.982\\
2.134283206760675	0.982\\
2.143183614853676	0.982\\
2.15203265599056	0.982\\
2.161159362412416	0.982\\
2.1701032044022117	0.982\\
2.1790983137700426	0.982\\
2.1882016911173814	0.982\\
2.1972110056946947	0.982\\
2.2062695378672394	0.982\\
2.2153923026544806	0.982\\
2.2241775589373924	0.982\\
2.2333258873203725	0.982\\
2.2423146816324024	0.982\\
2.2513275841025226	0.982\\
2.2605262297156345	0.982\\
2.2695988679866206	0.982\\
2.2787092227487795	0.982\\
2.2879492027932145	0.982\\
2.296976038000915	0.982\\
2.3060734490878882	0.982\\
2.315285927040171	0.982\\
2.3246443932088026	0.982\\
2.3336999707552737	0.982\\
2.3431957875036584	0.982\\
2.352425996178078	0.982\\
2.361715506054054	0.982\\
2.371004145273858	0.982\\
2.3801739618799767	0.982\\
2.3895946448130765	0.982\\
2.399050214817276	0.982\\
2.4084299317677917	0.982\\
2.4178524506450643	0.982\\
2.4273064859770033	0.982\\
2.4365892311203705	0.982\\
2.446059642652596	0.982\\
2.4553459853354456	0.982\\
2.4645676364424762	0.982\\
2.4739430172573327	0.982\\
2.483566593815702	0.982\\
2.4929524910814926	0.982\\
2.5023045215563453	0.982\\
2.5118566840595307	0.982\\
2.5214572708069767	0.982\\
2.5308107861335944	0.982\\
2.5403251883086204	0.982\\
2.549706478004614	0.982\\
2.559236723899015	0.982\\
2.5686412349308414	0.982\\
2.578168240835839	0.982\\
2.5876989824801617	0.982\\
2.5972946557716092	0.982\\
2.6070357295445463	0.982\\
2.6167051255006664	0.982\\
2.6264415405108785	0.982\\
2.6359553374876343	0.982\\
2.6455845794767825	0.982\\
2.655351641401224	0.982\\
2.665182819344423	0.982\\
2.6748185720197313	0.982\\
2.6844657577709414	0.982\\
2.6941908356144566	0.982\\
2.7038794578020715	0.982\\
2.7137432440334237	0.982\\
2.723585331241197	0.982\\
2.7332685465880164	0.982\\
2.7429590846131813	0.982\\
2.7528529161188233	0.982\\
2.7628448589850043	0.982\\
2.77275607434942	0.982\\
2.782676949184861	0.982\\
2.7926958935053214	0.982\\
2.802627097441624	0.982\\
2.812365223853069	0.982\\
2.822482330230409	0.982\\
2.832247465641652	0.982\\
2.842083775130746	0.982\\
2.8522068586863156	0.982\\
2.8620948392844285	0.982\\
2.8720912726462675	0.982\\
2.882326582834316	0.982\\
2.8922525743572134	0.982\\
2.9022085793833714	0.982\\
2.912180184131431	0.982\\
2.922414669693447	0.982\\
2.932463755994969	0.982\\
2.9425766955506774	0.982\\
2.952616950052218	0.982\\
2.9626907697780336	0.982\\
2.972815955989514	0.982\\
2.9828016329151996	0.982\\
2.992973874181927	0.982\\
3.003209408373424	0.982\\
3.013090948002322	0.982\\
3.02317492156663	0.982\\
3.0332759724773073	0.982\\
3.0435984675158716	0.982\\
3.053997342598816	0.982\\
3.064142448255276	0.982\\
3.074693751586807	0.982\\
3.0849841734582393	0.982\\
3.095251966248644	0.982\\
3.1053882244468083	0.982\\
3.1157983659285984	0.982\\
3.1259484454468502	0.982\\
3.1363985713916795	0.982\\
3.146678484163152	0.982\\
3.1574002195780455	0.982\\
3.16789853466452	0.982\\
3.1782039557298596	0.982\\
3.188767046904557	0.982\\
3.199380965499901	0.982\\
3.209849710635951	0.982\\
3.220305245694674	0.982\\
3.23070339617854	0.982\\
3.24099947985503	0.982\\
3.2514033494639394	0.982\\
3.2620644112906003	0.982\\
3.2727836928510516	0.982\\
3.2832710587213265	0.982\\
3.293796229875456	0.982\\
3.3042321705186533	0.982\\
3.3149106516219122	0.982\\
3.3257649454519314	0.982\\
3.3365146871170976	0.982\\
3.3474386552055977	0.982\\
3.358117264699154	0.982\\
3.368781947656541	0.982\\
3.379390560805409	0.982\\
3.3900152945977347	0.982\\
3.400832794971339	0.982\\
3.4116270278063245	0.982\\
3.422527591623747	0.982\\
3.433400956336068	0.982\\
3.4442556649253353	0.982\\
3.455198216897857	0.982\\
3.466000840409208	0.982\\
3.4767124361562987	0.982\\
3.4875435844582343	0.982\\
3.4984474015003206	0.982\\
3.509239125820053	0.982\\
3.5198689176251365	0.982\\
3.530803330813458	0.982\\
3.541819749263473	0.982\\
3.5528156254306262	0.982\\
3.5636162807852703	0.982\\
3.5747879863020815	0.982\\
3.585820648152543	0.982\\
3.596764410083649	0.982\\
3.6077264733132166	0.982\\
3.618900126785581	0.982\\
3.629823798526224	0.982\\
3.6407327614021296	0.982\\
3.6518913831047364	0.982\\
3.6631451384623412	0.982\\
3.6743101210678626	0.982\\
3.685335454642323	0.982\\
3.696550233634608	0.982\\
3.707595861342768	0.982\\
3.7188791887301944	0.982\\
3.7300958815960854	0.982\\
3.7413910887499178	0.982\\
3.752503696304365	0.982\\
3.763576266333101	0.982\\
3.774716903048075	0.982\\
3.786001748190424	0.982\\
3.79743851174047	0.982\\
3.808746592742297	0.982\\
3.8199241127017016	0.982\\
3.831181250552806	0.982\\
3.8425244979618576	0.982\\
3.8538335878483583	0.982\\
3.8652712040724406	0.982\\
3.876610540812605	0.982\\
3.887965549439267	0.982\\
3.899427565859293	0.982\\
3.910838074190414	0.982\\
3.922275270136324	0.982\\
3.933477373695636	0.982\\
3.944885737329262	0.982\\
3.956323820849061	0.982\\
3.9677003745145853	0.982\\
3.9791570681816637	0.982\\
3.9906563273638644	0.982\\
4.00186108015726	0.982\\
4.013364457206279	0.982\\
4.0250040589167035	0.982\\
4.036538782389986	0.982\\
4.048016431613213	0.982\\
4.059531622184441	0.982\\
4.071034082079082	0.982\\
4.082638082696501	0.982\\
4.093958437542257	0.982\\
4.105614300734869	0.982\\
4.117011494835211	0.982\\
4.128474567456083	0.982\\
4.1399338610524765	0.982\\
4.151385637041054	0.982\\
4.162819728378592	0.982\\
4.174222151696561	0.982\\
4.185835784200211	0.982\\
4.197482629865112	0.982\\
4.209135901952136	0.982\\
4.220806814053123	0.982\\
4.232227038010327	0.982\\
4.243905889533869	0.982\\
4.2555481300165265	0.982\\
4.267139218990346	0.982\\
4.27876443180477	0.982\\
4.290465710350574	0.982\\
4.301930802759134	0.982\\
4.313326352163504	0.982\\
4.3156222277196274	0.982\\
4.321975981525343	0.982\\
4.322409888659871	0.982\\
4.322723776727505	0.982\\
4.323022699532871	0.982\\
4.324093656377668	0.982\\
4.32707507352405	0.982\\
4.333932397128516	0.982\\
4.345473669590172	0.982\\
4.356183995644297	0.982\\
4.366875679552992	0.982\\
4.377476048297387	0.982\\
4.388034808341068	0.982\\
4.398891280446593	0.982\\
4.409902806778398	0.982\\
4.420664785163833	0.982\\
4.431490558185255	0.982\\
4.442666170123294	0.982\\
4.453606824931285	0.982\\
4.464397314599241	0.982\\
4.475239222480091	0.982\\
4.486091973192892	0.982\\
4.496930818704666	0.982\\
4.507917114785688	0.982\\
4.5189618181993705	0.982\\
4.529874237635978	0.982\\
4.541059492557681	0.982\\
4.5521363196144105	0.982\\
4.563188819607628	0.982\\
4.574189242230075	0.982\\
4.585138449946625	0.982\\
4.5963590680951345	0.982\\
4.607524094989172	0.982\\
4.618668743354204	0.982\\
4.629899274985311	0.982\\
4.6411015341002155	0.982\\
4.652146447189777	0.982\\
4.663437567095119	0.982\\
4.674691438618973	0.982\\
4.685892072195024	0.982\\
4.697295187199757	0.982\\
4.7086438266211275	0.982\\
4.720005313591214	0.982\\
4.731308909790991	0.982\\
4.742625360781181	0.982\\
4.754093005511519	0.982\\
4.7655558751095075	0.982\\
4.776938019970913	0.982\\
4.788308983255874	0.982\\
4.799781144085847	0.982\\
4.811342677326431	0.982\\
4.823018807847168	0.982\\
4.8344225475981215	0.982\\
4.845919163227608	0.982\\
4.857310405614701	0.982\\
4.868766517631585	0.982\\
4.880338496197647	0.982\\
4.891749087017676	0.982\\
4.90337746277066	0.982\\
4.9147590935677705	0.982\\
4.926246424745898	0.982\\
4.937955247963654	0.982\\
4.949521924776819	0.982\\
4.961132146001608	0.982\\
4.972825350228833	0.982\\
4.9846590119973335	0.982\\
4.996386866569157	0.982\\
5.0080874353224605	0.982\\
5.019879717589058	0.982\\
5.031593760819842	0.982\\
5.043255476030987	0.982\\
5.054943565632552	0.982\\
5.066496682830266	0.982\\
5.078206641119094	0.982\\
5.089686684980798	0.982\\
5.101217725019161	0.982\\
5.112950819706924	0.982\\
5.124732057400486	0.982\\
5.136492266703836	0.982\\
5.148168698996091	0.982\\
5.159877964921565	0.982\\
5.1716046666006505	0.982\\
5.183455974096027	0.982\\
5.19527471081169	0.982\\
5.206953707929937	0.982\\
5.218630779676065	0.982\\
5.230310430602605	0.982\\
5.242175101135883	0.982\\
5.2541101229568525	0.982\\
5.266013749838258	0.982\\
5.2777300278396275	0.982\\
5.289555030934423	0.982\\
5.301350508938148	0.982\\
5.313209633704089	0.982\\
5.32495143476387	0.982\\
5.336835321444537	0.982\\
5.348820546682553	0.982\\
5.36061696687254	0.982\\
5.372297212619369	0.982\\
5.384342225258793	0.982\\
5.3963115004862665	0.982\\
5.408092985271937	0.982\\
5.419968799925293	0.982\\
5.43189336131169	0.982\\
5.443977875356406	0.982\\
5.455906065489778	0.982\\
5.467945258290452	0.982\\
5.479905082480775	0.982\\
5.491860770620638	0.982\\
5.5038658722999845	0.982\\
5.515652314846571	0.982\\
5.527652362568837	0.982\\
5.5395569520129655	0.982\\
5.551508649455521	0.982\\
5.563461656729645	0.982\\
5.575461776170364	0.982\\
5.587391766062696	0.982\\
5.599413877527322	0.982\\
5.611358794525957	0.982\\
5.623194782199144	0.982\\
5.6350253408295305	0.982\\
5.6470238447560845	0.982\\
5.659045642316782	0.982\\
5.671121576253233	0.982\\
5.6830870248157925	0.982\\
5.695141665133013	0.982\\
5.707012033700536	0.982\\
5.718980159883209	0.982\\
5.730941103893002	0.982\\
5.743012680272528	0.982\\
5.754975067557734	0.982\\
5.7669624107450925	0.982\\
5.7788371892560715	0.982\\
5.790902990446211	0.982\\
5.802806108211064	0.982\\
5.814822380563983	0.982\\
5.82684562989941	0.982\\
5.838841635226439	0.982\\
5.851056018578948	0.982\\
5.863130126168439	0.982\\
5.875216094489492	0.982\\
5.887324390354641	0.982\\
5.899254557970471	0.982\\
5.911207397763134	0.982\\
5.923275241589732	0.982\\
5.935391456859469	0.982\\
5.947498405238237	0.982\\
5.959643144217496	0.982\\
5.971793447635418	0.982\\
5.983914371617841	0.982\\
5.996081691993584	0.982\\
6.008190422724342	0.982\\
6.020385622095144	0.982\\
6.032399071825244	0.982\\
6.044491051111846	0.982\\
6.056686046287846	0.982\\
6.068860857113895	0.982\\
6.081029006003131	0.982\\
6.093154811206974	0.982\\
6.10533405889236	0.982\\
6.117515484954257	0.982\\
6.129815193284264	0.982\\
6.14187366078742	0.982\\
6.153992646453624	0.982\\
6.166241775865444	0.982\\
6.178466418359992	0.982\\
6.190744468209687	0.982\\
6.2029936266330665	0.982\\
6.215172382442855	0.982\\
6.227323595959367	0.982\\
6.239706988285958	0.982\\
6.25195433506774	0.982\\
6.264267521261704	0.982\\
6.276366388389086	0.982\\
6.288600841936688	0.982\\
6.300786129095476	0.982\\
6.313064210766283	0.982\\
6.325338441839573	0.982\\
6.337616521808057	0.982\\
6.349991189240383	0.982\\
6.362151341375515	0.982\\
6.374627187803819	0.982\\
6.3870208229163286	0.982\\
6.399409384647699	0.982\\
6.411696988896226	0.982\\
6.423992139834796	0.982\\
6.436286549291024	0.982\\
6.448699007978918	0.982\\
6.461031371630773	0.982\\
6.47334400122384	0.982\\
6.4856062728065815	0.982\\
6.497849883244331	0.982\\
6.510153628047101	0.982\\
6.522434005032327	0.982\\
6.534951808666349	0.982\\
6.547557187794011	0.982\\
6.559840640925453	0.982\\
6.5723371349198505	0.982\\
6.584686998100853	0.982\\
6.596886420525324	0.982\\
6.609334912771729	0.982\\
6.62184315239824	0.982\\
6.634341541386778	0.982\\
6.646853978535335	0.982\\
6.659437969249453	0.982\\
6.671989530391896	0.982\\
6.684425800729393	0.982\\
6.69686359995363	0.982\\
6.709387631995707	0.982\\
6.721924363952301	0.982\\
6.7345149900241985	0.982\\
6.74704683897305	0.982\\
6.7595567857832926	0.982\\
6.772269512466428	0.982\\
6.784999862353951	0.982\\
6.797531732918781	0.982\\
6.810106635152668	0.982\\
6.822829946666962	0.982\\
6.835465582441273	0.982\\
6.848088411160342	0.982\\
6.860871151075576	0.982\\
6.873542722248407	0.982\\
6.886334087885016	0.982\\
6.899087387562695	0.982\\
6.911805951959156	0.982\\
6.924467188295582	0.982\\
6.937195719143276	0.982\\
6.950037606299798	0.982\\
6.962764598616618	0.982\\
6.975560793388871	0.982\\
6.988373565352049	0.982\\
7.001140975620512	0.982\\
7.014003968056798	0.982\\
7.026872101602759	0.982\\
7.039850967910173	0.982\\
7.052831788669465	0.982\\
7.065831038647211	0.982\\
7.078664461020674	0.982\\
7.091587468054039	0.982\\
7.1044684187374685	0.982\\
7.117452317423597	0.982\\
7.1305440076187825	0.982\\
7.143544433120354	0.982\\
7.156575278781213	0.982\\
7.169700082043104	0.982\\
7.182740003858363	0.982\\
7.195900501951812	0.982\\
7.209013494029088	0.982\\
7.222063627893851	0.982\\
7.235302609865993	0.982\\
7.2484233267331035	0.982\\
7.261548205760711	0.982\\
7.274901920894573	0.982\\
7.288215054259499	0.982\\
7.301500092774141	0.982\\
7.314781789029656	0.982\\
7.328184486002666	0.982\\
7.341553184625454	0.982\\
7.354797904530839	0.982\\
7.368162594389348	0.982\\
7.38151680635484	0.982\\
7.394962723091631	0.982\\
7.408556975692564	0.982\\
7.422098919135172	0.982\\
7.435565601212284	0.982\\
7.449266649772669	0.982\\
7.46274537209978	0.982\\
7.476168810684133	0.982\\
7.489831447652493	0.982\\
7.503303669049888	0.982\\
7.51691690156083	0.982\\
7.530616987695469	0.982\\
7.544197061261508	0.982\\
7.5578176211224655	0.982\\
7.571463970618453	0.982\\
7.585438600744796	0.982\\
7.599241210920422	0.982\\
7.613101457956585	0.982\\
7.626983319156265	0.982\\
7.640941638585696	0.982\\
7.654814651111343	0.982\\
7.668747164889588	0.982\\
7.682635450366341	0.982\\
7.696626449984704	0.982\\
7.710667528972468	0.982\\
7.724696992304835	0.982\\
7.738852033607406	0.982\\
7.753028464022982	0.982\\
7.767281641891529	0.982\\
7.781455791174446	0.982\\
7.7955187167284805	0.982\\
7.809781470985142	0.982\\
7.823902234855451	0.982\\
7.838098201658873	0.982\\
7.852436139125569	0.982\\
7.866694765850799	0.982\\
7.881007390507662	0.982\\
7.895361650022796	0.982\\
7.909660599860471	0.982\\
7.924130549457516	0.982\\
7.938502739042665	0.982\\
7.953072137069249	0.982\\
7.967637002289557	0.982\\
7.982370158187825	0.982\\
7.997077579082646	0.982\\
8.01178065762738	0.982\\
8.026603894108902	0.982\\
8.041437558466725	0.982\\
8.056270469871468	0.982\\
8.07086916882534	0.982\\
8.085758904094089	0.982\\
8.100736851838391	0.982\\
8.115699121342967	0.982\\
8.130625218691033	0.982\\
8.145482754229803	0.982\\
8.16026270920015	0.982\\
8.175288502134812	0.982\\
8.19032877934968	0.982\\
8.205149716090226	0.982\\
8.220099057315483	0.982\\
8.235045362266682	0.982\\
8.250092580878142	0.982\\
8.265261654533301	0.982\\
8.280307795005353	0.982\\
8.295393503145174	0.982\\
8.310576619849005	0.982\\
8.32557865054893	0.982\\
8.340805446242669	0.982\\
8.35592526365425	0.982\\
8.370991260563219	0.982\\
8.38616298518182	0.982\\
8.401352927719373	0.982\\
8.416577985462087	0.982\\
8.431794054116114	0.982\\
8.446923479356343	0.982\\
8.461955369419623	0.982\\
8.477010561857185	0.982\\
8.492236605786353	0.982\\
8.50728197404629	0.982\\
8.52223923768572	0.982\\
8.537294876235705	0.982\\
8.552450641109168	0.982\\
8.567401630777695	0.982\\
8.582206043414075	0.982\\
8.59721892596405	0.982\\
8.612152471988637	0.982\\
8.627155686734678	0.982\\
8.642069283413143	0.982\\
8.656924517777718	0.982\\
8.67165483288002	0.982\\
8.686544612368568	0.982\\
8.701321708706626	0.982\\
8.716003600851607	0.982\\
8.73064232319236	0.982\\
8.745198106907452	0.982\\
8.759623215632669	0.982\\
8.774014338906824	0.982\\
8.788582859692905	0.982\\
8.80300782578286	0.982\\
8.817334278486666	0.982\\
8.831894742713942	0.982\\
8.84623490855769	0.982\\
8.860533269374596	0.982\\
8.874890330524678	0.982\\
8.889004322324752	0.982\\
8.891843851608478	0.982\\
8.893613457977352	0.982\\
8.895046093042097	0.982\\
8.896008594328695	0.982\\
8.896691979242938	0.982\\
8.89712854611323	0.982\\
8.897329084934615	0.982\\
8.897447812293422	0.982\\
8.897570989412706	0.982\\
8.89817796810311	0.982\\
8.900643710438423	0.982\\
8.907641376344198	0.982\\
8.919816382346372	0.982\\
8.932590714923194	0.982\\
8.945459828845497	0.982\\
8.958368915436509	0.982\\
8.971297673844802	0.982\\
8.984301565506843	0.982\\
8.997312681200025	0.982\\
9.010421858751478	0.982\\
9.023459257099127	0.982\\
9.036589418026203	0.982\\
9.049703290096701	0.982\\
9.062949432038032	0.982\\
9.076228122859	0.982\\
9.08947517451092	0.982\\
9.10292051377926	0.982\\
9.11630620453996	0.982\\
9.129649116061255	0.982\\
9.143134456483835	0.982\\
9.156681184079286	0.982\\
9.170329404127987	0.982\\
9.184044975600912	0.982\\
9.19771303068309	0.982\\
9.211386059288802	0.982\\
9.225281429028719	0.982\\
9.239235920802212	0.982\\
9.253225607337676	0.982\\
9.267311075639384	0.982\\
9.281306816483884	0.982\\
9.295414562210379	0.982\\
9.309481422896468	0.982\\
9.32371340881118	0.982\\
9.337944294954369	0.982\\
9.352278695668009	0.982\\
9.36659306583402	0.982\\
9.381022176071312	0.982\\
9.395311344037417	0.982\\
9.409646163658433	0.982\\
9.424060066863504	0.982\\
9.43857610863683	0.982\\
9.453164017061965	0.982\\
9.46769302946949	0.982\\
9.48218917776504	0.982\\
9.496842108867579	0.982\\
9.51154845049625	0.982\\
9.526222456731656	0.982\\
9.54088782550868	0.982\\
9.555575751034066	0.982\\
9.570375404106453	0.982\\
9.585193618431788	0.982\\
9.599929915617487	0.982\\
9.614834654307582	0.982\\
9.629654170953518	0.982\\
9.64443223307089	0.982\\
9.65925806535613	0.982\\
9.674064949715323	0.982\\
9.688693017007122	0.982\\
9.703505652921962	0.982\\
9.718269574176976	0.982\\
9.732854358357553	0.982\\
9.747653605306464	0.982\\
9.76227522320361	0.982\\
9.776921949420245	0.982\\
9.791637930899718	0.982\\
9.806319836552277	0.982\\
9.820972533148076	0.982\\
9.835486727962127	0.982\\
9.850082135360438	0.982\\
9.86461737374734	0.982\\
9.87907808365653	0.982\\
9.893567095778725	0.982\\
9.907948250285482	0.982\\
9.922415647882008	0.982\\
9.936897672305168	0.982\\
9.951282882068739	0.982\\
9.965709470370275	0.982\\
9.98012901687235	0.982\\
9.994385178291115	0.982\\
10.008655971273619	0.982\\
10.022882736501636	0.982\\
10.037115757809879	0.982\\
10.051282700243867	0.982\\
10.065446265261542	0.982\\
10.079606436962116	0.982\\
10.093804602200748	0.982\\
10.107843208234016	0.982\\
10.121963874732522	0.982\\
10.136085933749747	0.982\\
10.150104230640693	0.982\\
10.164172505457998	0.982\\
10.178157523908048	0.982\\
10.192206639119576	0.982\\
10.20621755325353	0.982\\
10.220154129792405	0.982\\
10.234133794455946	0.982\\
10.248111958029565	0.982\\
10.262038956266494	0.982\\
10.275890966088586	0.982\\
10.289709307317018	0.982\\
10.303677616450877	0.982\\
10.317573310029662	0.982\\
10.331467298535618	0.982\\
10.345285855894826	0.982\\
10.359146558557981	0.982\\
10.372976050764564	0.982\\
10.38673312307131	0.982\\
10.400577932864238	0.982\\
10.414341714298946	0.982\\
10.428106337630059	0.982\\
10.441853374362378	0.982\\
10.455695074095342	0.982\\
10.469367591374645	0.982\\
10.483043439293777	0.982\\
10.496747649089148	0.982\\
10.510406390716177	0.982\\
10.524063022699146	0.982\\
10.53775060316918	0.982\\
10.551350399013096	0.982\\
10.564960342836194	0.982\\
10.578627003111638	0.982\\
10.592240094188686	0.982\\
10.60599139536306	0.982\\
10.619569953718976	0.982\\
10.633285464228095	0.982\\
10.646857107067657	0.982\\
10.66046814605891	0.982\\
10.674106621364032	0.982\\
10.687708979592191	0.982\\
10.701342615675355	0.982\\
10.714932311277977	0.982\\
10.72854259465753	0.982\\
10.74212428939338	0.982\\
10.75568147189487	0.982\\
10.769268854632514	0.982\\
10.782829386352407	0.982\\
10.796418887910654	0.982\\
10.810020476175254	0.982\\
10.823566869660702	0.982\\
10.837106888116363	0.982\\
10.850666310869531	0.982\\
10.864240269552578	0.982\\
10.877844240447445	0.982\\
10.891349641812454	0.982\\
10.904990206895246	0.982\\
10.918493899180984	0.982\\
10.93200272499405	0.982\\
10.945526411695365	0.982\\
10.959053455587824	0.982\\
10.97256733116879	0.982\\
10.986096626813989	0.982\\
10.999698635490251	0.982\\
11.013206636722405	0.982\\
11.026813947205774	0.982\\
11.040335686175656	0.982\\
11.053930435249939	0.982\\
11.067473518261231	0.982\\
11.081020714924197	0.982\\
11.094589779460609	0.982\\
11.108128904625122	0.982\\
11.121594189541565	0.982\\
11.135192568701687	0.982\\
11.148828804612663	0.982\\
11.162457103515177	0.982\\
11.17604211523264	0.982\\
11.189664379920227	0.982\\
11.203187871178653	0.982\\
11.216703027822433	0.982\\
11.230257837289788	0.982\\
11.243855065464185	0.982\\
11.257428599747072	0.982\\
11.271126062393247	0.982\\
11.284635907629678	0.982\\
11.298287617180108	0.982\\
11.311890920563116	0.982\\
11.325520543512596	0.982\\
11.339154033404967	0.982\\
11.352810656052544	0.982\\
11.366417028976947	0.982\\
11.380085407493798	0.982\\
11.393802510098304	0.982\\
11.40747448167102	0.982\\
11.421145893588221	0.982\\
11.434850576189707	0.982\\
11.448602043728972	0.982\\
11.462332947390234	0.982\\
11.476033793868318	0.982\\
11.4898001095635	0.982\\
11.503611111647317	0.982\\
11.517343314413843	0.982\\
11.531162686148217	0.982\\
11.544915717134575	0.982\\
11.55876125399492	0.982\\
11.572565836803065	0.982\\
11.586377105374709	0.982\\
11.600169574390133	0.982\\
11.614014887398262	0.982\\
11.627922697964301	0.982\\
11.641813275901178	0.982\\
11.655676265668294	0.982\\
11.66957469748808	0.982\\
11.68337627157048	0.982\\
11.697200647343784	0.982\\
11.71119112299581	0.982\\
11.725230247956109	0.982\\
11.739245389201958	0.982\\
11.753392846271169	0.982\\
11.767382486315356	0.982\\
11.781440765851961	0.982\\
11.795462335439716	0.982\\
11.809498898104618	0.982\\
11.823684681507778	0.982\\
11.83784844171706	0.982\\
11.85194616964888	0.982\\
11.866131115910587	0.982\\
11.880289213154828	0.982\\
11.894501212689526	0.982\\
11.908717639412085	0.982\\
11.923088409234364	0.982\\
11.937330939390563	0.982\\
11.951573476582439	0.982\\
11.965879799097195	0.982\\
11.980259519980347	0.982\\
11.994600764475273	0.982\\
12.008986452987482	0.982\\
12.023380566254811	0.982\\
12.037906359917638	0.982\\
12.052404512775936	0.982\\
12.0669975751055	0.982\\
12.081507312005332	0.982\\
12.096011631254651	0.982\\
12.110540148263262	0.982\\
12.1250812985269	0.982\\
12.13961586591844	0.982\\
12.154191960479583	0.982\\
12.168772476787293	0.982\\
12.183373793588753	0.982\\
12.198141664435695	0.982\\
12.212857328664615	0.982\\
12.22764280917066	0.982\\
12.242385619691543	0.982\\
12.257234189814096	0.982\\
12.272142626936063	0.982\\
12.287040526268786	0.982\\
12.30194361004984	0.982\\
12.316901756950532	0.982\\
12.331916885061109	0.982\\
12.346994554636389	0.982\\
12.362007088123416	0.982\\
12.377155709040291	0.982\\
12.392246952700514	0.982\\
12.407515613984952	0.982\\
12.422825765142338	0.982\\
12.438121785869257	0.982\\
12.453369858214778	0.982\\
12.468733095269979	0.982\\
12.484165933755236	0.982\\
12.49962384342621	0.982\\
12.515146364864115	0.982\\
12.530746535985134	0.982\\
12.546406616861013	0.982\\
12.5621211434309	0.982\\
12.577719051820335	0.982\\
12.593469744858794	0.982\\
12.60922699525041	0.982\\
12.6250412770722	0.982\\
12.641013265306452	0.982\\
12.65707339964981	0.982\\
12.6731271331989	0.982\\
12.68928201199282	0.982\\
12.705397474492024	0.982\\
12.72151835145149	0.982\\
12.73777909278326	0.982\\
12.754073036341428	0.982\\
12.770491187121973	0.982\\
12.787095124453497	0.982\\
12.803648301018978	0.982\\
12.820410374113582	0.982\\
12.837052722606693	0.982\\
12.853961297547205	0.982\\
12.870823847085603	0.982\\
12.887795875939432	0.982\\
12.904948291590166	0.982\\
12.92215056115539	0.982\\
12.939440099130358	0.982\\
12.956866351806006	0.982\\
12.974343853952341	0.982\\
12.99197070937731	0.982\\
13.009497255328988	0.982\\
13.0272415066399	0.982\\
13.045210592593257	0.982\\
13.063229896608743	0.982\\
13.081374086591698	0.982\\
13.099545461951244	0.982\\
13.117814075942292	0.982\\
13.135982008332082	0.982\\
13.154314721287651	0.982\\
13.17268010263216	0.982\\
13.1910418507018	0.982\\
13.20929067328202	0.982\\
13.227771783639518	0.982\\
13.246146214001712	0.982\\
13.264807858241294	0.982\\
13.283171056500226	0.982\\
13.301670123401841	0.982\\
13.319989146785257	0.982\\
13.338258504848355	0.982\\
13.356569514453781	0.982\\
13.374671277826415	0.982\\
13.392736587796037	0.982\\
13.41092311335035	0.982\\
13.428911399471733	0.982\\
13.446782202156129	0.982\\
13.464705438759825	0.982\\
13.4822582476192	0.982\\
13.499725686556257	0.982\\
13.517020654012978	0.982\\
13.534252085882475	0.982\\
13.551343370827084	0.982\\
13.568303824915809	0.982\\
13.585351102640288	0.982\\
13.60216576910738	0.982\\
13.618954043493403	0.982\\
13.635676614588927	0.982\\
13.65220260101917	0.982\\
13.66869559893172	0.982\\
13.68499006044512	0.982\\
13.701379794453608	0.982\\
13.717650943272329	0.982\\
13.733803786030066	0.982\\
13.749887139679227	0.982\\
13.765813421592842	0.982\\
13.781656163584127	0.982\\
13.797506217106207	0.982\\
13.813261552095508	0.982\\
13.828860148880384	0.982\\
13.844385970890674	0.982\\
13.8599250389215	0.982\\
13.87532408034511	0.982\\
13.878379947232382	0.982\\
13.87893047270963	0.982\\
13.879373369786485	0.982\\
13.879738181621612	0.982\\
13.88003842743036	0.982\\
13.880196432818213	0.982\\
13.880435480020719	0.982\\
13.88163853042116	0.982\\
13.885921437494662	0.982\\
13.897700754303958	0.982\\
13.911138120991353	0.982\\
13.924699059090646	0.982\\
13.938225788811	0.982\\
13.951931233245315	0.982\\
13.965683872687176	0.982\\
13.97955463104443	0.982\\
13.993425156944902	0.982\\
14.00737689740911	0.982\\
14.0214237350664	0.982\\
14.035478783418487	0.982\\
14.049589142392104	0.982\\
14.063745586036191	0.982\\
14.07797730338579	0.982\\
14.09220269541644	0.982\\
14.106603353899231	0.982\\
14.12106471619034	0.982\\
14.135522043969129	0.982\\
14.150182727305822	0.982\\
14.16493744685502	0.982\\
14.17977373095411	0.982\\
14.194728286949896	0.982\\
14.20974089640863	0.982\\
14.224820183337808	0.982\\
14.240024757816869	0.982\\
14.255310344982114	0.982\\
14.270697789828002	0.982\\
14.286358642213472	0.982\\
14.301924969359202	0.982\\
14.317553785806087	0.982\\
14.3333520180386	0.982\\
14.349275324964577	0.982\\
14.365334824456102	0.982\\
14.381536392471403	0.982\\
14.397838161506751	0.982\\
14.414253468029077	0.982\\
14.430868302875204	0.982\\
14.447535909198947	0.982\\
14.464212414554424	0.982\\
14.480995746055516	0.982\\
14.497767594008337	0.982\\
14.514699277664839	0.982\\
14.531812203643462	0.982\\
14.548902179994926	0.982\\
14.566022616740533	0.982\\
14.583217345779172	0.982\\
14.600475366640516	0.982\\
14.61765124946556	0.982\\
14.634902729144724	0.982\\
14.65206710360103	0.982\\
14.669305105667824	0.982\\
14.686455981813385	0.982\\
14.703616789259279	0.982\\
14.720687754368761	0.982\\
14.737646626854453	0.982\\
14.754581507421786	0.982\\
14.771560921808511	0.982\\
14.788544789579426	0.982\\
14.805196662031953	0.982\\
14.821757280599552	0.982\\
14.838411957975243	0.982\\
14.8549646346269	0.982\\
14.871500870188243	0.982\\
14.887774477240164	0.982\\
14.903990442851853	0.982\\
14.920309223286797	0.982\\
14.936471626908084	0.982\\
14.952540417180714	0.982\\
14.968576575977828	0.982\\
14.984473337056311	0.982\\
15.00032536730832	0.982\\
15.015964003444914	0.982\\
15.031699460824868	0.982\\
15.047364385722467	0.982\\
15.062972123027798	0.982\\
15.078553173290626	0.982\\
15.09407337079999	0.982\\
15.109564408538045	0.982\\
15.12487353736745	0.982\\
15.14026668381976	0.982\\
15.155622123157851	0.982\\
15.17098793728318	0.982\\
15.186086431827626	0.982\\
15.201278731469216	0.982\\
15.216398512797088	0.982\\
15.231443586137178	0.982\\
15.246439160823105	0.982\\
15.261378855131316	0.982\\
15.276313343128855	0.982\\
15.29122686101115	0.982\\
15.30614796096565	0.982\\
15.320997720398488	0.982\\
15.335803872393594	0.982\\
15.350600592102467	0.982\\
15.36532130216268	0.982\\
15.380043130643244	0.982\\
15.394701669439584	0.982\\
15.409320401014686	0.982\\
15.423931296861507	0.982\\
15.438455179763181	0.982\\
15.453080140350036	0.982\\
15.467669619633327	0.982\\
15.482279542528381	0.982\\
15.496812221486348	0.982\\
15.511313046568795	0.982\\
15.525780132773075	0.982\\
15.540244129920143	0.982\\
15.554671080860068	0.982\\
15.569115726635307	0.982\\
15.583560627294524	0.982\\
15.597972041800897	0.982\\
15.612385859900293	0.982\\
15.626792323077972	0.982\\
15.64106664342972	0.982\\
15.655429376792164	0.982\\
15.669706712165596	0.982\\
15.684058087202239	0.982\\
15.698336272495382	0.982\\
15.712596671403322	0.982\\
15.726869039998057	0.982\\
15.741185771344806	0.982\\
15.755420149204028	0.982\\
15.769649271533417	0.982\\
15.783926280287062	0.982\\
15.798150525268614	0.982\\
15.812333737682284	0.982\\
15.826601971808962	0.982\\
15.84076378851912	0.982\\
15.854928285640064	0.982\\
15.869078513534298	0.982\\
15.883239629254142	0.982\\
15.897467780263888	0.982\\
15.911641871612737	0.982\\
15.925753123666915	0.982\\
15.939889432583865	0.982\\
15.953981121069415	0.982\\
15.968123358556475	0.982\\
15.982287105419573	0.982\\
15.996402110559494	0.982\\
16.010528405796954	0.982\\
16.024651132925214	0.982\\
16.038744189576647	0.982\\
16.05280114179312	0.982\\
16.066901793101962	0.982\\
16.081038446291693	0.982\\
16.09508935572139	0.982\\
16.109180803718836	0.982\\
16.12328050613916	0.982\\
16.137377963097286	0.982\\
16.151484223734066	0.982\\
16.16557562361433	0.982\\
16.17964684252813	0.982\\
16.193823319161815	0.982\\
16.207975530173556	0.982\\
16.222072800849446	0.982\\
16.23619920229892	0.982\\
16.25034676015443	0.982\\
16.26448377150821	0.982\\
16.278595940849556	0.982\\
16.29270558136453	0.982\\
16.30683144140746	0.982\\
16.320944062676972	0.982\\
16.335086925468694	0.982\\
16.349219057574977	0.982\\
16.363303630264944	0.982\\
16.37737541986469	0.982\\
16.391515767822284	0.982\\
16.405692950945287	0.982\\
16.419811436516206	0.982\\
16.43395315814243	0.982\\
16.448093598133134	0.982\\
16.462365005194684	0.982\\
16.476558839720575	0.982\\
16.490718117199258	0.982\\
16.504889449893774	0.982\\
16.519078217186497	0.982\\
16.533216745285387	0.982\\
16.547351645520287	0.982\\
16.561522696988185	0.982\\
16.575685413909568	0.982\\
16.5899257727204	0.982\\
16.604141614366256	0.982\\
16.618333944545206	0.982\\
16.632537693926658	0.982\\
16.646799643198932	0.982\\
16.661015923803653	0.982\\
16.675313451601575	0.982\\
16.689553612706753	0.982\\
16.70380918576901	0.982\\
16.717982099724445	0.982\\
16.73224405440208	0.982\\
16.746533356531465	0.982\\
16.760823067093725	0.982\\
16.7751762266399	0.982\\
16.789509384065433	0.982\\
16.80391830082157	0.982\\
16.8182714634262	0.982\\
16.832647313752375	0.982\\
16.847068379054853	0.982\\
16.86147533030166	0.982\\
16.875939809633707	0.982\\
16.89038856413959	0.982\\
16.904896437138994	0.982\\
16.919365456208745	0.982\\
16.933832290254834	0.982\\
16.948282653563737	0.982\\
16.96272059222607	0.982\\
16.97722814281616	0.982\\
16.991742268677356	0.982\\
17.00628592597296	0.982\\
17.020913721828926	0.982\\
17.035524786073132	0.982\\
17.05015532321527	0.982\\
17.06480256375245	0.982\\
17.07948393576313	0.982\\
17.094181889318826	0.982\\
17.108821247147013	0.982\\
17.123501873633657	0.982\\
17.13821819256222	0.982\\
17.152863568478146	0.982\\
17.167618915528593	0.982\\
17.182364608908998	0.982\\
17.19717269678093	0.982\\
17.21201931349176	0.982\\
17.226892336434126	0.982\\
17.24171330542	0.982\\
17.25656049293216	0.982\\
17.271429036227197	0.982\\
17.28639905003473	0.982\\
17.301300367356	0.982\\
17.31621039015014	0.982\\
17.331187327625187	0.982\\
17.34618869560782	0.982\\
17.361226756473528	0.982\\
17.376295605841598	0.982\\
17.39142445532689	0.982\\
17.406510238117562	0.982\\
17.42167720385781	0.982\\
17.436854059340014	0.982\\
17.451968804808118	0.982\\
17.46719401767693	0.982\\
17.482427033849163	0.982\\
17.497692338407155	0.982\\
17.51302552954813	0.982\\
17.528360707805916	0.982\\
17.543802792090688	0.982\\
17.559147616455014	0.982\\
17.574578214363584	0.982\\
17.59009027687341	0.982\\
17.605624574614033	0.982\\
17.62120776199402	0.982\\
17.636755202173802	0.982\\
17.652379491369743	0.982\\
17.66792504657225	0.982\\
17.683581311750878	0.982\\
17.69938770129665	0.982\\
17.715217905365577	0.982\\
17.731037897223267	0.982\\
17.746857047850845	0.982\\
17.762752609837143	0.982\\
17.77875718812973	0.982\\
17.794780365582817	0.982\\
17.810759717754664	0.982\\
17.826862250335154	0.982\\
17.84295912884535	0.982\\
17.859137221925742	0.982\\
17.87539669419708	0.982\\
17.891740672659125	0.982\\
17.908141464238525	0.982\\
17.924516797169524	0.982\\
17.940864996486624	0.982\\
17.957329447565726	0.982\\
17.973867921909317	0.982\\
17.990560135584047	0.982\\
18.007241980165865	0.982\\
18.023974609686398	0.982\\
18.04079097503042	0.982\\
18.057652981147434	0.982\\
18.07469750112601	0.982\\
18.0916238900611	0.982\\
18.10864055055238	0.982\\
18.125891091329258	0.982\\
18.143100674011727	0.982\\
18.16046812837663	0.982\\
18.177896927870933	0.982\\
18.19541511245601	0.982\\
18.21307079599748	0.982\\
18.230778688758363	0.982\\
18.24854199171059	0.982\\
18.26650499226922	0.982\\
18.284494377096813	0.982\\
18.302598406916253	0.982\\
18.320797499125796	0.982\\
18.33911140722379	0.982\\
18.357658454814924	0.982\\
18.376358075444323	0.982\\
18.395153117994816	0.982\\
18.41413051428139	0.982\\
18.433158626394864	0.982\\
18.452199672121438	0.982\\
18.47167178353895	0.982\\
18.491196232912245	0.982\\
18.510991271174014	0.982\\
18.530878811464007	0.982\\
18.551126149636573	0.982\\
18.571441517614836	0.982\\
18.59200294274501	0.982\\
18.612906776782367	0.982\\
18.63399964142262	0.982\\
18.65537055941298	0.982\\
18.676869699738546	0.982\\
18.6984796631153	0.982\\
18.72042077652621	0.982\\
18.742386647638924	0.982\\
18.764568632402025	0.982\\
18.78670779319092	0.982\\
18.80877218815921	0.982\\
18.830679965703403	0.982\\
18.85246186653987	0.982\\
18.874027125933303	0.982\\
18.895417823287325	0.982\\
18.916531289851598	0.982\\
18.937438408695712	0.982\\
18.95807148407902	0.982\\
18.978434394600775	0.982\\
18.99864083448074	0.982\\
19.018612407856715	0.982\\
19.038203951905544	0.982\\
19.05768908891224	0.982\\
19.076954499113313	0.982\\
19.096059311787798	0.982\\
19.11499783631163	0.982\\
19.13374114354324	0.982\\
19.15227053425717	0.982\\
19.17071263593744	0.982\\
19.189003764085435	0.982\\
19.207117680144883	0.982\\
19.22508359476447	0.982\\
19.242872978966545	0.982\\
19.26067950961867	0.982\\
19.278275823974532	0.982\\
19.295792736570476	0.982\\
19.313252149860716	0.982\\
19.33055733295223	0.982\\
19.347731488432068	0.982\\
19.364838001202664	0.982\\
19.381906255430316	0.982\\
19.39879165283638	0.982\\
19.415633530713706	0.982\\
19.43239206228146	0.982\\
19.448998359825964	0.982\\
19.465559971466377	0.982\\
19.482047167639664	0.982\\
19.49847996839859	0.982\\
19.514782751346445	0.982\\
19.53104439372575	0.982\\
19.534272221830925	0.982\\
19.543116364687265	0.982\\
19.546260841014863	0.982\\
19.546431587600786	0.982\\
19.546628070309268	0.982\\
19.547613190527372	0.982\\
19.551052511132127	0.982\\
19.562386625125676	0.982\\
19.57817073019102	0.982\\
19.594053052375642	0.982\\
19.610062358928168	0.982\\
19.626091882009824	0.982\\
19.642217329496972	0.982\\
19.65842832119555	0.982\\
19.674720283462506	0.982\\
19.691110149197918	0.982\\
19.707515220588704	0.982\\
19.72404205030874	0.982\\
19.740647650811795	0.982\\
19.757386878242812	0.982\\
19.77421248230602	0.982\\
19.791221991728264	0.982\\
19.80821788659349	0.982\\
19.82547402451813	0.982\\
19.84270557117373	0.982\\
19.860074683879866	0.982\\
19.877609258313143	0.982\\
19.89526029812128	0.982\\
19.91307458982464	0.982\\
19.93102836467675	0.982\\
19.949102213931234	0.982\\
19.9673003698259	0.982\\
19.985679406121697	0.982\\
20.00422379029584	0.982\\
20.02294438742299	0.982\\
20.04180049817721	0.982\\
20.060890757050736	0.982\\
20.08015307243363	0.982\\
20.0996078883392	0.982\\
20.11934750635558	0.982\\
20.1391298511696	0.982\\
20.159158713942126	0.982\\
20.179491093621067	0.982\\
20.1999758295875	0.982\\
20.220604673916284	0.982\\
20.24135734434946	0.982\\
20.26240614610795	0.982\\
20.28365447231502	0.982\\
20.304956653782106	0.982\\
20.32626670318659	0.982\\
20.34758424491725	0.982\\
20.369039440059638	0.982\\
20.390183938777305	0.982\\
20.41140094878405	0.982\\
20.432579973057692	0.982\\
20.453454485637643	0.982\\
20.474230918908148	0.982\\
20.49485022981453	0.982\\
20.51535587947472	0.982\\
20.53563439236605	0.982\\
20.55580970805073	0.982\\
20.575842021064936	0.982\\
20.595545306051633	0.982\\
20.615251592024407	0.982\\
20.63481827043249	0.982\\
20.654246412072233	0.982\\
20.673515649292163	0.982\\
20.692566936440898	0.982\\
20.71156175336003	0.982\\
20.73046603697513	0.982\\
20.74926442936183	0.982\\
20.767967315314188	0.982\\
20.78652008777037	0.982\\
20.805003039894558	0.982\\
20.823379603465348	0.982\\
20.8416492914998	0.982\\
20.85980927446012	0.982\\
20.877856362731137	0.982\\
20.89591880943641	0.982\\
20.91392020257033	0.982\\
20.93178784921637	0.982\\
20.94957285856372	0.982\\
20.967262717784678	0.982\\
20.984929735111606	0.982\\
21.002657967066618	0.982\\
21.020212347717226	0.982\\
21.03780298069035	0.982\\
21.055281079741057	0.982\\
21.07267980790069	0.982\\
21.0899059465466	0.982\\
21.107329546174817	0.982\\
21.12461037770116	0.982\\
21.14184757189271	0.982\\
21.15908661982356	0.982\\
21.17620601324152	0.982\\
21.193353305791874	0.982\\
21.21048289566692	0.982\\
21.227473687855067	0.982\\
21.244395999470157	0.982\\
21.26133982344693	0.982\\
21.27835112386797	0.982\\
21.295264737744496	0.982\\
21.31212539181128	0.982\\
21.328892068087384	0.982\\
21.34567075949368	0.982\\
21.362414660926262	0.982\\
21.379186293285848	0.982\\
21.395974850990505	0.982\\
21.412653353395072	0.982\\
21.42939710288246	0.982\\
21.445973209225457	0.982\\
21.462612958642936	0.982\\
21.479168360451062	0.982\\
21.4957115819646	0.982\\
21.51228248730149	0.982\\
21.528912060577134	0.982\\
21.545420373719317	0.982\\
21.561942858950793	0.982\\
21.578529383254512	0.982\\
21.594982490488903	0.982\\
21.61146299127941	0.982\\
21.627926677759298	0.982\\
21.644378189590768	0.982\\
21.66080670807292	0.982\\
21.677182856791994	0.982\\
21.69355088028331	0.982\\
21.70992810319096	0.982\\
21.72634015018034	0.982\\
21.74266640372784	0.982\\
21.75896904656652	0.982\\
21.775401372078406	0.982\\
21.791753159599523	0.982\\
21.808056218945737	0.982\\
21.824406185782962	0.982\\
21.840671477026582	0.982\\
21.85695557229908	0.982\\
21.87321986779905	0.982\\
21.88953443324504	0.982\\
21.905772238461736	0.982\\
21.92200401536683	0.982\\
21.938293468095722	0.982\\
21.954580385933646	0.982\\
21.970852010451203	0.982\\
21.987198268151417	0.982\\
22.00340562123219	0.982\\
22.01969088975614	0.982\\
22.035944415324515	0.982\\
22.052079369331466	0.982\\
22.06831308119888	0.982\\
22.084435926287462	0.982\\
22.100676866179263	0.982\\
22.116923979979788	0.982\\
22.13315255057914	0.982\\
22.149355262395062	0.982\\
22.16556234260237	0.982\\
22.181723311369133	0.982\\
22.197912265632482	0.982\\
22.214127523093737	0.982\\
22.230338128733663	0.982\\
22.246591298992186	0.982\\
22.262873632960215	0.982\\
22.279091076722345	0.982\\
22.295272290323012	0.982\\
22.311447313923907	0.982\\
22.3277113146451	0.982\\
22.343996884987966	0.982\\
22.360162503723807	0.982\\
22.376437299048057	0.982\\
22.392662319725815	0.982\\
22.40895373044509	0.982\\
22.425170172357205	0.982\\
22.44150038252549	0.982\\
22.457769415287167	0.982\\
22.4739770095235	0.982\\
22.490209699443	0.982\\
22.506468197813277	0.982\\
22.522721113002426	0.982\\
22.53907279737348	0.982\\
22.555397390857323	0.982\\
22.571678346137325	0.982\\
22.587984272906986	0.982\\
22.604316552195918	0.982\\
22.620622961501482	0.982\\
22.636958613399123	0.982\\
22.653288943811134	0.982\\
22.669658758686836	0.982\\
22.685965155360016	0.982\\
22.702301635184682	0.982\\
22.71862147540589	0.982\\
22.73504338035297	0.982\\
22.751413734180467	0.982\\
22.767807116340713	0.982\\
22.78424275138618	0.982\\
22.800624392432546	0.982\\
22.81703130560672	0.982\\
22.83339591294711	0.982\\
22.849877118106214	0.982\\
22.866349617823467	0.982\\
22.882775202897356	0.982\\
22.89928694302497	0.982\\
22.91584250214381	0.982\\
22.932382093825474	0.982\\
22.948857288972626	0.982\\
22.96542292044206	0.982\\
22.981949119022076	0.982\\
22.998472852262218	0.982\\
23.015103791515074	0.982\\
23.03182377535805	0.982\\
23.04843242634405	0.982\\
23.06507510861244	0.982\\
23.081674348520387	0.982\\
23.098361378367386	0.982\\
23.115046669634452	0.982\\
23.131721056041158	0.982\\
23.148472972435087	0.982\\
23.16527399424163	0.982\\
23.182022229526055	0.982\\
23.198768483863105	0.982\\
23.21557473890681	0.982\\
23.232360026753987	0.982\\
23.24918355303337	0.982\\
23.266073403434163	0.982\\
23.28297982617972	0.982\\
23.29982633006496	0.982\\
23.31671977621687	0.982\\
23.33367439316239	0.982\\
23.350651232619384	0.982\\
23.367616819713774	0.982\\
23.384625915139523	0.982\\
23.401648416850747	0.982\\
23.41868954263417	0.982\\
23.43568890746525	0.982\\
23.45274594368268	0.982\\
23.46992502268514	0.982\\
23.487025874032547	0.982\\
23.50417540930721	0.982\\
23.521274889062298	0.982\\
23.538495519952228	0.982\\
23.555736650998867	0.982\\
23.57299113288461	0.982\\
23.590335388955978	0.982\\
23.607744270900078	0.982\\
23.62513512031216	0.982\\
23.642412868810673	0.982\\
23.659798029004833	0.982\\
23.677228163923502	0.982\\
23.69470566841725	0.982\\
23.712193069910533	0.982\\
23.729745219053896	0.982\\
23.74729202155023	0.982\\
23.764944420993288	0.982\\
23.782656376835256	0.982\\
23.800330041484266	0.982\\
23.81801301442745	0.982\\
23.83571628364372	0.982\\
23.853508635462617	0.982\\
23.871310037523443	0.982\\
23.889103030220326	0.982\\
23.906857307744694	0.982\\
23.92473097104442	0.982\\
23.942625897463287	0.982\\
23.960670511142418	0.982\\
23.97870442514845	0.982\\
23.99679901482878	0.982\\
24.015010598295177	0.982\\
24.033175943753044	0.982\\
24.051395402593293	0.982\\
24.069701270872017	0.982\\
24.087914441657645	0.982\\
24.106291230136634	0.982\\
24.124715730831696	0.982\\
24.14315768908382	0.982\\
24.161638377828126	0.982\\
24.180228985789192	0.982\\
24.198787645308542	0.982\\
24.217360516583177	0.982\\
24.23599402672503	0.982\\
24.254716023640405	0.982\\
24.27345189459708	0.982\\
24.292267887979968	0.982\\
24.311163789254195	0.982\\
24.330164385057934	0.982\\
24.349241084848806	0.982\\
24.368343541851637	0.982\\
24.387558525024758	0.982\\
24.406886572742835	0.982\\
24.426259913543127	0.982\\
24.445696077830817	0.982\\
24.465227949487335	0.982\\
24.484792999999854	0.982\\
24.504481010140054	0.982\\
24.52414472537715	0.982\\
24.543996933196063	0.982\\
24.563912885252535	0.982\\
24.58387784221454	0.982\\
24.603933773700838	0.982\\
24.62406504460464	0.982\\
24.64430920448344	0.982\\
24.664608087065965	0.982\\
24.685094282498596	0.982\\
24.705633249197632	0.982\\
24.726327480784683	0.982\\
24.747256366131474	0.982\\
24.768197925987117	0.982\\
24.789213391755908	0.982\\
24.810445860341687	0.982\\
24.831664001524906	0.982\\
24.851257707761093	0.982\\
24.853164042439687	0.982\\
24.874805037077437	0.9823961685638503\\
24.896548806262217	0.986892548616394\\
24.918559958076216	0.9913990569257092\\
24.940648971730987	0.9959495926734148\\
24.963017504167176	1.000504684463091\\
24.985415260237495	1.0051057186107943\\
25.008048580291465	1.0097009317225163\\
25.031023809085077	1.0143325326556676\\
25.054097373866263	1.0190218827522204\\
25.077522834088278	1.023718880586798\\
25.10126448963802	1.0284748793134137\\
25.125275149255273	1.0332821097218534\\
25.149642431611305	1.0381305556934755\\
25.174249422710865	1.0430374493460872\\
25.199250767762535	1.047978750353331\\
25.224692502308862	1.0529850568454984\\
25.250456688447258	1.0580649235758415\\
25.276739526814666	1.0631941461890992\\
25.303601445435653	1.0684111454671685\\
25.33079489911549	1.0737269988498062\\
25.35837282929834	1.0790918641513534\\
25.386525368743293	1.0845155937292965\\
25.41468291871943	1.090034799801266\\
25.443029203765434	1.0955371449283835\\
25.470888103349303	1.1010584633340688\\
25.498269142708978	1.106467187554967\\
25.52540554429644	1.1117661327632065\\
25.551967497351903	1.117001224300219\\
25.577962432341586	1.1221095289124619\\
25.60360117034549	1.1270935401182034\\
25.62879615305239	1.1319945860283815\\
25.653552324373237	1.136796626953711\\
25.677828860323935	1.1415013832281136\\
25.70187196089281	1.1461018740588271\\
25.725485803833294	1.150645428244117\\
25.74885830983036	1.155095544609766\\
25.771989017619646	1.1594882380811162\\
25.794797165530007	1.1638238213243368\\
25.817367830780853	1.1680875906912407\\
25.839871540803564	1.1722959154598014\\
25.86204186226273	1.1764808829468205\\
25.884086837715287	1.180593198002272\\
25.905802465287714	1.184671854211114\\
25.92748303245437	1.1886794067293835\\
25.948931321377273	1.1926705130557784\\
25.97015713573213	1.1966090315000393\\
25.991259519252957	1.200497098844155\\
26.012283165420243	1.2043531362160687\\
26.03305704408333	1.2081854780188992\\
26.053803803269446	1.2119631496021823\\
26.074393421369592	1.2157268909472045\\
26.09489273007543	1.21945322723609\\
26.115247217062496	1.2231544487276915\\
26.135505817251484	1.2268208723251766\\
26.155646777845647	1.2304614958349454\\
26.17565656010158	1.2340725596647988\\
26.19545977634847	1.237651808377465\\
26.215334363220215	1.2411859693777045\\
26.23504801051414	1.24472480279212\\
26.254658974140987	1.2482269696506414\\
26.274180720714234	1.2517030089006647\\
26.293548240603634	1.2551554432234595\\
26.312874424971966	1.2585729252710105\\
26.313642456742926	1.2619755302510478\\
26.314066516972375	1.2621104513438879\\
26.31435855716815	1.2621849399606728\\
26.314562237860507	1.2622362360020278\\
26.314753848198237	1.262272010744815\\
26.31592069228985	1.2623056646477113\\
26.320994332544124	1.2625106013661973\\
26.33424610520884	1.2634015823385942\\
26.35400365076928	1.2657273679025427\\
26.373846997097317	1.2691896894368346\\
26.393825402263133	1.2726591584164124\\
26.413886901476907	1.276144283073636\\
26.434114175845416	1.279635875469879\\
26.454456396840698	1.283148211186797\\
26.47485806674252	1.2866723031913267\\
26.495454436793935	1.2901984391757872\\
26.516140292138694	1.2937498877094915\\
26.537011485523742	1.2973083313373934\\
26.557986281942455	1.3008901301145273\\
26.579102495319646	1.3044810828347237\\
26.60033491822022	1.3080875404062904\\
26.62187944893202	1.3117050536110022\\
26.64345462109403	1.3153667942758787\\
26.665313057910524	1.3190246720377599\\
26.68735591106004	1.3227213946252028\\
26.709586961419227	1.3264399499734465\\
26.732105425190476	1.3301807620228903\\
26.754720543454162	1.3339602652476175\\
26.777647055262683	1.3377461772107555\\
26.80070445466108	1.3415742526288352\\
26.82407135008861	1.3454140482672585\\
26.847754860718965	1.3492950831495003\\
26.871776060453946	1.3532181515342336\\
26.895948775091142	1.3571863367294776\\
26.92041199416706	1.3611685380933936\\
26.94530673795584	1.3651874119382155\\
26.970489137026526	1.3692656904507805\\
26.99599995669498	1.3733793012051239\\
27.021940392114473	1.3775345113538833\\
27.048290687865766	1.3817473216693013\\
27.07471280489758	1.386013949041078\\
27.10155749631692	1.3902792620944413\\
27.128516926520263	1.3945996446379607\\
27.155574058050938	1.3989251200367416\\
27.182617736809597	1.403252833533149\\
27.209673988343063	1.4075649575457716\\
27.236618113379834	1.4118656907229634\\
27.263342018055923	1.4161352959890596\\
27.28970763039181	1.4203569042542914\\
27.315997393447752	1.4245091330113642\\
27.341762537440594	1.4286368830902276\\
27.367216697834635	1.432670051925761\\
27.392368510561965	1.4366427535643242\\
27.41739758924725	1.4405567944754822\\
27.442236990730663	1.4444404879982176\\
27.46676702995706	1.4482836736913387\\
27.490952808551803	1.4520681703362985\\
27.51498870682994	1.4557890452001858\\
27.53886019122571	1.4594765931249096\\
27.562539182022448	1.4631288100096043\\
27.586156123846024	1.4667416469653054\\
27.609461202796318	1.4703352201838271\\
27.632586238803903	1.4738717244261406\\
27.655666092364925	1.4773715176173483\\
27.678502523081818	1.4808551985719904\\
27.701337003614	1.484293003033917\\
27.72400332063249	1.4877215008059237\\
27.746539096206384	1.4911158270474278\\
27.768963805272065	1.4944818217402138\\
27.79115524096909	1.497822560810866\\
27.813375301566275	1.5011200358206467\\
27.83541122645071	1.504413351691538\\
27.85746027184029	1.5076710438002459\\
27.87935945354527	1.5109224284692437\\
27.90113555349439	1.5141435388161673\\
27.922839010013732	1.5173384917323338\\
27.944412482892645	1.5205148250122704\\
27.966031185177762	1.5236642672809646\\
27.98757802173438	1.5268124949878612\\
28.00884853470422	1.5299424687678829\\
28.030155873501464	1.5330246587490732\\
28.051477222649694	1.5361046446135012\\
28.07271841159254	1.5391791157789032\\
28.09381268240532	1.5422345299907345\\
28.114902555132048	1.5452614108461167\\
28.135919840241613	1.5482803311536473\\
28.156957524119164	1.55128157585395\\
28.177883525787458	1.5542784840828217\\
28.198790059944685	1.5572522822134098\\
28.219641113046542	1.5602161754955095\\
28.240423045369063	1.563165107636789\\
28.244023069250645	1.5660972276932468\\
28.247712467209716	1.5666039426188436\\
28.25137243258026	1.5671230225875896\\
28.25502676545318	1.5676377434082496\\
28.258786264299225	1.5681514561357768\\
28.262557406388723	1.5686797309661742\\
28.266279338280953	1.569209413138028\\
28.270051979797522	1.5697319570550827\\
28.273822924050535	1.5702613940498051\\
28.277580425626695	1.5707903636300575\\
28.281212474386997	1.5713172193287983\\
28.284765878368887	1.5718262650327006\\
28.288417842488826	1.5723240806819563\\
28.292198724223567	1.5728354954198782\\
28.295629617999296	1.5733647415495682\\
28.299411332679085	1.5738447880403388\\
28.303164385044667	1.5743737125292079\\
28.306944586396874	1.5748984002826307\\
28.31062931971026	1.5754266558152925\\
28.3143466999162	1.5759413468996486\\
28.318134962276005	1.5764603784910478\\
28.321856145546903	1.5769890811035354\\
28.325637741553017	1.5775081960443296\\
28.32937531549358	1.5780355133287252\\
28.33316613462609	1.5785564657526574\\
28.336884584435737	1.579084612882148\\
28.340604155420984	1.5796024518369323\\
28.344248209914404	1.5801202257774491\\
28.34805139001373	1.5806272709918354\\
28.35159878398762	1.5811562360346798\\
28.35534456790605	1.5816494096357168\\
28.35907527939309	1.5821699521375872\\
28.362880029110492	1.5826881770883334\\
28.36661274922654	1.5832164601427787\\
28.370259204204487	1.5837345155996974\\
28.37396885901328	1.5842403816258037\\
28.377768953064006	1.5847547997864837\\
28.381445730501213	1.5852815347183016\\
28.38526356964823	1.5857909542453053\\
28.389088813708227	1.5863196946459501\\
28.392767426942676	1.5868492283459266\\
28.39657481170037	1.5873582400870196\\
28.400314773858163	1.5878848475010185\\
28.40413152614581	1.588401903423954\\
28.40783092664192	1.5889293491223415\\
28.411580186958574	1.5894403536764794\\
28.415366282123728	1.589958025478737\\
28.419179000832592	1.5904805581467303\\
28.42297112773494	1.5910065364817316\\
28.42679100137488	1.591529445093311\\
28.430611073241913	1.5920559504534866\\
28.434304905043916	1.5925822522079214\\
28.438103480398688	1.5930909383128562\\
28.441854074927647	1.593613827037367\\
28.445646714849502	1.5941298858433242\\
28.44946145855409	1.594651505116785\\
28.453298173243745	1.5951759359596611\\
28.45712571517285	1.5957031562374402\\
28.460922944784535	1.5962288843510355\\
28.464757600198425	1.596750219738917\\
28.468572583099096	1.5972764639171793\\
28.4723040967297	1.5977997778565212\\
28.475629500007656	1.598311417830223\\
28.479400118843834	1.5987671793433176\\
28.48318207512358	1.599283762344514\\
28.487058034190362	1.5998016742848933\\
28.490924449909095	1.6003322287543473\\
28.494557771315442	1.6008612413707772\\
28.49837070112779	1.6013581407589048\\
28.502250337488654	1.601879386171459\\
28.506114543661695	1.602409518496733\\
28.510000188519655	1.6029373071611495\\
28.513816199129963	1.603467788542004\\
28.517445856525335	1.603988530795247\\
28.52132152535868	1.6044836258120272\\
28.52501114254848	1.6050120571379811\\
28.528919395978946	1.6055148972383944\\
28.532765380085124	1.6060473085763207\\
28.53666206686156	1.6065710020215527\\
28.54051711651583	1.6071013651606307\\
28.544419141074272	1.607625826480203\\
28.548326584123693	1.6081564435474944\\
28.55222484566078	1.6086875593942689\\
28.55607683413188	1.6092171895336027\\
28.55989846482175	1.6097402986284628\\
28.563660261992432	1.610259055533208\\
28.56754093824165	1.61076946644042\\
28.57121706517369	1.6112957797649456\\
28.574917347493532	1.6117941291217974\\
28.578364982219448	1.6122955413478488\\
28.582288942009498	1.612762519707407\\
28.586210284369578	1.6132938053875856\\
28.590076324525086	1.6138244974778764\\
28.593948111048697	1.614347469718218\\
28.597845720632023	1.6148709868054756\\
28.601789192985407	1.6153977612362298\\
28.605659713324762	1.6159304956578402\\
28.6093104537849	1.616453138047302\\
28.613183377506232	1.6169458841448758\\
28.61711507143592	1.6174683995504142\\
28.621041159343186	1.6179986080625683\\
28.62494978129625	1.618527821568563\\
28.62888846770882	1.619054443270577\\
28.632799450914554	1.6195848775067039\\
28.636719294569346	1.620111342684277\\
28.640456086802914	1.6206387636431516\\
28.644417583037864	1.6211413284668477\\
28.64838909593186	1.6216738853622423\\
28.65235524181103	1.622207545987607\\
28.65627243411157	1.6227402424190789\\
28.66024448223761	1.6232661242701716\\
28.664221229110638	1.6237991306680093\\
28.66801405077603	1.6243325242199211\\
28.671942865059727	1.624841015950544\\
28.67584927223679	1.6253675104100531\\
28.67977684246084	1.6258907659848962\\
28.683679051636197	1.6264166203474133\\
28.687471610829604	1.6269388435692311\\
28.691342102621036	1.6274461651988053\\
28.695344537722384	1.6279636862359763\\
28.699369058678755	1.6284986115072049\\
28.703247751584144	1.629036241374087\\
28.70726588908164	1.6295541508591098\\
28.71115697242017	1.6300904409998407\\
28.714853550074032	1.6306095339672178\\
28.718774596602508	1.6311024584374154\\
28.722779941161896	1.631625093058223\\
28.726815543867623	1.6321587233797392\\
28.730816051821556	1.6326961377225144\\
28.734847484691464	1.6332286317105997\\
28.738839071363458	1.6337649955319042\\
28.74271096580128	1.6342958121832645\\
28.746714961850124	1.6348104757205095\\
28.750712086155737	1.635342461987901\\
28.75468795046146	1.6358732911027167\\
28.758685666783364	1.636401054511384\\
28.762663547162013	1.6369314763518625\\
28.76672999235744	1.6374590240788989\\
28.770749559522145	1.637998070991093\\
28.774737708727876	1.6385306549879832\\
28.778778004993853	1.639058832301018\\
28.782833291171798	1.6395936707820868\\
28.786821316779715	1.6401302445415649\\
28.79074841582097	1.640657673051226\\
28.794773463176263	1.6411768060230594\\
28.798702640725068	1.6417086471137377\\
28.802785783410982	1.6422275807202773\\
28.806705604686208	1.6427666055005217\\
28.810657812223802	1.643283827264327\\
28.814751996769445	1.64380508770348\\
28.818791247658538	1.6443448285933293\\
28.822835366286775	1.6448770772024033\\
28.826941832855738	1.645409720090597\\
28.83104444823978	1.6459503235684005\\
28.83514603945094	1.6464901654007844\\
28.83904851250557	1.6470296182408612\\
28.843138083462556	1.647542640789006\\
28.847277898423243	1.6480800185036037\\
28.85135517661164	1.6486237429550046\\
28.85541783699656	1.6491589992719562\\
28.859340991456783	1.6496920869203453\\
28.86337803045935	1.6502066289798516\\
28.867526319939913	1.6507358690891285\\
28.871548055960908	1.6512794416316074\\
28.87567797245743	1.6518061801980832\\
28.87961924987458	1.6523468377097608\\
28.88372585191967	1.652862555357067\\
28.887843630704026	1.6533996626320782\\
28.89194286178416	1.653937977788659\\
28.896147239658873	1.6544736148512693\\
28.900292058560694	1.6550227326348832\\
28.904427435687744	1.6555638103274273\\
28.908565555588943	1.6561033985533524\\
28.912591721038197	1.656643088288881\\
28.916679709144127	1.6571679275479332\\
28.920862825024052	1.6577005794874657\\
28.924972393811004	1.6582453704489195\\
28.928876840489217	1.6587803258979417\\
28.933111493943784	1.6592883401424974\\
28.937303451346594	1.6598390711567912\\
28.941451510548127	1.660383984336202\\
28.945496823212785	1.660922931659543\\
28.94969446642726	1.6614482790502927\\
28.953898999631754	1.6619931557610776\\
28.958126402507602	1.6625386637918034\\
28.962301762922962	1.663086874223319\\
28.966538667496174	1.663628072967374\\
28.97067875142993	1.664176985622194\\
28.974879332692538	1.6647130937436454\\
28.979138546548818	1.6652567772290277\\
28.983243091597764	1.6658077836872225\\
28.98756983207341	1.6663385212623874\\
28.991769964879524	1.666897726124285\\
28.996050262810925	1.6674402980435374\\
29.00028626187285	1.6679929590249762\\
29.004608717757762	1.6685396314587608\\
29.008787777709074	1.6690971901811227\\
29.013029210178345	1.6696359845621733\\
29.017298710690625	1.6701825580712388\\
29.021490224655544	1.6707324806432944\\
29.025514932684445	1.671272093697101\\
29.029231281314658	1.6717899828967722\\
29.033538540168934	1.672267972211435\\
29.03773830842937	1.6728217268293215\\
29.042060511675004	1.6733613951008408\\
29.04632805456145	1.6739165283964443\\
29.050447307973947	1.6744643692428074\\
29.05483748767473	1.6749929144960594\\
29.0590845264747	1.6755559561344782\\
29.06327601375135	1.6761003653619762\\
29.067565190113164	1.6766373916872288\\
29.071715174328844	1.6771866697733144\\
29.07609235306475	1.6777178609907555\\
29.08042200155483	1.6782778657758102\\
29.084846033656966	1.678831511280145\\
29.08930534659224	1.6793969446840469\\
29.093620889758746	1.6799665978120857\\
29.098002108121946	1.6805176028698523\\
29.10246720454188	1.681076716109383\\
29.10685468927889	1.681646246887383\\
29.111221692277965	1.6822055912578602\\
29.11542461623958	1.6827620440303306\\
29.119764021303823	1.683297320980894\\
29.124227207011828	1.6838497132302865\\
29.128613808914736	1.6844175792852099\\
29.132987296333518	1.6849754153194616\\
29.137499605282834	1.6855313034938346\\
29.142008047576198	1.6861045484562687\\
29.146485547723287	1.6866770054624856\\
29.1507404556884	1.6872452393129518\\
29.15520091384962	1.6877849466725696\\
29.15974962958302	1.6883504503343332\\
29.16426331239822	1.6889268480822934\\
29.168536250431018	1.6894985078642957\\
29.172800745625054	1.6900393967635958\\
29.177307842512924	1.6905789520914623\\
29.181784631061603	1.6911489228212322\\
29.186156008258642	1.6917147677676896\\
29.190663464566043	1.692267005216953\\
29.194931557410584	1.692836147784495\\
29.199549972324107	1.6933747877622838\\
29.204070871445417	1.6939573533084697\\
29.208450774297802	1.6945273158471914\\
29.212925735982353	1.6950792159631618\\
29.21744519578138	1.6956428106295798\\
29.221940680471583	1.6962117171147053\\
29.226497488760707	1.6967773119866245\\
29.230954913436058	1.697350326309246\\
29.235504988062033	1.6979105499773592\\
29.24005960770228	1.6984821255206515\\
29.244418457237806	1.6990539731023482\\
29.24867313900701	1.6996009549089652\\
29.25297512755739	1.7001345977432951\\
29.257411559550754	1.7006739104377595\\
29.262045704430456	1.701229802732366\\
29.26634849330344	1.701810173004155\\
29.271153293828434	1.702348758247383\\
29.27570018292497	1.70294988377097\\
29.280376848554795	1.703518428339672\\
29.28497232735687	1.7041028949271562\\
29.2896070081394	1.7046769068009837\\
29.294323907960738	1.7052555098621325\\
29.298952950078778	1.7058440639596406\\
29.303517839422206	1.7064213427483792\\
29.307905352421045	1.7069903186054507\\
29.31270942786889	1.7075368993368496\\
29.31737044279948	1.7081350724479352\\
29.321775344826456	1.708715112449926\\
29.326406737482834	1.7092629871246632\\
29.3307769546128	1.7098387410052893\\
29.335676891497066	1.7103817378240722\\
29.340341271031505	1.7109902465148323\\
29.345152656009887	1.7115691761500482\\
29.34965364067655	1.712166031871921\\
29.354445272842455	1.712724073768762\\
29.35929409261381	1.7133178437665086\\
29.36400021825702	1.7139183697794098\\
29.36877131079072	1.7145008986465886\\
29.373352475224628	1.7150911500715411\\
29.378097022161874	1.7156575942454855\\
29.38260907703434	1.716243931496197\\
29.3874126490254	1.7168012333211635\\
29.391966428837065	1.7173942342168558\\
29.396866556078777	1.7179560882229437\\
29.401490328364552	1.7185603591267853\\
29.406218392881854	1.7191302298615678\\
29.41112407589896	1.719712645047899\\
29.41580005491106	1.7203166116935327\\
29.420564529447425	1.720891973911764\\
29.42516890214813	1.7214779104376832\\
29.42988372585299	1.722043847832644\\
29.4344571492787	1.7226230547321981\\
29.439006414817158	1.7231845867404294\\
29.44395064382843	1.7237428593017934\\
29.448742009400668	1.72434928370719\\
29.453612712960506	1.72493662534738\\
29.458470529634766	1.7255333640420951\\
29.46351368612187	1.726128191054313\\
29.468351504604072	1.726745368018785\\
29.47343852845725	1.7273370730861353\\
29.478400890110024	1.7279589124258772\\
29.483172393739814	1.7285651587222488\\
29.487644574458926	1.7291477559737887\\
29.492390762398983	1.729693506956833\\
29.496936005117163	1.7302723983003774\\
29.501892448583575	1.7308264783020306\\
29.506947139544693	1.7314303697089568\\
29.511985778539653	1.7320458810836814\\
29.517113043549536	1.7326590817219198\\
29.521974504529226	1.7332827071295467\\
29.52687424144193	1.7338736549007412\\
29.53185276975396	1.7344689229560712\\
29.53677581107545	1.735073423098834\\
29.541707763766816	1.7356708442406408\\
29.54685572876106	1.736269008495595\\
29.552016417204648	1.7368930179125464\\
29.55674945632689	1.737518199855597\\
29.56168770745594	1.7380912352803142\\
29.56638717148042	1.738688791093836\\
29.57172138641645	1.739257129916203\\
29.576703401212924	1.7399018854938197\\
29.581854520296815	1.7405037012353581\\
29.58698998011826	1.7411255884472046\\
29.59194789659405	1.741745218453688\\
29.596876740619372	1.7423430738608654\\
29.60193926310353	1.742937085204648\\
29.60683534213276	1.7435468618512935\\
29.611494520744493	1.7435468618512933\\
29.616438312711367	1.7435468618512933\\
29.62135730807939	1.7435468618512933\\
29.626224240399935	1.7435468618512933\\
29.6314731495617	1.7435468618512933\\
29.636416083763343	1.7435468618512933\\
29.641660990686503	1.7435468618512933\\
29.646739866431766	1.7435468618512933\\
29.65158495873996	1.7435468618512933\\
29.656945496771648	1.7435468618512933\\
29.66211373413865	1.7435468618512933\\
29.667104733060846	1.7435468618512933\\
29.672084931909588	1.7435468618512933\\
29.6771252183078	1.7435468618512933\\
29.682006605172987	1.7435468618512933\\
29.687514057842066	1.7435468618512933\\
29.69253831941701	1.7435468618512933\\
29.698026749329102	1.7435468618512933\\
29.702745949349918	1.7435468618512933\\
29.7081606191188	1.7435468618512933\\
29.713413854739663	1.7435468618512933\\
29.718781420467515	1.7435468618512933\\
29.724321377987906	1.7435468618512933\\
29.729715192180628	1.7435468618512933\\
29.735218042084362	1.7435468618512933\\
29.740717949205383	1.7435468618512933\\
29.745777861059032	1.7435468618512933\\
29.750987236227353	1.7435468618512933\\
29.75646262247409	1.7435468618512933\\
29.7617422852446	1.7435468618512933\\
29.766640470895446	1.7435468618512933\\
29.772002980264865	1.7435468618512933\\
29.777669517105934	1.7435468618512933\\
29.783096580101862	1.7435468618512933\\
29.78856930076246	1.7435468618512933\\
29.793976257007834	1.7435468618512933\\
29.799348271739277	1.7435468618512933\\
29.80453961902944	1.7435468618512933\\
29.810165107107707	1.7435468618512933\\
29.815427207251652	1.7435468618512933\\
29.820576848363437	1.7435468618512933\\
29.826583574184937	1.7435468618512933\\
29.83209066700207	1.7435468618512933\\
29.837228906600814	1.7435468618512933\\
29.84297946878963	1.7435468618512933\\
29.8486964615755	1.7435468618512933\\
29.853879931231454	1.7435468618512933\\
29.858934464498716	1.7435468618512933\\
29.864436260572347	1.7435468618512933\\
29.87026609212088	1.7435468618512933\\
29.875870853733602	1.7435468618512933\\
29.88134785852302	1.7435468618512933\\
29.88685271728294	1.7435468618512933\\
29.89192451204738	1.7435468618512933\\
29.89725660706702	1.7435468618512933\\
29.902281626605642	1.7435468618512933\\
29.908240884850116	1.7435468618512933\\
29.913711662685024	1.7435468618512933\\
29.91902324621242	1.7435468618512933\\
29.924691933438538	1.7435468618512933\\
29.930210213823273	1.7435468618512933\\
29.935584566949338	1.7435468618512933\\
29.941132534074143	1.7435468618512933\\
29.946500650422074	1.7435468618512933\\
29.952014636950416	1.7435468618512933\\
29.957208774713195	1.7435468618512933\\
29.96265798717642	1.7435468618512933\\
29.96835887704392	1.7435468618512933\\
29.973874381415932	1.7435468618512933\\
29.978900724193394	1.7435468618512933\\
29.984592029657428	1.7435468618512933\\
29.99017361880434	1.7435468618512933\\
29.996114731259233	1.7435468618512933\\
30.0014921607126	1.7435468618512933\\
30.007256960873008	1.7435468618512933\\
30.0126083763339	1.7435468618512933\\
30.018401487675547	1.7435468618512933\\
30.024031508559084	1.7435468618512933\\
30.029672767430363	1.7435468618512933\\
30.034881760893725	1.7435468618512933\\
30.04026745772203	1.7435468618512933\\
30.04548257680458	1.7435468618512933\\
30.050603242246638	1.7435468618512933\\
30.056461703737618	1.7435468618512933\\
30.06210609446434	1.7435468618512933\\
30.06828821187966	1.7435468618512933\\
30.074263904874527	1.7435468618512933\\
30.080035401966732	1.7435468618512933\\
30.085509594921746	1.7435468618512933\\
30.091362038583945	1.7435468618512933\\
30.09722397709689	1.7435468618512933\\
30.103200674745167	1.7435468618512933\\
30.106835342132754	1.7435468618512933\\
30.108725532946373	1.7435468618512933\\
30.11479915033822	1.7430336750453959\\
30.12085501902674	1.7413846879235089\\
30.126477800682615	1.7397405195745757\\
30.132002088359584	1.7382139343550063\\
30.137161108440445	1.736714090250709\\
30.143011683689636	1.7353134162987554\\
30.14893998352766	1.7337249851186\\
30.15535669032601	1.732115451712576\\
30.161297293510593	1.7303733158168246\\
30.166787689596617	1.7287604420522102\\
30.172944704802852	1.7272697995148545\\
30.1786959358776	1.7255981698863618\\
30.18429488399061	1.724036710649568\\
30.18953976155251	1.7225165962368856\\
30.195461583891742	1.7210926119788297\\
30.20136754387773	1.7194848372137281\\
30.20712801339716	1.7178813690775325\\
30.21279193630295	1.7163174016030074\\
30.218518468219706	1.7147796465340854\\
30.22448886421998	1.713224893118686\\
30.23040348100497	1.711603930604612\\
30.236174801349676	1.7099981121474868\\
30.24207425346006	1.708431198673899\\
30.248020868941026	1.7068294974259297\\
30.254141720346084	1.7052149913228476\\
30.260183484611794	1.7035531801663744\\
30.266066142516152	1.7019128411682343\\
30.271782353559985	1.7003156995472009\\
30.277848637369146	1.6987637482488003\\
30.283896653235203	1.6971167521946129\\
30.289561402824305	1.6954747158869785\\
30.295584243053995	1.6939367363735376\\
30.301677138279352	1.6923015352511768\\
30.307956389393468	1.690647314197492\\
30.313745165839563	1.6889424975200096\\
30.320000952992892	1.6873708447148947\\
30.325869520423716	1.685672398502766\\
30.332115941215314	1.6840790824452974\\
30.33835524469064	1.6823831792003785\\
30.34437636337143	1.6806892083068274\\
30.350421455639086	1.6790544745849925\\
30.356361933011144	1.6774132320343242\\
30.362131484739656	1.6758003924278106\\
30.368743436413503	1.6742339591335194\\
30.374920778947825	1.67243881425407\\
30.380768484596167	1.6707616657560016\\
30.38660992445915	1.6691740136724766\\
30.392631268864413	1.6675880627496766\\
30.398222255369824	1.665953267743648\\
30.404271171026892	1.6644353149074291\\
30.410597011262794	1.6627930343065351\\
30.416674741765647	1.6610755686824876\\
30.423120696615783	1.6594254648509632\\
30.42934815194819	1.6576753881091513\\
30.435627854471605	1.6559846339864026\\
30.441629607208917	1.6542796947512954\\
30.447795281233923	1.6526502188831151\\
30.454094043052102	1.6509762383853261\\
30.460365783819306	1.6492661245516906\\
30.466749645417906	1.6475633469333946\\
30.47276371386964	1.6458301285093748\\
30.478796409814798	1.644197308924729\\
30.48487860105432	1.6425594319756185\\
30.490577602013502	1.6409081170540885\\
30.496793829323835	1.6393608382936704\\
30.502517108962458	1.637673132578915\\
30.509119282333025	1.6361192621570289\\
30.515129644975644	1.63432677208692\\
30.52129046022211	1.6326949586294486\\
30.52729226524349	1.6310222972900328\\
30.5337131216095	1.629392807226729\\
30.539707130158916	1.6276495447233565\\
30.546045185231804	1.6260221714021903\\
30.55210219338668	1.6243013894499012\\
30.557991980756277	1.6226569117358522\\
30.563958724742328	1.6210578344650068\\
30.56999929773889	1.6194378634727942\\
30.57630075828424	1.6177978479042279\\
30.5827167024135	1.6160870013661648\\
30.589099129191986	1.614345072535071\\
30.595136069362574	1.612612243664712\\
30.601454182493832	1.6109732144083972\\
30.607709786166033	1.6092578466932608\\
30.61377310430288	1.607559450296258\\
30.619972765357822	1.6059132594221044\\
30.62601059294009	1.6042300514456875\\
30.632262508570413	1.6025907812571014\\
30.638575838415058	1.6008933861634689\\
30.644824881851946	1.5991793171106479\\
30.651242643251486	1.5974827018175328\\
30.6573372690072	1.5957402795975577\\
30.66402144930909	1.594085588704881\\
30.6701671690034	1.5922708337529183\\
30.676059453602285	1.5906022708559133\\
30.681908527323877	1.5890025155873158\\
30.68819767970654	1.5874144920719035\\
30.694531968088107	1.5857069872000102\\
30.701267603459463	1.583987227904415\\
30.70756517784121	1.5821585029010918\\
30.71408794263958	1.5804487114564474\\
30.720311842536027	1.5786777808136903\\
30.726688629809807	1.5769879919918046\\
30.733119399409453	1.5752566942469735\\
30.739439000908362	1.5735107403006694\\
30.745887164328884	1.5717949684937158\\
30.75237435715966	1.570044292125044\\
30.75880373783565	1.5682830192714885\\
30.765407543932433	1.5665374424179574\\
30.771982707793917	1.5647445090626806\\
30.778397273700584	1.5629593520742877\\
30.784746689756133	1.5612177974306276\\
30.791031109285527	1.5594939309715459\\
30.797472882158885	1.5577877110693157\\
30.803938838479134	1.5560387697341986\\
30.810208682634872	1.5542832625932514\\
30.816395340460375	1.5525809999049682\\
30.82288402355549	1.5509013223053445\\
30.829296742220507	1.5491396448450212\\
30.83573053498295	1.5473985917274686\\
30.84201136032977	1.5456518169924651\\
30.848112642013987	1.5439465729108033\\
30.8544300378908	1.5422900749335386\\
30.86105446407273	1.5405749019529837\\
30.867636674893944	1.53877637024459\\
30.874067889296562	1.5369893000066304\\
30.880127680999315	1.5352432252963197\\
30.88642102043329	1.533597991849022\\
30.892428301432965	1.531889350192698\\
30.898344505545268	1.5302583734012862\\
30.90487859492832	1.5286521239847959\\
30.911564197332574	1.5268781187172973\\
30.9182031108799	1.5250629776645424\\
30.92469536486469	1.5232605126364431\\
30.931152956760272	1.521497865679573\\
30.9376178667671	1.5197446294799222\\
30.9440526125441	1.517989406413069\\
30.95054719933608	1.5162423729346135\\
30.956822374881682	1.5144790926205909\\
30.963476603693522	1.5127753824599595\\
30.96987715673808	1.510968759337545\\
30.976392378236767	1.5092310091859478\\
30.98278747022559	1.5074621265490538\\
30.989271709728065	1.505725859074089\\
30.995618413385884	1.5039653880491666\\
31.002443872370904	1.5022422580060686\\
31.00912062307868	1.5003891458916359\\
31.015966110359585	1.4985764080744746\\
31.022778598595117	1.4967178582777088\\
31.02928448274065	1.494868267721762\\
31.03587939547596	1.4931019201762497\\
31.04243591015728	1.4913114013686133\\
31.049007960692627	1.4895313076326344\\
31.055661184888066	1.4877469959122878\\
31.062434472934704	1.4859406455432262\\
31.068835155607843	1.484101697838564\\
31.075271660472076	1.4823639124928067\\
31.081953720698827	1.4806164014221674\\
31.088374834146265	1.4788022220706045\\
31.094681847504432	1.477058889769625\\
31.101034086670765	1.4753465356428828\\
31.107602667828736	1.4736219027092234\\
31.114286739846357	1.4718385329248342\\
31.120587196145998	1.4700238073720504\\
31.127221667074807	1.4683132334866977\\
31.13393262009688	1.466511974629526\\
31.140547878497465	1.4646899508840336\\
31.147235852163583	1.4628939082282746\\
31.153777242449422	1.4610781233779235\\
31.160554852960573	1.459302135915318\\
31.167179170244196	1.4574620146615407\\
31.17394922919172	1.455663512519037\\
31.18058509757642	1.453825441514784\\
31.187268274170563	1.4520238032483386\\
31.193939466039254	1.4502093208030282\\
31.200806699327003	1.4483980922106787\\
31.207542653559806	1.4465336383730547\\
31.214126280223496	1.444704826798849\\
31.220941969598243	1.4429173721596569\\
31.227617995389124	1.441066912494413\\
31.234145261722098	1.4392543714921888\\
31.240707942951545	1.4374822186827867\\
31.247297019364282	1.4357004507289917\\
31.254029012033506	1.4339115164829335\\
31.260608155536694	1.4320837804732394\\
31.267217840088065	1.4302975430121236\\
31.2740133941952	1.4285030136564263\\
31.28064149910646	1.426658020716339\\
31.28741661098394	1.4248584902329327\\
31.29414328942771	1.4230190473581965\\
31.300858755164903	1.4211927541607134\\
31.307652544009777	1.419369505213065\\
31.31436264764904	1.4175249915416819\\
31.32101845583886	1.4157031984036215\\
31.327686089637297	1.4138961464800857\\
31.33435726836514	1.41208588390381\\
31.340998096376957	1.410274658879201\\
31.34759522798626	1.4084716740739922\\
31.354345695902566	1.4066805528420663\\
31.361063129410255	1.4048478008027896\\
31.367694151780896	1.4058860340999662\\
31.374460238451853	1.4056818247410003\\
31.38635688862236	1.4053231120185525\\
31.401615190542117	1.4048636780891313\\
31.42098257976678	1.4042815529769197\\
31.440722649727462	1.4036894154316182\\
31.460098515646834	1.4031093677790603\\
31.47931933441218	1.4025350995052348\\
31.49956748620461	1.4019313601587118\\
31.51854410991595	1.4013666705529326\\
31.538523526517906	1.4007733265048072\\
31.558327240787683	1.4001863980702338\\
31.562271896969172	1.4000696313187326\\
31.563719638360027	1.4000267882012496\\
31.564248842593607	1.4000111290073203\\
31.564527206406716	1.4000028925414323\\
31.564582315947625	1.4000012619411935\\
31.564618441685	1.4000001930453227\\
31.564635131723882	1.3999996992182997\\
31.56465144524315	1.399999216532607\\
31.564734397179116	1.3999967621567313\\
31.565010427112306	1.3999885951539313\\
31.565984386732588	1.3999597800931918\\
31.56848809090461	1.3998857200640507\\
31.574598631889238	1.399705049243151\\
31.58426141459298	1.399419580807864\\
31.597482591597867	1.3990294460145054\\
31.611871281360507	1.3986054624984987\\
31.629396063626253	1.3980899164106368\\
31.650179190222055	1.397479719192715\\
31.67010205215425	1.3968960024504364\\
31.689201691678548	1.3963375265130036\\
31.708711553409444	1.3957681864095066\\
31.729158198150373	1.395172732617166\\
31.748720549291832	1.3946042011436162\\
31.76866257647746	1.394025809935313\\
31.789075248489468	1.3934349937320423\\
31.808627600408435	1.3928702380714149\\
31.830936100683125	1.3922272557963205\\
31.85280536776773	1.391598360313697\\
31.873228837592748	1.391012314415668\\
31.894652721021004	1.390398879725437\\
31.91532067892893	1.389808365298935\\
31.937075909907833	1.3891881359255527\\
31.958333620456955	1.3885834248619457\\
31.979153953304646	1.3879924310476635\\
31.999862624684418	1.3874058557088003\\
32.01950156029203	1.3868507287719765\\
32.04030452153259	1.3862639147890283\\
32.062161373928944	1.3856487169663412\\
32.08307549109047	1.3850613407622672\\
32.10425732607068	1.3844677251807733\\
32.12586593541242	1.3838634729554045\\
32.147507485072566	1.3832596361596226\\
32.16917845222525	1.3826563155368166\\
32.19029123950352	1.382069818125506\\
32.21106732141661	1.3814939077018398\\
32.21975227342914	1.3812535238752093\\
};
\end{axis}
\end{tikzpicture}%
