%CL_evolution
\begin{tikzpicture}

\begin{axis}[
width=\figurewidth,
height=\figureheight,
scaled ticks=false, tick label style={/pgf/number format/fixed},
xmin=0.0,
xmax=35.739934475553966,
xlabel={Time (s)},
xmajorgrids,
ymin=0.0,
ymax=1.8831362422001459,
ylabel={CL },
ymajorgrids,
legend style={at={(1.03,0.5)},anchor=west,draw=black,fill=white,legend cell align=left}
]

\addplot [
color=black,
solid
]
table[row sep=crcr]{
9.999999999999999E-5	0.982\\
3.6272824641734246E-4	0.982\\
0.001063594174738156	0.982\\
0.0029784042467651895	0.982\\
0.007243168836995743	0.982\\
0.01259870332887347	0.982\\
0.01850910622297229	0.982\\
0.02439306838167716	0.982\\
0.030313695790032305	0.982\\
0.03623208272178996	0.982\\
0.04210787069868817	0.982\\
0.04791524514372793	0.982\\
0.05383274357367401	0.982\\
0.059752964389560695	0.982\\
0.06566444584123668	0.982\\
0.0714715014520953	0.982\\
0.0774000588908901	0.982\\
0.08332438765576988	0.982\\
0.08925066737120296	0.982\\
0.09508306095013533	0.982\\
0.10088681294082466	0.982\\
0.10673292933259337	0.982\\
0.11268790319024491	0.982\\
0.1185022534478389	0.982\\
0.12430660939782948	0.982\\
0.1302382450783488	0.982\\
0.13599969662414846	0.982\\
0.14191548159841144	0.982\\
0.14785423975840967	0.982\\
0.1537367246095151	0.982\\
0.1596046678230757	0.982\\
0.16550674362863982	0.982\\
0.17142746953048765	0.982\\
0.17737036955132712	0.982\\
0.18328807272662817	0.982\\
0.18928550272846162	0.982\\
0.19525158044898633	0.982\\
0.20121592165374363	0.982\\
0.20716435014197465	0.982\\
0.213125603852717	0.982\\
0.21909753789531755	0.982\\
0.22508396250359097	0.982\\
0.23108627104420398	0.982\\
0.2370505251688257	0.982\\
0.24298434856229278	0.982\\
0.24894237777264355	0.982\\
0.25487319282350385	0.982\\
0.26083352708764806	0.982\\
0.2667880471132822	0.982\\
0.2727282860081681	0.982\\
0.27875076238741714	0.982\\
0.2847582009470224	0.982\\
0.2907220794522337	0.982\\
0.2967350420789703	0.982\\
0.30270691321455634	0.982\\
0.30878809467662915	0.982\\
0.31477980752478196	0.982\\
0.3207416909678774	0.982\\
0.3268682406867548	0.982\\
0.3328884951897547	0.982\\
0.33891316033868	0.982\\
0.3449699784437167	0.982\\
0.3510249242738721	0.982\\
0.3571032391969794	0.982\\
0.3631718615525401	0.982\\
0.3692660191218168	0.982\\
0.3754570707223024	0.982\\
0.38152575265184563	0.982\\
0.3877456321925361	0.982\\
0.39399613308719184	0.982\\
0.40004831611102243	0.982\\
0.4061149395656958	0.982\\
0.41224967778901667	0.982\\
0.4183219664530029	0.982\\
0.4245382181730023	0.982\\
0.4307409809340328	0.982\\
0.4368791691586795	0.982\\
0.44294757779152905	0.982\\
0.44904583590093294	0.982\\
0.455137430814303	0.982\\
0.46122481366311974	0.982\\
0.467544892111453	0.982\\
0.4738035604421622	0.982\\
0.47989580080874017	0.982\\
0.4860562846707709	0.982\\
0.49218480944814036	0.982\\
0.4985263170256068	0.982\\
0.5047983219206631	0.982\\
0.5109996173388447	0.982\\
0.5173305295626458	0.982\\
0.5235100061864317	0.982\\
0.529754491298428	0.982\\
0.535930630845874	0.982\\
0.5423534026024341	0.982\\
0.5486821234080761	0.982\\
0.554998399537405	0.982\\
0.5612646684630644	0.982\\
0.5677050242278792	0.982\\
0.5739449371278387	0.982\\
0.5804739953121472	0.982\\
0.586779542607107	0.982\\
0.5930802399706727	0.982\\
0.5994881247840773	0.982\\
0.6060319130790477	0.982\\
0.6124736955019126	0.982\\
0.6187206688724685	0.982\\
0.6250841233963589	0.982\\
0.6315038162294466	0.982\\
0.6380656251974715	0.982\\
0.6444626280943959	0.982\\
0.650865878228865	0.982\\
0.6573701324545875	0.982\\
0.6639201838506674	0.982\\
0.6704445241206123	0.982\\
0.6768913895322073	0.982\\
0.6833607640063439	0.982\\
0.6898102857286084	0.982\\
0.6962300242368065	0.982\\
0.702839076332314	0.982\\
0.7093794438753895	0.982\\
0.7159247033684273	0.982\\
0.7225701924921388	0.982\\
0.7291726775069722	0.982\\
0.7355475443270554	0.982\\
0.7421659692195282	0.982\\
0.7486972770189908	0.982\\
0.7551441807115102	0.982\\
0.7619407122081712	0.982\\
0.7686898240424203	0.982\\
0.7753457464495797	0.982\\
0.782110039747105	0.982\\
0.788754635283605	0.982\\
0.7955258493895268	0.982\\
0.8020350145349686	0.982\\
0.8086148487928548	0.982\\
0.8151432399771741	0.982\\
0.8217256197763891	0.982\\
0.8283688606336304	0.982\\
0.8350886069478185	0.982\\
0.8417303204339615	0.982\\
0.8482338210129385	0.982\\
0.8548448197949834	0.982\\
0.8614853669812801	0.982\\
0.8681676529690507	0.982\\
0.8749315480492761	0.982\\
0.881535437319833	0.982\\
0.8883965517601922	0.982\\
0.8952086345409949	0.982\\
0.9020716622056189	0.982\\
0.9089623472473751	0.982\\
0.9157347825833981	0.982\\
0.9224664012154553	0.982\\
0.9293616331218539	0.982\\
0.9362099875787693	0.982\\
0.9429803217979611	0.982\\
0.9497728820085203	0.982\\
0.9567192782693088	0.982\\
0.9636356578675118	0.982\\
0.9706669625915425	0.982\\
0.9775602792736642	0.982\\
0.9845993936533919	0.982\\
0.9917167174406898	0.982\\
0.9987115981777721	0.982\\
1.0056549877193595	0.982\\
1.0128400547951903	0.982\\
1.0199026417749786	0.982\\
1.0269662027478321	0.982\\
1.0339731273699715	0.982\\
1.0410360326449184	0.982\\
1.0481963466742306	0.982\\
1.0552757024509765	0.982\\
1.0625403058012246	0.982\\
1.0696910003372144	0.982\\
1.0767851671995312	0.982\\
1.0839517813138166	0.982\\
1.0912301996393108	0.982\\
1.0984282501351328	0.982\\
1.1059079763529378	0.982\\
1.113100611012141	0.982\\
1.1202961625830197	0.982\\
1.1274717374879377	0.982\\
1.1346622868570564	0.982\\
1.1420279545727525	0.982\\
1.149170782575347	0.982\\
1.156581003050857	0.982\\
1.1638686495633999	0.982\\
1.1713216764052752	0.982\\
1.1785386119664265	0.982\\
1.1859033012562632	0.982\\
1.193250379330975	0.982\\
1.2005222980861032	0.982\\
1.2080040422449234	0.982\\
1.2153817512712886	0.982\\
1.2225392126415673	0.982\\
1.229804763830629	0.982\\
1.2371398019765034	0.982\\
1.2447732258788569	0.982\\
1.2523138968557768	0.982\\
1.2596441018566789	0.982\\
1.2669769820491257	0.982\\
1.2744865300573682	0.982\\
1.2819437901748403	0.982\\
1.289488118820449	0.982\\
1.2970840153354106	0.982\\
1.3045719768751765	0.982\\
1.3121786325580387	0.982\\
1.3199309412209606	0.982\\
1.327508675644562	0.982\\
1.3350186099003052	0.982\\
1.3425141055036685	0.982\\
1.35026263344069	0.982\\
1.357752972253396	0.982\\
1.3652841296060418	0.982\\
1.3729224482826017	0.982\\
1.3805118710159463	0.982\\
1.3881659184719877	0.982\\
1.3960528274815358	0.982\\
1.403820798011214	0.982\\
1.411425912820636	0.982\\
1.4190039580608946	0.982\\
1.4266193749365361	0.982\\
1.4343242514024341	0.982\\
1.4419217558317206	0.982\\
1.4495974524707198	0.982\\
1.457318704323018	0.982\\
1.4651183900591649	0.982\\
1.472922127980525	0.982\\
1.4808415646464743	0.982\\
1.4888175279678468	0.982\\
1.4966954928869414	0.982\\
1.504466793280646	0.982\\
1.5122318609609429	0.982\\
1.5200819920382824	0.982\\
1.5279310308262266	0.982\\
1.5355278654392617	0.982\\
1.5433005332279741	0.982\\
1.55151581572186	0.982\\
1.5596105485428287	0.982\\
1.5676395253901267	0.982\\
1.5756846262642679	0.982\\
1.5837930800152602	0.982\\
1.5916261826591294	0.982\\
1.5996057338399705	0.982\\
1.607598696739283	0.982\\
1.6157476258469319	0.982\\
1.6238099026284223	0.982\\
1.6319397176794377	0.982\\
1.6399862779288186	0.982\\
1.6480777282957844	0.982\\
1.6561055342063824	0.982\\
1.6640774000629595	0.982\\
1.672090750508855	0.982\\
1.6800315778053525	0.982\\
1.6879841503947701	0.982\\
1.6960846192007288	0.982\\
1.7042891751113443	0.982\\
1.7123911796722275	0.982\\
1.7205393200006758	0.982\\
1.728908969098078	0.982\\
1.7370296847757962	0.982\\
1.7453335275921718	0.982\\
1.7535431514218325	0.982\\
1.761627280265035	0.982\\
1.769946114390462	0.982\\
1.7784344079434442	0.982\\
1.7866122639204933	0.982\\
1.7948836130634538	0.982\\
1.8031286876977601	0.982\\
1.8113004609139183	0.982\\
1.8197194947400788	0.982\\
1.827950846450821	0.982\\
1.8363098605421815	0.982\\
1.8446280753453768	0.982\\
1.853100005895283	0.982\\
1.8615273364974376	0.982\\
1.8700334639618865	0.982\\
1.8783731228119822	0.982\\
1.8868042968778638	0.982\\
1.8953284254899878	0.982\\
1.9040553344368139	0.982\\
1.912511383808729	0.982\\
1.9211312603408195	0.982\\
1.929560363203556	0.982\\
1.937954417971555	0.982\\
1.9464332507051152	0.982\\
1.9549872479785315	0.982\\
1.9635113448948407	0.982\\
1.9721906487799403	0.982\\
1.9809616537711685	0.982\\
1.989620557742172	0.982\\
1.9983584654379238	0.982\\
2.0070926857008553	0.982\\
2.0157753247722097	0.982\\
2.0243793822044482	0.982\\
2.032965663236463	0.982\\
2.0418141495807474	0.982\\
2.050665941808824	0.982\\
2.0593885548773088	0.982\\
2.068217223950233	0.982\\
2.0768579972425236	0.982\\
2.085663343672689	0.982\\
2.094402379643662	0.982\\
2.1032148635001375	0.982\\
2.1120723159903054	0.982\\
2.120887390126841	0.982\\
2.1297657324847616	0.982\\
2.1384627324957473	0.982\\
2.1473317628496726	0.982\\
2.156188582297381	0.982\\
2.165152801900728	0.982\\
2.174203472235609	0.982\\
2.183139060693729	0.982\\
2.1921922488260064	0.982\\
2.201392129522551	0.982\\
2.210326303330648	0.982\\
2.2191774732107845	0.982\\
2.2281802173681067	0.982\\
2.237271170965994	0.982\\
2.2464196817261497	0.982\\
2.2554311501889517	0.982\\
2.264406600374417	0.982\\
2.273554312951699	0.982\\
2.282589085134301	0.982\\
2.291581018677702	0.982\\
2.300648547375804	0.982\\
2.3099001288256966	0.982\\
2.3191044830537475	0.982\\
2.3284033340576684	0.982\\
2.337577107207288	0.982\\
2.3466412236736556	0.982\\
2.3558163944331856	0.982\\
2.3649589169342606	0.982\\
2.3741812665261515	0.982\\
2.3833360621662596	0.982\\
2.392390156812497	0.982\\
2.4017895423682196	0.982\\
2.411017848605616	0.982\\
2.420340367067422	0.982\\
2.4295998405973815	0.982\\
2.438857306897936	0.982\\
2.4483728775307885	0.982\\
2.4575988740534314	0.982\\
2.466860598074285	0.982\\
2.476131648307562	0.982\\
2.4854226081008886	0.982\\
2.494650234650911	0.982\\
2.504092803614359	0.982\\
2.513696838963031	0.982\\
2.523160339535295	0.982\\
2.5325668372764207	0.982\\
2.541840782534968	0.982\\
2.5512714533984457	0.982\\
2.560883975229318	0.982\\
2.57040460641921	0.982\\
2.579941549751748	0.982\\
2.589424068900777	0.982\\
2.599165044496342	0.982\\
2.6086468798790676	0.982\\
2.618272241205439	0.982\\
2.6281084471071416	0.982\\
2.6377638032166395	0.982\\
2.6475808903540665	0.982\\
2.6571933811113	0.982\\
2.6669261930068195	0.982\\
2.6768756400013745	0.982\\
2.6867833661344607	0.982\\
2.6965928815971614	0.982\\
2.7062793318101015	0.982\\
2.715958223789573	0.982\\
2.7257398916582414	0.982\\
2.735485906281001	0.982\\
2.7450941533445503	0.982\\
2.7549502068336427	0.982\\
2.7646856510487314	0.982\\
2.774794460182191	0.982\\
2.784699057085426	0.982\\
2.794589619152757	0.982\\
2.804380279190579	0.982\\
2.81422370795066	0.982\\
2.824019482237887	0.982\\
2.8339093393706385	0.982\\
2.843895624563517	0.982\\
2.8539352673026057	0.982\\
2.8637296211248913	0.982\\
2.8738923879936804	0.982\\
2.883860362454933	0.982\\
2.89395577478971	0.982\\
2.903892806093115	0.982\\
2.9139013044002633	0.982\\
2.923954006668432	0.982\\
2.9343033530794136	0.982\\
2.9446174821216626	0.982\\
2.954597012321215	0.982\\
2.9650040989539654	0.982\\
2.9751514780270787	0.982\\
2.985308881606395	0.982\\
2.9954368402309415	0.982\\
3.0055145252276843	0.982\\
3.0155818369435057	0.982\\
3.025680451941332	0.982\\
3.0357940525339124	0.982\\
3.046024367782805	0.982\\
3.0566348654295226	0.982\\
3.066940983296381	0.982\\
3.0771472896484013	0.982\\
3.087416786720877	0.982\\
3.09756028289209	0.982\\
3.1079214099478527	0.982\\
3.1183257689204877	0.982\\
3.1287546908415367	0.982\\
3.139333914536139	0.982\\
3.14984132790837	0.982\\
3.160164144050512	0.982\\
3.1706604993692142	0.982\\
3.1811333457584183	0.982\\
3.1915731239672223	0.982\\
3.2018776171572805	0.982\\
3.212384524680349	0.982\\
3.2229335367219205	0.982\\
3.2331960732589833	0.982\\
3.243578257663775	0.982\\
3.254059913313599	0.982\\
3.2645726106170248	0.982\\
3.274982878188597	0.982\\
3.285725853442697	0.982\\
3.2962203542804485	0.982\\
3.306831376082606	0.982\\
3.3175454255274897	0.982\\
3.32827264391773	0.982\\
3.339050624827764	0.982\\
3.3496692337470098	0.982\\
3.3602784779156805	0.982\\
3.3710094088767484	0.982\\
3.381731610222933	0.982\\
3.3923611059619274	0.982\\
3.403186967038015	0.982\\
3.4137019690316963	0.982\\
3.4245473686157135	0.982\\
3.4353157496132196	0.982\\
3.446404104216211	0.982\\
3.457361351306324	0.982\\
3.4683650779218054	0.982\\
3.479195844567008	0.982\\
3.4901794599281395	0.982\\
3.5011609508777735	0.982\\
3.5120123553893885	0.982\\
3.523164350858993	0.982\\
3.5340442018236287	0.982\\
3.54500446721441	0.982\\
3.55593810071798	0.982\\
3.5669622887864634	0.982\\
3.5779740640371385	0.982\\
3.588915006435977	0.982\\
3.600093415753049	0.982\\
3.6112462623400337	0.982\\
3.622370188716822	0.982\\
3.6334285151533523	0.982\\
3.6445916147050372	0.982\\
3.6557452263895014	0.982\\
3.666802003224463	0.982\\
3.678016597699316	0.982\\
3.6893252981939657	0.982\\
3.7005753008872277	0.982\\
3.711744793731257	0.982\\
3.722882705994998	0.982\\
3.7340284249741185	0.982\\
3.7452958460747467	0.982\\
3.756395913258025	0.982\\
3.767701427638765	0.982\\
3.7789908696489665	0.982\\
3.7904258195498617	0.982\\
3.8015389914720057	0.982\\
3.8126603854376606	0.982\\
3.8240463942207423	0.982\\
3.8351607144905078	0.982\\
3.846664049652129	0.982\\
3.8579776407315407	0.982\\
3.8693506735338747	0.982\\
3.8806680652983543	0.982\\
3.8921367407446823	0.982\\
3.9035453980873704	0.982\\
3.914955586612944	0.982\\
3.9263565397644618	0.982\\
3.9380182413472067	0.982\\
3.9495880002236516	0.982\\
3.960939547569123	0.982\\
3.972621775108988	0.982\\
3.984017704284251	0.982\\
3.995440092794487	0.982\\
4.006903860599401	0.982\\
4.01843062385751	0.982\\
4.029947483457995	0.982\\
4.041399789595651	0.982\\
4.053137612712593	0.982\\
4.064738711244139	0.982\\
4.076386367760884	0.982\\
4.087803693564165	0.982\\
4.099135041378009	0.982\\
4.110702601540975	0.982\\
4.122378752800756	0.982\\
4.133919266998641	0.982\\
4.145687339580107	0.982\\
4.157176998111305	0.982\\
4.168809027910779	0.982\\
4.180379732844331	0.982\\
4.191870580658552	0.982\\
4.203457646942741	0.982\\
4.2151496683690475	0.982\\
4.226813525266657	0.982\\
4.2382951250650684	0.982\\
4.249950661515129	0.982\\
4.261441632792616	0.982\\
4.273024721393661	0.982\\
4.284558497116352	0.982\\
4.2961393825943635	0.982\\
4.307636302633616	0.982\\
4.3193736072307445	0.982\\
4.321670570085949	0.982\\
4.322838914886388	0.982\\
4.323600610947189	0.982\\
4.323986164075794	0.982\\
4.3242031583106915	0.982\\
4.324317192865822	0.982\\
4.324452351436985	0.982\\
4.324978403715791	0.982\\
4.326856962247209	0.982\\
4.3315841956068155	0.982\\
4.340320472634357	0.982\\
4.350996498132323	0.982\\
4.361794680475944	0.982\\
4.372572653042724	0.982\\
4.38338413674105	0.982\\
4.394323812649912	0.982\\
4.405056797347008	0.982\\
4.415844614517255	0.982\\
4.426564701708681	0.982\\
4.437449085038519	0.982\\
4.448357593608058	0.982\\
4.459305053973807	0.982\\
4.47022490551478	0.982\\
4.481311132036733	0.982\\
4.492171322205472	0.982\\
4.503147312657424	0.982\\
4.5140289790954515	0.982\\
4.525063349606823	0.982\\
4.5360756652296725	0.982\\
4.5470242425044844	0.982\\
4.558235864674575	0.982\\
4.569300373855484	0.982\\
4.580401595081064	0.982\\
4.591526254537486	0.982\\
4.602580049023734	0.982\\
4.613710314507236	0.982\\
4.624897352695253	0.982\\
4.636067873707644	0.982\\
4.647356994931318	0.982\\
4.658584506747015	0.982\\
4.6699195120505355	0.982\\
4.681086978541767	0.982\\
4.6923407708816125	0.982\\
4.703666985039224	0.982\\
4.714977299135358	0.982\\
4.7264007330260185	0.982\\
4.737788289386991	0.982\\
4.749075127560275	0.982\\
4.760535967616107	0.982\\
4.771979802638436	0.982\\
4.783284455938372	0.982\\
4.794857225975681	0.982\\
4.806318940368385	0.982\\
4.817890224129686	0.982\\
4.829327677205253	0.982\\
4.840821160519466	0.982\\
4.852244372789462	0.982\\
4.863707885715824	0.982\\
4.875236827847083	0.982\\
4.8867775483275295	0.982\\
4.898400674949384	0.982\\
4.909808939156401	0.982\\
4.921268300368297	0.982\\
4.932833351488526	0.982\\
4.944428712908959	0.982\\
4.9558486885669915	0.982\\
4.967183177933366	0.982\\
4.978966227216583	0.982\\
4.990513490629281	0.982\\
5.002135697752026	0.982\\
5.013785607206389	0.982\\
5.0255892735742655	0.982\\
5.03728904431304	0.982\\
5.049002063018822	0.982\\
5.0607453447064294	0.982\\
5.072420007012644	0.982\\
5.084104535868569	0.982\\
5.0959074179335655	0.982\\
5.107600513893114	0.982\\
5.119404436515843	0.982\\
5.131245212281344	0.982\\
5.142972514948889	0.982\\
5.154745399146007	0.982\\
5.166624096385883	0.982\\
5.178397951548911	0.982\\
5.19007936572728	0.982\\
5.202050036230126	0.982\\
5.213852042994066	0.982\\
5.22567191407127	0.982\\
5.237487185713233	0.982\\
5.249311031082716	0.982\\
5.261253866325662	0.982\\
5.273249516983984	0.982\\
5.284983349428204	0.982\\
5.296784591072658	0.982\\
5.3085556207726725	0.982\\
5.320594402267268	0.982\\
5.332308738154088	0.982\\
5.344310962257916	0.982\\
5.356293226655289	0.982\\
5.368154538541898	0.982\\
5.38021488849798	0.982\\
5.391937013012743	0.982\\
5.403850700176196	0.982\\
5.415697297710944	0.982\\
5.427489139314702	0.982\\
5.439394860399263	0.982\\
5.451444727940181	0.982\\
5.463435388112156	0.982\\
5.475311084690928	0.982\\
5.487166746682554	0.982\\
5.49922462462699	0.982\\
5.511320428135365	0.982\\
5.523178832452059	0.982\\
5.535096705462859	0.982\\
5.547097611655744	0.982\\
5.558984071537367	0.982\\
5.570834715264244	0.982\\
5.582831984198821	0.982\\
5.594626351758141	0.982\\
5.606522297542988	0.982\\
5.618571204944445	0.982\\
5.630472898011156	0.982\\
5.642415047363235	0.982\\
5.654423343037772	0.982\\
5.666465059954815	0.982\\
5.67832653503665	0.982\\
5.690472698891668	0.982\\
5.702354162934295	0.982\\
5.714373256633808	0.982\\
5.726362953996057	0.982\\
5.738476456147083	0.982\\
5.750465053913523	0.982\\
5.76251028614951	0.982\\
5.774529848875874	0.982\\
5.786655286705315	0.982\\
5.798611318455967	0.982\\
5.81049000844887	0.982\\
5.822457203547273	0.982\\
5.834616112988305	0.982\\
5.846760052146818	0.982\\
5.85877094064748	0.982\\
5.870879239225561	0.982\\
5.882881972134717	0.982\\
5.894840218407062	0.982\\
5.906793467362261	0.982\\
5.918700579415667	0.982\\
5.9306964639417465	0.982\\
5.942903516208977	0.982\\
5.954896083374541	0.982\\
5.966906611200704	0.982\\
5.979011945777593	0.982\\
5.9908538552485044	0.982\\
6.00297797972525	0.982\\
6.015096237362762	0.982\\
6.027291066568875	0.982\\
6.039409779453761	0.982\\
6.05149288487201	0.982\\
6.063568950567156	0.982\\
6.075669871413378	0.982\\
6.08787832212975	0.982\\
6.100039315061281	0.982\\
6.112233671870516	0.982\\
6.124402648176877	0.982\\
6.136370605369883	0.982\\
6.148538343197835	0.982\\
6.160689808020466	0.982\\
6.172868803446908	0.982\\
6.1850840519839	0.982\\
6.197191174054156	0.982\\
6.209388301340537	0.982\\
6.221586702035587	0.982\\
6.233688786313957	0.982\\
6.24577611596667	0.982\\
6.257991599368664	0.982\\
6.270217402937673	0.982\\
6.282371593984545	0.982\\
6.2948377765264	0.982\\
6.30706643326776	0.982\\
6.319233323135082	0.982\\
6.33154415849501	0.982\\
6.343828072476834	0.982\\
6.355964004761889	0.982\\
6.368188664376376	0.982\\
6.380471901517613	0.982\\
6.392670072488407	0.982\\
6.40485094560532	0.982\\
6.41708266266094	0.982\\
6.429270884619623	0.982\\
6.441505208997748	0.982\\
6.4539286376329095	0.982\\
6.466417564255208	0.982\\
6.4789242748657525	0.982\\
6.4912712571155105	0.982\\
6.503579779708097	0.982\\
6.51606403960872	0.982\\
6.528332139056957	0.982\\
6.540803966910154	0.982\\
6.553162130066887	0.982\\
6.565520043063376	0.982\\
6.577958628408853	0.982\\
6.590292883466056	0.982\\
6.602816080361626	0.982\\
6.6152308446234045	0.982\\
6.627516162341859	0.982\\
6.64014905048599	0.982\\
6.652735862580524	0.982\\
6.665106408858954	0.982\\
6.677613328872912	0.982\\
6.6900384039848895	0.982\\
6.702618389015026	0.982\\
6.7151390209409225	0.982\\
6.727616792891451	0.982\\
6.740088999583502	0.982\\
6.752753699321078	0.982\\
6.76538437117156	0.982\\
6.778052250157479	0.982\\
6.79056358358126	0.982\\
6.803112920141674	0.982\\
6.815705718589577	0.982\\
6.82832419196561	0.982\\
6.840835746472315	0.982\\
6.853498076769515	0.982\\
6.8660944519530975	0.982\\
6.8788091119262145	0.982\\
6.891557372422188	0.982\\
6.904304945442728	0.982\\
6.916988280834067	0.982\\
6.929742870455424	0.982\\
6.9424146270857285	0.982\\
6.955219005937904	0.982\\
6.96808318011654	0.982\\
6.980915303830539	0.982\\
6.993825443222786	0.982\\
7.0066173965226834	0.982\\
7.0195399997845165	0.982\\
7.032352865504109	0.982\\
7.045174797435768	0.982\\
7.0579748946703305	0.982\\
7.070881115574288	0.982\\
7.083812497109458	0.982\\
7.09672258588723	0.982\\
7.109742336821569	0.982\\
7.122645170489545	0.982\\
7.135470670385429	0.982\\
7.148474772689916	0.982\\
7.1615382216033865	0.982\\
7.174621249532061	0.982\\
7.187613793783578	0.982\\
7.200720455093004	0.982\\
7.213680776412904	0.982\\
7.226728245622402	0.982\\
7.239703514378592	0.982\\
7.2529227402918295	0.982\\
7.265998341925899	0.982\\
7.2791535020680005	0.982\\
7.292305499917795	0.982\\
7.305530224025846	0.982\\
7.318815379226651	0.982\\
7.332074977809581	0.982\\
7.345369143639619	0.982\\
7.358764739645142	0.982\\
7.372051797729416	0.982\\
7.38537935919012	0.982\\
7.398645229754322	0.982\\
7.412059769990865	0.982\\
7.425352062167507	0.982\\
7.438790443748333	0.982\\
7.452203685115601	0.982\\
7.465726362391271	0.982\\
7.4791848798527525	0.982\\
7.492721742669209	0.982\\
7.506369486180628	0.982\\
7.5198093893562366	0.982\\
7.533416052012091	0.982\\
7.5469416453505715	0.982\\
7.5605423779324195	0.982\\
7.574088570704847	0.982\\
7.587682250294618	0.982\\
7.601278024460566	0.982\\
7.615184777690789	0.982\\
7.628898844370413	0.982\\
7.642794592615429	0.982\\
7.656603984540494	0.982\\
7.670452965934137	0.982\\
7.684368437120799	0.982\\
7.698341427027163	0.982\\
7.712244254995296	0.982\\
7.7262002294150385	0.982\\
7.7402994499988385	0.982\\
7.754312226596012	0.982\\
7.768322639720591	0.982\\
7.782338854281216	0.982\\
7.796660309026349	0.982\\
7.810834320026794	0.982\\
7.825105149728399	0.982\\
7.839205706118076	0.982\\
7.853524394775029	0.982\\
7.867718939931745	0.982\\
7.882080601469427	0.982\\
7.896470099211726	0.982\\
7.910722984612535	0.982\\
7.9251108491026905	0.982\\
7.939520215447846	0.982\\
7.954108782890735	0.982\\
7.968479515959508	0.982\\
7.9830867178775	0.982\\
7.997689191781172	0.982\\
8.012242833634001	0.982\\
8.026864333238969	0.982\\
8.041695309553997	0.982\\
8.056444546520819	0.982\\
8.071174887720066	0.982\\
8.085894810371538	0.982\\
8.100397167268898	0.982\\
8.115244933436593	0.982\\
8.130078303048048	0.982\\
8.145084342132623	0.982\\
8.16002511647379	0.982\\
8.174913664607924	0.982\\
8.189795664216462	0.982\\
8.204746131795922	0.982\\
8.220001198562791	0.982\\
8.235285526537439	0.982\\
8.250338102656077	0.982\\
8.265289182919027	0.982\\
8.280277218898078	0.982\\
8.29556230699648	0.982\\
8.310661132730765	0.982\\
8.32592036491651	0.982\\
8.34102625225582	0.982\\
8.356182043336801	0.982\\
8.371243526111176	0.982\\
8.386533593301309	0.982\\
8.401788133606363	0.982\\
8.41681013266233	0.982\\
8.432059327503111	0.982\\
8.447290952768935	0.982\\
8.462415933256366	0.982\\
8.477662378250205	0.982\\
8.493044439550847	0.982\\
8.508416271085832	0.982\\
8.523573778285591	0.982\\
8.538704352590536	0.982\\
8.554010708247109	0.982\\
8.569139458122105	0.982\\
8.58433481167977	0.982\\
8.599532274726496	0.982\\
8.614703207414511	0.982\\
8.629676027694003	0.982\\
8.644597439350829	0.982\\
8.659439931708505	0.982\\
8.674359549174337	0.982\\
8.68936164481071	0.982\\
8.704192763062736	0.982\\
8.719074683458999	0.982\\
8.733866762974394	0.982\\
8.748743402908683	0.982\\
8.7635318079742	0.982\\
8.778322841024782	0.982\\
8.793069167088337	0.982\\
8.807760579861576	0.982\\
8.822459706993271	0.982\\
8.837172580702994	0.982\\
8.85174076662862	0.982\\
8.86625220196764	0.982\\
8.880681652572477	0.982\\
8.895218183224511	0.982\\
8.90966483685915	0.982\\
8.91023807665314	0.982\\
8.910664904711066	0.982\\
8.911024377110447	0.982\\
8.911349104590723	0.982\\
8.91146285161998	0.982\\
8.91157983213262	0.982\\
8.912175819950495	0.982\\
8.914110995975022	0.982\\
8.92018663159661	0.982\\
8.933548937197422	0.982\\
8.94636211440875	0.982\\
8.959134588806194	0.982\\
8.97200139967224	0.982\\
8.984844289195816	0.982\\
8.997836111397547	0.982\\
9.01081927812103	0.982\\
9.023867560223536	0.982\\
9.037090718803604	0.982\\
9.050278490046363	0.982\\
9.063478493133438	0.982\\
9.076698829363472	0.982\\
9.090023005737901	0.982\\
9.103420163660427	0.982\\
9.116976468622003	0.982\\
9.130470678241508	0.982\\
9.143972979965302	0.982\\
9.157588590287592	0.982\\
9.171220350413154	0.982\\
9.184926821356765	0.982\\
9.198750168286459	0.982\\
9.212523212667595	0.982\\
9.22638803674909	0.982\\
9.240267694623459	0.982\\
9.254285001608768	0.982\\
9.268302733484298	0.982\\
9.282355065125621	0.982\\
9.296411729152112	0.982\\
9.310502835059744	0.982\\
9.324995557522456	0.982\\
9.339218799930656	0.982\\
9.353457835936648	0.982\\
9.367770830441593	0.982\\
9.382193594836714	0.982\\
9.396499598876776	0.982\\
9.410801844615328	0.982\\
9.425389732211507	0.982\\
9.440078687128363	0.982\\
9.454565256505937	0.982\\
9.469272116191863	0.982\\
9.484043927727026	0.982\\
9.498888422984152	0.982\\
9.51364227033255	0.982\\
9.528353415496738	0.982\\
9.543128775057838	0.982\\
9.557921415560134	0.982\\
9.57258103673453	0.982\\
9.587452163670331	0.982\\
9.602216906167293	0.982\\
9.61696857858879	0.982\\
9.63168650449844	0.982\\
9.646383044397187	0.982\\
9.661192207848845	0.982\\
9.675851121461477	0.982\\
9.690629703187057	0.982\\
9.705304673453917	0.982\\
9.719932658649899	0.982\\
9.734665672985358	0.982\\
9.749437156801743	0.982\\
9.764063467379195	0.982\\
9.778724388518278	0.982\\
9.793428498823292	0.982\\
9.808114764648277	0.982\\
9.822815623110433	0.982\\
9.837340352449718	0.982\\
9.851932516198307	0.982\\
9.8664803643773	0.982\\
9.881060191762781	0.982\\
9.895505424210846	0.982\\
9.909836905921292	0.982\\
9.924287792722442	0.982\\
9.938785359062038	0.982\\
9.953110406338638	0.982\\
9.967426139256755	0.982\\
9.98172525879409	0.982\\
9.99600226807707	0.982\\
10.010344393754437	0.982\\
10.024642567718345	0.982\\
10.038877879752068	0.982\\
10.053125461670927	0.982\\
10.067425518680462	0.982\\
10.08159704006965	0.982\\
10.095629807141503	0.982\\
10.109762847699724	0.982\\
10.123859847459826	0.982\\
10.137860013624248	0.982\\
10.151965502165158	0.982\\
10.165896872588196	0.982\\
10.17995501465187	0.982\\
10.193858853975751	0.982\\
10.207884922609413	0.982\\
10.221831959524614	0.982\\
10.235760869646583	0.982\\
10.2496884620565	0.982\\
10.26358167626757	0.982\\
10.277471350314919	0.982\\
10.291324933569157	0.982\\
10.305242027618235	0.982\\
10.319089064250349	0.982\\
10.332947174727146	0.982\\
10.346759461905297	0.982\\
10.36051982398812	0.982\\
10.374400114785526	0.982\\
10.388242656106389	0.982\\
10.401998182925528	0.982\\
10.41560723635116	0.982\\
10.429295635547337	0.982\\
10.443060830736187	0.982\\
10.456846776424829	0.982\\
10.470520383846175	0.982\\
10.484360910135006	0.982\\
10.497905937284582	0.982\\
10.511555328852282	0.982\\
10.52517002034159	0.982\\
10.53884691435627	0.982\\
10.552435270564697	0.982\\
10.56604756752958	0.982\\
10.579545251242529	0.982\\
10.593215865125732	0.982\\
10.606823180529833	0.982\\
10.620438109499428	0.982\\
10.633934846930842	0.982\\
10.647498125741947	0.982\\
10.661029031662927	0.982\\
10.67463704535528	0.982\\
10.688177667556467	0.982\\
10.70171694008706	0.982\\
10.715228775075616	0.982\\
10.728834332584086	0.982\\
10.742356909152981	0.982\\
10.755897688218667	0.982\\
10.769348860429776	0.982\\
10.782818932813946	0.982\\
10.796340256954029	0.982\\
10.809932110891317	0.982\\
10.823491722642668	0.982\\
10.837004257072973	0.982\\
10.850418401010458	0.982\\
10.863865796221695	0.982\\
10.877353792934311	0.982\\
10.89083869555811	0.982\\
10.904287584629454	0.982\\
10.917825738844577	0.982\\
10.931390335128619	0.982\\
10.944891713583399	0.982\\
10.958503404015904	0.982\\
10.972005859906837	0.982\\
10.98553866162202	0.982\\
10.999038683594016	0.982\\
11.0125772434257	0.982\\
11.026063753602237	0.982\\
11.039617091880821	0.982\\
11.053093064237	0.982\\
11.066508586143282	0.982\\
11.080095769650697	0.982\\
11.093683842206694	0.982\\
11.107199632945594	0.982\\
11.120702895087103	0.982\\
11.134216123164133	0.982\\
11.147776097714921	0.982\\
11.161309315060187	0.982\\
11.174848384425058	0.982\\
11.188417516380344	0.982\\
11.201897302846056	0.982\\
11.215411125495745	0.982\\
11.228966297732516	0.982\\
11.242537836243361	0.982\\
11.256054959659643	0.982\\
11.26957277850989	0.982\\
11.283127562214101	0.982\\
11.296673261340185	0.982\\
11.310246822732822	0.982\\
11.323828819545362	0.982\\
11.337373463844436	0.982\\
11.350925915007114	0.982\\
11.364514151401828	0.982\\
11.378053839628816	0.982\\
11.391641745804705	0.982\\
11.405369766736971	0.982\\
11.419123058971174	0.982\\
11.43281394203855	0.982\\
11.44647173323245	0.982\\
11.460110001085116	0.982\\
11.473819736869658	0.982\\
11.487438968567446	0.982\\
11.501099721522511	0.982\\
11.514837319167292	0.982\\
11.528586238385813	0.982\\
11.542300131360825	0.982\\
11.55600821262263	0.982\\
11.569743142082714	0.982\\
11.583660453960768	0.982\\
11.597413862539614	0.982\\
11.611212301028171	0.982\\
11.625015105134413	0.982\\
11.638857120631439	0.982\\
11.652613044980324	0.982\\
11.666389627998402	0.982\\
11.680257000069432	0.982\\
11.694198384285851	0.982\\
11.708132841730503	0.982\\
11.722039723607072	0.982\\
11.735958870147758	0.982\\
11.74983955566871	0.982\\
11.76387025969435	0.982\\
11.77789820483492	0.982\\
11.791900644008358	0.982\\
11.805886441086699	0.982\\
11.819895722072761	0.982\\
11.83397710652531	0.982\\
11.848047526363441	0.982\\
11.862069176337897	0.982\\
11.876130853673764	0.982\\
11.89022747641868	0.982\\
11.90443206666827	0.982\\
11.918632448936439	0.982\\
11.932886413730103	0.982\\
11.947099705846586	0.982\\
11.961242608453606	0.982\\
11.975491673595918	0.982\\
11.9897048415232	0.982\\
12.003952713179537	0.982\\
12.018210887000414	0.982\\
12.032513675486822	0.982\\
12.046893358369488	0.982\\
12.061238354018258	0.982\\
12.075541792091759	0.982\\
12.089879134354799	0.982\\
12.10420391257762	0.982\\
12.118650323509286	0.982\\
12.133025024033191	0.982\\
12.147497391774134	0.982\\
12.161934262791469	0.982\\
12.176487006866708	0.982\\
12.191109689263861	0.982\\
12.205716143963862	0.982\\
12.220382920822384	0.982\\
12.235050614771158	0.982\\
12.249677306847001	0.982\\
12.264422672852582	0.982\\
12.279152719789874	0.982\\
12.293813354528336	0.982\\
12.308658727150686	0.982\\
12.3234352114184	0.982\\
12.338411483372994	0.982\\
12.353453192808352	0.982\\
12.368407193498822	0.982\\
12.383387061595133	0.982\\
12.398413633197507	0.982\\
12.413450622825469	0.982\\
12.428541782567773	0.982\\
12.443619133198663	0.982\\
12.458719174193888	0.982\\
12.473972963168666	0.982\\
12.489216555464726	0.982\\
12.504542340375192	0.982\\
12.519764840369888	0.982\\
12.535161431977773	0.982\\
12.550577340669296	0.982\\
12.565984390337519	0.982\\
12.581463204109347	0.982\\
12.596955797811614	0.982\\
12.612620725556148	0.982\\
12.628165031235273	0.982\\
12.643882548931177	0.982\\
12.659644046440096	0.982\\
12.675385910940438	0.982\\
12.691274921829738	0.982\\
12.707100762996294	0.982\\
12.723104959443699	0.982\\
12.73906870033813	0.982\\
12.755126527536717	0.982\\
12.77133823622598	0.982\\
12.787564294525403	0.982\\
12.803884970827589	0.982\\
12.82019401458411	0.982\\
12.836733844526371	0.982\\
12.853169643038246	0.982\\
12.869855645176681	0.982\\
12.886586291997759	0.982\\
12.903409069412149	0.982\\
12.92028531103961	0.982\\
12.937237401690794	0.982\\
12.954261555387859	0.982\\
12.971306706530786	0.982\\
12.988413247217288	0.982\\
13.005639287521259	0.982\\
13.022933220854313	0.982\\
13.040427757438504	0.982\\
13.05792054836284	0.982\\
13.0754587578778	0.982\\
13.093071335977445	0.982\\
13.110908183640166	0.982\\
13.1286365033306	0.982\\
13.146702747674645	0.982\\
13.164774624400916	0.982\\
13.182897471896315	0.982\\
13.201184443888138	0.982\\
13.21966334100793	0.982\\
13.238069681433078	0.982\\
13.256479430395618	0.982\\
13.27494323239635	0.982\\
13.2934315767357	0.982\\
13.31185748600575	0.982\\
13.330677501712042	0.982\\
13.349367321002074	0.982\\
13.367842767985916	0.982\\
13.386489995763483	0.982\\
13.405016036201268	0.982\\
13.423608500486779	0.982\\
13.441992537753002	0.982\\
13.460558136224119	0.982\\
13.4788257345758	0.982\\
13.497029829072169	0.982\\
13.515257711103366	0.982\\
13.53333482244345	0.982\\
13.551287413446808	0.982\\
13.569037513887714	0.982\\
13.586751747199742	0.982\\
13.604483081648194	0.982\\
13.622057387715163	0.982\\
13.639506960021347	0.982\\
13.656806914186596	0.982\\
13.674028496974739	0.982\\
13.6911009557314	0.982\\
13.708061288562249	0.982\\
13.724994471197675	0.982\\
13.741885705598637	0.982\\
13.758564006958277	0.982\\
13.775172032282125	0.982\\
13.79165692720726	0.982\\
13.807967431817087	0.982\\
13.824293966558024	0.982\\
13.84040120578019	0.982\\
13.85663323653376	0.982\\
13.87282363260032	0.982\\
13.88885252570508	0.982\\
13.90477259314687	0.982\\
13.920604456393455	0.982\\
13.923762205271778	0.982\\
13.932634336955168	0.982\\
13.933603114721532	0.982\\
13.934264526932544	0.982\\
13.934546122697075	0.982\\
13.93480451481658	0.982\\
13.935909402214389	0.982\\
13.939633271180657	0.982\\
13.951764846987295	0.982\\
13.965385518015875	0.982\\
13.979108066019108	0.982\\
13.992919565713656	0.982\\
14.006792197223689	0.982\\
14.020743970974141	0.982\\
14.034745855077471	0.982\\
14.048795539057654	0.982\\
14.062912295066813	0.982\\
14.077113082114565	0.982\\
14.091403609436789	0.982\\
14.105724724387024	0.982\\
14.120157742544372	0.982\\
14.13462037041904	0.982\\
14.149204321856292	0.982\\
14.16382714166776	0.982\\
14.17853577812766	0.982\\
14.19336454209898	0.982\\
14.208240311440203	0.982\\
14.223334229658082	0.982\\
14.238360576772532	0.982\\
14.253617032864831	0.982\\
14.268899696198368	0.982\\
14.284281727490402	0.982\\
14.2997643531311	0.982\\
14.315330454443188	0.982\\
14.33108430666914	0.982\\
14.34690270094212	0.982\\
14.362826727326478	0.982\\
14.378892563298624	0.982\\
14.395018379132615	0.982\\
14.411349351267841	0.982\\
14.42769599627557	0.982\\
14.444204782380208	0.982\\
14.460779686782676	0.982\\
14.477444215394112	0.982\\
14.494236681474053	0.982\\
14.511251653367008	0.982\\
14.528316327606149	0.982\\
14.545533538850787	0.982\\
14.562742522366225	0.982\\
14.579993204414183	0.982\\
14.597379027684521	0.982\\
14.614788583413489	0.982\\
14.632149211289434	0.982\\
14.649484120717148	0.982\\
14.666934861587105	0.982\\
14.684264364753485	0.982\\
14.701613634784877	0.982\\
14.718890685415047	0.982\\
14.736235420759186	0.982\\
14.753375999299127	0.982\\
14.770475824264473	0.982\\
14.7874716633039	0.982\\
14.804337873825428	0.982\\
14.821167775207432	0.982\\
14.837970916081478	0.982\\
14.854592891446991	0.982\\
14.871104365923784	0.982\\
14.887646510450796	0.982\\
14.904065585297623	0.982\\
14.920423904651539	0.982\\
14.936738439633292	0.982\\
14.952923031064028	0.982\\
14.969082232966368	0.982\\
14.985160364265795	0.982\\
15.001220855278852	0.982\\
15.017198658858398	0.982\\
15.033030419933457	0.982\\
15.048838530820174	0.982\\
15.064593815599121	0.982\\
15.080369402481956	0.982\\
15.09606150606384	0.982\\
15.111604067134216	0.982\\
15.12722545642692	0.982\\
15.1427344916628	0.982\\
15.158122992605705	0.982\\
15.17350694790495	0.982\\
15.188822736540189	0.982\\
15.2041674312559	0.982\\
15.219389172902698	0.982\\
15.234600626323228	0.982\\
15.249721064542282	0.982\\
15.264946698286007	0.982\\
15.279971205775063	0.982\\
15.294949878631556	0.982\\
15.310014424918005	0.982\\
15.32493095781205	0.982\\
15.339820660727469	0.982\\
15.354668580406337	0.982\\
15.369480466231561	0.982\\
15.384363506613319	0.982\\
15.3991902002378	0.982\\
15.4139383679728	0.982\\
15.428643034378961	0.982\\
15.443422825499443	0.982\\
15.458120966725016	0.982\\
15.472852843924354	0.982\\
15.487449883865231	0.982\\
15.502061032775138	0.982\\
15.51662241079649	0.982\\
15.531158299112015	0.982\\
15.54569280188218	0.982\\
15.560218975354502	0.982\\
15.574756032402988	0.982\\
15.589227289813586	0.982\\
15.603632668916351	0.982\\
15.618069897220558	0.982\\
15.632456647167121	0.982\\
15.64693598978382	0.982\\
15.661254250404067	0.982\\
15.675612335854833	0.982\\
15.690043237366524	0.982\\
15.704345302201766	0.982\\
15.718728866257305	0.982\\
15.73311147262277	0.982\\
15.747411393648026	0.982\\
15.76176644702802	0.982\\
15.776008640873414	0.982\\
15.790277223609177	0.982\\
15.804544350022077	0.982\\
15.818831078315654	0.982\\
15.833124951534685	0.982\\
15.847289919314484	0.982\\
15.861563716306861	0.982\\
15.87571717649682	0.982\\
15.889947130886132	0.982\\
15.90409784698532	0.982\\
15.918372584258194	0.982\\
15.93264775406336	0.982\\
15.9468295165922	0.982\\
15.961022270349279	0.982\\
15.975181018581711	0.982\\
15.989355190217161	0.982\\
16.00356588453571	0.982\\
16.017741990336376	0.982\\
16.031896363887455	0.982\\
16.046018648785456	0.982\\
16.060154636437964	0.982\\
16.07429216492291	0.982\\
16.088414422777305	0.982\\
16.102525858288686	0.982\\
16.1166811156238	0.982\\
16.130728775813076	0.982\\
16.14483247891429	0.982\\
16.158946717415333	0.982\\
16.173104431917828	0.982\\
16.187268184263722	0.982\\
16.201347453010634	0.982\\
16.215393883267105	0.982\\
16.22947798209124	0.982\\
16.243576311930646	0.982\\
16.25767937258533	0.982\\
16.271808192593546	0.982\\
16.285884179053177	0.982\\
16.30002213523344	0.982\\
16.31413634218395	0.982\\
16.328279700239698	0.982\\
16.342383850569	0.982\\
16.356470885823008	0.982\\
16.370478685430506	0.982\\
16.38461546444301	0.982\\
16.398739532443287	0.982\\
16.412859988658468	0.982\\
16.42695319409772	0.982\\
16.441037615109337	0.982\\
16.45519784171035	0.982\\
16.469417398285984	0.982\\
16.483564174932077	0.982\\
16.49769926884138	0.982\\
16.511816810876496	0.982\\
16.526022368418147	0.982\\
16.54015416912479	0.982\\
16.55436402461516	0.982\\
16.56855741236634	0.982\\
16.582743543159985	0.982\\
16.59697664306185	0.982\\
16.611130815683694	0.982\\
16.625302336554455	0.982\\
16.63950503554979	0.982\\
16.6537341222352	0.982\\
16.667978933631076	0.982\\
16.682147789307308	0.982\\
16.696372939055465	0.982\\
16.710656293117843	0.982\\
16.724890581741953	0.982\\
16.73918734377571	0.982\\
16.753462786134804	0.982\\
16.767796129815082	0.982\\
16.782123902768042	0.982\\
16.7964068907646	0.982\\
16.81074403027351	0.982\\
16.825071780450457	0.982\\
16.839416165013866	0.982\\
16.85373807137897	0.982\\
16.868078090698518	0.982\\
16.88251708397275	0.982\\
16.896910194581764	0.982\\
16.911302215539358	0.982\\
16.925757359785685	0.982\\
16.940145409589753	0.982\\
16.95458035286825	0.982\\
16.968977195844374	0.982\\
16.98343821692668	0.982\\
16.99786757414857	0.982\\
17.01233315534649	0.982\\
17.02680201583049	0.982\\
17.041288180469145	0.982\\
17.05579962537736	0.982\\
17.070387347782543	0.982\\
17.084911623893532	0.982\\
17.099483008266844	0.982\\
17.114040536634278	0.982\\
17.12869312576609	0.982\\
17.143361477126625	0.982\\
17.158018372925483	0.982\\
17.172601937504382	0.982\\
17.18728610386116	0.982\\
17.20202321068134	0.982\\
17.216784010402705	0.982\\
17.231508600508818	0.982\\
17.24626889876499	0.982\\
17.261044244104752	0.982\\
17.275877732695633	0.982\\
17.290647663255697	0.982\\
17.305455009570494	0.982\\
17.3202752709251	0.982\\
17.335210237865617	0.982\\
17.350120102052585	0.982\\
17.36499120253618	0.982\\
17.37995618415554	0.982\\
17.394890004039205	0.982\\
17.409876823888503	0.982\\
17.424846016449152	0.982\\
17.43988362489511	0.982\\
17.454913467591297	0.982\\
17.470000550380135	0.982\\
17.485056224104454	0.982\\
17.500187449324358	0.982\\
17.51530500326563	0.982\\
17.53045107815624	0.982\\
17.54570643823906	0.982\\
17.56090441634293	0.982\\
17.57609704635118	0.982\\
17.59139259444818	0.982\\
17.60669734471987	0.982\\
17.622005966778787	0.982\\
17.637388478186217	0.982\\
17.65284533957039	0.982\\
17.668327303360563	0.982\\
17.683793696795348	0.982\\
17.699269716045535	0.982\\
17.714728041406055	0.982\\
17.730245011484072	0.982\\
17.745868009167104	0.982\\
17.761484858305863	0.982\\
17.77713264181328	0.982\\
17.792819634817654	0.982\\
17.808517287251213	0.982\\
17.824257196166556	0.982\\
17.84015650879205	0.982\\
17.856060109924528	0.982\\
17.8718942354078	0.982\\
17.887850172615536	0.982\\
17.903789987401687	0.982\\
17.91985807896085	0.982\\
17.935912024106216	0.982\\
17.951995152524766	0.982\\
17.968141978583958	0.982\\
17.98430955322749	0.982\\
18.000563884305464	0.982\\
18.016761026118424	0.982\\
18.033135463307865	0.982\\
18.049506609518552	0.982\\
18.065922223642055	0.982\\
18.082410388572903	0.982\\
18.098907659586104	0.982\\
18.115486092595475	0.982\\
18.132138691020835	0.982\\
18.148858282641307	0.982\\
18.165673143301902	0.982\\
18.182521095391294	0.982\\
18.199392408372724	0.982\\
18.216308128978447	0.982\\
18.233397112343745	0.982\\
18.250487380519516	0.982\\
18.26772655328626	0.982\\
18.28507902376215	0.982\\
18.302501652759183	0.982\\
18.319861483223818	0.982\\
18.337338060485187	0.982\\
18.354917792680915	0.982\\
18.372634508967224	0.982\\
18.390400906637282	0.982\\
18.40843128004584	0.982\\
18.426336269029925	0.982\\
18.444366517455997	0.982\\
18.462498780204662	0.982\\
18.48076167817849	0.982\\
18.49918596107797	0.982\\
18.517682940034405	0.982\\
18.53636972588965	0.982\\
18.555119355350676	0.982\\
18.574024617458406	0.982\\
18.593042727784635	0.982\\
18.61230687909942	0.982\\
18.631733260579452	0.982\\
18.651326049962954	0.982\\
18.671050525291598	0.982\\
18.691008136912792	0.982\\
18.711155713448314	0.982\\
18.731520783540347	0.982\\
18.75216756957871	0.982\\
18.772978539158096	0.982\\
18.79405153624333	0.982\\
18.815262670312926	0.982\\
18.836822721292997	0.982\\
18.85846142169978	0.982\\
18.880567024136468	0.982\\
18.90286375539427	0.982\\
18.92523014802697	0.982\\
18.947828157276746	0.982\\
18.970489426614776	0.982\\
18.993008290822935	0.982\\
19.01546503012512	0.982\\
19.03778256057359	0.982\\
19.059902917157586	0.982\\
19.081730678727702	0.982\\
19.103466363541244	0.982\\
19.12480436623097	0.982\\
19.146067708532037	0.982\\
19.167020845571045	0.982\\
19.187590930496583	0.982\\
19.208010310657947	0.982\\
19.22814224814678	0.982\\
19.248098171378338	0.982\\
19.267732516693044	0.982\\
19.287265326323293	0.982\\
19.306557044883768	0.982\\
19.32574872019265	0.982\\
19.344693345457074	0.982\\
19.36350978384619	0.982\\
19.382193507622517	0.982\\
19.400662925100015	0.982\\
19.419123172950513	0.982\\
19.437274138259113	0.982\\
19.455269318354894	0.982\\
19.47324696817686	0.982\\
19.491154553301136	0.982\\
19.508937228353794	0.982\\
19.526498962724958	0.982\\
19.544032254180316	0.982\\
19.56141395077075	0.982\\
19.57874167783632	0.982\\
19.59597634026578	0.982\\
19.61312975872363	0.982\\
19.630128684683577	0.982\\
19.64700373656499	0.982\\
19.66380808264592	0.982\\
19.680528267304418	0.982\\
19.697164820203255	0.982\\
19.70047654071459	0.982\\
19.70232302463264	0.982\\
19.702653934541956	0.982\\
19.70308976231312	0.982\\
19.703574854414633	0.982\\
19.706032843646867	0.982\\
19.714507144383575	0.982\\
19.729859724232796	0.982\\
19.74618119077504	0.982\\
19.762542365294287	0.982\\
19.778944859833054	0.982\\
19.795487915510392	0.982\\
19.812153862192012	0.982\\
19.82883623386393	0.982\\
19.84567805588808	0.982\\
19.86256928587212	0.982\\
19.879591513537818	0.982\\
19.896724854093335	0.982\\
19.91396139724801	0.982\\
19.93129490333134	0.982\\
19.948774748934923	0.982\\
19.96635209831377	0.982\\
19.984078828738532	0.982\\
20.001905620748126	0.982\\
20.01990212948124	0.982\\
20.03788405931072	0.982\\
20.056132722332677	0.982\\
20.074565742331195	0.982\\
20.093100566295128	0.982\\
20.111798522055977	0.982\\
20.13066776893443	0.982\\
20.149682461768627	0.982\\
20.168921272418267	0.982\\
20.18840053847706	0.982\\
20.208054110749885	0.982\\
20.22787030614233	0.982\\
20.247935277129052	0.982\\
20.268272298487084	0.982\\
20.288739960568563	0.982\\
20.309332074997442	0.982\\
20.33029023538289	0.982\\
20.351256074390427	0.982\\
20.37243170841991	0.982\\
20.39380343080134	0.982\\
20.415390088929293	0.982\\
20.43685549511384	0.982\\
20.458500926787643	0.982\\
20.480204137956022	0.982\\
20.50182909400298	0.982\\
20.523253572786352	0.982\\
20.544634278229587	0.982\\
20.565993490859597	0.982\\
20.587051799351634	0.982\\
20.608018370614218	0.982\\
20.628881897346467	0.982\\
20.649463400662547	0.982\\
20.669860897581614	0.982\\
20.690037539114314	0.982\\
20.710229039510523	0.982\\
20.730096179216623	0.982\\
20.74994025984008	0.982\\
20.769519995072102	0.982\\
20.789034420765738	0.982\\
20.808316878573933	0.982\\
20.82755883740397	0.982\\
20.846656458433614	0.982\\
20.86564300949808	0.982\\
20.884603474300505	0.982\\
20.90332264568285	0.982\\
20.92188665873737	0.982\\
20.940411029707143	0.982\\
20.95900804067989	0.982\\
20.977467136051324	0.982\\
20.99579534516034	0.982\\
21.014047732536042	0.982\\
21.03213734587434	0.982\\
21.050361793650772	0.982\\
21.0684582455062	0.982\\
21.086420315895992	0.982\\
21.104343562301437	0.982\\
21.122142205666606	0.982\\
21.139924964913853	0.982\\
21.157550920773694	0.982\\
21.175284559121884	0.982\\
21.192967401648737	0.982\\
21.210528116801214	0.982\\
21.22807540749077	0.982\\
21.245543098198688	0.982\\
21.262936217885077	0.982\\
21.28030496478818	0.982\\
21.297626110081232	0.982\\
21.314946440954962	0.982\\
21.332156886440934	0.982\\
21.349296507127626	0.982\\
21.36642300615334	0.982\\
21.383567927842385	0.982\\
21.40068433246708	0.982\\
21.41769187870611	0.982\\
21.434697337565765	0.982\\
21.451678644672505	0.982\\
21.46869686336659	0.982\\
21.48564596161475	0.982\\
21.50259769530181	0.982\\
21.51954104196149	0.982\\
21.53638484991304	0.982\\
21.553253068248907	0.982\\
21.57011583105838	0.982\\
21.586977976888875	0.982\\
21.60373587534483	0.982\\
21.62053318121066	0.982\\
21.63729358701645	0.982\\
21.653963868889974	0.982\\
21.67069708727727	0.982\\
21.68731594765685	0.982\\
21.703957765328937	0.982\\
21.72065157644883	0.982\\
21.737296429312067	0.982\\
21.753942811124716	0.982\\
21.770518590352587	0.982\\
21.78703954663296	0.982\\
21.803590274067098	0.982\\
21.82010222305368	0.982\\
21.8366576847151	0.982\\
21.85313962621158	0.982\\
21.869635810131214	0.982\\
21.886147762504606	0.982\\
21.902609286038718	0.982\\
21.91903075090162	0.982\\
21.935399394386323	0.982\\
21.95184384521481	0.982\\
21.96830678833198	0.982\\
21.984760641021154	0.982\\
22.00120513098141	0.982\\
22.01767895936053	0.982\\
22.034075381745758	0.982\\
22.050472386150368	0.982\\
22.066896974497688	0.982\\
22.08330119764097	0.982\\
22.099673479785878	0.982\\
22.116070739514463	0.982\\
22.132447016771415	0.982\\
22.148768736838754	0.982\\
22.165109677783647	0.982\\
22.181425216856162	0.982\\
22.197799385413006	0.982\\
22.214139411982025	0.982\\
22.230478690283014	0.982\\
22.246768969071184	0.982\\
22.263120779892724	0.982\\
22.279436322869515	0.982\\
22.295772934831277	0.982\\
22.31209290661905	0.982\\
22.32844620510953	0.982\\
22.34478098364513	0.982\\
22.361116679042176	0.982\\
22.377428172351287	0.982\\
22.393733773027833	0.982\\
22.410033429613982	0.982\\
22.426332466687576	0.982\\
22.442641905997213	0.982\\
22.458969774849074	0.982\\
22.475311852657832	0.982\\
22.49163336951382	0.982\\
22.507910038187475	0.982\\
22.524169587551093	0.982\\
22.540533231567053	0.982\\
22.556930486265777	0.982\\
22.573356327286568	0.982\\
22.58967793667472	0.982\\
22.606019292262623	0.982\\
22.622420118442363	0.982\\
22.638758760114285	0.982\\
22.655152448996596	0.982\\
22.671513017086205	0.982\\
22.687940202861704	0.982\\
22.704399162380376	0.982\\
22.72086459712707	0.982\\
22.737288225562722	0.982\\
22.753719564992792	0.982\\
22.77016546840712	0.982\\
22.786521740112008	0.982\\
22.80298786869249	0.982\\
22.819397718001433	0.982\\
22.835838199373384	0.982\\
22.852365313796454	0.982\\
22.868728705363345	0.982\\
22.88528351459278	0.982\\
22.901768238399143	0.982\\
22.91828182045409	0.982\\
22.934764742060352	0.982\\
22.951283342073673	0.982\\
22.967904196190993	0.982\\
22.984459303273177	0.982\\
23.001003521349382	0.982\\
23.017553965841508	0.982\\
23.034142726148147	0.982\\
23.050776007426812	0.982\\
23.067397014630664	0.982\\
23.0839828658169	0.982\\
23.100578504915106	0.982\\
23.117195618177625	0.982\\
23.133875679706037	0.982\\
23.15051280452466	0.982\\
23.167201625591055	0.982\\
23.183915935010972	0.982\\
23.20058775626319	0.982\\
23.217380570374573	0.982\\
23.234178546920624	0.982\\
23.25095018913997	0.982\\
23.2677359896458	0.982\\
23.28456827765718	0.982\\
23.301414740985727	0.982\\
23.318231460138968	0.982\\
23.334989055507044	0.982\\
23.351847732881133	0.982\\
23.368749483941258	0.982\\
23.385530713278733	0.982\\
23.402446574613883	0.982\\
23.419351117939826	0.982\\
23.436260163784056	0.982\\
23.45317305985219	0.982\\
23.47008949863379	0.982\\
23.487072489789675	0.982\\
23.504044157135368	0.982\\
23.521094233839648	0.982\\
23.538141864997577	0.982\\
23.555158252797526	0.982\\
23.572286648704925	0.982\\
23.58930852527029	0.982\\
23.60638077079389	0.982\\
23.623522933432966	0.982\\
23.6406507803839	0.982\\
23.65783098163572	0.982\\
23.67510391739677	0.982\\
23.6923366989286	0.982\\
23.709591223200142	0.982\\
23.726879535538977	0.982\\
23.744249158862154	0.982\\
23.761642498663683	0.982\\
23.7790277903742	0.982\\
23.79633284732305	0.982\\
23.813756214488464	0.982\\
23.83120231102832	0.982\\
23.848624226922325	0.982\\
23.866070417637893	0.982\\
23.88345064380161	0.982\\
23.901030883933764	0.982\\
23.918654054428977	0.982\\
23.936245433337888	0.982\\
23.953829935544363	0.982\\
23.971529975430492	0.982\\
23.989144805721033	0.982\\
24.006836286973503	0.982\\
24.024567146005666	0.982\\
24.0422907929606	0.982\\
24.06006279501343	0.982\\
24.07782618235146	0.982\\
24.095638215782394	0.982\\
24.11354484697096	0.982\\
24.131505473596697	0.982\\
24.149455267339626	0.982\\
24.167448915732763	0.982\\
24.185448656621368	0.982\\
24.20357415303849	0.982\\
24.221696048189628	0.982\\
24.239854310303834	0.982\\
24.258055747996444	0.982\\
24.27632052809483	0.982\\
24.294535165573485	0.982\\
24.3128501603138	0.982\\
24.33118212328457	0.982\\
24.34950756144194	0.982\\
24.36793214992977	0.982\\
24.386498436457387	0.982\\
24.405059501563457	0.982\\
24.42362804027345	0.982\\
24.442233812548707	0.982\\
24.460888133279497	0.982\\
24.479577772824804	0.982\\
24.498397741911305	0.982\\
24.517139056405924	0.982\\
24.536034429179303	0.982\\
24.55493899095915	0.982\\
24.57398489668237	0.982\\
24.592973935702204	0.982\\
24.61198760376066	0.982\\
24.63115811552153	0.982\\
24.65036967910951	0.982\\
24.669589693830147	0.982\\
24.688850206513486	0.982\\
24.708203660723925	0.982\\
24.727630719909648	0.982\\
24.74713485628328	0.982\\
24.766703216739934	0.982\\
24.786337136005294	0.982\\
24.806067466441505	0.982\\
24.82576268193116	0.982\\
24.84561173298806	0.982\\
24.86549869757657	0.982\\
24.88542320308072	0.982\\
24.905401462447955	0.982\\
24.925523037892674	0.982\\
24.945799885705107	0.982\\
24.96614771661826	0.982\\
24.986594060653253	0.982\\
25.007144664333246	0.982\\
25.027673520444523	0.982\\
25.04839284552004	0.982\\
25.069147361763477	0.982\\
25.090031618764023	0.982\\
25.111018539256726	0.982\\
25.132181865128608	0.982\\
25.153496963217677	0.982\\
25.174830095474476	0.982\\
25.18592118262537	0.982\\
25.19638501725506	0.982\\
25.217977200063096	0.9841745616780507\\
25.239621947694438	0.9886563911647163\\
25.261613373942275	0.9931379933107805\\
25.283696012628518	0.9976800602827847\\
25.305967905638653	1.002229449960684\\
25.328338642430033	1.006806195609007\\
25.350987214141135	1.0113914976321228\\
25.37380195203363	1.0160218234318956\\
25.396732494071628	1.0206739915050218\\
25.419893728168432	1.0253375250843793\\
25.443186635676632	1.030035574370013\\
25.466770832910605	1.0347477679778427\\
25.490592447987865	1.0395061300999406\\
25.514741031604032	1.0442993791872826\\
25.539226547968354	1.049145129044796\\
25.564064726418245	1.0540448661605892\\
25.589219581890994	1.0590012004626914\\
25.61466373226296	1.0640064113001797\\
25.640472757201927	1.0690545626635928\\
25.66675088812233	1.07416014647183\\
25.693280280467896	1.0793431252905543\\
25.720446212123257	1.0845598744257536\\
25.748117807501778	1.0898855214049112\\
25.776308805355868	1.0952933790715227\\
25.80490763523578	1.1007852394947149\\
25.834091003193798	1.1063385161861246\\
25.863613243729894	1.1119866901238136\\
25.893404648161486	1.1176813045601344\\
25.923191167390563	1.1234083600602371\\
25.952741785125788	1.1291148900896395\\
25.98156558595749	1.1347568642964405\\
26.010132010264456	1.1402413986989735\\
26.038061468140285	1.1456589713943852\\
26.065618191465674	1.1509383717248998\\
26.092655012522684	1.1561306116774828\\
26.11921216426589	1.1612087735478853\\
26.145326855502326	1.1661813577894122\\
26.171172951239143	1.1710561856252912\\
26.196651666319717	1.175866408487064\\
26.221895737879343	1.1805941864003684\\
26.24658979227447	1.185264721247203\\
26.2710251402327	1.189820252368695\\
26.295188256545003	1.1943152767675813\\
26.319179603595764	1.1987477519734329\\
26.342927967417047	1.2031365082240457\\
26.36645422341867	1.2074688485749583\\
26.389740711652088	1.2117489680115392\\
26.41293563102311	1.2159740230366076\\
26.435860654280404	1.2201712120427815\\
26.45868958842118	1.2243085148842843\\
26.481295588770926	1.228417632030112\\
26.503791108539538	1.232475956646236\\
26.526129420475186	1.2365039652991725\\
26.548364124038983	1.2404934935749075\\
26.570417625144643	1.2444543329698\\
26.592418640912697	1.2483728641540777\\
26.614231259105708	1.252272171112776\\
26.63592984708542	1.2561283222280424\\
26.657482295141783	1.2599547074729847\\
26.679010011541607	1.263745853385427\\
26.700404885594644	1.2675232782465005\\
26.721717682077973	1.2712681143868698\\
26.742813235924608	1.2749894203410246\\
26.747024790256255	1.2786637813972068\\
26.74948975741993	1.279395560699698\\
26.74975040928765	1.2798236543605674\\
26.74999773495803	1.279868909256389\\
26.75118011738239	1.279911849146217\\
26.756200649247603	1.280117124761995\\
26.772307815098813	1.2809886303251607\\
26.79394990770772	1.2837830340445622\\
26.815810469520223	1.287530738723265\\
26.83783665060151	1.2913068686239555\\
26.859999030355837	1.2951020574444896\\
26.882224582703195	1.2989110565588535\\
26.904795053710515	1.302721193018983\\
26.927591117386484	1.3065805852606471\\
26.950618006919434	1.3104684508780602\\
26.97379250509033	1.314385404863219\\
26.997212688394555	1.3183170453503652\\
27.020874222696058	1.3222797950168677\\
27.044737947056092	1.326272616146337\\
27.0688446669678	1.3302886162349827\\
27.093252277786704	1.3343343941483563\\
27.11793933278595	1.3384193321015179\\
27.143037527444307	1.342539460124702\\
27.168413038200214	1.346716332137471\\
27.19422825064254	1.3509271860574545\\
27.22026530602509	1.3551985238322062\\
27.246719164544842	1.3594937982987598\\
27.273597062932105	1.3638447856954148\\
27.30082017209105	1.368252089674361\\
27.328435942395444	1.3727022239180646\\
27.356335564369353	1.377202435903592\\
27.38465225612235	1.3817344881743199\\
27.41304480527249	1.3863195551770295\\
27.441802131469657	1.3909019581428348\\
27.4705182684784	1.395528103960391\\
27.49899283918169	1.4001323710066136\\
27.52750236463489	1.4046828530775048\\
27.55553587353093	1.4092240259042876\\
27.583335946578252	1.4136747592339884\\
27.610758271483135	1.418074224915733\\
27.63810081154042	1.422400058730127\\
27.66484258902853	1.4266997262447854\\
27.691549246088975	1.430891721052725\\
27.718009510015463	1.435065356317109\\
27.743952991098915	1.4391878062530992\\
27.769873136567995	1.4432174629297685\\
27.795463522826445	1.4472315025692781\\
27.820774264956235	1.4511826811224933\\
27.845969968132813	1.4550791999414012\\
27.870970093430287	1.4589467367127114\\
27.895831793764096	1.4627731508780397\\
27.920389693764143	1.4665674557234847\\
27.94482710607464	1.4703046970655418\\
27.969280502873872	1.4740131165213746\\
27.993569141852603	1.4777135497426488\\
28.017580670266135	1.4813787313467528\\
28.0415053270016	1.4849919921058483\\
28.06532931267651	1.4885822550094867\\
28.088954169767163	1.4921475899596963\\
28.11258129726155	1.4956734536766658\\
28.135973648480054	1.499190091374769\\
28.159328410075226	1.5026623401702586\\
28.18260977959178	1.5061196985082077\\
28.205702174283743	1.5095569503649564\\
28.22878597933581	1.5129571886102302\\
28.251796357953893	1.5163471501191013\\
28.274825009738336	1.5197173724841013\\
28.297666028795085	1.5230813601743998\\
28.320589390573645	1.5264091166797433\\
28.34345981203286	1.5297401113223847\\
28.366231336470378	1.5330546663810023\\
28.388861217181585	1.536346222513751\\
28.41149706114686	1.5396087521101811\\
28.433978192966364	1.5428636622517047\\
28.456346249887645	1.5460879240847802\\
28.47879801708079	1.5492876880441226\\
28.501109722682315	1.5524911783881805\\
28.523326342718818	1.5556664777844031\\
28.545588447790877	1.5588201454142054\\
28.567834913798613	1.5619722087657473\\
28.589990215144773	1.5651140066456528\\
28.61205566176328	1.5682349375793772\\
28.63417357604022	1.57133530425676\\
28.65626249843779	1.574435169698483\\
28.678379580119646	1.5775231101184075\\
28.700408193571008	1.580607145592606\\
28.70426483446633	1.5836710446830673\\
28.70787329948819	1.5842060975220251\\
28.71144215623277	1.5847064978902212\\
28.715308795785518	1.585201200574264\\
28.71921773434304	1.585736961265828\\
28.722826754939128	1.586278342443829\\
28.72673510434735	1.5867779611730009\\
28.73063778952156	1.587318793615598\\
28.734555308628927	1.587858599906745\\
28.738313198564313	1.5884002151761571\\
28.742148622514158	1.5889195272803383\\
28.746065329088736	1.5894493253133484\\
28.7499707583587	1.5899901128963807\\
28.75371068998097	1.5905291009069993\\
28.75763008731169	1.5910450171557136\\
28.76144833985355	1.5915854581805577\\
28.76510725132028	1.5921117155436841\\
28.768599104220037	1.592615790361771\\
28.772505933545098	1.5930966480396624\\
28.776352588429866	1.593634435784538\\
28.780287007212507	1.5941637028043405\\
28.784230602813132	1.5947048063026343\\
28.78813815764483	1.5952469268903986\\
28.79204783459111	1.5957838497816867\\
28.795991611078648	1.5963208232439083\\
28.799884843649984	1.5968622369517191\\
28.803811555462914	1.5973964698212262\\
28.807636905707263	1.5979350558838594\\
28.81149160812417	1.5984595026853152\\
28.815448286103937	1.5989877414923508\\
28.81939625826014	1.599529714802725\\
28.823351654651518	1.6000702499455453\\
28.82714222113627	1.6006115560947012\\
28.831109801768328	1.6011300692620982\\
28.835028907238467	1.6016725600640718\\
28.838832569310696	1.6022081787065896\\
28.842768808180374	1.6027277859460036\\
28.846742882456148	1.6032652692841551\\
28.85053726800208	1.6038076737033673\\
28.854427582049766	1.6043253168737739\\
28.85826944730949	1.604855815725672\\
28.862243207845673	1.6053794738992035\\
28.86619410429182	1.605920870889134\\
28.870162558443816	1.6064589072154813\\
28.87399779388548	1.606999089412752\\
28.877779540183006	1.6075209001389146\\
28.881769417353702	1.6080352067184789\\
28.88576147220298	1.6085775828913054\\
28.88956460800631	1.6091200064945324\\
28.893493176118994	1.6096365237182155\\
28.8974044421833	1.6101698433626686\\
28.901337552713585	1.6107005746803407\\
28.905124848355882	1.6112340304688164\\
28.909119570543155	1.6117474771181883\\
28.91305338526015	1.6122888092510697\\
28.91699428174666	1.612821643200267\\
28.92101722478222	1.6133551952773324\\
28.924933179886978	1.6138996090671887\\
28.928785609739606	1.614429299699177\\
28.93239154997474	1.6149501633117267\\
28.936381743442304	1.6154374849143742\\
28.940368462350044	1.6159765128196373\\
28.94439535223924	1.616514824618909\\
28.948426559213097	1.6170583116669897\\
28.952461017569135	1.617602129816791\\
28.956512150257538	1.6181461346771941\\
28.960562686907565	1.6186921348628087\\
28.964476266209132	1.6192378007897834\\
28.96852511049287	1.6197647713888816\\
28.972527023164787	1.6203097106909596\\
28.976538876961214	1.6208480830147867\\
28.98058426151283	1.62138754471802\\
28.984624777798842	1.6219312646329616\\
28.98853720713045	1.6224740779884081\\
28.992569565975074	1.6229994399759518\\
28.99657505433447	1.6235406628967861\\
29.000608039193985	1.6240780303577966\\
29.004438921883825	1.6246188378598896\\
29.008507432656017	1.625132306378891\\
29.012518593974583	1.6256773852830242\\
29.01654249698204	1.6262145297580992\\
29.020539484183544	1.6267531323388504\\
29.024460937351904	1.6272878850434234\\
29.028543313245194	1.627812291359355\\
29.032536479610727	1.6283579716759298\\
29.036619553989183	1.6288914774093373\\
29.040716958574492	1.6294367451658422\\
29.044667685526136	1.629983670107483\\
29.048411865053815	1.6305107683089444\\
29.052533492652856	1.6310100827652003\\
29.056581800894975	1.6315594964662403\\
29.06062305416458	1.6320988813105854\\
29.064739489903765	1.6326370758960775\\
29.06879514691964	1.6331850285513516\\
29.072815007247186	1.6337246355891766\\
29.07686516910981	1.6342592308086252\\
29.080962428219834	1.6347976071847479\\
29.084909349663064	1.6353419907937974\\
29.08858635601446	1.635866153043774\\
29.09229395896069	1.6363542485213618\\
29.096180474680715	1.6368461976929347\\
29.10028428548013	1.6373616666649076\\
29.104336043233836	1.6379057126249585\\
29.108480586267092	1.6384426047713094\\
29.11251483038655	1.6389915362660434\\
29.116661499326092	1.6395256047590614\\
29.12074363444836	1.6400743022028825\\
29.124747302651308	1.6406142032017503\\
29.128926492064096	1.6411434780236007\\
29.133083007549402	1.6416957023399688\\
29.1372369984189	1.6422446670578719\\
29.141436877797716	1.6427930365157422\\
29.145441291889732	1.6433471992971374\\
29.14964779453583	1.643875316172175\\
29.15381029839964	1.6444298301632871\\
29.158017678129582	1.6449782790865215\\
29.16218654412927	1.6455323758843796\\
29.16611184972085	1.64608113534255\\
29.170334907195674	1.6465975869457612\\
29.174488458309867	1.6471529632853357\\
29.178677762224808	1.6476989339540282\\
29.18288737802503	1.6482493415997612\\
29.187107383133892	1.6488021518737717\\
29.191326786017164	1.649356058630671\\
29.195549787283696	1.6499096179982256\\
29.19968869145591	1.6504633810480336\\
29.203883748423593	1.6510058532730616\\
29.20813313409939	1.6515554239688885\\
29.2124000587838	1.652111843827536\\
29.21663988897314	1.6526702876695827\\
29.220793754553412	1.6532249136050432\\
29.22509242806855	1.6537680297134365\\
29.229339806261457	1.6543298113375906\\
29.233583016753023	1.6548846153572194\\
29.23783294477706	1.6554386046863985\\
29.241765066006153	1.655993200725507\\
29.246075302826064	1.6565060740575182\\
29.249984586856073	1.6570680118432861\\
29.253939394210683	1.6575774240530956\\
29.258225222642388	1.6580925370192037\\
29.262210247250856	1.6586505119451171\\
29.266015047812047	1.6591690697178412\\
29.26992732258907	1.6596639490119856\\
29.273951783374336	1.660172584867794\\
29.27824830022557	1.6606955710289868\\
29.282569396519655	1.6612536533881073\\
29.286844529976058	1.6618146515337227\\
29.291071858241317	1.6623694070602673\\
29.2954100039102	1.6629176899675233\\
29.29969628792665	1.6634800727575554\\
29.303757557421058	1.6640354556076837\\
29.308120936859282	1.6645614238779052\\
29.312478700312774	1.6651262544028815\\
29.316798743778484	1.6656900753423738\\
29.321047393480725	1.6662487362921539\\
29.325465845954774	1.6667978921953264\\
29.329740146659788	1.6673687172316431\\
29.333989910827285	1.6679206389955996\\
29.338362838708647	1.668469123158596\\
29.34247181593272	1.6690332277247164\\
29.346783643665546	1.6695630167139035\\
29.350958203842346	1.670118697854364\\
29.35506927493511	1.6706564224772884\\
29.35940080145066	1.6711857152635488\\
29.36362443159433	1.6717431280446986\\
29.367872795031296	1.6722863856130226\\
29.37185272884154	1.6728325594708786\\
29.37628570934752	1.6733439741675333\\
29.380658491349287	1.6739133442924712\\
29.385105677932707	1.6744746966862882\\
29.38955022801219	1.6750453140777557\\
29.3938988004115	1.675615301990979\\
29.39836942181107	1.6761726967335564\\
29.40269145143101	1.6767454494591378\\
29.407094103291023	1.6772988811582774\\
29.41154357303011	1.6778623567002218\\
29.416021925122266	1.6784315363883682\\
29.42050535531898	1.6790041180655504\\
29.42473197069745	1.6795770542585136\\
29.429209943282636	1.6801168941271345\\
29.43367415903694	1.6806885607678188\\
29.43817754984095	1.6812581781695564\\
29.442629026200137	1.681832499635553\\
29.447032323292817	1.682399906869841\\
29.451538294338114	1.6829608860726843\\
29.456084176935157	1.6835346556905921\\
29.460621383489006	1.6841132079885788\\
29.46507409176607	1.6846903546975005\\
29.469594604735995	1.685256457902589\\
29.474081656033107	1.6858308877583452\\
29.478659475790828	1.6864007696403793\\
29.48323986446644	1.6869818801165004\\
29.48754805183483	1.687563011085182\\
29.492126615105036	1.6881093194046588\\
29.496405922716576	1.6886896260913535\\
29.50091168273898	1.6892317187125254\\
29.505202926614167	1.6898022173498697\\
29.509588441892078	1.6903452738514386\\
29.513815149341767	1.6908999869462893\\
29.518336459012147	1.691434343628937\\
29.522985682536486	1.692005667667847\\
29.52770942201918	1.6925928502467378\\
29.53214909287292	1.6931891254963722\\
29.53663609890784	1.6937492389580275\\
29.541375541933682	1.6943150357158259\\
29.54606887396787	1.6949123560649066\\
29.55069309433499	1.695503543086832\\
29.555265313811205	1.6960857107019982\\
29.55997131739155	1.6966610260324262\\
29.564657255360416	1.6972528643536187\\
29.56913194981066	1.6978418607541341\\
29.573909281336093	1.6984040024100024\\
29.578646285160374	1.6990038550581676\\
29.583193462101903	1.699598317818087\\
29.58788078403682	1.7001686481931255\\
29.5924854842323	1.7007562493356951\\
29.596774645083137	1.7013331823833957\\
29.601417319982524	1.7018702966915298\\
29.605985373565957	1.7024513938271566\\
29.610592856954497	1.7030228462612857\\
29.61542884753962	1.7035989289629154\\
29.620103641705143	1.7042032624990369\\
29.624796824302642	1.7047871276215694\\
29.629587630011493	1.7053729747766262\\
29.63454739121699	1.7059706859141686\\
29.639368620122625	1.7065891359273504\\
29.644233973930504	1.7071899695168655\\
29.649092618419516	1.7077959664240798\\
29.653845777228725	1.7084007896067077\\
29.658246442007076	1.7089921514415622\\
29.663132753395814	1.7095393591155426\\
29.667826687628825	1.710146648293088\\
29.67252671863534	1.7107297008217954\\
29.6774494939909	1.7113131960177095\\
29.68244263973309	1.711924014478293\\
29.68734396013312	1.7125432143256578\\
29.692107399477273	1.7131506784605965\\
29.69682416502723	1.713740721539014\\
29.701302464744572	1.7143246636315097\\
29.70611455419595	1.7148787830728986\\
29.711049044244078	1.715473897611754\\
29.715642241493185	1.7160838123527684\\
29.720549971862148	1.7166512208374902\\
29.725420645539472	1.717257164613396\\
29.730334049521183	1.7178581942403655\\
29.735352283175892	1.718464157622776\\
29.73987997361543	1.7190827003652038\\
29.74475124460573	1.7196404576639055\\
29.749372595378553	1.7202402280228224\\
29.754140716774423	1.7208089089643548\\
29.759026079564897	1.721395339456606\\
29.764079163912875	1.7219958605101207\\
29.769166234521215	1.7226166499112017\\
29.774382146538613	1.723241252056591\\
29.77936796430798	1.7238812995889123\\
29.78465978136206	1.7244927457289354\\
29.789684053717572	1.7251413472226111\\
29.795008992854555	1.725756782441342\\
29.80002674767561	1.7264086707883786\\
29.80480754850275	1.7270225775302306\\
29.809722122910486	1.7276071567047997\\
29.815017146925612	1.7282077633714725\\
29.820061012488303	1.7288544993751054\\
29.824601722867378	1.7294701842660185\\
29.82932681088461	1.7300241299917833\\
29.834399859921078	1.7306002684149355\\
29.839589692081198	1.7312184987651473\\
29.844376865362207	1.7318505925766845\\
29.849315242124113	1.7324332972628897\\
29.854583854360854	1.7330340763550214\\
29.85983453782159	1.7336746668780576\\
29.864643153122792	1.734312691321535\\
29.869883753800885	1.7348966466359887\\
29.875094283547007	1.7355327106229785\\
29.879951333682428	1.7361647443039168\\
29.885032391266108	1.736753548686488\\
29.89004654331034	1.7373691652625165\\
29.89516051991074	1.7379763212074413\\
29.900617056137413	1.7385952082526268\\
29.90589131123214	1.739255163703703\\
29.911390924185426	1.7398926730246074\\
29.9166123702743	1.7405570192307127\\
29.92170341637685	1.7411873649564815\\
29.92660057884671	1.7418016000192669\\
29.931718290047	1.7423920976409693\\
29.936997448277147	1.7430088419547791\\
29.94247398238793	1.7436446687038387\\
29.94791059142584	1.7436446687038387\\
29.953469226608604	1.7436446687038387\\
29.958977045875663	1.7436446687038387\\
29.96455955657907	1.7436446687038387\\
29.969722856350764	1.7436446687038387\\
29.97469819921985	1.7436446687038387\\
29.97932717804138	1.7436446687038387\\
29.984810109605284	1.7436446687038387\\
29.989952124715238	1.7436446687038387\\
29.995357564757967	1.7436446687038387\\
30.00071280777984	1.7436446687038387\\
30.006021306660045	1.7436446687038387\\
30.01130833457355	1.7436446687038387\\
30.01643104372176	1.7436446687038387\\
30.021545454512385	1.7436446687038387\\
30.02689589149862	1.7436446687038387\\
30.03254312548851	1.7436446687038387\\
30.037926305842852	1.7436446687038387\\
30.043003774053545	1.7436446687038387\\
30.047973813696323	1.7436446687038387\\
30.053424613369174	1.7436446687038387\\
30.05838034347981	1.7436446687038387\\
30.063495489885206	1.7436446687038387\\
30.068265102555202	1.7436446687038387\\
30.07378942796408	1.7436446687038387\\
30.07914990960652	1.7436446687038387\\
30.08408932332304	1.7436446687038387\\
30.088981292705114	1.7436446687038387\\
30.09439099680941	1.7436446687038387\\
30.099317842976788	1.7436446687038387\\
30.104828956661756	1.7436446687038387\\
30.110138232382532	1.7436446687038387\\
30.115641174933586	1.7436446687038387\\
30.120779495202186	1.7436446687038387\\
30.12637695393984	1.7436446687038387\\
30.13188611600087	1.7436446687038387\\
30.137314471733475	1.7436446687038387\\
30.14276019636317	1.7436446687038387\\
30.148662488222755	1.7436446687038387\\
30.154194526342266	1.7436446687038387\\
30.160197672794297	1.7436446687038387\\
30.165773155861153	1.7436446687038387\\
30.171054638564755	1.7436446687038387\\
30.176760698484053	1.7436446687038387\\
30.181939036181504	1.7436446687038387\\
30.187555242337737	1.7436446687038387\\
30.19306702465682	1.7436446687038387\\
30.19865920914247	1.7436446687038387\\
30.204666860635804	1.7436446687038387\\
30.21057847210215	1.7436446687038387\\
30.21626713933913	1.7436446687038387\\
30.221588090670593	1.7436446687038387\\
30.226629422842798	1.7436446687038387\\
30.23223234685964	1.7436446687038387\\
30.238298144974337	1.7436446687038387\\
30.244127250552566	1.7436446687038387\\
30.249527677221394	1.7436446687038387\\
30.254702389163725	1.7436446687038387\\
30.260310751663297	1.7436446687038387\\
30.266029712523675	1.7436446687038387\\
30.272144683904628	1.7436446687038387\\
30.277698179859208	1.7436446687038387\\
30.28349309304724	1.7436446687038387\\
30.289215492239116	1.7436446687038387\\
30.29484972214206	1.7436446687038387\\
30.300518355487284	1.7436446687038387\\
30.306484139943358	1.7436446687038387\\
30.31226078223662	1.7436446687038387\\
30.31817332723366	1.7436446687038387\\
30.32369276865802	1.7436446687038387\\
30.32919132072776	1.7436446687038387\\
30.33481968327434	1.7436446687038387\\
30.34007969937874	1.7436446687038387\\
30.34601516992609	1.7436446687038387\\
30.351782428701448	1.7436446687038387\\
30.357507886484527	1.7436446687038387\\
30.3629865641513	1.7436446687038387\\
30.369105920138985	1.7436446687038387\\
30.375007154418647	1.7436446687038387\\
30.380840027994005	1.7436446687038387\\
30.386427958811197	1.7436446687038387\\
30.39211100493688	1.7436446687038387\\
30.397858857719456	1.7436446687038387\\
30.403311208642137	1.7436446687038387\\
30.40880918296105	1.7436446687038387\\
30.415014149187748	1.7436446687038387\\
30.42064283983889	1.7436446687038387\\
30.42639687773014	1.7436446687038387\\
30.432228196268326	1.7436446687038387\\
30.438024005561417	1.7436446687038387\\
30.44247398238793	1.7436446687038387\\
30.443752439652883	1.7436446687038387\\
30.449255590433452	1.7432975675564042\\
30.4556321685412	1.7418034621194796\\
30.461474693643794	1.740072221163226\\
30.466872985209257	1.7384859755978717\\
30.47214521673356	1.7370203394378485\\
30.47732501173285	1.7355889285790007\\
30.48274965279265	1.7341826142366925\\
30.488192430107773	1.7327098241889578\\
30.49422102735373	1.7312321101479013\\
30.50004489909564	1.7295953459956237\\
30.506000738311002	1.728014164817695\\
30.511832348301205	1.7263971544707246\\
30.517372837007045	1.7248138723583848\\
30.52355273352874	1.723309629674749\\
30.529207574877745	1.7216317877691092\\
30.534921413763165	1.720096498342854\\
30.54089626820913	1.7185451910854623\\
30.54690618804218	1.7169230181033825\\
30.552686633931117	1.7152913248687103\\
30.55852191810311	1.7137219338098635\\
30.564642910020012	1.7121376541571673\\
30.570308905580973	1.7104758048517283\\
30.57629590816076	1.7089374870569276\\
30.582116739919407	1.7073120158565156\\
30.58799480545808	1.7057316600340429\\
30.59451425249653	1.7041357652402929\\
30.600413458463755	1.7023657353693538\\
30.606456559917724	1.700764100949252\\
30.612951684870644	1.6991233989044996\\
30.619053292080565	1.6973599724797817\\
30.625356894489904	1.6957033861222883\\
30.630978951524774	1.6939919580681528\\
30.637388034878164	1.6924655695831854\\
30.643436241083066	1.6907255034527402\\
30.649591378464642	1.6890834154681094\\
30.65522023769841	1.6874122956690116\\
30.660987907972448	1.685884060387044\\
30.667150574594167	1.6843181379076422\\
30.67338633931704	1.6826449739198455\\
30.679309582481714	1.6809519637975852\\
30.685207582095842	1.6793438032783763\\
30.69114346825215	1.6777424963831407\\
30.69706635931889	1.676130903291703\\
30.70362379818978	1.6745228383670834\\
30.709678283629636	1.6727424937136361\\
30.715552651868478	1.6710987009167155\\
30.72144447807024	1.66950380993987\\
30.727186463491023	1.6679041791260918\\
30.733651916361083	1.666345230084349\\
30.73993406624171	1.6645898596301278\\
30.746141841289806	1.6628842559375379\\
30.752129740147545	1.6611988450119797\\
30.758309057766127	1.6595731304721033\\
30.764220248198463	1.6578954457386583\\
30.77017239860794	1.6562905575362792\\
30.776014828263122	1.654674548700106\\
30.78185179547591	1.6530883290487242\\
30.787814021100175	1.6515035924504526\\
30.79413681917704	1.6498848481934643\\
30.80047243745723	1.648168208515595\\
30.80667165536481	1.6464480881525236\\
30.812842761121885	1.644765000490616\\
30.81897254635996	1.64308954527757\\
30.825426039129923	1.6414253085854331\\
30.831277708863674	1.639673185298388\\
30.83781181583727	1.6380844569656743\\
30.844046616616495	1.636310446922343\\
30.850440406003912	1.6346176985107834\\
30.856382830800115	1.6328817846920995\\
30.862704082252662	1.6312684163599305\\
30.86869902317092	1.629552196590564\\
30.875075657837982	1.6279245701312572\\
30.88176243882443	1.6261933138191496\\
30.88798696595066	1.6243778527813286\\
30.894469108827018	1.6226878936665576\\
30.900929549658258	1.6209279918756265\\
30.907050079720463	1.6191739821899447\\
30.91307271338824	1.617512258278056\\
30.919530871052366	1.615877113237255\\
30.92572456732414	1.6141237234314443\\
30.932257682807766	1.6124421348936582\\
30.93858529224117	1.6106683940398532\\
30.94463842069191	1.6089504480786836\\
30.9508722667125	1.6073070237043083\\
30.957123461673113	1.6056145345097175\\
30.963585144543636	1.6039173350779115\\
30.969928447674157	1.6021629881785646\\
30.976570616813454	1.6004407813786283\\
30.983021296394803	1.598637432457309\\
30.98940360975336	1.5968860729509728\\
30.995738035158695	1.5951532748741246\\
31.002096719242004	1.5934334783765762\\
31.008450241811467	1.5917070956479575\\
31.014774445241066	1.5899821142703485\\
31.02113751485475	1.5882650930392122\\
31.027423386990115	1.586537519639097\\
31.034093824773407	1.5848309053543455\\
31.040492682048793	1.5830198814961816\\
31.046791440248334	1.5812825917459143\\
31.052905930578362	1.579572478894739\\
31.059325541951715	1.5779123947701366\\
31.065583865955617	1.576169470282271\\
31.07205165027331	1.5744703353152119\\
31.07839505732732	1.5727143318729584\\
31.084789012899847	1.5709920968577942\\
31.09080446914289	1.569256137919853\\
31.097486354037564	1.5676229415498675\\
31.103924088737713	1.5658088098009633\\
31.11009302005276	1.5640609648298724\\
31.116538442705036	1.5623860999778378\\
31.122747145443064	1.5606361677277447\\
31.12916778002019	1.5589505049343697\\
31.135802408001837	1.5572073026466802\\
31.142217106118096	1.555406001149663\\
31.148620959656917	1.5536644106110986\\
31.154845602033376	1.5519257643753088\\
31.161127520650247	1.5502357739701003\\
31.167814528110647	1.5485302330656197\\
31.174269739084586	1.546714710540121\\
31.180767225185846	1.5449621207606965\\
31.187152982840765	1.5431980532842045\\
31.193510393308884	1.5414643200808942\\
31.19972695246915	1.5397382831387998\\
31.20615662612004	1.538050487326788\\
31.21244982160548	1.5363048309305705\\
31.218895161490558	1.5345962283562735\\
31.225259320615052	1.5328463185774752\\
31.2319277637909	1.531118449375175\\
31.23845566073703	1.5293079670529326\\
31.245111793088334	1.5275356430320577\\
31.251485155624003	1.5257285030986791\\
31.257813166864317	1.523998135170245\\
31.264312351886048	1.5222800801184997\\
31.270631778776163	1.5205155513850999\\
31.276966155992078	1.5187998269844334\\
31.28354841641157	1.5170800435703127\\
31.28994513964726	1.5152929598664207\\
31.29642111607518	1.513556249507931\\
31.30282652016075	1.5117980219077505\\
31.309288409700564	1.5100589546985184\\
31.31580549041876	1.5083045516884588\\
31.322225865893927	1.5065351642734681\\
31.328721818504476	1.5047920323319608\\
31.33529419941086	1.5030283811981964\\
31.341838164848774	1.501243979782113\\
31.34831091301252	1.4994672931657198\\
31.35463625952086	1.497709942039263\\
31.361288622917762	1.4959926104622485\\
31.36759711943379	1.4941864937999894\\
31.374062270426343	1.492473736995888\\
31.380691665672636	1.4907184485014096\\
31.387069368615315	1.4889185676920411\\
31.393487885697255	1.4871870213431038\\
31.39982758329097	1.485444393955357\\
31.40601432684585	1.4837231660586632\\
31.41238895826791	1.4820434651835137\\
31.418690250699193	1.4803127527524238\\
31.42496167537974	1.478601951857331\\
31.43143357792995	1.476899260056562\\
31.437913589709424	1.47514213851418\\
31.444403451341515	1.4733828153160529\\
31.450929603373048	1.4716208178829406\\
31.457258149145538	1.4698489676063793\\
31.46365245804227	1.4681307674291482\\
31.47014197038802	1.4663947125636858\\
31.47660133359563	1.4646328099618142\\
31.483050219936295	1.4628790928509479\\
31.489358634262054	1.4611282202094575\\
31.495803198800594	1.4594154857200141\\
31.502136089420418	1.4576657864478004\\
31.508632438686753	1.4585238146247526\\
31.51502412709049	1.4583350659540946\\
31.525501998710396	1.4580259116044054\\
31.541550264873685	1.4575530273776256\\
31.561045028577254	1.4569796067015233\\
31.58033163158651	1.4564134073627033\\
31.600669960145886	1.455817513804576\\
31.61971900715824	1.4552604928734263\\
31.639282625510624	1.4546895285352095\\
31.658123274443277	1.4541407190636269\\
31.677111377765016	1.4535886598577883\\
31.697673256227482	1.452992026281966\\
31.71738920426268	1.452421090258909\\
31.737560577932193	1.4518381305983048\\
31.75697086105022	1.4512782767591623\\
31.77608105962271	1.45072813995098\\
31.79431710716402	1.4502041483266106\\
31.798250811774793	1.4500912432879538\\
31.79966875537437	1.4500505564277657\\
31.800253471042588	1.4500337801190888\\
31.80057632422229	1.4500245174315962\\
31.800815602806836	1.4500176527001392\\
31.800979540679826	1.4500129495347551\\
31.80111562525424	1.4500090455030967\\
31.801215405929987	1.4500061830014592\\
31.80129484815729	1.450003903988377\\
31.80139561989725	1.4500010131071748\\
31.801422424005835	1.4500002441713722\\
31.801433072269518	1.4499999387026865\\
31.8014444837153	1.4499996113408202\\
31.80150730456142	1.449997809196498\\
31.801760259611754	1.4499905527799295\\
31.802521764308864	1.4499687089312445\\
31.804470965019547	1.4499128035512328\\
31.80806769418436	1.449809674034367\\
31.814763251939837	1.449617791268005\\
31.825940933088873	1.449297748229213\\
31.842698500732098	1.4488186174435258\\
31.861849627063158	1.4482720438988974\\
31.88160787923222	1.447709251838299\\
31.90177756402904	1.4471359000062363\\
31.92127838965036	1.4465826731192888\\
31.942237675039237	1.445989286866655\\
31.962828216269337	1.4454075649688751\\
31.98309270105746	1.4448362376272783\\
32.00482260600654	1.444224896098694\\
32.02552096145202	1.4436438255604014\\
32.04614027085127	1.443066184067085\\
32.06687535247649	1.4424865147136925\\
32.08734241782291	1.441915531003319\\
32.10730934376616	1.4413596399506456\\
32.12814080609499	1.4407808773671724\\
32.14790763414331	1.4402328223449727\\
32.16658605127587	1.439715952711161\\
32.18602917251637	1.4391789608024768\\
32.20686964124151	1.438604550324164\\
32.22747489397145	1.4380378150817539\\
32.248023752230395	1.4374738091339232\\
32.26816066986548	1.4369222489652602\\
32.28782878019902	1.4363846161786509\\
32.30887753235331	1.4358104303185963\\
32.32886054780282	1.4352664500722085\\
32.34768294589907	1.434755072145033\\
32.369297577311514	1.4341690368812556\\
32.39088337621503	1.4335850650459256\\
32.41121284593966	1.43303625015222\\
32.43175362820628	1.4324828798853628\\
32.45203694268497	1.4319375771462957\\
32.47314295325236	1.431371347947747\\
32.49452795287799	1.430798870602407\\
32.515099858929915	1.4302493320046399\\
32.53579605466703	1.4296976308439584\\
32.557789553088895	1.4291126172745534\\
32.57910272372902	1.4285469459073152\\
32.60104126342104	1.4279659548169128\\
32.621880367475	1.427415278042288\\
32.64355499259854	1.426843758606924\\
32.66515171860132	1.4262755442766755\\
32.68720760569785	1.4256965355273215\\
32.70975134285845	1.4251060601110468\\
32.7308038195045	1.4245558653605408\\
32.75152812556426	1.424015396513074\\
32.77277763911323	1.4234624124226805\\
32.794276257192706	1.4229041608474273\\
32.8154458418971	1.4223556450031178\\
32.83645248930989	1.4218125175205407\\
32.85703809108951	1.4212814012620676\\
32.87803976812354	1.4207406954728072\\
32.90013228255086	1.4201731511156281\\
32.92081975023606	1.419642857453068\\
32.94385353762985	1.4190537316848546\\
32.96549234336271	1.4185015419280766\\
32.98693962364912	1.4179554388082625\\
33.00892941785983	1.4173967588277843\\
33.03173145291764	1.4168187625991275\\
33.05405214398532	1.416254266370432\\
33.07689697049193	1.4156778421305318\\
33.092531921809226	1.4152841111284817\\
};
\end{axis}
\end{tikzpicture}%
