%CL_vs_GroundDistance
\begin{tikzpicture}

\begin{axis}[
width=\figurewidth,
height=\figureheight,
scaled ticks=false, tick label style={/pgf/number format/fixed},
xmin=0.0,
xmax=1385.7353957635887,
xlabel={Ground distance (m)},
xmajorgrids,
ymin=0.0,
ymax=1.8828169332146543,
ylabel={CL },
ymajorgrids,
legend style={at={(1.03,0.5)},anchor=west,draw=black,fill=white,legend cell align=left}
]

\addplot [
color=black,
solid
]
table[row sep=crcr]{
1.3869093119902837E-8	0.982\\
2.2802400501143798E-7	0.982\\
1.9845107591171844E-6	0.982\\
1.0079742469561031E-5	0.982\\
6.289998334471397E-5	0.982\\
2.196015924341957E-4	0.982\\
4.725067914220952E-4	0.982\\
8.184292159138693E-4	0.982\\
0.0012497074387781719	0.982\\
0.001772951536685284	0.982\\
0.0024101257781580883	0.982\\
0.003116242879208973	0.982\\
0.0039315663449978906	0.982\\
0.004856937291423389	0.982\\
0.00587684940362407	0.982\\
0.006954341674323173	0.982\\
0.00814447111788636	0.982\\
0.009447989891320098	0.982\\
0.010854324152264547	0.982\\
0.012347714332010602	0.982\\
0.013944084209700468	0.982\\
0.015634001544740116	0.982\\
0.017420558661278736	0.982\\
0.019312922574631873	0.982\\
0.021243277896218736	0.982\\
0.023312641265682464	0.982\\
0.02549772265149057	0.982\\
0.02778167847781539	0.982\\
0.03010357093688182	0.982\\
0.03258404335056782	0.982\\
0.03513660437630575	0.982\\
0.03779117577118625	0.982\\
0.04056428504500163	0.982\\
0.043363975861885784	0.982\\
0.0463002708583715	0.982\\
0.04935046971349326	0.982\\
0.052509247876139045	0.982\\
0.055718751570982814	0.982\\
0.05904188067059053	0.982\\
0.06253484440677931	0.982\\
0.06609370163610656	0.982\\
0.06972942294469706	0.982\\
0.0734680004135772	0.982\\
0.07733245958588178	0.982\\
0.08121916321451814	0.982\\
0.08526089838553866	0.982\\
0.08944770013523076	0.982\\
0.09372338949055117	0.982\\
0.09807146341945569	0.982\\
0.1025985093521016	0.982\\
0.10720632589815948	0.982\\
0.11195684602804931	0.982\\
0.1168089282595795	0.982\\
0.12164009636205159	0.982\\
0.12661262573079768	0.982\\
0.13175114382727787	0.982\\
0.13699962569138657	0.982\\
0.14226531655705488	0.982\\
0.14769173766459948	0.982\\
0.15328180913796335	0.982\\
0.15892199071690083	0.982\\
0.16468623048684256	0.982\\
0.17057235248928015	0.982\\
0.176534629476938	0.982\\
0.18258669451472115	0.982\\
0.18867437669618242	0.982\\
0.19506221343074842	0.982\\
0.20157287578459138	0.982\\
0.2081373020281505	0.982\\
0.2147507391211821	0.982\\
0.22144375157827018	0.982\\
0.22829669684763332	0.982\\
0.23540330470040766	0.982\\
0.24245955821658294	0.982\\
0.24955428989529949	0.982\\
0.2568772249344723	0.982\\
0.26416659099692585	0.982\\
0.2716094328530263	0.982\\
0.2791847299197725	0.982\\
0.28685051699493846	0.982\\
0.29463511212959126	0.982\\
0.3027107955739382	0.982\\
0.31075208896844686	0.982\\
0.3189891914061611	0.982\\
0.327277342587767	0.982\\
0.3357516350682681	0.982\\
0.34420271611750375	0.982\\
0.3529737809225558	0.982\\
0.36168822475545126	0.982\\
0.3706161858698641	0.982\\
0.37957338647786154	0.982\\
0.38859079069830715	0.982\\
0.3977365384391006	0.982\\
0.40690262160189106	0.982\\
0.4164784248668302	0.982\\
0.4262722861401057	0.982\\
0.4359937108993973	0.982\\
0.44592344093414205	0.982\\
0.4559933359377927	0.982\\
0.4662244970718552	0.982\\
0.4766617170530515	0.982\\
0.4871552211261557	0.982\\
0.4977733193172935	0.982\\
0.5084236697050357	0.982\\
0.5193323285097071	0.982\\
0.5302900959526657	0.982\\
0.5413339280151639	0.982\\
0.5526892222061304	0.982\\
0.5641674618459651	0.982\\
0.5756521186285017	0.982\\
0.5873028339143347	0.982\\
0.5989572324328476	0.982\\
0.6110079046088608	0.982\\
0.6228158579417784	0.982\\
0.6348433879628521	0.982\\
0.6471467857119495	0.982\\
0.6595759804663663	0.982\\
0.6720304921564901	0.982\\
0.6846882421341718	0.982\\
0.6974497782748574	0.982\\
0.7103581582561518	0.982\\
0.7234639904310365	0.982\\
0.7365763647856536	0.982\\
0.7501984017127925	0.982\\
0.7634932398594367	0.982\\
0.7769375003580943	0.982\\
0.7915426265351306	0.982\\
0.8052058781706575	0.982\\
0.8189670923869197	0.982\\
0.8335518556670958	0.982\\
0.8480039295058326	0.982\\
0.8626364331783405	0.982\\
0.877572884789918	0.982\\
0.8923717905472586	0.982\\
0.9070729463506981	0.982\\
0.9223126452169086	0.982\\
0.9376226877858882	0.982\\
0.9529622407582172	0.982\\
0.9682300086953484	0.982\\
0.9839076567154685	0.982\\
0.9997285667666325	0.982\\
1.0157506386261925	0.982\\
1.0316823462943536	0.982\\
1.0479063278988936	0.982\\
1.0649731192250083	0.982\\
1.0815587402598434	0.982\\
1.0980684751437257	0.982\\
1.1148933256721216	0.982\\
1.1316883299583065	0.982\\
1.1489864770824116	0.982\\
1.1667079810857972	0.982\\
1.1841335715025134	0.982\\
1.2023135898580293	0.982\\
1.2199019874685044	0.982\\
1.237747508512192	0.982\\
1.2560803018785918	0.982\\
1.274757331199341	0.982\\
1.293586865377212	0.982\\
1.3124123406278447	0.982\\
1.330981336121218	0.982\\
1.349899286984463	0.982\\
1.3688783149918118	0.982\\
1.3885456631855564	0.982\\
1.4084863297971117	0.982\\
1.4279249586146312	0.982\\
1.4476741245370621	0.982\\
1.4671657355767582	0.982\\
1.487459992548687	0.982\\
1.5081900354168973	0.982\\
1.5286386648029309	0.982\\
1.5494517264110792	0.982\\
1.569885261465719	0.982\\
1.5908351692896305	0.982\\
1.6123419749875443	0.982\\
1.6340952625951677	0.982\\
1.655672660304166	0.982\\
1.677449224845347	0.982\\
1.6988665618899277	0.982\\
1.7210219525178787	0.982\\
1.742983435752699	0.982\\
1.7654900532384161	0.982\\
1.7875607927766337	0.982\\
1.8105848116042895	0.982\\
1.8340737784783578	0.982\\
1.8570921212091802	0.982\\
1.8802459607437334	0.982\\
1.9038251699019897	0.982\\
1.9275869014756033	0.982\\
1.9521140618432233	0.982\\
1.9760889167362259	0.982\\
2.000492737741026	0.982\\
2.0249158806763026	0.982\\
2.049468788511482	0.982\\
2.073666414908973	0.982\\
2.0984295982597203	0.982\\
2.123828627955846	0.982\\
2.148942712037515	0.982\\
2.1752239484785827	0.982\\
2.2007909181252128	0.982\\
2.22733449033709	0.982\\
2.2539316221528427	0.982\\
2.2804824455723924	0.982\\
2.307362628018076	0.982\\
2.3337528468631206	0.982\\
2.361212553184795	0.982\\
2.387832983644347	0.982\\
2.415669800088825	0.982\\
2.442838155059322	0.982\\
2.4706558621253594	0.982\\
2.4988471519790005	0.982\\
2.526670561014698	0.982\\
2.554721287052563	0.982\\
2.5837796522280874	0.982\\
2.612663379603597	0.982\\
2.6424305639229075	0.982\\
2.67173469347986	0.982\\
2.700933551097961	0.982\\
2.7306053441599962	0.982\\
2.7599275937682526	0.982\\
2.790238521535745	0.982\\
2.8207181501456713	0.982\\
2.851446302539701	0.982\\
2.88221866887367	0.982\\
2.913472239153424	0.982\\
2.943944390920719	0.982\\
2.9761171181712784	0.982\\
3.008139158978074	0.982\\
3.0397007498108977	0.982\\
3.0722154025032316	0.982\\
3.104738398938977	0.982\\
3.1380139347226104	0.982\\
3.1708613837570274	0.982\\
3.2047838752754876	0.982\\
3.238127010673505	0.982\\
3.2718952535653116	0.982\\
3.3058552992051	0.982\\
3.3390310513784733	0.982\\
3.3729175437510053	0.982\\
3.4063086116200827	0.982\\
3.4406666987040087	0.982\\
3.474934131493149	0.982\\
3.5098994472067755	0.982\\
3.5462870115450915	0.982\\
3.5822000397094866	0.982\\
3.6182488737765643	0.982\\
3.6541058683313894	0.982\\
3.69046830575435	0.982\\
3.7273232479798146	0.982\\
3.763551151823326	0.982\\
3.801190022012084	0.982\\
3.838356904076658	0.982\\
3.8756160509110025	0.982\\
3.913627027913538	0.982\\
3.952582297902836	0.982\\
3.9903850672338086	0.982\\
4.029410569428929	0.982\\
4.068837252163789	0.982\\
4.108333857370571	0.982\\
4.148097874088702	0.982\\
4.188323818589097	0.982\\
4.227862350859912	0.982\\
4.268911114187738	0.982\\
4.309715449169644	0.982\\
4.350449753429597	0.982\\
4.3910365530522615	0.982\\
4.431584609553703	0.982\\
4.473861462404027	0.982\\
4.515290320650539	0.982\\
4.556614528605731	0.982\\
4.598881233639499	0.982\\
4.641498934988277	0.982\\
4.684165350093108	0.982\\
4.726372357462344	0.982\\
4.769102741635134	0.982\\
4.813100697295878	0.982\\
4.8568788038887725	0.982\\
4.900978994350924	0.982\\
4.944581254696825	0.982\\
4.988817997319037	0.982\\
5.032729057421582	0.982\\
5.078596762671941	0.982\\
5.12452173376195	0.982\\
5.169570211979309	0.982\\
5.215419737303453	0.982\\
5.260914909588905	0.982\\
5.307781723523297	0.982\\
5.3538937409771545	0.982\\
5.401099927950682	0.982\\
5.447639429894663	0.982\\
5.49477440832738	0.982\\
5.542578201430411	0.982\\
5.590751694911662	0.982\\
5.639343368372259	0.982\\
5.687814509117786	0.982\\
5.735322623215975	0.982\\
5.785002288832787	0.982\\
5.8341912399848805	0.982\\
5.8835933717503615	0.982\\
5.9350603292500175	0.982\\
5.98448600870335	0.982\\
6.035305789265514	0.982\\
6.086283831970443	0.982\\
6.1365368925741635	0.982\\
6.188651423151727	0.982\\
6.240435228418336	0.982\\
6.291743128204997	0.982\\
6.344130074812373	0.982\\
6.396261284683506	0.982\\
6.449292913965408	0.982\\
6.501581531468105	0.982\\
6.555315189416458	0.982\\
6.607904848649193	0.982\\
6.6618076179696	0.982\\
6.716496260988535	0.982\\
6.7717374164187	0.982\\
6.827742820064822	0.982\\
6.882856482369975	0.982\\
6.93902708099964	0.982\\
6.995735478757178	0.982\\
7.052733795184299	0.982\\
7.110210297080604	0.982\\
7.166258994479431	0.982\\
7.223453761456378	0.982\\
7.280468690849663	0.982\\
7.337479002923695	0.982\\
7.395310181204733	0.982\\
7.454582970842759	0.982\\
7.512582131187292	0.982\\
7.5718394513839105	0.982\\
7.632610692786335	0.982\\
7.692433093913582	0.982\\
7.752263503149509	0.982\\
7.812269593688528	0.982\\
7.874215071046606	0.982\\
7.934683763845705	0.982\\
7.997002519496759	0.982\\
8.05846839373454	0.982\\
8.120642945391698	0.982\\
8.183275821880596	0.982\\
8.245776669102131	0.982\\
8.309405587182766	0.982\\
8.371838982624539	0.982\\
8.435653746933362	0.982\\
8.499707938656577	0.982\\
8.563159834129817	0.982\\
8.627650081078308	0.982\\
8.692968586227433	0.982\\
8.758318301841225	0.982\\
8.823875160233118	0.982\\
8.890196944167347	0.982\\
8.956987473258945	0.982\\
9.023792314094422	0.982\\
9.090676308844671	0.982\\
9.157494810320465	0.982\\
9.224504930074808	0.982\\
9.291652933656675	0.982\\
9.361490189792576	0.982\\
9.431256652451896	0.982\\
9.49935282410464	0.982\\
9.567773754556885	0.982\\
9.63703233846476	0.982\\
9.707654109887905	0.982\\
9.777177448374676	0.982\\
9.848561571703382	0.982\\
9.919936499564432	0.982\\
9.9907051389505	0.982\\
10.06436425340124	0.982\\
10.135809517098107	0.982\\
10.209861585675789	0.982\\
10.284114385771051	0.982\\
10.356313119230766	0.982\\
10.432429010030976	0.982\\
10.505945376399456	0.982\\
10.57964702850979	0.982\\
10.655216605581817	0.982\\
10.730897849530471	0.982\\
10.805580126581063	0.982\\
10.882045575927862	0.982\\
10.959310442198817	0.982\\
11.036438583915345	0.982\\
11.113694051235349	0.982\\
11.191547796432037	0.982\\
11.268595178585358	0.982\\
11.347328977317066	0.982\\
11.425508225312662	0.982\\
11.504437907216793	0.982\\
11.582935572814755	0.982\\
11.662665060190506	0.982\\
11.742432141086493	0.982\\
11.823372780557488	0.982\\
11.904829998321919	0.982\\
11.984778878098854	0.982\\
12.064833289239928	0.982\\
12.146883045774636	0.982\\
12.229534824023869	0.982\\
12.314453685034739	0.982\\
12.399647189806338	0.982\\
12.484065774684773	0.982\\
12.568378968882996	0.982\\
12.65105270931343	0.982\\
12.737346909143003	0.982\\
12.822227811054503	0.982\\
12.908448999767803	0.982\\
12.996711038386639	0.982\\
13.081929512909703	0.982\\
13.167826725843955	0.982\\
13.25439008991204	0.982\\
13.342854800330315	0.982\\
13.432007209860672	0.982\\
13.521325849314298	0.982\\
13.610544480327434	0.982\\
13.700657302591317	0.982\\
13.789309544901663	0.982\\
13.880552562481835	0.982\\
13.971024936825241	0.982\\
14.062958420483078	0.982\\
14.153789039310304	0.982\\
14.24558921234576	0.982\\
14.336091008028912	0.982\\
14.430713203571013	0.982\\
14.523609296054477	0.982\\
14.616816274211988	0.982\\
14.711910724348066	0.982\\
14.806841689431607	0.982\\
14.90405495707703	0.982\\
15.001345246825693	0.982\\
15.097294740651552	0.982\\
15.194841624796915	0.982\\
15.293416846480184	0.982\\
15.391312278734894	0.982\\
15.491061244189154	0.982\\
15.589532311076383	0.982\\
15.688805516234662	0.982\\
15.788049827089374	0.982\\
15.88691782699653	0.982\\
15.986706442999399	0.982\\
16.086910924349716	0.982\\
16.186892656914736	0.982\\
16.28747527624961	0.982\\
16.389886077880085	0.982\\
16.49358044301401	0.982\\
16.596858142500025	0.982\\
16.699569060626743	0.982\\
16.804474388081424	0.982\\
16.909035703432764	0.982\\
17.014879743038186	0.982\\
17.120247592432847	0.982\\
17.225560193284828	0.982\\
17.332603956994447	0.982\\
17.43997928870963	0.982\\
17.54566658002898	0.982\\
17.652632893896467	0.982\\
17.760986284863584	0.982\\
17.869625905227686	0.982\\
17.979130711894385	0.982\\
18.088511471411287	0.982\\
18.197553481139238	0.982\\
18.30720435610302	0.982\\
18.41866457258532	0.982\\
18.528387659680895	0.982\\
18.639720137897186	0.982\\
18.753375665247987	0.982\\
18.8659093480152	0.982\\
18.977539724501725	0.982\\
19.091443733266445	0.982\\
19.203641607514506	0.982\\
19.318978899131253	0.982\\
19.434312942728866	0.982\\
19.54890405452783	0.982\\
19.661997323642765	0.982\\
19.778235673330514	0.982\\
19.89764165919763	0.982\\
20.014260758517516	0.982\\
20.131043286837155	0.982\\
20.251506409859395	0.982\\
20.371083686996073	0.982\\
20.490888108716995	0.982\\
20.61107471809624	0.982\\
20.730527264991764	0.982\\
20.84985545960393	0.982\\
20.973369165600978	0.982\\
21.094070099483055	0.982\\
21.216693994889575	0.982\\
21.33957566440221	0.982\\
21.46479080643369	0.982\\
21.58894379672107	0.982\\
21.71276295029905	0.982\\
21.837834920546015	0.982\\
21.962371015529392	0.982\\
22.087588559008772	0.982\\
22.21258746544045	0.982\\
22.337466496259594	0.982\\
22.46291462545461	0.982\\
22.588905812824855	0.982\\
22.71756807825851	0.982\\
22.844289100260596	0.982\\
22.97078489719963	0.982\\
23.101706580099602	0.982\\
23.23082984163611	0.982\\
23.36014659847325	0.982\\
23.489091579590394	0.982\\
23.618757807234417	0.982\\
23.747523203284665	0.982\\
23.88123611140101	0.982\\
24.015262275969867	0.982\\
24.14717047333768	0.982\\
24.278931631264328	0.982\\
24.4108120513774	0.982\\
24.5415296242057	0.982\\
24.675046678740976	0.982\\
24.811179098821277	0.982\\
24.944813534487608	0.982\\
25.07948308618539	0.982\\
25.21282285673245	0.982\\
25.348493272510296	0.982\\
25.483349606984525	0.982\\
25.510651367839564	0.982\\
25.5775898259605	0.982\\
25.602715936935084	0.982\\
25.605605999470328	0.982\\
25.607171470576453	0.982\\
25.609357545986775	0.982\\
25.619112203536325	0.982\\
25.65340948688187	0.982\\
25.746630448053622	0.982\\
25.874814828217033	0.982\\
26.000552046019095	0.982\\
26.125961652007668	0.982\\
26.25220623379886	0.982\\
26.38227476489287	0.982\\
26.512097192444337	0.982\\
26.640030727380285	0.982\\
26.77067419492859	0.982\\
26.903387192159684	0.982\\
27.033622768932936	0.982\\
27.16534040944847	0.982\\
27.297643969187604	0.982\\
27.430544869575996	0.982\\
27.564277853646445	0.982\\
27.696990179561887	0.982\\
27.829957704261382	0.982\\
27.965962181815783	0.982\\
28.10122477267374	0.982\\
28.23644668964007	0.982\\
28.371790337329962	0.982\\
28.50901116890016	0.982\\
28.64606669342733	0.982\\
28.783349614144477	0.982\\
28.921301874006716	0.982\\
29.06041842510205	0.982\\
29.199510478433325	0.982\\
29.340485170188195	0.982\\
29.480621684981863	0.982\\
29.624127786502243	0.982\\
29.767766707225874	0.982\\
29.912221014977128	0.982\\
30.054472914906817	0.982\\
30.19679189764839	0.982\\
30.341287675322924	0.982\\
30.485041072397117	0.982\\
30.630071246127557	0.982\\
30.77733036974744	0.982\\
30.924893424172645	0.982\\
31.070922632106672	0.982\\
31.21880424771596	0.982\\
31.36669475650431	0.982\\
31.51453935873306	0.982\\
31.663273696135548	0.982\\
31.812431227538696	0.982\\
31.961495520358675	0.982\\
32.11231985331888	0.982\\
32.26208742223298	0.982\\
32.414061403005206	0.982\\
32.565173969500464	0.982\\
32.71946317465665	0.982\\
32.87254650153298	0.982\\
33.02773600377439	0.982\\
33.18121466557679	0.982\\
33.33679709816697	0.982\\
33.49285383657693	0.982\\
33.6470321352197	0.982\\
33.801785725849655	0.982\\
33.956253466251	0.982\\
34.11226112125807	0.982\\
34.26832884905322	0.982\\
34.42728468406668	0.982\\
34.587719702947865	0.982\\
34.747692336936396	0.982\\
34.90877944369156	0.982\\
35.06665482153713	0.982\\
35.224940584736956	0.982\\
35.38644298325231	0.982\\
35.54613563521568	0.982\\
35.70837819381137	0.982\\
35.87039935733435	0.982\\
36.03198804429887	0.982\\
36.19421932430335	0.982\\
36.35715688557373	0.982\\
36.521900824023945	0.982\\
36.68664267232896	0.982\\
36.852098469260255	0.982\\
37.01973103832357	0.982\\
37.18554914472304	0.982\\
37.35170121247059	0.982\\
37.51951647798104	0.982\\
37.688357687005805	0.982\\
37.85847646030943	0.982\\
38.026293280570684	0.982\\
38.19268623165249	0.982\\
38.36089982025925	0.982\\
38.52808180027651	0.982\\
38.69518475440128	0.982\\
38.86479048412231	0.982\\
39.03563019165932	0.982\\
39.20741302993831	0.982\\
39.379519676478864	0.982\\
39.55048588501349	0.982\\
39.72452434339654	0.982\\
39.895516680376915	0.982\\
40.07041610739087	0.982\\
40.24311372580179	0.982\\
40.41686816988562	0.982\\
40.59183568531327	0.982\\
40.764596281322	0.982\\
40.93938380809432	0.982\\
41.11428361070929	0.982\\
41.29406018431979	0.982\\
41.47085841757912	0.982\\
41.64655956317654	0.982\\
41.825184167803684	0.982\\
42.00330270981122	0.982\\
42.18191825018984	0.982\\
42.36088638488776	0.982\\
42.54164606184443	0.982\\
42.72081965389583	0.982\\
42.902919916352744	0.982\\
43.08312310623519	0.982\\
43.263045959253006	0.982\\
43.445893476538785	0.982\\
43.62800114584145	0.982\\
43.810510044012915	0.982\\
43.99082859802387	0.982\\
44.175914155557535	0.982\\
44.361520281362246	0.982\\
44.54686363032852	0.982\\
44.73053236147727	0.982\\
44.91509047940946	0.982\\
45.10018453943353	0.982\\
45.2886899829555	0.982\\
45.475382479096936	0.982\\
45.661154810227345	0.982\\
45.84826475264744	0.982\\
46.034473377469666	0.982\\
46.2219228375364	0.982\\
46.40996984904913	0.982\\
46.59839657610593	0.982\\
46.78674230235433	0.982\\
46.97851437896924	0.982\\
47.16727491495408	0.982\\
47.35620199475966	0.982\\
47.545409880966474	0.982\\
47.73588177743849	0.982\\
47.928020915022245	0.982\\
48.12072320546068	0.982\\
48.31212758495522	0.982\\
48.50450076201426	0.982\\
48.69697208289125	0.982\\
48.8934077267335	0.982\\
49.08967394778253	0.982\\
49.283809859914015	0.982\\
49.48153767033956	0.982\\
49.679763347622796	0.982\\
49.877378909446605	0.982\\
50.074354677599004	0.982\\
50.27058169706318	0.982\\
50.469062544530374	0.982\\
50.66857519730948	0.982\\
50.86441655435877	0.982\\
51.06551220224701	0.982\\
51.26365355837133	0.982\\
51.46308845034061	0.982\\
51.66423899968524	0.982\\
51.86723474322963	0.982\\
52.07060382056676	0.982\\
52.27178927405626	0.982\\
52.47443482752996	0.982\\
52.67646158025161	0.982\\
52.879566751753245	0.982\\
53.08424721860287	0.982\\
53.28947977214341	0.982\\
53.49508759304767	0.982\\
53.702234181807796	0.982\\
53.90890572303016	0.982\\
54.11670384999353	0.982\\
54.3230093215589	0.982\\
54.531589615972834	0.982\\
54.73670484627628	0.982\\
54.94585054371427	0.982\\
55.15517578356332	0.982\\
55.36552917171079	0.982\\
55.57782955914446	0.982\\
55.78764710938391	0.982\\
55.99712580878298	0.982\\
56.2073890392231	0.982\\
56.420685867011244	0.982\\
56.631385669247436	0.982\\
56.844141105286056	0.982\\
57.058429060467134	0.982\\
57.273417131886305	0.982\\
57.48948535701534	0.982\\
57.70259610468919	0.982\\
57.915164315626924	0.982\\
58.13446841732966	0.982\\
58.35176984145781	0.982\\
58.57188962969981	0.982\\
58.79066755558004	0.982\\
59.00882174162443	0.982\\
59.22774530796056	0.982\\
59.44858621959402	0.982\\
59.66951081998084	0.982\\
59.889534925320376	0.982\\
60.11272019130526	0.982\\
60.334022821337186	0.982\\
60.555608266276266	0.982\\
60.77847099542009	0.982\\
61.00130373731244	0.982\\
61.22653016145895	0.982\\
61.45246965392576	0.982\\
61.679100531393345	0.982\\
61.904478464952106	0.982\\
62.131029011432375	0.982\\
62.357205517583765	0.982\\
62.58638334306909	0.982\\
62.815767897833766	0.982\\
63.04497579433868	0.982\\
63.276314076636325	0.982\\
63.506366830687355	0.982\\
63.73781026851094	0.982\\
63.9713247963507	0.982\\
64.20475252981916	0.982\\
64.4361823572792	0.982\\
64.6693839796587	0.982\\
64.90342735265997	0.982\\
65.13838382354555	0.982\\
65.37360808652062	0.982\\
65.61000790450885	0.982\\
65.84705788904284	0.982\\
66.08355444624743	0.982\\
66.31994305816559	0.982\\
66.5588751471571	0.982\\
66.79915250205295	0.982\\
67.04023845695303	0.982\\
67.28219420244417	0.982\\
67.52429139764607	0.982\\
67.77049549766141	0.982\\
68.01353842159702	0.982\\
68.25675265410729	0.982\\
68.50315004529435	0.982\\
68.74908581312386	0.982\\
68.99541921237628	0.982\\
69.24265805879324	0.982\\
69.49262115393401	0.982\\
69.74081996067966	0.982\\
69.9900140781132	0.982\\
70.23730761627522	0.982\\
70.48876704223437	0.982\\
70.73754100273305	0.982\\
70.98807907417768	0.982\\
71.23903414543116	0.982\\
71.49199670794223	0.982\\
71.7470032153372	0.982\\
72.00264101422579	0.982\\
72.2590405328636	0.982\\
72.51460401930126	0.982\\
72.77546306271424	0.982\\
73.03741146460925	0.982\\
73.29488333355312	0.982\\
73.55684595612556	0.982\\
73.81888022721742	0.982\\
74.0785986421007	0.982\\
74.34330720353549	0.982\\
74.60681893228741	0.982\\
74.87292534973125	0.982\\
75.13893625040294	0.982\\
75.40782253822366	0.982\\
75.67528503604083	0.982\\
75.94755825267092	0.982\\
76.21903617665197	0.982\\
76.49272340204817	0.982\\
76.76524154889847	0.982\\
77.04007278569509	0.982\\
77.31338622432628	0.982\\
77.5894537318305	0.982\\
77.86362442542654	0.982\\
78.14230713673567	0.982\\
78.41965662996421	0.982\\
78.69845321692512	0.982\\
78.97913578428484	0.982\\
79.25744292503276	0.982\\
79.53827497309751	0.982\\
79.82381197491327	0.982\\
80.10803887117197	0.982\\
80.39411413442633	0.982\\
80.67966963824202	0.982\\
80.96705765432685	0.982\\
81.25732438135071	0.982\\
81.54725621801549	0.982\\
81.8371121829768	0.982\\
82.1251066521396	0.982\\
82.4182835302777	0.982\\
82.71218001834023	0.982\\
83.00585370923196	0.982\\
83.30511541542441	0.982\\
83.60403845527773	0.982\\
83.90133607136784	0.982\\
84.20249017780233	0.982\\
84.50378613469096	0.982\\
84.80462689868179	0.982\\
85.10531679758361	0.982\\
85.41192239628253	0.982\\
85.72014561934688	0.982\\
86.02694906416292	0.982\\
86.33751782950822	0.982\\
86.64506236735335	0.982\\
86.95547436842887	0.982\\
87.26501226339559	0.982\\
87.58030189621417	0.982\\
87.89640563555585	0.982\\
88.21269217501006	0.982\\
88.53407539153827	0.982\\
88.85180603023966	0.982\\
89.1703286943708	0.982\\
89.49056354610133	0.982\\
89.81232985301503	0.982\\
90.14008587000004	0.982\\
90.4610418461117	0.982\\
90.78800547833742	0.982\\
91.1136556909496	0.982\\
91.44020572703636	0.982\\
91.77715444776865	0.982\\
92.10418581438532	0.982\\
92.43708883501535	0.982\\
92.77140638692066	0.982\\
93.1039872675627	0.982\\
93.4407277674324	0.982\\
93.77986148799502	0.982\\
94.11941287405216	0.982\\
94.45768735629369	0.982\\
94.79256476240985	0.982\\
95.12976087374741	0.982\\
95.47028559976644	0.982\\
95.80559433522907	0.982\\
96.14757325264435	0.982\\
96.4872506134518	0.982\\
96.82678258166692	0.982\\
97.16978265720195	0.982\\
97.5118960023566	0.982\\
97.85845543187747	0.982\\
98.20056816354852	0.982\\
98.54451617480464	0.982\\
98.88897878101574	0.982\\
99.23494628290325	0.982\\
99.57880723458882	0.982\\
99.9218334549825	0.982\\
100.27131992613667	0.982\\
100.61397674759093	0.982\\
100.95994287504845	0.982\\
101.30439963234588	0.982\\
101.645015302828	0.982\\
101.98887910694356	0.982\\
102.3332699489703	0.982\\
102.68053050780756	0.982\\
103.02420074025846	0.982\\
103.36520478417901	0.982\\
103.70800493429374	0.982\\
104.05204160126198	0.982\\
104.39560195716189	0.982\\
104.73598276579784	0.982\\
105.07599862133642	0.982\\
105.41704620737329	0.982\\
105.7583374716491	0.982\\
106.09872802691822	0.982\\
106.4391547948567	0.982\\
106.78129357744584	0.982\\
106.84910565636895	0.982\\
106.85390540142288	0.982\\
106.85830582934432	0.982\\
106.87850667720281	0.982\\
106.95591833944724	0.982\\
107.20043359300914	0.982\\
107.50007577472306	0.982\\
107.8026880928544	0.982\\
108.10975621734406	0.982\\
108.41632625389812	0.982\\
108.72572540928965	0.982\\
109.03353096593062	0.982\\
109.34444867092455	0.982\\
109.65786488064734	0.982\\
109.97215167224894	0.982\\
110.2902285346195	0.982\\
110.6099185794302	0.982\\
110.92992914543598	0.982\\
111.25282418826743	0.982\\
111.5767326659965	0.982\\
111.90162321626363	0.982\\
112.22621744216892	0.982\\
112.55616416525851	0.982\\
112.88565654932765	0.982\\
113.21459126381617	0.982\\
113.54324785286099	0.982\\
113.88077560486778	0.982\\
114.21836007469525	0.982\\
114.5549868522171	0.982\\
114.89684068401334	0.982\\
115.23622633248456	0.982\\
115.57950236258449	0.982\\
115.92165766737429	0.982\\
116.26668008585807	0.982\\
116.61478106087924	0.982\\
116.96264769984123	0.982\\
117.31420829101413	0.982\\
117.66704911604523	0.982\\
118.01992001103864	0.982\\
118.37807225916356	0.982\\
118.73520686728492	0.982\\
119.09796921636891	0.982\\
119.45738577167393	0.982\\
119.81844000443581	0.982\\
120.1812828079801	0.982\\
120.54419717830658	0.982\\
120.91226458806787	0.982\\
121.28153989200769	0.982\\
121.65326013289717	0.982\\
122.02206342424802	0.982\\
122.3919098573385	0.982\\
122.76096348388376	0.982\\
123.13302746943191	0.982\\
123.50240944147188	0.982\\
123.87479248565677	0.982\\
124.24226293865917	0.982\\
124.61443863439868	0.982\\
124.98696730356096	0.982\\
125.36068745313526	0.982\\
125.73690575277746	0.982\\
126.1133245225744	0.982\\
126.48927956172554	0.982\\
126.86319056941235	0.982\\
127.23912067953972	0.982\\
127.61503629449723	0.982\\
127.99076365657413	0.982\\
128.36381682909024	0.982\\
128.73648251838262	0.982\\
129.11191790767424	0.982\\
129.48702245179084	0.982\\
129.8582821279291	0.982\\
130.2296740161974	0.982\\
130.60293319634042	0.982\\
130.9774466737041	0.982\\
131.35195186364479	0.982\\
131.72379564795034	0.982\\
132.09830552131905	0.982\\
132.46956894807232	0.982\\
132.8438385433608	0.982\\
133.21757363072214	0.982\\
133.59143476664826	0.982\\
133.96207509712764	0.982\\
134.3360426984883	0.982\\
134.7099912792463	0.982\\
135.0809659002777	0.982\\
135.45168649909442	0.982\\
135.82366150817677	0.982\\
136.19575692690916	0.982\\
136.5681274813013	0.982\\
136.94084227626735	0.982\\
137.31112013532112	0.982\\
137.68146446962737	0.982\\
138.05163670135846	0.982\\
138.42413730021582	0.982\\
138.79617474233999	0.982\\
139.16532058941624	0.982\\
139.53884610461802	0.982\\
139.9073830487804	0.982\\
140.27647771636794	0.982\\
140.64845345809698	0.982\\
141.02249000498466	0.982\\
141.39344742217145	0.982\\
141.76330728492002	0.982\\
142.1333395007971	0.982\\
142.50306324856547	0.982\\
142.8750136820854	0.982\\
143.2451632097068	0.982\\
143.61778433778653	0.982\\
143.9908685312942	0.982\\
144.36055783278437	0.982\\
144.7325455237596	0.982\\
145.106078161408	0.982\\
145.47811954099348	0.982\\
145.84862810193187	0.982\\
146.22202999495016	0.982\\
146.5939154507942	0.982\\
146.96915543541581	0.982\\
147.34254911071173	0.982\\
147.71466230170967	0.982\\
148.0872746459463	0.982\\
148.45837898264057	0.982\\
148.83281764002277	0.982\\
149.20683169406436	0.982\\
149.581933083193	0.982\\
149.9550965086765	0.982\\
150.33085519950595	0.982\\
150.70522967606797	0.982\\
151.0821545154679	0.982\\
151.45927530705916	0.982\\
151.83315550409486	0.982\\
152.20944334121185	0.982\\
152.58717018568638	0.982\\
152.96298290950318	0.982\\
153.34069513647086	0.982\\
153.71804220683936	0.982\\
154.0945751523529	0.982\\
154.47209752758573	0.982\\
154.85257540786534	0.982\\
155.22940885974793	0.982\\
155.60764298697273	0.982\\
155.98593430910773	0.982\\
156.36769093703805	0.982\\
156.747105784629	0.982\\
157.12703757371276	0.982\\
157.50701152432674	0.982\\
157.88636351146914	0.982\\
158.26893232200302	0.982\\
158.64932028747495	0.982\\
159.03384015718473	0.982\\
159.41808565236101	0.982\\
159.80055693885515	0.982\\
160.18293157837172	0.982\\
160.56756029714995	0.982\\
160.9510205040997	0.982\\
161.33661506039766	0.982\\
161.72041289109978	0.982\\
162.10616652505888	0.982\\
162.4904000021662	0.982\\
162.87471744202082	0.982\\
163.26148325215968	0.982\\
163.6480601224206	0.982\\
164.03652521846539	0.982\\
164.42366559737076	0.982\\
164.81057234227342	0.982\\
165.19852251063236	0.982\\
165.58796771104835	0.982\\
165.9797764938192	0.982\\
166.3691878069988	0.982\\
166.7628123969858	0.982\\
167.15405624232568	0.982\\
167.54811809877225	0.982\\
167.94049903292523	0.982\\
168.33507604030348	0.982\\
168.729687037418	0.982\\
169.12509852185008	0.982\\
169.51923186113754	0.982\\
169.91397369396128	0.982\\
170.31119567878568	0.982\\
170.70905743509024	0.982\\
171.10788731554976	0.982\\
171.50808529234627	0.982\\
171.90825850549066	0.982\\
172.30567564559954	0.982\\
172.7029433931399	0.982\\
173.10354203907514	0.982\\
173.50446625590843	0.982\\
173.90691916232583	0.982\\
174.311691062904	0.982\\
174.71706337619804	0.982\\
175.1211687140136	0.982\\
175.52636382204662	0.982\\
175.93148260797147	0.982\\
176.33801918413945	0.982\\
176.74433522196148	0.982\\
177.15341089237364	0.982\\
177.5636235363545	0.982\\
177.9720910926107	0.982\\
178.38063731050073	0.982\\
178.7909326242709	0.982\\
179.2039263411201	0.982\\
179.61526650603759	0.982\\
180.02721996055908	0.982\\
180.44266647477122	0.982\\
180.8586882052852	0.982\\
181.2737392537004	0.982\\
181.69078162682592	0.982\\
182.11074219458965	0.982\\
182.5293970738232	0.982\\
182.9494261718782	0.982\\
183.37116050480637	0.982\\
183.79277312624157	0.982\\
184.2169255854347	0.982\\
184.6407861406583	0.982\\
185.06807822456324	0.982\\
185.4932517920796	0.982\\
185.9170009663597	0.982\\
186.34364667483607	0.982\\
186.77315926977798	0.982\\
187.20127301772737	0.982\\
187.6322470189703	0.982\\
188.06410679813627	0.982\\
188.4977049059258	0.982\\
188.9300814490377	0.982\\
189.36493788365073	0.982\\
189.79803427095766	0.982\\
190.23390932062154	0.982\\
190.67186435391233	0.982\\
191.10921178267228	0.982\\
191.54747274003176	0.982\\
191.98725128971773	0.982\\
192.43029567498098	0.982\\
192.87369092209207	0.982\\
193.31897241842609	0.982\\
193.76599571272845	0.982\\
194.21249791751796	0.982\\
194.65889261303795	0.982\\
195.10894867535825	0.982\\
195.5573013404839	0.982\\
196.0112028497585	0.982\\
196.46415570638425	0.982\\
196.91713532184104	0.982\\
197.37129159370664	0.982\\
197.82714980449168	0.982\\
198.28764213292874	0.982\\
198.74573136261455	0.982\\
199.20599572522724	0.982\\
199.6671330380418	0.982\\
200.12860486221172	0.982\\
200.59403797628426	0.982\\
201.0608837360005	0.982\\
201.52388040057338	0.982\\
201.99516181357342	0.982\\
202.46601629240723	0.982\\
202.93805633146036	0.982\\
203.4124652177914	0.982\\
203.88928662056543	0.982\\
204.36438621878148	0.982\\
204.8425860367763	0.982\\
205.32356229136457	0.982\\
205.80436314006448	0.982\\
206.2888438639277	0.982\\
206.77495185793356	0.982\\
207.25947167950875	0.982\\
207.74679020957632	0.982\\
208.24056449017513	0.982\\
208.73325555913806	0.982\\
209.23007220463364	0.982\\
209.7257394232006	0.982\\
210.22562740882273	0.982\\
210.72817560307482	0.982\\
211.23377801279537	0.982\\
211.737561196692	0.982\\
212.24846908294103	0.982\\
212.76044573497558	0.982\\
213.2737099544742	0.982\\
213.78766067050913	0.982\\
214.30291489620504	0.982\\
214.82084551518255	0.982\\
215.3424540575927	0.982\\
215.86742247314913	0.982\\
216.39850481267064	0.982\\
216.92750360306223	0.982\\
217.46234583094338	0.982\\
217.99605323627947	0.982\\
218.53349003433334	0.982\\
219.07768055453994	0.982\\
219.62177636187465	0.982\\
220.17484761935913	0.982\\
220.72796512687995	0.982\\
221.28235942143976	0.982\\
221.83879743977792	0.982\\
222.40323326937062	0.982\\
222.9726587602574	0.982\\
223.53971297030665	0.982\\
224.10886806276505	0.982\\
224.6800150266427	0.982\\
225.25525626980556	0.982\\
225.83647172735937	0.982\\
226.4260229346752	0.982\\
227.01798991402154	0.982\\
227.61139617888716	0.982\\
228.20814128500177	0.982\\
228.8111086628678	0.982\\
229.4187345014463	0.982\\
230.03253424434274	0.982\\
230.64758440792173	0.982\\
231.26820082130143	0.982\\
231.88874303520856	0.982\\
232.51379413586784	0.982\\
233.1410187416152	0.982\\
233.77350007642696	0.982\\
234.40297048054424	0.982\\
235.03654729522725	0.982\\
235.66801032707127	0.982\\
236.305967881058	0.982\\
236.94679981870934	0.982\\
237.58872734550562	0.982\\
238.22613921777315	0.982\\
238.8591539751531	0.982\\
239.48665286519616	0.982\\
240.12234960085362	0.982\\
240.7515816049982	0.982\\
241.37993396808452	0.982\\
242.00501161120894	0.982\\
242.63145994498956	0.982\\
243.24987377743577	0.982\\
243.87024461206556	0.982\\
244.48060505767194	0.982\\
245.09147313941696	0.982\\
245.69951746587543	0.982\\
246.30473017714047	0.982\\
246.90930431889296	0.982\\
247.51263112072002	0.982\\
248.10199819664666	0.982\\
248.69156076558113	0.982\\
249.2832958803437	0.982\\
249.86761624924532	0.982\\
250.44935349535882	0.982\\
251.0315945161048	0.982\\
251.60930052215008	0.982\\
252.18688564490293	0.982\\
252.75923170685684	0.982\\
253.32993929088462	0.982\\
253.89886616536165	0.982\\
254.463886413654	0.982\\
255.02616511677053	0.982\\
255.13825397328077	0.982\\
255.4867435994954	0.982\\
255.49599340963994	0.982\\
255.5008804277697	0.982\\
255.50617775685225	0.982\\
255.53270175617047	0.982\\
255.6487052351951	0.982\\
255.98617757318175	0.982\\
256.46881877335045	0.982\\
256.95528522240113	0.982\\
257.44433663173857	0.982\\
257.9374921697348	0.982\\
258.4337565745967	0.982\\
258.9303946441895	0.982\\
259.432268258583	0.982\\
259.9376015485934	0.982\\
260.4442554324454	0.982\\
260.9537105201034	0.982\\
261.46766208518625	0.982\\
261.9863481366376	0.982\\
262.5049724484769	0.982\\
263.03023121327	0.982\\
263.5563546898901	0.982\\
264.08822512626284	0.982\\
264.6253180899971	0.982\\
265.16464764594923	0.982\\
265.70663469457077	0.982\\
266.25200360456074	0.982\\
266.80288482684944	0.982\\
267.35825705072625	0.982\\
267.9157160840299	0.982\\
268.48092859351607	0.982\\
269.0449660177493	0.982\\
269.6170139347412	0.982\\
270.19226063519227	0.982\\
270.77010622373166	0.982\\
271.35388057140074	0.982\\
271.94398732304126	0.982\\
272.5392609816769	0.982\\
273.1429108799663	0.982\\
273.74619387436985	0.982\\
274.3572818121364	0.982\\
274.96730518327513	0.982\\
275.5881479673326	0.982\\
276.2109967972144	0.982\\
276.8376154383068	0.982\\
277.4686241878792	0.982\\
278.09975968865695	0.982\\
278.73412775073746	0.982\\
279.3688108203879	0.982\\
280.00479613794437	0.982\\
280.6490656610865	0.982\\
281.29358498460056	0.982\\
281.9329893894927	0.982\\
282.5735021590664	0.982\\
283.20791770967105	0.982\\
283.84859101328243	0.982\\
284.48372166173294	0.982\\
285.123881583037	0.982\\
285.7549105451602	0.982\\
286.38446000994213	0.982\\
287.00959041250644	0.982\\
287.64281491123495	0.982\\
288.26102621697726	0.982\\
288.87765403645756	0.982\\
289.49427443603804	0.982\\
290.1104083472002	0.982\\
290.72243217048015	0.982\\
291.33225381402144	0.982\\
291.94573962917	0.982\\
292.5490917852975	0.982\\
293.152785103223	0.982\\
293.7513581915214	0.982\\
294.35106222022307	0.982\\
294.9460050858439	0.982\\
295.5439263977345	0.982\\
296.13355172431795	0.982\\
296.7263024576296	0.982\\
297.3143414750922	0.982\\
297.90381097421266	0.982\\
298.49202211832596	0.982\\
299.0806441177509	0.982\\
299.6627113059956	0.982\\
300.24451202323064	0.982\\
300.8267081410355	0.982\\
301.4072261030951	0.982\\
301.9865195494484	0.982\\
302.56472205852776	0.982\\
303.1393826633441	0.982\\
303.71347370113824	0.982\\
304.28667026859716	0.982\\
304.86168553613163	0.982\\
305.4319838145003	0.982\\
306.0043496944951	0.982\\
306.57036879019734	0.982\\
307.14452773960033	0.982\\
307.7135124032834	0.982\\
308.28122994788873	0.982\\
308.8489020324961	0.982\\
309.41456605786254	0.982\\
309.98516038618527	0.982\\
310.5505394291571	0.982\\
311.11926191043324	0.982\\
311.6859906301612	0.982\\
312.2505043072797	0.982\\
312.81205447978937	0.982\\
313.37481950720496	0.982\\
313.93921495812333	0.982\\
314.5027401951031	0.982\\
315.0669091175565	0.982\\
315.63088025355387	0.982\\
316.19208296652187	0.982\\
316.7542474470504	0.982\\
317.31511658418924	0.982\\
317.8777018786059	0.982\\
318.4367545131321	0.982\\
318.996186315587	0.982\\
319.5561312264425	0.982\\
320.1152216383132	0.982\\
320.67783862749707	0.982\\
321.2371761464175	0.982\\
321.7957010099153	0.982\\
322.35550087005254	0.982\\
322.91297973353494	0.982\\
323.47074521980653	0.982\\
324.02883343876306	0.982\\
324.5879155927096	0.982\\
325.1478599315992	0.982\\
325.70608076595704	0.982\\
326.2619563344433	0.982\\
326.8235371634902	0.982\\
327.3839478856047	0.982\\
327.943294945478	0.982\\
328.504756872519	0.982\\
329.06191912435645	0.982\\
329.6257902646312	0.982\\
330.1850075390837	0.982\\
330.74696996683406	0.982\\
331.3055054156474	0.982\\
331.8661157420812	0.982\\
332.4262583505779	0.982\\
332.9866143345498	0.982\\
333.54638969714824	0.982\\
334.10772106500576	0.982\\
334.67053294447555	0.982\\
335.23151645986786	0.982\\
335.7958402566942	0.982\\
336.35616631454195	0.982\\
336.91917330704746	0.982\\
337.4839633577683	0.982\\
338.04724372189	0.982\\
338.61023392730044	0.982\\
339.1729431066774	0.982\\
339.7354201681982	0.982\\
340.29927330555904	0.982\\
340.86566619113944	0.982\\
341.43131861580673	0.982\\
341.99783856739555	0.982\\
342.564814053796	0.982\\
343.1299089666519	0.982\\
343.69784463677695	0.982\\
344.2681210728948	0.982\\
344.83485654777223	0.982\\
345.4061319992287	0.982\\
345.97718521308354	0.982\\
346.5459194753091	0.982\\
347.11588661011365	0.982\\
347.68863014191027	0.982\\
348.2592105605254	0.982\\
348.83166467042076	0.982\\
349.4053944938679	0.982\\
349.9766307721869	0.982\\
350.5474746815472	0.982\\
351.1210232630755	0.982\\
351.69202916095867	0.982\\
352.26668924656644	0.982\\
352.83917201319605	0.982\\
353.41669571324735	0.982\\
353.9924443838096	0.982\\
354.57087653286794	0.982\\
355.1480056023162	0.982\\
355.7264793601254	0.982\\
356.3046869959596	0.982\\
356.8839052529763	0.982\\
357.46330232174023	0.982\\
358.04693119915873	0.982\\
358.6255242838213	0.982\\
359.2107315322078	0.982\\
359.7961596345219	0.982\\
360.3786240309653	0.982\\
360.961397017208	0.982\\
361.54492231173276	0.982\\
362.1320766926998	0.982\\
362.7195107863388	0.982\\
363.3049325225951	0.982\\
363.896190418827	0.982\\
364.48750196893013	0.982\\
365.0745259301991	0.982\\
365.66567175969	0.982\\
366.25711952458073	0.982\\
366.8498689514365	0.982\\
367.44387107083526	0.982\\
368.0371180922152	0.982\\
368.63158751810533	0.982\\
369.2255872730826	0.982\\
369.8208088035233	0.982\\
370.41962266190467	0.982\\
371.0169370179515	0.982\\
371.6170404432007	0.982\\
372.2169407121098	0.982\\
372.8171235518179	0.982\\
373.4181140191105	0.982\\
374.02119510916157	0.982\\
374.6274958524258	0.982\\
375.23129489298105	0.982\\
375.83595675528125	0.982\\
376.4427712461842	0.982\\
377.0516388247129	0.982\\
377.66343883017043	0.982\\
378.2735185722597	0.982\\
378.8853451785775	0.982\\
379.49772465850606	0.982\\
380.1114756923844	0.982\\
380.7276883984192	0.982\\
381.3450534415962	0.982\\
381.9654333879623	0.982\\
382.5836517200373	0.982\\
383.20358611146594	0.982\\
383.82278622287083	0.982\\
384.44541454493003	0.982\\
385.06961173298225	0.982\\
385.6939452320081	0.982\\
386.317244534678	0.982\\
386.9465002605417	0.982\\
387.5740710445549	0.982\\
388.2041623804224	0.982\\
388.83464639180477	0.982\\
389.46665238845685	0.982\\
390.09925167264225	0.982\\
390.7335377725449	0.982\\
391.3748757818113	0.982\\
392.01048920410653	0.982\\
392.65000293200956	0.982\\
393.28934671124125	0.982\\
393.9324444872519	0.982\\
394.5751749140818	0.982\\
395.2207542244515	0.982\\
395.8693789953519	0.982\\
396.5176436226868	0.982\\
397.1656116814577	0.982\\
397.81127032544634	0.982\\
398.4647702006198	0.982\\
399.12081139544136	0.982\\
399.77563670194854	0.982\\
400.4328834869451	0.982\\
401.090377348729	0.982\\
401.750866124157	0.982\\
402.4150815587758	0.982\\
403.07747505165867	0.982\\
403.7415668180864	0.982\\
404.41015547711777	0.982\\
405.0832112597317	0.982\\
405.75227436859996	0.982\\
406.4247287617659	0.982\\
407.09921612113124	0.982\\
407.7754934984139	0.982\\
408.4556130668934	0.982\\
409.1387419408088	0.982\\
409.82347097420734	0.982\\
410.50673831040126	0.982\\
411.1925148801189	0.982\\
411.8826375672901	0.982\\
412.57346784133176	0.982\\
413.26895839342296	0.982\\
413.9664215097631	0.982\\
414.6669542132357	0.982\\
415.3658086489544	0.982\\
416.0668686942108	0.982\\
416.77285374438225	0.982\\
417.48057972109405	0.982\\
418.190083870933	0.982\\
418.902175648371	0.982\\
419.61766841760107	0.982\\
420.33769796299714	0.982\\
421.05956122950874	0.982\\
421.7879352789653	0.982\\
422.51558511817643	0.982\\
423.2494866497573	0.982\\
423.9839495122162	0.982\\
424.71710243489406	0.982\\
425.45953716692577	0.982\\
426.19894632915134	0.982\\
426.9493853841816	0.982\\
427.700480116943	0.982\\
428.45404132217527	0.982\\
429.21081607803603	0.982\\
429.9696595649482	0.982\\
430.73422638961654	0.982\\
431.5038073452	0.982\\
432.2755964514805	0.982\\
433.05090783542005	0.982\\
433.82972823813293	0.982\\
434.61493062221393	0.982\\
435.4033046688737	0.982\\
436.1971706629354	0.982\\
436.9970711323913	0.982\\
437.80083903704633	0.982\\
438.608882279746	0.982\\
439.4224163929415	0.982\\
440.2431019563883	0.982\\
441.06697175653596	0.982\\
441.89883078214234	0.982\\
442.73854630499966	0.982\\
443.5861789829619	0.982\\
444.4405453531881	0.982\\
445.2973940213235	0.982\\
446.1671755350611	0.982\\
447.0412203247939	0.982\\
447.9199591021237	0.982\\
448.8084058518489	0.982\\
449.711487469301	0.982\\
450.62563249516893	0.982\\
451.5462740102116	0.982\\
452.4797054823806	0.982\\
453.42490973345525	0.982\\
454.3791560486919	0.982\\
455.3435500824861	0.982\\
456.31866863464154	0.982\\
457.30978399507353	0.982\\
458.31773855261156	0.982\\
459.3407177622953	0.982\\
460.37107931952596	0.982\\
461.4017590962849	0.982\\
462.447298501142	0.982\\
463.49319736772225	0.982\\
464.53079533371135	0.982\\
465.5731290350983	0.982\\
466.60457686000996	0.982\\
467.62726376811224	0.982\\
468.6374822599365	0.982\\
469.63271514177916	0.982\\
470.6204316379849	0.982\\
471.60357503322507	0.982\\
472.5629294677217	0.982\\
473.5147587938317	0.982\\
474.45646160013996	0.982\\
475.39048970642614	0.982\\
476.3125464403753	0.982\\
477.22648985653336	0.982\\
478.13655722039243	0.982\\
479.02934373877645	0.982\\
479.91799207672284	0.982\\
480.80152933880436	0.982\\
481.6786482456863	0.982\\
482.547594528192	0.982\\
483.4114899125335	0.982\\
484.27060549678015	0.982\\
485.1222867091226	0.982\\
485.96748063991095	0.982\\
486.81012736492596	0.982\\
487.6441413053194	0.982\\
488.4778856544656	0.982\\
489.3023576495792	0.982\\
490.128118930518	0.982\\
490.94952410697965	0.982\\
491.7621241191613	0.982\\
492.57323749537557	0.982\\
493.3817681457715	0.982\\
494.1868002403195	0.982\\
494.98794213845997	0.982\\
495.7827969847067	0.982\\
495.9419879304975	0.982\\
495.9537735198229	0.982\\
495.96255870358243	0.982\\
495.970523280674	0.982\\
496.0175312572786	0.982\\
496.1948807702785	0.982\\
496.6673834554616	0.982\\
497.4638959733029	0.982\\
498.2409268156571	0.982\\
499.0232998849053	0.982\\
499.8089173186571	0.982\\
500.6009414664842	0.982\\
501.39896464991557	0.982\\
502.1986087161117	0.982\\
503.00441227840724	0.982\\
503.8174257934512	0.982\\
504.63770569773317	0.982\\
505.4640854464802	0.982\\
506.2969664990535	0.982\\
507.13085833413993	0.982\\
507.9749500157999	0.982\\
508.82513679178703	0.982\\
509.6803911220287	0.982\\
510.5432658150585	0.982\\
511.4170915853648	0.982\\
512.2942384700018	0.982\\
513.1768085293702	0.982\\
514.0729843572792	0.982\\
514.9789587119328	0.982\\
515.8929413733542	0.982\\
516.8117122115784	0.982\\
517.7479832546564	0.982\\
518.6880574947295	0.982\\
519.6383171997204	0.982\\
520.6041033922575	0.982\\
521.5802698249531	0.982\\
522.5684137933474	0.982\\
523.5680204681282	0.982\\
524.5779125146296	0.982\\
525.5945854652334	0.982\\
526.61910417784	0.982\\
527.6501885528339	0.982\\
528.6904503635867	0.982\\
529.7388651839935	0.982\\
530.7970252171131	0.982\\
531.8464703924537	0.982\\
532.8991112934682	0.982\\
533.9408314626819	0.982\\
534.9872558042587	0.982\\
536.0273094674328	0.982\\
537.0569518234838	0.982\\
538.0808249472318	0.982\\
539.0905628045514	0.982\\
540.0980747249782	0.982\\
541.0977814232533	0.982\\
542.0868036751874	0.982\\
543.0690197452504	0.982\\
544.043293163342	0.982\\
545.0110121289836	0.982\\
545.9730049368652	0.982\\
546.9297697319164	0.982\\
547.8877366380984	0.982\\
548.8369903578541	0.982\\
549.7787988268153	0.982\\
550.7128544660729	0.982\\
551.6474008815164	0.982\\
552.5782489902201	0.982\\
553.5022518789651	0.982\\
554.421282227953	0.982\\
555.3346823813986	0.982\\
556.2487134121975	0.982\\
557.1555622263754	0.982\\
558.0609070762041	0.982\\
558.9617812080983	0.982\\
559.864394562396	0.982\\
560.7620424521854	0.982\\
561.6573924821441	0.982\\
562.5490246277536	0.982\\
563.4359930496901	0.982\\
564.3195997225016	0.982\\
565.2003885025013	0.982\\
566.0801299773127	0.982\\
566.9613302305916	0.982\\
567.836526451259	0.982\\
568.7104419971906	0.982\\
569.5827799635326	0.982\\
570.4500313554847	0.982\\
571.3182568479631	0.982\\
572.1865399573533	0.982\\
573.0514722505975	0.982\\
573.9153788314513	0.982\\
574.7804622615884	0.982\\
575.6416491740115	0.982\\
576.5026992865858	0.982\\
577.3608265649978	0.982\\
578.2157617359371	0.982\\
579.0693583405889	0.982\\
579.931501813533	0.982\\
580.7843903036814	0.982\\
581.640211658523	0.982\\
582.4961149662101	0.982\\
583.3478527163943	0.982\\
584.2064999599447	0.982\\
585.0580257262236	0.982\\
585.9070151839742	0.982\\
586.7544472931143	0.982\\
587.5996283933587	0.982\\
588.4457816495005	0.982\\
589.2918811112338	0.982\\
590.1367027248662	0.982\\
590.9831230935845	0.982\\
591.8283112099778	0.982\\
592.6730404980349	0.982\\
593.5178929811309	0.982\\
594.3587345961432	0.982\\
595.1979831908823	0.982\\
596.0408765887344	0.982\\
596.8847456982955	0.982\\
597.7250940859667	0.982\\
598.568447628018	0.982\\
599.4080498238441	0.982\\
600.2506686573001	0.982\\
601.0913960001892	0.982\\
601.9321025219745	0.982\\
602.7738652424605	0.982\\
603.614028111014	0.982\\
604.4557454964959	0.982\\
605.3003567422954	0.982\\
606.1423899312292	0.982\\
606.9815644869029	0.982\\
607.8265206647325	0.982\\
608.6696458370702	0.982\\
609.5085926802751	0.982\\
610.3511824045156	0.982\\
611.1891793837815	0.982\\
612.0325136535944	0.982\\
612.8770745010308	0.982\\
613.7178591387346	0.982\\
614.5628485107347	0.982\\
615.4079307552715	0.982\\
616.2498787553939	0.982\\
617.0933999543556	0.982\\
617.9411083199993	0.982\\
618.7849943640606	0.982\\
619.6309281110555	0.982\\
620.475038160592	0.982\\
621.3173201485306	0.982\\
622.1618637741415	0.982\\
623.0072935505598	0.982\\
623.8567028116768	0.982\\
624.699851132066	0.982\\
625.5460898611627	0.982\\
626.3918290612742	0.982\\
627.2408203437046	0.982\\
628.0910094268845	0.982\\
628.9405969952086	0.982\\
629.791913910497	0.982\\
630.6411665416765	0.982\\
631.4922318259285	0.982\\
632.344935012027	0.982\\
633.197211806367	0.982\\
634.0502644373801	0.982\\
634.9007065921749	0.982\\
635.7515180784972	0.982\\
636.6094034767489	0.982\\
637.4666625206501	0.982\\
638.3240783905117	0.982\\
639.178885972239	0.982\\
640.0342490455507	0.982\\
640.8890761166272	0.982\\
641.7459221544823	0.982\\
642.6035494838072	0.982\\
643.4630283298936	0.982\\
644.3219722005676	0.982\\
645.1794339942369	0.982\\
646.0374105045746	0.982\\
646.8991804021052	0.982\\
647.7598994199157	0.982\\
648.6237329029043	0.982\\
649.4870767699736	0.982\\
650.3507597921512	0.982\\
651.2186681415271	0.982\\
652.0836076382352	0.982\\
652.9517288000231	0.982\\
653.8188468653268	0.982\\
654.6903703671051	0.982\\
655.5641626497975	0.982\\
656.435493609911	0.982\\
657.3089462873791	0.982\\
658.1845267210783	0.982\\
659.0585996996947	0.982\\
659.9341145828098	0.982\\
660.8118190015616	0.982\\
661.6881306584639	0.982\\
662.565824306432	0.982\\
663.4444746444776	0.982\\
664.3221548240895	0.982\\
665.204575211339	0.982\\
666.0864406733344	0.982\\
666.9696333169716	0.982\\
667.8578732817937	0.982\\
668.7421388817509	0.982\\
669.6305859393929	0.982\\
670.5214296329191	0.982\\
671.4127358253586	0.982\\
672.3028359246834	0.982\\
673.1962775724091	0.982\\
674.0937385907409	0.982\\
674.9906097724006	0.982\\
675.8875200001437	0.982\\
676.7826031287634	0.982\\
677.6796882203228	0.982\\
678.5765221765762	0.982\\
679.4745516511339	0.982\\
680.373783657989	0.982\\
681.2708733475201	0.982\\
682.1721116742938	0.982\\
683.0806497391884	0.982\\
683.9865428265443	0.982\\
684.8936942716509	0.982\\
685.8043069267792	0.982\\
686.7153462476986	0.982\\
687.6250606633862	0.982\\
688.5396905725693	0.982\\
689.4567878379669	0.982\\
690.3731070705091	0.982\\
691.2912551165011	0.982\\
692.2076738032206	0.982\\
693.1289249642675	0.982\\
694.0469093099821	0.982\\
694.9713848982808	0.982\\
695.8975216838471	0.982\\
696.8240024621957	0.982\\
697.7535784218014	0.982\\
698.6853060932522	0.982\\
699.6155693917799	0.982\\
700.5493794877875	0.982\\
701.48268837345	0.982\\
702.4222673908423	0.982\\
703.3619876027153	0.982\\
704.3059900380142	0.982\\
705.2483306534166	0.982\\
706.1937401682442	0.982\\
707.1431858703313	0.982\\
708.0941278213068	0.982\\
709.0425186483678	0.982\\
709.9977031548513	0.982\\
710.9534125162252	0.982\\
711.9122602317427	0.982\\
712.8706601436379	0.982\\
713.8291057691113	0.982\\
714.7931259990485	0.982\\
715.7589098901944	0.982\\
716.7261224951699	0.982\\
717.699397269248	0.982\\
718.669782731831	0.982\\
719.64080087763	0.982\\
720.6136443608334	0.982\\
721.5937652518969	0.982\\
722.5743444349437	0.982\\
723.5601447367092	0.982\\
724.5478328328675	0.982\\
725.5323197967291	0.982\\
726.5190626144094	0.982\\
727.5112552430546	0.982\\
728.5089222596803	0.982\\
729.503313105195	0.982\\
730.5028295950603	0.982\\
731.5036007570432	0.982\\
732.5066780434024	0.982\\
733.5159448453367	0.982\\
734.5249671760125	0.982\\
735.538830578977	0.982\\
736.5550739565849	0.982\\
737.5727353884163	0.982\\
738.5926585719187	0.982\\
739.6117344987306	0.982\\
740.6360902034571	0.982\\
741.6693116871472	0.982\\
742.7010792985927	0.982\\
743.7375361164491	0.982\\
744.7752557104145	0.982\\
745.8134584656725	0.982\\
746.8613280525715	0.982\\
747.9096239956261	0.982\\
748.9586488637633	0.982\\
750.0134949082619	0.982\\
751.0655322537054	0.982\\
752.1286175635366	0.982\\
753.193903842455	0.982\\
754.2622063999816	0.982\\
755.3343434391206	0.982\\
756.4093149350219	0.982\\
757.494512594053	0.982\\
758.5777999875677	0.982\\
759.6650794104512	0.982\\
760.7567871260262	0.982\\
761.8560596996974	0.982\\
762.9549211559286	0.982\\
764.0617857848017	0.982\\
765.1701116354886	0.982\\
766.2874055667394	0.982\\
767.4009666701475	0.982\\
768.5284138247573	0.982\\
769.6555620480549	0.982\\
770.7922976693283	0.982\\
771.9315873426985	0.982\\
773.0747412734197	0.982\\
774.2203775317023	0.982\\
775.3759492112508	0.982\\
776.536503110945	0.982\\
777.7030006573907	0.982\\
778.8725480695566	0.982\\
780.0480236407195	0.982\\
781.2354349155278	0.982\\
782.4289933816428	0.982\\
783.6290900936972	0.982\\
784.8359913714289	0.982\\
785.4170555141759	0.982\\
786.0452186267153	0.982\\
787.2574288562698	0.9843160907172147\\
788.487419021483	0.9887779456353308\\
789.7235253763447	0.9932914598337683\\
790.9660253370357	0.9978134304237793\\
792.2256796518241	1.0023447174649631\\
793.4930534359426	1.0069242704568229\\
794.7693307454679	1.0115173773398074\\
796.0583981101095	1.0161281087534217\\
797.3540755977212	1.0207702100821625\\
798.6594576334842	1.0254211234475041\\
799.9843651825954	1.0300917506344982\\
801.317405084639	1.0348168318117403\\
802.6635210453537	1.0395552611150014\\
804.0313533789702	1.0443243282847017\\
805.4090387658086	1.0491541379366343\\
806.7967350526287	1.0540022496663255\\
808.2064745906639	1.0588689353402834\\
809.6254354725318	1.0637959474744925\\
811.0769156788651	1.068737918347903\\
812.5376828536505	1.0737754210349322\\
814.0255976390322	1.0788270168922554\\
815.525285813641	1.0839539666379594\\
817.0665014250183	1.0891025707957747\\
818.6374001544632	1.0943742107333487\\
820.2276833068386	1.0997270339278808\\
821.8538920058929	1.1051250319149186\\
823.5102190664184	1.1106234501018215\\
825.2146481346504	1.1162014063813541\\
826.934138615358	1.1219180850281505\\
828.6950750430485	1.127661294363343\\
830.4662549519514	1.1335182551558758\\
832.2283598915819	1.1393840433937599\\
833.9707471535862	1.1451946817843515\\
835.6942997862241	1.150915762433821\\
837.3793197335535	1.1565511301406755\\
839.0387271223701	1.1620375749217076\\
840.6656673435566	1.1674186468329746\\
842.2732454857319	1.1726733335573707\\
843.849222971553	1.1778451330360122\\
845.3973231162176	1.1828956670819617\\
846.9235044495094	1.1878380761246574\\
848.4294156807989	1.1926923975059536\\
849.9147480683582	1.1974647112837418\\
851.3867567829382	1.2021548247687937\\
852.8435424900681	1.2067863345197236\\
854.2823508334541	1.211353807614344\\
855.7054942340549	1.2158492147347846\\
857.1256606703882	1.2202804058906223\\
858.5259389566631	1.224687307953557\\
859.9122350746466	1.229017796125465\\
861.2904981012398	1.233290751479944\\
862.6623459555508	1.2375249343636936\\
864.0249247704883	1.2417255999315464\\
865.3816424999745	1.2458842907219794\\
866.733175041034	1.2500117034302345\\
868.0744568116193	1.2541101148422569\\
869.408786639915	1.2581644230291267\\
870.7362416292597	1.2621849144234971\\
872.0575366540372	1.2661720712680975\\
873.3711534669446	1.2701282790909658\\
874.674916217012	1.2740492301497084\\
875.9758237987653	1.2779287140545605\\
877.2710444912564	1.281787806158368\\
877.5290807741067	1.2856182586618743\\
877.6981463044594	1.2863791985235435\\
878.2453122553572	1.286877472784301\\
878.3081011681045	1.2884893320580966\\
878.3258600089553	1.2886740772985714\\
878.342312859053	1.288726322285562\\
878.4434500645737	1.2887747231501567\\
878.8101925747385	1.2890722312863587\\
879.8641884010667	1.2901507384161786\\
881.1847366104475	1.2932472094042025\\
882.523814660939	1.2971169570550463\\
883.87395069544	1.3010288248536988\\
885.2330533332697	1.3049605989909088\\
886.6125490792956	1.3089059542870967\\
888.0030079835806	1.312897748592382\\
889.4159541763775	1.3169082725757284\\
890.8374945988637	1.3209703937916073\\
892.2813645055937	1.3250437307840008\\
893.7411970037163	1.3291673113993254\\
895.2212224435054	1.3333224349669948\\
896.7174665908929	1.3375206957382821\\
898.2320078067501	1.3417503344583233\\
899.777160610669	1.346016790930305\\
901.3358402815049	1.350354146291283\\
902.9171207634668	1.3547137776222045\\
904.5196476020985	1.3591206277319743\\
906.1541388445407	1.3635703208900067\\
907.8145244859923	1.3680919203239799\\
909.5016087426995	1.3726677852269822\\
911.2069684140943	1.377299388700468\\
912.9255360947886	1.3819629384221899\\
914.655776690106	1.3866441383776988\\
916.3950851135339	1.3913384911929563\\
918.1248658630152	1.3960386757842538\\
919.8546172749998	1.4006944592491353\\
921.5798237561507	1.4053316982168664\\
923.2856651989744	1.4099384330545468\\
924.9769239037937	1.414475495323575\\
926.6432897507241	1.4189562466509198\\
928.302353572564	1.4233540216529947\\
929.9480154953064	1.4277158918392123\\
931.5660886365235	1.4320261840438442\\
933.1776319577411	1.4362483644466644\\
934.7713520156533	1.4404380413290805\\
936.3420443039595	1.4445662291089185\\
937.900348752373	1.4486200726776086\\
939.4540185279202	1.4526276335601747\\
940.9926272951539	1.4566091785136153\\
942.5231858566062	1.460538278275137\\
944.0436090467108	1.4644332340377768\\
945.5556133811062	1.4682890324286446\\
947.063250406869	1.4721103346415605\\
948.5566862317894	1.4759076182382416\\
950.0396838467411	1.4796563736373112\\
951.5203598219664	1.4833664282350583\\
952.9938865207196	1.487058330115541\\
954.4572341991272	1.4907201953801543\\
955.9142326286169	1.4943447498721372\\
957.3648891861981	1.4979417454882022\\
958.8122838229056	1.5015114035607864\\
960.2560189476369	1.5050614773826898\\
961.6974878045082	1.5085911207655076\\
963.1383575561999	1.5121038620735465\\
964.5709535915216	1.5156038500904876\\
965.9911993925193	1.5190725672213046\\
967.4106428898056	1.522500414876453\\
968.8337567089025	1.5259154983224201\\
970.2536017879781	1.5293286038179381\\
971.6684585885691	1.5327231055924724\\
973.0795239999711	1.5360950238883513\\
974.4877972170432	1.5394473564383873\\
975.8895983484097	1.5427825958764751\\
977.2947804758128	1.5460921597426607\\
978.6907834441333	1.5493994166747251\\
980.0854779406657	1.5526748697706156\\
981.480217790802	1.5559371651175673\\
982.8684072057381	1.5591895268649663\\
984.2575211471321	1.5624166634983894\\
985.6417046990966	1.5656360741505115\\
987.0266019790156	1.5688342526882362\\
988.4074861428969	1.5720243397823486\\
989.7955884315245	1.5751955054176943\\
991.1803343878266	1.5783735794973996\\
992.556751362079	1.5815343170596314\\
993.9388054415213	1.5846665119219003\\
995.3166728237077	1.587802051565567\\
995.55215311962	1.5909186406820712\\
995.7939388416564	1.591449761250038\\
996.0229721640283	1.591994822858808\\
996.2514330497622	1.5925108651953663\\
996.4812951198396	1.5930253606667897\\
996.7224866266527	1.5935427536148161\\
996.9626770506836	1.5940853748078871\\
997.2041283909491	1.5946254597893246\\
997.4446577260835	1.595168095717482\\
997.6750727561798	1.5957083752069403\\
997.9159285152925	1.5962256654159588\\
998.1488856449992	1.5967661232042545\\
998.3841183545467	1.5972885836345294\\
998.6277608527478	1.5978158797963462\\
998.8705615559663	1.5983617469128026\\
999.0777242298566	1.5989054396255822\\
999.2934074027773	1.599369087070637\\
999.509436209107	1.5998515859066311\\
999.7485741627636	1.600334631169528\\
999.9699924450167	1.600869095903171\\
1000.1916928484648	1.6013637017692928\\
1000.4245372067046	1.6018586994006399\\
1000.6587396311409	1.6023783270777407\\
1000.9033335942529	1.6029007208726789\\
1001.1435138573054	1.6034460147223641\\
1001.3875221798696	1.6039811845437981\\
1001.6172620912225	1.604524600079541\\
1001.8512606586419	1.605035969285952\\
1002.0923777229852	1.605556557514101\\
1002.3103583887205	1.6060927095430726\\
1002.555116014872	1.6065771630672943\\
1002.7719707076576	1.6071208678613766\\
1003.0084896397962	1.6076023352207562\\
1003.2455971455729	1.6081272131578144\\
1003.4919155102184	1.608653127270863\\
1003.7374785692887	1.6091991897888653\\
1003.9720274710335	1.6097432872096866\\
1004.1902055711219	1.6102627046255487\\
1004.4332162182595	1.6107456238428794\\
1004.6685167084156	1.6112832516049602\\
1004.9030061672188	1.6118035482316275\\
1005.1505421099785	1.6123217873086122\\
1005.3982570309627	1.6128685812330898\\
1005.6324290677312	1.613415477234059\\
1005.8666781815841	1.6139321975454048\\
1006.0949192483504	1.614448825964102\\
1006.3416038273281	1.6149519491309832\\
1006.588105597175	1.6154954582829009\\
1006.8219280745927	1.6160382748870754\\
1007.0664190981292	1.616552897149708\\
1007.3114712150498	1.617090727052199\\
1007.5313611874151	1.6176295063004353\\
1007.7560293015649	1.6181127089875793\\
1008.002291452661	1.6186061765993685\\
1008.2518437899719	1.619146809756311\\
1008.4907653829066	1.6196943743679353\\
1008.7354956002098	1.620218331417762\\
1008.9826040173534	1.6207547495240955\\
1009.2289594935339	1.6212960940266998\\
1009.469188246157	1.6218355012838774\\
1009.7048717738351	1.622361214642666\\
1009.9430234130641	1.6228767143343024\\
1010.1940539158675	1.6233973474345513\\
1010.4460588088582	1.6239458527010424\\
1010.6978498861165	1.6244961889348581\\
1010.9424036048672	1.625045759558288\\
1011.193047315789	1.625579244507434\\
1011.4355347186145	1.6261257259735165\\
1011.6879989135305	1.626654139301424\\
1011.9409282203637	1.6272040053325945\\
1012.1616521605363	1.6277545848734314\\
1012.3866721542115	1.628234799964591\\
1012.6253341790798	1.6287241288290735\\
1012.8747037019314	1.6292428713622429\\
1013.1166657202211	1.629784607982683\\
1013.3603363163843	1.6303099709461972\\
1013.6125323121114	1.6308387682433592\\
1013.8635275755546	1.6313857793793303\\
1014.1085942092741	1.6319298910845728\\
1014.3616928758656	1.6324608644678236\\
1014.613610256855	1.6330089510613472\\
1014.8587793590864	1.633554183046654\\
1015.1051149292232	1.6340845229351135\\
1015.3535552950634	1.6346171054597658\\
1015.5952519719729	1.6351539543721305\\
1015.8322411596021	1.6356759529898937\\
1016.0663599215293	1.636187519582378\\
1016.3211149305009	1.636692633290958\\
1016.5675531631612	1.6372419923129033\\
1016.8244041142832	1.6377731271351932\\
1017.0728025249225	1.6383264106097715\\
1017.330551352348	1.6388611924526022\\
1017.5788876338759	1.6394158088577724\\
1017.8321434644661	1.6399498771987866\\
1018.0828142316179	1.6404942353291045\\
1018.3415479691796	1.6410327449605728\\
1018.5973786086558	1.641588277102519\\
1018.8561828715428	1.642137271912266\\
1019.115725576929	1.6426923435849026\\
1019.3658594458568	1.6432486907067192\\
1019.6238764718087	1.6437845723391995\\
1019.8721233262445	1.6443370463566347\\
1020.1292864576249	1.6448683076152413\\
1020.3831171627619	1.6454183574235945\\
1020.6314891281575	1.6459609812833955\\
1020.8918172706315	1.6464916481785368\\
1021.1505227701584	1.6470475643703848\\
1021.4111963555931	1.6475997084329808\\
1021.6743707082439	1.6481557453954847\\
1021.9372823618808	1.6487168040818794\\
1022.1916812189077	1.6492769878941342\\
1022.4410540092392	1.6498187300726856\\
1022.6949000738616	1.6503494813862343\\
1022.9503279874814	1.650889465672286\\
1023.1996220689016	1.6514325206442826\\
1023.4622772896216	1.6519622465317703\\
1023.7191716935456	1.6525200659857133\\
1023.9804609692669	1.6530653458352567\\
1024.2429669638068	1.6536196502990745\\
1024.5054136311192	1.6541762259156692\\
1024.7694871558438	1.654732364694738\\
1025.027840408085	1.6552916380906693\\
1025.2957396514544	1.6558384895710905\\
1025.561963306578	1.6564052344083806\\
1025.8259565486378	1.6569681136535155\\
1026.0829767747296	1.6575259612317956\\
1026.3492319891616	1.6580687696642125\\
1026.6104763825092	1.658630773807158\\
1026.86841148451	1.659181889567663\\
1027.1280296550362	1.659725722303325\\
1027.397362620458	1.6602728035839074\\
1027.6662733332569	1.6608400427379537\\
1027.9335939427401	1.6614060687430898\\
1028.197694809247	1.6619684266865704\\
1028.4683795499523	1.6625236963522179\\
1028.7384515843228	1.6630924891658072\\
1028.9906091705557	1.6636596686944392\\
1029.22307106188	1.6641889239508112\\
1029.465017727478	1.6646765801842478\\
1029.7370044961795	1.6651838827638903\\
1030.0013790297976	1.6657538774176677\\
1030.26383152659	1.6663076006150934\\
1030.5131818239538	1.6668569904901909\\
1030.7781453465027	1.6673786644166375\\
1031.0516955157232	1.667932709531454\\
1031.3222395491907	1.6685043881119972\\
1031.5812253757535	1.6690694572642175\\
1031.8553290027544	1.6696100766881237\\
1032.1249571752128	1.6701819392156343\\
1032.3950830202466	1.6707441388956277\\
1032.6685022994857	1.6713070552063225\\
1032.9414442876441	1.6718765092066803\\
1033.210629149682	1.6724446407907796\\
1033.4853969889987	1.6730046291107912\\
1033.7613389710236	1.6735759064328735\\
1034.0370506550735	1.6741492920575036\\
1034.2977065485852	1.674721865491514\\
1034.5680330229457	1.6752628585133387\\
1034.8414189817563	1.6758236136970126\\
1035.1208834030322	1.6763903918284697\\
1035.3945054572578	1.676969437295128\\
1035.672912923888	1.6775360439200986\\
1035.9296838385076	1.6781122272322602\\
1036.210737581333	1.678643321962495\\
1036.488364926316	1.6792243261768403\\
1036.7606332545424	1.6797979078129082\\
1037.04339495052	1.6803600892733472\\
1037.3221775066345	1.6809436022009692\\
1037.592130982277	1.6815185617119375\\
1037.8605800736354	1.6820749863075557\\
1038.13803524375	1.6826279960772972\\
1038.4202660144692	1.683199235318663\\
1038.6844025720584	1.6837799676254415\\
1038.9593002162196	1.684323147261421\\
1039.2440197453088	1.6848881419587118\\
1039.4983792384796	1.6854729849544126\\
1039.7786404050516	1.6859951549440924\\
1040.060253140915	1.6865701890188487\\
1040.3413252760797	1.6871476563077112\\
1040.6015082622862	1.6877236745911797\\
1040.890117725517	1.6882565704957138\\
1041.1768399733255	1.6888473638131787\\
1041.4430609962692	1.689433938995597\\
1041.72068196488	1.6899782469609528\\
1042.002923169714	1.6905455455735214\\
1042.2909812694543	1.6911219496361123\\
1042.5646446917926	1.691709885118351\\
1042.840787131202	1.6922681047790706\\
1043.1050945539346	1.6928310583933168\\
1043.3989664694022	1.6933695741923902\\
1043.692356516186	1.6939679933531027\\
1043.9828432363847	1.694565064189467\\
1044.259021490293	1.695155864181091\\
1044.5209199875521	1.6957172231813353\\
1044.7927395742586	1.696249250936734\\
1045.0851762832795	1.6968011299637649\\
1045.368681531499	1.6973945297780708\\
1045.6506504374047	1.6979694556779814\\
1045.940668053996	1.6985409277880028\\
1046.230456244576	1.6991283660476406\\
1046.5221898741465	1.6997149845540274\\
1046.7956347497225	1.7003051842383656\\
1047.082765943042	1.7008580491176652\\
1047.3493869027693	1.7014382539588606\\
1047.6461017754395	1.701976692846714\\
1047.9330949089813	1.702575571316221\\
1048.2085137395402	1.7031544705584216\\
1048.5063221950345	1.7037096919093835\\
1048.8097182060064	1.7043097032405725\\
1049.1058453106562	1.7049205930282065\\
1049.3856870062627	1.7055164710954784\\
1049.6759672936846	1.7060792334009987\\
1049.9765761853623	1.7066626475014792\\
1050.2800109783957	1.7072664552123622\\
1050.5652930156907	1.70787555828659\\
1050.8586963295352	1.7084478625563215\\
1051.1571295094786	1.7090361097797628\\
1051.454201957887	1.709634076748554\\
1051.7641260946975	1.7102289487622921\\
1052.0691436218772	1.7108491723132273\\
1052.3724506871026	1.711459184774053\\
1052.6765470365413	1.7120653930302803\\
1052.9785256063165	1.712672796740836\\
1053.2561962543368	1.7132755905541237\\
1053.5660360523625	1.7138295170272864\\
1053.8636380383896	1.714447260363642\\
1054.173178760076	1.7150402248573944\\
1054.4703461248246	1.7156565964056167\\
1054.7714025764426	1.716247951506329\\
1055.0636647315937	1.7168466774041045\\
1055.3753160766469	1.7174275524898783\\
1055.6575902679929	1.718046588452692\\
1055.9723147698505	1.7186069131091708\\
1056.2815640410272	1.7192312864304908\\
1056.5915887884426	1.7198443993133892\\
1056.8990039095124	1.720458657284548\\
1057.2130572498631	1.7210673553168192\\
1057.494599749286	1.7216888026364323\\
1057.7820216442024	1.7222455588279004\\
1058.1012455818227	1.7228136114310089\\
1058.4012773125	1.7234441408884784\\
1058.701963935804	1.7240363734947182\\
1059.0110233047262	1.7246295320265888\\
1059.321776579041	1.7252388293598644\\
1059.6385417130837	1.7258510763695156\\
1059.956105929165	1.726474768559877\\
1060.2689916719855	1.7270996266858332\\
1060.6126745037454	1.7277148774984379\\
1060.935804919346	1.7283902501695798\\
1061.2380836219922	1.7290247881643936\\
1061.5359165784125	1.7296179865363568\\
1061.8744453035683	1.7302020979862571\\
1062.20039522455	1.7308656135058138\\
1062.5082150813078	1.73150403165315\\
1062.8373316747225	1.7321065375771911\\
1063.1452266442411	1.7327503202906633\\
1063.473570359347	1.7333521865228443\\
1063.7927861602093	1.7339936192201826\\
1064.1016022554013	1.7346168013144303\\
1064.406499088043	1.7352192873551242\\
1064.7422072933846	1.7358137512868126\\
1065.0711222649911	1.7364678783899106\\
1065.394461056751	1.7371083291827456\\
1065.7183734657947	1.7377374991181873\\
1066.021961392199	1.738367368575168\\
1066.3467515467896	1.738957326125568\\
1066.6728113135932	1.7395880928501046\\
1067.0060323765274	1.7402209051583264\\
1067.3172990288854	1.7408671850692872\\
1067.653038258727	1.7414704753211057\\
1067.958657176273	1.7421207830103638\\
1068.2877838008785	1.7427123457987\\
1068.621611359457	1.7433490122357909\\
1068.9404957432503	1.7433490122357909\\
1069.2586129376987	1.7433490122357909\\
1069.5663738651556	1.7433490122357909\\
1069.894107832407	1.7433490122357909\\
1070.2335720437422	1.7433490122357909\\
1070.5710942455612	1.7433490122357909\\
1070.8804078252097	1.7433490122357909\\
1071.1810450182352	1.7433490122357909\\
1071.5343049917155	1.7433490122357909\\
1071.8630145203228	1.7433490122357909\\
1072.1724992321278	1.7433490122357909\\
1072.5098488789035	1.7433490122357909\\
1072.859649115363	1.7433490122357909\\
1073.2145962893533	1.7433490122357909\\
1073.5428545330947	1.7433490122357909\\
1073.870449588915	1.7433490122357909\\
1074.206800562034	1.7433490122357909\\
1074.524164529123	1.7433490122357909\\
1074.8807493341656	1.7433490122357909\\
1075.2243530342907	1.7433490122357909\\
1075.5699150045339	1.7433490122357909\\
1075.9060106616516	1.7433490122357909\\
1076.2436371571353	1.7433490122357909\\
1076.569133148968	1.7433490122357909\\
1076.8886924280082	1.7433490122357909\\
1077.2408391737613	1.7433490122357909\\
1077.580733126165	1.7433490122357909\\
1077.9154064882532	1.7433490122357909\\
1078.2497053626257	1.7433490122357909\\
1078.6054494159193	1.7433490122357909\\
1078.930217392282	1.7433490122357909\\
1079.2962114378693	1.7433490122357909\\
1079.6383512777757	1.7433490122357909\\
1079.993985322636	1.7433490122357909\\
1080.3296387547848	1.7433490122357909\\
1080.6756370267976	1.7433490122357909\\
1081.0164154716158	1.7433490122357909\\
1081.3823775253709	1.7433490122357909\\
1081.7216544998091	1.7433490122357909\\
1082.0989277243762	1.7433490122357909\\
1082.4455638352301	1.7433490122357909\\
1082.7852871105329	1.7433490122357909\\
1083.1266838592915	1.7433490122357909\\
1083.4609693966554	1.7433490122357909\\
1083.8087905227267	1.7433490122357909\\
1084.1458176284414	1.7433490122357909\\
1084.4740417238122	1.7433490122357909\\
1084.8394891680705	1.7433490122357909\\
1085.194436973517	1.7433490122357909\\
1085.515014281471	1.7433490122357909\\
1085.8641533066493	1.7433490122357909\\
1086.224848062188	1.7433490122357909\\
1086.5631678684276	1.7433490122357909\\
1086.9522228248134	1.7433490122357909\\
1087.3108461493084	1.7433490122357909\\
1087.6924122294818	1.7433490122357909\\
1088.0364759638906	1.7433490122357909\\
1088.4079856664785	1.7433490122357909\\
1088.7473970326746	1.7433490122357909\\
1089.0845475030478	1.7433490122357909\\
1089.4371928215633	1.7433490122357909\\
1089.7961583762103	1.7433490122357909\\
1090.136602928731	1.7433490122357909\\
1090.47727234901	1.7433490122357909\\
1090.8519300782086	1.7433490122357909\\
1091.2017026873268	1.7433490122357909\\
1091.5465769117259	1.7433490122357909\\
1091.8789379207547	1.7433490122357909\\
1092.2511164408725	1.7433490122357909\\
1092.6305469684617	1.7433490122357909\\
1092.9857430472357	1.7433490122357909\\
1093.3261883948107	1.7433490122357909\\
1093.6850288264318	1.7433490122357909\\
1094.0600528177433	1.7433490122357909\\
1094.4095814712387	1.7433490122357909\\
1094.7676970301172	1.7433490122357909\\
1095.140219045451	1.7433490122357909\\
1095.4796185687728	1.7433490122357909\\
1095.8445807034395	1.7433490122357909\\
1096.240923235	1.7433490122357909\\
1096.6071913040973	1.7433490122357909\\
1096.9744702983994	1.7433490122357909\\
1097.3478320611944	1.7433490122357909\\
1097.7092611433795	1.7433490122357909\\
1098.052259119038	1.7433490122357909\\
1098.3830981411234	1.7433490122357909\\
1098.7679066547003	1.7433490122357909\\
1099.1182311708108	1.7433490122357909\\
1099.501845591611	1.7433490122357909\\
1099.8519941043942	1.7433490122357909\\
1099.8739904291315	1.7433490122357909\\
1100.257633401488	1.7432536467171675\\
1100.6198283848803	1.7415904055185965\\
1100.9997974317544	1.7400202377639444\\
1101.3458149857215	1.7383731087286205\\
1101.6824465376862	1.7368732378725404\\
1102.0304229383946	1.7354141269232535\\
1102.4098633042427	1.7339059197341529\\
1102.7652095959647	1.7322614302827493\\
1103.1317628234356	1.7307214488685192\\
1103.5015665543392	1.7291329851199357\\
1103.89224936534	1.727530523379846\\
1104.2640802385372	1.7258376828622197\\
1104.6329606686645	1.724226619930251\\
1104.9987257266862	1.7226284287968112\\
1105.3841502342025	1.7210438217836317\\
1105.7882062768322	1.7193741372336562\\
1106.1692625645178	1.7176238422920078\\
1106.548335446675	1.7159732741601732\\
1106.922392588608	1.7143313898375752\\
1107.3150541007676	1.712711320699758\\
1107.690464721281	1.7110107712222442\\
1108.0681493321754	1.7093850247968692\\
1108.4515882226374	1.7077495217579757\\
1108.8499944328169	1.706089194118766\\
1109.2274185119818	1.704364156132331\\
1109.5970254016347	1.7027300611240106\\
1110.0237643766313	1.7011298995763053\\
1110.4112140392444	1.699282501054839\\
1110.7990425371295	1.6976052907260388\\
1111.1848006164737	1.6959265362749991\\
1111.568230636181	1.694256838848383\\
1111.9650677169188	1.6925973119232913\\
1112.3652412240908	1.6908798562250977\\
1112.7515290978922	1.6891480622721406\\
1113.1405520048347	1.6874764563536604\\
1113.5298463411818	1.685793110676678\\
1113.9278436510763	1.6841086865822286\\
1114.2908345563615	1.6823867052038177\\
1114.6707368839611	1.6808162705802223\\
1115.0540324180265	1.6791727601648427\\
1115.4388297972018	1.6775146628308106\\
1115.8118023867482	1.6758501621433757\\
1116.2194112956195	1.6742369007567357\\
1116.6060231706392	1.6724739234298223\\
1116.9882595433687	1.6708018587815376\\
1117.3799659333986	1.6691488105883079\\
1117.768055750495	1.6674549032994084\\
1118.1717203188282	1.6657767310767797\\
1118.5577076279537	1.6640313115042056\\
1118.9773774743462	1.6623624233106749\\
1119.3572475131455	1.6605480088898041\\
1119.75285782238	1.6589057619041752\\
1120.1220928796733	1.657195563459108\\
1120.5230914200633	1.655599472442745\\
1120.909274450441	1.6538661747140582\\
1121.2863277440501	1.6521970119596707\\
1121.6812917413995	1.650567400306917\\
1122.0759854926914	1.648860475058285\\
1122.4709217713848	1.647154815696613\\
1122.866156058663	1.645448206247817\\
1123.2596746140157	1.6437404071409705\\
1123.634574220709	1.6420401191563148\\
1124.0224566539673	1.6404203691035448\\
1124.4334937421709	1.6387446197636706\\
1124.827155185416	1.6369689395819345\\
1125.202379950635	1.6352684215914823\\
1125.6001560748905	1.6336476359185437\\
1126.013626944888	1.631929535983149\\
1126.4178113457897	1.630143751523911\\
1126.8246499300212	1.6283981790651567\\
1127.2191030296776	1.6266412473294602\\
1127.6232893633032	1.6249379014121597\\
1128.023158669912	1.6231926262191934\\
1128.4255677572705	1.6214660927604176\\
1128.8141770747916	1.6197286944209406\\
1129.2041214222654	1.6180509728893546\\
1129.6189558684396	1.6163675829212103\\
1130.0129075532782	1.6145768470907131\\
1130.3907317144453	1.6128763568155313\\
1130.7823971363819	1.6112455723782089\\
1131.1985372743075	1.6095551401202624\\
1131.6069608928483	1.6077591801929227\\
1132.0001853030599	1.6059966285665468\\
1132.406891434282	1.6042997680385553\\
1132.8144457614562	1.602544832680174\\
1133.2284751397933	1.6007863415515702\\
1133.6307216245423	1.5990000190806863\\
1134.0265232683623	1.5972646368308854\\
1134.4233753299527	1.59555715832033\\
1134.8295100161708	1.5938452471846705\\
1135.2248456080506	1.592093395852074\\
1135.6267084784981	1.590388225742291\\
1136.0017084353672	1.5886550027776796\\
1136.4040372536333	1.587037730421637\\
1136.8106116375207	1.585302694561547\\
1137.2060469065264	1.583549453286351\\
1137.5949908288112	1.5818443462592529\\
1137.9613244285179	1.5801673258451348\\
1138.3747704261327	1.578587882169686\\
1138.750400144032	1.576805415479793\\
1139.1471854306583	1.5751860774631021\\
1139.5463588785428	1.573475634566115\\
1139.9307254798568	1.5717549971633757\\
1140.3303177445914	1.5700982797638585\\
1140.7399212330033	1.5683760348483535\\
1141.1360165343654	1.5666107462423748\\
1141.5313695276254	1.5649037754420472\\
1141.9415852257875	1.5632001025971274\\
1142.341218688564	1.5614324873094247\\
1142.7416274591242	1.5597105732558338\\
1143.1505972188347	1.5579854201135028\\
1143.5412098142683	1.5562234870693636\\
1143.9212087046221	1.554540739871071\\
1144.3123503751617	1.55290380915228\\
1144.6914926132372	1.5512189742143931\\
1145.0930494650775	1.5495859194201924\\
1145.4964407624775	1.5478564193245234\\
1145.8927636200256	1.5461191216352221\\
1146.2876347873694	1.5444123667458856\\
1146.6735892442275	1.5427119630843702\\
1147.073608356382	1.541050052874343\\
1147.4751375552291	1.5393276809393144\\
1147.882338025177	1.5375989097583656\\
1148.2797665880216	1.5358458263324521\\
1148.6771344218446	1.5341349152774377\\
1149.0757930858376	1.5324243667333084\\
1149.4936496183245	1.5307083631939271\\
1149.894045324832	1.5289098328834012\\
1150.2897729274737	1.5271865622320377\\
1150.6898304662486	1.5254834838724585\\
1151.0931580366555	1.5237618732270017\\
1151.5028479916418	1.5220262945132643\\
1151.9001610227624	1.5202634447266816\\
1152.2986457789511	1.518553954751908\\
1152.6999798885222	1.516839525543575\\
1153.0968268862093	1.5151129409698145\\
1153.4995556733866	1.5134057627938469\\
1153.9041196479047	1.5116733861485767\\
1154.3020806501086	1.5099332209891854\\
1154.6967674777716	1.5082215609089324\\
1155.0979256367305	1.5065240847708854\\
1155.487931646603	1.5047988802734094\\
1155.8797361832017	1.5031217365402063\\
1156.2812065945463	1.5014369582598848\\
1156.6837645790097	1.4997107199805924\\
1157.0884817639594	1.4979799108927727\\
1157.4839087643845	1.4962399248976692\\
1157.8850147894932	1.4945399832319777\\
1158.284771198154	1.4928157319230482\\
1158.6844416713047	1.491097387090445\\
1159.0777356992248	1.4893795163772772\\
1159.4673697044436	1.4876891553500178\\
1159.8673792013765	1.4860146251573187\\
1160.267625898433	1.4842956080902934\\
1160.6677298975474	1.4825756771258671\\
1161.0641938455597	1.4808564649133973\\
1161.4647974682716	1.4791529979066507\\
1161.8597985396927	1.477431849666675\\
1162.2642977381993	1.4757348761153872\\
1162.6493347083292	1.4762699821888792\\
1163.0489377727195	1.476086847254286\\
1163.8667473658688	1.475712452144974\\
1164.9879455576101	1.4752000385087438\\
1166.2634387281082	1.4746183343154213\\
1167.470286122838	1.4740691355591464\\
1168.6709823269503	1.4735238900949514\\
1169.8520852765555	1.4729886627479387\\
1171.0488886820913	1.4724474518560078\\
1172.213752054317	1.4719217758889274\\
1173.4094885395612	1.4713832848091444\\
1174.6554780875572	1.470823364180692\\
1175.8544155262553	1.470285742887224\\
1177.1451588905488	1.469708217952305\\
1178.3598869107332	1.469165898956786\\
1179.586233796515	1.4686195644167335\\
1180.8411860253727	1.4680617023642109\\
1182.0994829737178	1.4675035857344194\\
1183.3247754798954	1.466961291281497\\
1184.5276552062169	1.4664300493523266\\
1185.7502234482317	1.4658912598577456\\
1187.0197766164538	1.46533298580275\\
1188.2391698998626	1.4647979385207623\\
1189.4919422068128	1.4642494357842468\\
1190.718017677344	1.4637137875618462\\
1191.9204963046764	1.4631895660129115\\
1193.1943416184608	1.4626354366944057\\
1194.4595993848347	1.4620862670344765\\
1195.7461179284705	1.461529117309977\\
1196.9658351096418	1.4610020564554924\\
1198.130581386622	1.460499800448899\\
1199.4281968834607	1.4599414556670642\\
1200.6741839311098	1.4594065197979929\\
1201.9382848204732	1.4588649997649785\\
1203.3038991683834	1.4582813396415908\\
1204.604277719719	1.457726858010058\\
1205.8882489763441	1.457180610785755\\
1207.1397277526912	1.4566493684338446\\
1208.3936224907743	1.4561182674958315\\
1209.7134867365653	1.455560483421227\\
1210.9915151871405	1.4550216070877977\\
1212.260761663662	1.4544876262924875\\
1213.5636465866655	1.4539407268953835\\
1214.9129109155206	1.4533756731052196\\
1216.2454027883368	1.4528189522284451\\
1217.5655712039502	1.4522686597034835\\
1218.8747856371997	1.451724187977234\\
1220.1767546471706	1.4511839657228567\\
1221.417492098215	1.4506702946650387\\
1222.6114041177598	1.4501770617341192\\
1222.8717859905369	1.4500696287505066\\
1222.9450026460145	1.4500394285394715\\
1222.9749822281665	1.450027063758055\\
1222.9916283052494	1.4500201985287497\\
1223.0401093072087	1.450000204975686\\
1223.040731485205	1.4499999484006625\\
1223.0414193371303	1.4499996647432185\\
1223.04674620782	1.4499974680516992\\
1223.065842372347	1.449989593357613\\
1223.1251495508413	1.4499651385241454\\
1223.2413126567549	1.4499172470391564\\
1223.4892378699965	1.4498150658335562\\
1223.9126000996816	1.4496406825872548\\
1224.6501088504929	1.4493372136532552\\
1225.9695620281454	1.4487952731950617\\
1227.264147029634	1.448264773838754\\
1228.5981757184118	1.44771937946419\\
1229.8293097098604	1.4472171913745757\\
1231.1225140227489	1.4466908595911188\\
1232.4723538934659	1.4461427585868691\\
1233.7668374813798	1.4456183613920253\\
1235.0986194782472	1.4450801047008723\\
1236.4632647650028	1.4445298779162639\\
1237.7968212573578	1.4439934660113274\\
1239.1454519881117	1.443452274079112\\
1240.5292579230395	1.442898304984751\\
1241.8700727162418	1.4423628360343483\\
1243.2758798824957	1.441802771504762\\
1244.63617815823	1.441262159265829\\
1246.0035284148412	1.44072005135136\\
1247.3880874776783	1.4401724525546626\\
1248.843928808274	1.439598103063874\\
1250.2452360942057	1.439046660329591\\
1251.62205023433	1.438506182879898\\
1253.0841443474378	1.4379336642602358\\
1254.5314137513028	1.4373684035978445\\
1255.9273062359275	1.436824575184999\\
1257.2268408659938	1.436319489565228\\
1258.6558671528664	1.4357654101679589\\
1260.0491883782074	1.4352265180956636\\
1261.5009650296902	1.434666424654683\\
1262.875820754794	1.4341373279288996\\
1264.2778547853477	1.4335990917120809\\
1265.653129898505	1.433072419668474\\
1266.9836267907822	1.4325641100445021\\
1268.3283736945746	1.4320515667273068\\
1269.7140848674571	1.4315246800404449\\
1271.0950925842617	1.4310008610074791\\
1272.523854324194	1.430460269473101\\
1273.9140185165802	1.429935587265064\\
1275.4450829829707	1.4293592118234657\\
1276.8565096652837	1.4288292507669964\\
1278.2171520403122	1.4283196048081328\\
1279.5778243902432	1.4278111684377852\\
1280.9910015326177	1.427284402023419\\
1282.3651807060814	1.4267734288041676\\
1283.0883294107302	1.4265050305241525\\
};
\end{axis}
\end{tikzpicture}%
