%CL_vs_GroundDistance
\begin{tikzpicture}

\begin{axis}[
width=\figurewidth,
height=\figureheight,
scaled ticks=false, tick label style={/pgf/number format/fixed},
xmin=0.0,
xmax=1312.5701903971549,
xlabel={Ground distance (m)},
xmajorgrids,
ymin=0.0,
ymax=1.883030610799397,
ylabel={CL },
ymajorgrids,
legend style={at={(1.03,0.5)},anchor=west,draw=black,fill=white,legend cell align=left}
]

\addplot [
color=black,
solid
]
table[row sep=crcr]{
1.3869093119904958E-8	0.982\\
1.6781602652052382E-6	0.982\\
1.647353542553254E-5	0.982\\
6.439931843204793E-5	0.982\\
1.9065297784454734E-4	0.982\\
4.3047238193074354E-4	0.982\\
7.655732019409523E-4	0.982\\
0.0011859140074752068	0.982\\
0.0017125440148558512	0.982\\
0.002325773289020553	0.982\\
0.003048160223602098	0.982\\
0.0038534230156502492	0.982\\
0.0047613423065209805	0.982\\
0.005745362525174262	0.982\\
0.006850362334786895	0.982\\
0.008045979951874255	0.982\\
0.009335229969848511	0.982\\
0.010714092062249835	0.982\\
0.012211839023396752	0.982\\
0.013806134132442	0.982\\
0.015491733619538515	0.982\\
0.017286021718634886	0.982\\
0.01917170370083953	0.982\\
0.021153325972783472	0.982\\
0.023197908476303188	0.982\\
0.025372110745651856	0.982\\
0.027650919608325122	0.982\\
0.03002640709782567	0.982\\
0.03250602794886426	0.982\\
0.035064153728616584	0.982\\
0.037739587901381225	0.982\\
0.04050627233588411	0.982\\
0.04339296545513019	0.982\\
0.04631485534154671	0.982\\
0.049370246086126626	0.982\\
0.052506104134768944	0.982\\
0.05576582072261431	0.982\\
0.05912657968021526	0.982\\
0.06261242875808509	0.982\\
0.06619469567640685	0.982\\
0.06985128555014214	0.982\\
0.0736020022920034	0.982\\
0.07747276990571292	0.982\\
0.08143666552108483	0.982\\
0.08555657348076778	0.982\\
0.08965026933349979	0.982\\
0.0938667719793066	0.982\\
0.09825220225265535	0.982\\
0.10273224426630076	0.982\\
0.10735322574215084	0.982\\
0.112069260754049	0.982\\
0.11689628210681491	0.982\\
0.1218415428471844	0.982\\
0.12687191809557297	0.982\\
0.1319619208160973	0.982\\
0.13718738019241578	0.982\\
0.14259661331750534	0.982\\
0.14809029506440063	0.982\\
0.15357369830174794	0.982\\
0.15919819638502208	0.982\\
0.16499087615582547	0.982\\
0.17085798999819946	0.982\\
0.1767488836171578	0.982\\
0.18282417565258646	0.982\\
0.18901001188117672	0.982\\
0.19541955137153394	0.982\\
0.20194211148581165	0.982\\
0.2083979414026551	0.982\\
0.21505060334870085	0.982\\
0.22184856138038173	0.982\\
0.22872836417933162	0.982\\
0.23574011358716662	0.982\\
0.2429311919259305	0.982\\
0.2501747585817372	0.982\\
0.25754265036543367	0.982\\
0.264908342817759	0.982\\
0.2724992266078814	0.982\\
0.2801550350754869	0.982\\
0.2879703443199304	0.982\\
0.29595569844966996	0.982\\
0.3041777677368186	0.982\\
0.3122504838515201	0.982\\
0.32045351605106465	0.982\\
0.32877567798681406	0.982\\
0.33732345559612786	0.982\\
0.3457968785732404	0.982\\
0.35455004879480934	0.982\\
0.36322843010821737	0.982\\
0.37224776347106225	0.982\\
0.3814675422578342	0.982\\
0.39069394939808333	0.982\\
0.40021984944961075	0.982\\
0.40970638086144073	0.982\\
0.4193138042850624	0.982\\
0.4290893215883308	0.982\\
0.4388805223818275	0.982\\
0.4489093157118843	0.982\\
0.4591350017105895	0.982\\
0.46933643762109933	0.982\\
0.47978785615739383	0.982\\
0.49015856505001654	0.982\\
0.5008453841776759	0.982\\
0.5117123055272812	0.982\\
0.5226460162980606	0.982\\
0.533572747316372	0.982\\
0.5447745348549675	0.982\\
0.5562298797559428	0.982\\
0.567600366819037	0.982\\
0.578894288599904	0.982\\
0.5903104906593495	0.982\\
0.6019807485559185	0.982\\
0.6136659013944394	0.982\\
0.6254808586354892	0.982\\
0.6378084600455878	0.982\\
0.650221596751215	0.982\\
0.6623845470068528	0.982\\
0.6750947014695341	0.982\\
0.6881234944141856	0.982\\
0.7008394740602484	0.982\\
0.7137452297605933	0.982\\
0.7269750316735368	0.982\\
0.7402994320441199	0.982\\
0.7534357647498278	0.982\\
0.7671170049846847	0.982\\
0.7807939104989849	0.982\\
0.7945569619485264	0.982\\
0.8082734465770611	0.982\\
0.8222036351021433	0.982\\
0.8360767896229833	0.982\\
0.8500982100225709	0.982\\
0.8646731983422744	0.982\\
0.8793607873553657	0.982\\
0.894065382079672	0.982\\
0.9089011139339038	0.982\\
0.9239919736344921	0.982\\
0.9394340412729152	0.982\\
0.9547423489749303	0.982\\
0.970675174294443	0.982\\
0.9863792848718844	0.982\\
1.002208661846851	0.982\\
1.0179215544763207	0.982\\
1.0337609107096482	0.982\\
1.0503014712301177	0.982\\
1.066804783640285	0.982\\
1.0831296322942476	0.982\\
1.0994408533815623	0.982\\
1.116418346440463	0.982\\
1.1336682352845933	0.982\\
1.150731246592069	0.982\\
1.1680961354711568	0.982\\
1.185820430454851	0.982\\
1.2034309729936048	0.982\\
1.2210819921068579	0.982\\
1.2391921685259857	0.982\\
1.2578394128071744	0.982\\
1.2758663224890419	0.982\\
1.2939250533341191	0.982\\
1.3123645253841323	0.982\\
1.3313585397842993	0.982\\
1.3501558231949402	0.982\\
1.3689269948012535	0.982\\
1.3884661875180258	0.982\\
1.4079955186177986	0.982\\
1.4277413080765053	0.982\\
1.4474753085187868	0.982\\
1.467471474524118	0.982\\
1.4874730038714024	0.982\\
1.5076485746094725	0.982\\
1.528779072707001	0.982\\
1.549856729170581	0.982\\
1.5705391890214968	0.982\\
1.591502974875028	0.982\\
1.6124327343357	0.982\\
1.6340860465704603	0.982\\
1.655632584097523	0.982\\
1.6772651820367055	0.982\\
1.6994980512063207	0.982\\
1.721597950057515	0.982\\
1.7440842836185761	0.982\\
1.7665148624763156	0.982\\
1.7894019268757413	0.982\\
1.8118513142513648	0.982\\
1.8350799651972478	0.982\\
1.8589544657105512	0.982\\
1.8824641715463515	0.982\\
1.9063286050768564	0.982\\
1.9303889869756765	0.982\\
1.954675897933921	0.982\\
1.9792675008541973	0.982\\
2.0035730438398724	0.982\\
2.028489396329875	0.982\\
2.0527088363919512	0.982\\
2.0778342385147397	0.982\\
2.1026566595076703	0.982\\
2.128062810070972	0.982\\
2.153823736621862	0.982\\
2.180467341008873	0.982\\
2.2064974833486524	0.982\\
2.232410286985835	0.982\\
2.258124290236183	0.982\\
2.284198358897303	0.982\\
2.3109907545635844	0.982\\
2.338507592131256	0.982\\
2.365858627797544	0.982\\
2.3928349543589578	0.982\\
2.420181218100314	0.982\\
2.4474885549694756	0.982\\
2.4755345553349413	0.982\\
2.5035521109052974	0.982\\
2.5318582520347146	0.982\\
2.5601654147156543	0.982\\
2.5893803207167227	0.982\\
2.618052895252129	0.982\\
2.6469831691506576	0.982\\
2.6762887530321082	0.982\\
2.706492091133014	0.982\\
2.7366919356807857	0.982\\
2.766406065169848	0.982\\
2.795586340488235	0.982\\
2.82634455478047	0.982\\
2.857819561913467	0.982\\
2.888649095672255	0.982\\
2.9195647508814746	0.982\\
2.9499278887128817	0.982\\
2.9807127613820956	0.982\\
3.0126969188116073	0.982\\
3.043847060235108	0.982\\
3.076334856582169	0.982\\
3.1086015272875143	0.982\\
3.140964801898045	0.982\\
3.174188884488247	0.982\\
3.207092578614164	0.982\\
3.239991883613249	0.982\\
3.272907436279824	0.982\\
3.3064913831472174	0.982\\
3.340495156793697	0.982\\
3.374570177552002	0.982\\
3.4085233373546657	0.982\\
3.4431165891888	0.982\\
3.4779810908677407	0.982\\
3.51357856529118	0.982\\
3.5493632570290323	0.982\\
3.584600538576524	0.982\\
3.6191347389445756	0.982\\
3.655447285266705	0.982\\
3.6916721187231216	0.982\\
3.727886000248427	0.982\\
3.7645089513334593	0.982\\
3.8019144243484035	0.982\\
3.8384332556175487	0.982\\
3.8760586370089953	0.982\\
3.913951103120721	0.982\\
3.9508541174182126	0.982\\
3.990068504343009	0.982\\
4.029200010708983	0.982\\
4.068093121762725	0.982\\
4.1071219657086875	0.982\\
4.146396414792356	0.982\\
4.185816498640818	0.982\\
4.224844990909782	0.982\\
4.26420603458326	0.982\\
4.305376002828089	0.982\\
4.34658025371532	0.982\\
4.38735130541415	0.982\\
4.428594226092558	0.982\\
4.469562014000886	0.982\\
4.511015746058332	0.982\\
4.552797086705496	0.982\\
4.595031459793169	0.982\\
4.638699308354287	0.982\\
4.682207241331252	0.982\\
4.7252173116443394	0.982\\
4.768618055967824	0.982\\
4.812010584227675	0.982\\
4.855940569181	0.982\\
4.899642374160813	0.982\\
4.9433626607637855	0.982\\
4.988109023744494	0.982\\
5.033526709121988	0.982\\
5.078648137242995	0.982\\
5.122987590154207	0.982\\
5.168844677132833	0.982\\
5.214484660301688	0.982\\
5.259310474278417	0.982\\
5.305777826910848	0.982\\
5.351406434373011	0.982\\
5.398094081321537	0.982\\
5.446888200321448	0.982\\
5.494714444093429	0.982\\
5.541807048552167	0.982\\
5.589227685908444	0.982\\
5.638198553988488	0.982\\
5.685090463779236	0.982\\
5.733269165403026	0.982\\
5.782181510572503	0.982\\
5.83242326565826	0.982\\
5.88152931463666	0.982\\
5.931528981494198	0.982\\
5.98198270843927	0.982\\
6.033125094179418	0.982\\
6.084375535972967	0.982\\
6.135973945945917	0.982\\
6.187907328495919	0.982\\
6.240385864152662	0.982\\
6.291258754428256	0.982\\
6.343645944929829	0.982\\
6.395944061254735	0.982\\
6.45010592291494	0.982\\
6.5034019806422005	0.982\\
6.557222553529764	0.982\\
6.611914519487845	0.982\\
6.666262792946119	0.982\\
6.721130022513055	0.982\\
6.776611308278962	0.982\\
6.830253383581329	0.982\\
6.886334845837908	0.982\\
6.941659394737563	0.982\\
6.997352302356317	0.982\\
7.054420058545775	0.982\\
7.110930763843873	0.982\\
7.167900896664538	0.982\\
7.225911381601177	0.982\\
7.282807108769738	0.982\\
7.340371040476326	0.982\\
7.3988915374885345	0.982\\
7.458574772874121	0.982\\
7.516552151345696	0.982\\
7.5775866281113515	0.982\\
7.637147897643995	0.982\\
7.697324697913386	0.982\\
7.757729406844822	0.982\\
7.817590447566081	0.982\\
7.879326117406196	0.982\\
7.9415318697231	0.982\\
8.003477574378273	0.982\\
8.065945557956294	0.982\\
8.12886380803361	0.982\\
8.190877255917385	0.982\\
8.25438450473002	0.982\\
8.316892853931492	0.982\\
8.379196417797669	0.982\\
8.44277422293986	0.982\\
8.508282170370755	0.982\\
8.572413265126183	0.982\\
8.636549661237726	0.982\\
8.702302446472519	0.982\\
8.7686368668423	0.982\\
8.833503540477455	0.982\\
8.899728313389012	0.982\\
8.96526583631698	0.982\\
9.032087210166736	0.982\\
9.098267291220708	0.982\\
9.165552728118161	0.982\\
9.233109586221008	0.982\\
9.301374261044419	0.982\\
9.370927371226973	0.982\\
9.440221785138014	0.982\\
9.510251236066548	0.982\\
9.578926399070099	0.982\\
9.648683368676586	0.982\\
9.719694069154592	0.982\\
9.79143055970954	0.982\\
9.861993801919944	0.982\\
9.932891380397528	0.982\\
10.004615160870873	0.982\\
10.07632339997635	0.982\\
10.149587788360982	0.982\\
10.2229521415215	0.982\\
10.295386772412222	0.982\\
10.368128892335267	0.982\\
10.44265781948009	0.982\\
10.518193191318808	0.982\\
10.5933837124742	0.982\\
10.668912206559273	0.982\\
10.745456035585427	0.982\\
10.821596006859231	0.982\\
10.896513279475869	0.982\\
10.97461621039525	0.982\\
11.050262979984193	0.982\\
11.126720276839343	0.982\\
11.205678217165648	0.982\\
11.283068305392277	0.982\\
11.361574299345556	0.982\\
11.442234489651238	0.982\\
11.520725886475706	0.982\\
11.599720478431518	0.982\\
11.679105694164441	0.982\\
11.760861412016528	0.982\\
11.84140976521903	0.982\\
11.922743637450814	0.982\\
12.003764517153495	0.982\\
12.08532817832063	0.982\\
12.16758216038535	0.982\\
12.248972239747367	0.982\\
12.332158014002438	0.982\\
12.41614155330591	0.982\\
12.497487128281943	0.982\\
12.580769125858549	0.982\\
12.664465528620653	0.982\\
12.750279420338941	0.982\\
12.837017108906164	0.982\\
12.921917420043762	0.982\\
13.010509666581672	0.982\\
13.097198826708176	0.982\\
13.183980144969741	0.982\\
13.26992679861213	0.982\\
13.35848221707279	0.982\\
13.445104847913008	0.982\\
13.534576381547087	0.982\\
13.622875897105779	0.982\\
13.715271886287411	0.982\\
13.806040699621455	0.982\\
13.895428664804395	0.982\\
13.987346601643246	0.982\\
14.080007563742996	0.982\\
14.1716964042215	0.982\\
14.263562183911276	0.982\\
14.355213777099816	0.982\\
14.446250666513638	0.982\\
14.538528550482052	0.982\\
14.633387866849468	0.982\\
14.72907157606587	0.982\\
14.822982400900749	0.982\\
14.91752733255468	0.982\\
15.011563044137553	0.982\\
15.108085488375032	0.982\\
15.206509347405934	0.982\\
15.304295382315455	0.982\\
15.403982517605268	0.982\\
15.501738701494357	0.982\\
15.599671344317596	0.982\\
15.697390427017886	0.982\\
15.795559180758193	0.982\\
15.89581865303121	0.982\\
15.996173839731139	0.982\\
16.097833200549516	0.982\\
16.199554828122068	0.982\\
16.301416610335714	0.982\\
16.404420929832455	0.982\\
16.50642142625287	0.982\\
16.607869795832386	0.982\\
16.710761618277942	0.982\\
16.81465979808744	0.982\\
16.917802071845095	0.982\\
17.01970025046225	0.982\\
17.12483288476978	0.982\\
17.231076313902896	0.982\\
17.33744422376796	0.982\\
17.44223740361111	0.982\\
17.55095777873052	0.982\\
17.65865140689337	0.982\\
17.765797658012644	0.982\\
17.87344296809473	0.982\\
17.983495493179213	0.982\\
18.09140735527133	0.982\\
18.199491081482613	0.982\\
18.310376261622665	0.982\\
18.422542616989787	0.982\\
18.53415740116597	0.982\\
18.64470180930506	0.982\\
18.757477656659844	0.982\\
18.86887976211652	0.982\\
18.98301450239927	0.982\\
19.096811037831856	0.982\\
19.2117424472939	0.982\\
19.325147148388474	0.982\\
19.438470047950076	0.982\\
19.552818758923863	0.982\\
19.668984237786454	0.982\\
19.787059157809132	0.982\\
19.90414757336596	0.982\\
20.020218310708742	0.982\\
20.13745161763952	0.982\\
20.255922514365892	0.982\\
20.374377224617717	0.982\\
20.4945239956107	0.982\\
20.61398168239743	0.982\\
20.733946965927494	0.982\\
20.855390349575742	0.982\\
20.976634810018417	0.982\\
21.09851007263704	0.982\\
21.218217144578766	0.982\\
21.340471044379377	0.982\\
21.46339058897565	0.982\\
21.585993691554975	0.982\\
21.70980792673773	0.982\\
21.834432793880026	0.982\\
21.956203774721352	0.982\\
22.081567057815953	0.982\\
22.208772633267763	0.982\\
22.335186984345825	0.982\\
22.461326543763384	0.982\\
22.588230222424933	0.982\\
22.715345111452983	0.982\\
22.843938098342257	0.982\\
22.969732289268705	0.982\\
23.099610218432673	0.982\\
23.226954625823772	0.982\\
23.355382933009487	0.982\\
23.484117532875878	0.982\\
23.61311589418532	0.982\\
23.742262325909238	0.982\\
23.871396626987107	0.982\\
24.003277614400886	0.982\\
24.13589524582158	0.982\\
24.26894633419417	0.982\\
24.402560013414252	0.982\\
24.533653589547036	0.982\\
24.668073888129854	0.982\\
24.802433017106623	0.982\\
24.93655909342982	0.982\\
25.07143808091306	0.982\\
25.207561694960198	0.982\\
25.341290039366285	0.982\\
25.474552806626917	0.982\\
25.50144311925164	0.982\\
25.5759340011818	0.982\\
25.58102499911392	0.982\\
25.58470813422234	0.982\\
25.588215911238073	0.982\\
25.600785241672277	0.982\\
25.635792796431325	0.982\\
25.71640041756517	0.982\\
25.8523493658925	0.982\\
25.97882639610753	0.982\\
26.10538678614398	0.982\\
26.231165610165377	0.982\\
26.35674703707931	0.982\\
26.486177669683556	0.982\\
26.617776205297957	0.982\\
26.74670315120111	0.982\\
26.876704264294062	0.982\\
27.01123246113204	0.982\\
27.143253171856088	0.982\\
27.273772762045027	0.982\\
27.40522526452999	0.982\\
27.537121391030745	0.982\\
27.66916022545795	0.982\\
27.803313173578225	0.982\\
27.938501887496017	0.982\\
28.072389035300134	0.982\\
28.20995128294375	0.982\\
28.346506859872363	0.982\\
28.483086682623195	0.982\\
28.619344455567038	0.982\\
28.755286323728214	0.982\\
28.894927557222047	0.982\\
29.03420811154306	0.982\\
29.173563857085064	0.982\\
29.314326407129343	0.982\\
29.455067480416908	0.982\\
29.594157188267722	0.982\\
29.736681433860582	0.982\\
29.879071521032678	0.982\\
30.021121069713743	0.982\\
30.1660798468097	0.982\\
30.310687985626082	0.982\\
30.45580142937633	0.982\\
30.6005146210506	0.982\\
30.745731216708776	0.982\\
30.89323379886239	0.982\\
31.041022821133346	0.982\\
31.188115160515387	0.982\\
31.335405333171046	0.982\\
31.48435304764147	0.982\\
31.634813411188908	0.982\\
31.787124024571177	0.982\\
31.936229510087855	0.982\\
32.086897532438456	0.982\\
32.236529347962374	0.982\\
32.38735933572569	0.982\\
32.54006710051492	0.982\\
32.69099178757553	0.982\\
32.84515114593202	0.982\\
32.996385464852594	0.982\\
33.14937141728001	0.982\\
33.305665998386004	0.982\\
33.460418800026616	0.982\\
33.616109625880654	0.982\\
33.77327312102862	0.982\\
33.9326920972627	0.982\\
34.09105052586206	0.982\\
34.249402416493055	0.982\\
34.40936121493536	0.982\\
34.56862214115888	0.982\\
34.727531363420326	0.982\\
34.8871600740184	0.982\\
35.04529964637692	0.982\\
35.20594539286675	0.982\\
35.363788119544054	0.982\\
35.52268191011321	0.982\\
35.68471983935868	0.982\\
35.84778784222708	0.982\\
36.01092969953069	0.982\\
36.17327001899076	0.982\\
36.336427651383346	0.982\\
36.500190310651604	0.982\\
36.66606116492454	0.982\\
36.83184460304567	0.982\\
36.99602926883226	0.982\\
37.16054594987418	0.982\\
37.32545808149992	0.982\\
37.493350288646795	0.982\\
37.662611807846105	0.982\\
37.831801448665615	0.982\\
37.99869229765014	0.982\\
38.1674980088668	0.982\\
38.33624863401006	0.982\\
38.506278652509266	0.982\\
38.674990840576555	0.982\\
38.846113613014666	0.982\\
39.01907155568843	0.982\\
39.189673460094625	0.982\\
39.35895544734126	0.982\\
39.53389933885826	0.982\\
39.70812065214345	0.982\\
39.8799759194046	0.982\\
40.05357595865209	0.982\\
40.22826105019891	0.982\\
40.405670025835704	0.982\\
40.581159826414265	0.982\\
40.758661193854635	0.982\\
40.93536878201198	0.982\\
41.112390148125826	0.982\\
41.2905202294626	0.982\\
41.465773395976214	0.982\\
41.64457669406332	0.982\\
41.82233046236415	0.982\\
42.00116108700712	0.982\\
42.18038549494476	0.982\\
42.36069264988308	0.982\\
42.5403197842906	0.982\\
42.72171083303407	0.982\\
42.90231175882896	0.982\\
43.0816339508179	0.982\\
43.26124009525664	0.982\\
43.44376978470652	0.982\\
43.62703136154356	0.982\\
43.811498568242314	0.982\\
43.994653970673255	0.982\\
44.17955294494796	0.982\\
44.36199645788939	0.982\\
44.546315067333296	0.982\\
44.730896770849384	0.982\\
44.917564466011015	0.982\\
45.10291894910149	0.982\\
45.28903472343241	0.982\\
45.4737724641365	0.982\\
45.66185871924168	0.982\\
45.847781026448246	0.982\\
46.03584546535953	0.982\\
46.22439581401848	0.982\\
46.412894376700976	0.982\\
46.605209657630425	0.982\\
46.79569826226867	0.982\\
46.986754218288695	0.982\\
47.17854451210614	0.982\\
47.36788659495666	0.982\\
47.55795997499989	0.982\\
47.75023926134655	0.982\\
47.94367037556847	0.982\\
48.13733489784886	0.982\\
48.33198682489876	0.982\\
48.527111606732575	0.982\\
48.72214685244572	0.982\\
48.91831256878446	0.982\\
49.11391546665595	0.982\\
49.31130002698025	0.982\\
49.50612043713984	0.982\\
49.70259265251657	0.982\\
49.901122990734336	0.982\\
50.099709619255506	0.982\\
50.2985717393795	0.982\\
50.497123798684314	0.982\\
50.696934663181494	0.982\\
50.89716583792078	0.982\\
51.099731397413024	0.982\\
51.29870439195726	0.982\\
51.49905541915088	0.982\\
51.70194442710381	0.982\\
51.904815092872994	0.982\\
52.10896136733682	0.982\\
52.31301594265632	0.982\\
52.51628248614311	0.982\\
52.7194716176805	0.982\\
52.926935935005204	0.982\\
53.13251088882413	0.982\\
53.33958171986313	0.982\\
53.54342987388597	0.982\\
53.74994692029041	0.982\\
53.95601821807068	0.982\\
54.16404650522179	0.982\\
54.37239843615944	0.982\\
54.58120460807784	0.982\\
54.79204685545993	0.982\\
54.999618844521464	0.982\\
55.21297590032157	0.982\\
55.42532423896495	0.982\\
55.63798122139113	0.982\\
55.84929577470656	0.982\\
56.06112933665578	0.982\\
56.273339332526035	0.982\\
56.487981657774	0.982\\
56.70163161171321	0.982\\
56.91533004593228	0.982\\
57.128542021537044	0.982\\
57.341815304042996	0.982\\
57.556524306424734	0.982\\
57.77121349665933	0.982\\
57.99045226278008	0.982\\
58.21163159877143	0.982\\
58.42755485439312	0.982\\
58.64762055049445	0.982\\
58.86549786092007	0.982\\
59.08110534562667	0.982\\
59.30150836647064	0.982\\
59.523369545733104	0.982\\
59.74545669991576	0.982\\
59.96819458863561	0.982\\
60.192610901318446	0.982\\
60.41685303697733	0.982\\
60.63943340808673	0.982\\
60.86243725858105	0.982\\
61.087387386501504	0.982\\
61.312967674501934	0.982\\
61.539922453545245	0.982\\
61.766220404137556	0.982\\
61.99252341885473	0.982\\
62.22290458368424	0.982\\
62.45401905554074	0.982\\
62.681934693190925	0.982\\
62.911036206319935	0.982\\
63.14325260562316	0.982\\
63.37427787627517	0.982\\
63.60547590884926	0.982\\
63.840017219249205	0.982\\
64.07293021489374	0.982\\
64.3084604827086	0.982\\
64.5437051757381	0.982\\
64.77872206928058	0.982\\
65.01308910472795	0.982\\
65.24911349494474	0.982\\
65.48765804826411	0.982\\
65.72448269887195	0.982\\
65.96301079794586	0.982\\
66.20226545665247	0.982\\
66.44108856569267	0.982\\
66.68211892097898	0.982\\
66.92366663289425	0.982\\
67.16771935204801	0.982\\
67.41223707471289	0.982\\
67.65753102817487	0.982\\
67.90011693249966	0.982\\
68.14481889550859	0.982\\
68.38914646634316	0.982\\
68.63585299266461	0.982\\
68.88504081079034	0.982\\
69.13292178160535	0.982\\
69.3818129543071	0.982\\
69.63293396520476	0.982\\
69.88286336730076	0.982\\
70.13554072594164	0.982\\
70.38774244009971	0.982\\
70.6391676300718	0.982\\
70.8946718668015	0.982\\
71.14833146108984	0.982\\
71.4025074522346	0.982\\
71.66156242815126	0.982\\
71.92027918509496	0.982\\
72.17889679626529	0.982\\
72.4378954145077	0.982\\
72.69970560710271	0.982\\
72.9613038866527	0.982\\
73.22092141715785	0.982\\
73.4833396613837	0.982\\
73.74600266105335	0.982\\
74.01092424130167	0.982\\
74.27923230983217	0.982\\
74.54697155873473	0.982\\
74.81368154472509	0.982\\
75.08550254995646	0.982\\
75.35337454991506	0.982\\
75.62060297082033	0.982\\
75.8930595288426	0.982\\
76.1621793572684	0.982\\
76.43458035155084	0.982\\
76.70919040487942	0.982\\
76.98186118377441	0.982\\
77.25581109285994	0.982\\
77.53074782922127	0.982\\
77.81278401159003	0.982\\
78.09183058782281	0.982\\
78.37252440765238	0.982\\
78.65413996894222	0.982\\
78.93779488994258	0.982\\
79.22020126675059	0.982\\
79.5043054178764	0.982\\
79.78799282928725	0.982\\
80.07426795518103	0.982\\
80.36206173670419	0.982\\
80.65011154965475	0.982\\
80.94124014043979	0.982\\
81.23331233189455	0.982\\
81.52747377253729	0.982\\
81.82050926692614	0.982\\
82.11174296440501	0.982\\
82.40762115154999	0.982\\
82.70105581419463	0.982\\
82.9965566307761	0.982\\
83.2955249098714	0.982\\
83.59334983049942	0.982\\
83.89281438122714	0.982\\
84.19366490892668	0.982\\
84.49386870537981	0.982\\
84.79818321919399	0.982\\
85.10096005557006	0.982\\
85.40841855323376	0.982\\
85.71631172169683	0.982\\
86.02830181264164	0.982\\
86.3402878478731	0.982\\
86.6527218498947	0.982\\
86.96825567567058	0.982\\
87.28456067908527	0.982\\
87.60139886641238	0.982\\
87.91377033498361	0.982\\
88.2329169731471	0.982\\
88.55451237842581	0.982\\
88.87632982710792	0.982\\
89.19792550891984	0.982\\
89.51859560630265	0.982\\
89.83813724038836	0.982\\
90.16355195474026	0.982\\
90.48984374320287	0.982\\
90.81192832428755	0.982\\
91.13735761592585	0.982\\
91.46327718731001	0.982\\
91.79195914660676	0.982\\
92.12387334395521	0.982\\
92.45366340909627	0.982\\
92.784886328608	0.982\\
93.11881968308526	0.982\\
93.44933352739164	0.982\\
93.78537164416255	0.982\\
94.11961938108595	0.982\\
94.45324270153796	0.982\\
94.78977749407156	0.982\\
95.12728954751313	0.982\\
95.46615723951368	0.982\\
95.80540032110511	0.982\\
96.14328198239659	0.982\\
96.4795485136406	0.982\\
96.8168988241965	0.982\\
97.15864997346614	0.982\\
97.49691124094184	0.982\\
97.83374870893218	0.982\\
98.17336239322904	0.982\\
98.51580285288532	0.982\\
98.85417498138676	0.982\\
99.18977627639384	0.982\\
99.53065866757436	0.982\\
99.87029432574985	0.982\\
100.21207149250372	0.982\\
100.55236039969625	0.982\\
100.89186594403472	0.982\\
101.22905684407482	0.982\\
101.57044475881924	0.982\\
101.90979249921537	0.982\\
102.24748997900616	0.982\\
102.58472642518802	0.982\\
102.92057876652896	0.982\\
103.2539339678928	0.982\\
103.58701757133184	0.982\\
103.92472971670688	0.982\\
104.25963220507478	0.982\\
104.59275772586338	0.982\\
104.93184553834382	0.982\\
105.26631625571227	0.982\\
105.60031900916655	0.982\\
105.93620242240948	0.982\\
106.26689680011313	0.982\\
106.33348729140508	0.982\\
106.37499685919838	0.982\\
106.40860778816568	0.982\\
106.43119180298976	0.982\\
106.44722805732232	0.982\\
106.457473105046	0.982\\
106.46217936883986	0.982\\
106.46496572051919	0.982\\
106.46785653824449	0.982\\
106.48210214130123	0.982\\
106.53998173566913	0.982\\
106.70432341177266	0.982\\
106.99054502225638	0.982\\
107.29125073895685	0.982\\
107.59459612453853	0.982\\
107.89929565864878	0.982\\
108.20487300220603	0.982\\
108.5126435430112	0.982\\
108.82100397517766	0.982\\
109.1321122011673	0.982\\
109.44193877829423	0.982\\
109.7543949369443	0.982\\
110.06688928039253	0.982\\
110.38296748749715	0.982\\
110.70025806796775	0.982\\
111.01722727004375	0.982\\
111.33938486876073	0.982\\
111.66055740176711	0.982\\
111.98114449024666	0.982\\
112.30560099418918	0.982\\
112.63198717749958	0.982\\
112.9612774487307	0.982\\
113.29265657024527	0.982\\
113.62335019234911	0.982\\
113.95462607162068	0.982\\
114.29176220163578	0.982\\
114.6308128558367	0.982\\
114.97120148272779	0.982\\
115.31440897720563	0.982\\
115.65591545111863	0.982\\
116.00064440928003	0.982\\
116.34486354580082	0.982\\
116.69362040064019	0.982\\
117.04285013406039	0.982\\
117.39512533345899	0.982\\
117.74741414421646	0.982\\
118.10303832840356	0.982\\
118.45571948012099	0.982\\
118.81003327709115	0.982\\
119.16681257999718	0.982\\
119.52663762223156	0.982\\
119.88876725107156	0.982\\
120.24995601324466	0.982\\
120.61084602258657	0.982\\
120.97616520751293	0.982\\
121.34334758477473	0.982\\
121.71025331175056	0.982\\
122.07747259012984	0.982\\
122.44578715685458	0.982\\
122.81744023446649	0.982\\
123.19009918236398	0.982\\
123.56123351878759	0.982\\
123.93715313997072	0.982\\
124.31146469402427	0.982\\
124.68526660327976	0.982\\
125.06081596392403	0.982\\
125.4364241959469	0.982\\
125.80802499570223	0.982\\
126.1848497266096	0.982\\
126.5609710338282	0.982\\
126.93305383109873	0.982\\
127.31114129795554	0.982\\
127.68521821979309	0.982\\
128.06046301290115	0.982\\
128.43801165468585	0.982\\
128.81521487015914	0.982\\
129.19219413500986	0.982\\
129.56612845520198	0.982\\
129.94267519490052	0.982\\
130.3181878313651	0.982\\
130.69228806236066	0.982\\
131.0676335246473	0.982\\
131.44069256509738	0.982\\
131.8164990241899	0.982\\
132.1931977854564	0.982\\
132.56788559077893	0.982\\
132.9441588403875	0.982\\
133.32075630072865	0.982\\
133.69358561268064	0.982\\
134.06729434800218	0.982\\
134.44034471502948	0.982\\
134.8140531244187	0.982\\
135.18651705910264	0.982\\
135.55938125316158	0.982\\
135.93264478721085	0.982\\
136.30740026366334	0.982\\
136.6784269209433	0.982\\
137.0521063827307	0.982\\
137.42630805162537	0.982\\
137.79824015832446	0.982\\
138.17197880496752	0.982\\
138.54398262673232	0.982\\
138.9181701073686	0.982\\
139.2918177914372	0.982\\
139.66395608322267	0.982\\
140.03771877141975	0.982\\
140.41191567198234	0.982\\
140.785214435772	0.982\\
141.1569699646381	0.982\\
141.52828555088394	0.982\\
141.9041014462735	0.982\\
142.27843281827558	0.982\\
142.6531859827976	0.982\\
143.02636833273493	0.982\\
143.40115329183038	0.982\\
143.7755577578822	0.982\\
144.14846071828862	0.982\\
144.52420405339825	0.982\\
144.89820769561425	0.982\\
145.27269214017286	0.982\\
145.64715502381193	0.982\\
146.0246576647304	0.982\\
146.3980003741944	0.982\\
146.77188540290956	0.982\\
147.14699849483344	0.982\\
147.52131776226065	0.982\\
147.89602893943328	0.982\\
148.27204034411415	0.982\\
148.64608729848084	0.982\\
149.0208593455847	0.982\\
149.39764195764786	0.982\\
149.77339461409542	0.982\\
150.1534148831098	0.982\\
150.5291076514028	0.982\\
150.90903965895268	0.982\\
151.28543144418177	0.982\\
151.6633602951634	0.982\\
152.04249724748917	0.982\\
152.42107498922724	0.982\\
152.80096884172895	0.982\\
153.18008210542433	0.982\\
153.56021362675494	0.982\\
153.93998936888823	0.982\\
154.31952056284706	0.982\\
154.70033899148706	0.982\\
155.0808456605577	0.982\\
155.46260683652747	0.982\\
155.8451500717461	0.982\\
156.22658081777672	0.982\\
156.60827055160593	0.982\\
156.9909464565656	0.982\\
157.37447262340498	0.982\\
157.75928833119883	0.982\\
158.14175289248914	0.982\\
158.52848710229284	0.982\\
158.91177799657294	0.982\\
159.2956497528856	0.982\\
159.68037959094522	0.982\\
160.06564096408647	0.982\\
160.45096257460483	0.982\\
160.83715950875825	0.982\\
161.2258713073063	0.982\\
161.6123323162809	0.982\\
162.0020733751664	0.982\\
162.38979962136716	0.982\\
162.78005749517496	0.982\\
163.16926884367706	0.982\\
163.55903424207065	0.982\\
163.94986558386933	0.982\\
164.34027010332778	0.982\\
164.72897674527087	0.982\\
165.1219618404894	0.982\\
165.51648116340715	0.982\\
165.91121110303834	0.982\\
166.305125129374	0.982\\
166.70055814189493	0.982\\
167.09355837361738	0.982\\
167.4867487070524	0.982\\
167.88152655658757	0.982\\
168.27797625652778	0.982\\
168.67417091820505	0.982\\
169.0744241223909	0.982\\
169.4696289626308	0.982\\
169.86942142380093	0.982\\
170.26823373269303	0.982\\
170.66825541214263	0.982\\
171.06882877564112	0.982\\
171.47052101522314	0.982\\
171.87117220207847	0.982\\
172.27408818569603	0.982\\
172.67888262744867	0.982\\
173.08278584620598	0.982\\
173.48711221007846	0.982\\
173.89286364513737	0.982\\
174.30044396299678	0.982\\
174.70785810564865	0.982\\
175.1148217729209	0.982\\
175.52417397745887	0.982\\
175.9353018887096	0.982\\
176.3445277394477	0.982\\
176.75679769119074	0.982\\
177.1675329613106	0.982\\
177.58147861087787	0.982\\
177.99464686026658	0.982\\
178.40846172066875	0.982\\
178.8221588369641	0.982\\
179.23788859262316	0.982\\
179.65594628198625	0.982\\
180.07393730685396	0.982\\
180.49154769314794	0.982\\
180.91067637722034	0.982\\
181.32733049951304	0.982\\
181.74511868140502	0.982\\
182.16838055329725	0.982\\
182.5935731219521	0.982\\
183.01849763465827	0.982\\
183.44789807780944	0.982\\
183.87296697220467	0.982\\
184.3005805343215	0.982\\
184.7275357140556	0.982\\
185.15540561964053	0.982\\
185.58828973829708	0.982\\
186.0209685893201	0.982\\
186.45209324401605	0.982\\
186.88635114466473	0.982\\
187.3202530286718	0.982\\
187.75627482837768	0.982\\
188.19290135663692	0.982\\
188.63474465174716	0.982\\
189.07311754437853	0.982\\
189.51196080445675	0.982\\
189.95324255860208	0.982\\
190.39726596022723	0.982\\
190.84057804609728	0.982\\
191.28574213849475	0.982\\
191.73164607656958	0.982\\
192.18211492962195	0.982\\
192.632212918464	0.982\\
193.08574784107805	0.982\\
193.53718076485956	0.982\\
193.9889309324463	0.982\\
194.44192149972122	0.982\\
194.89579355743757	0.982\\
195.34994743186104	0.982\\
195.8058879641373	0.982\\
196.26245662347003	0.982\\
196.72016737285458	0.982\\
197.18359847535754	0.982\\
197.64589060843696	0.982\\
198.11087782386443	0.982\\
198.57502374365885	0.982\\
199.04300438502406	0.982\\
199.51338163613372	0.982\\
199.98393648855864	0.982\\
200.45516506696913	0.982\\
200.92864741549454	0.982\\
201.40444982665974	0.982\\
201.88275447800072	0.982\\
202.35951076264297	0.982\\
202.8411124640724	0.982\\
203.32141288234197	0.982\\
203.80789076149057	0.982\\
204.29622653061597	0.982\\
204.78464735065688	0.982\\
205.2720699180345	0.982\\
205.76371166647334	0.982\\
206.25812404621178	0.982\\
206.7538852744985	0.982\\
207.25226803960481	0.982\\
207.75369831762367	0.982\\
208.2576130451625	0.982\\
208.76384232452614	0.982\\
209.26687195306613	0.982\\
209.7753918597067	0.982\\
210.2846893697261	0.982\\
210.7963991052548	0.982\\
211.31379007685774	0.982\\
211.83462216092812	0.982\\
212.35583345573502	0.982\\
212.88092061723842	0.982\\
213.4053181133067	0.982\\
213.93048265793448	0.982\\
214.46080198276206	0.982\\
214.99280682831574	0.982\\
215.5294770958094	0.982\\
216.07284281333642	0.982\\
216.61517032692353	0.982\\
217.1649754620828	0.982\\
217.71148410367374	0.982\\
218.26737841805794	0.982\\
218.82240503157732	0.982\\
219.38168577081672	0.982\\
219.94757377678263	0.982\\
220.5157757014327	0.982\\
221.08753515993334	0.982\\
221.66450025786634	0.982\\
222.24385220045775	0.982\\
222.82885466274382	0.982\\
223.4112244925018	0.982\\
224.0015354336785	0.982\\
224.60005104881571	0.982\\
225.20097165321243	0.982\\
225.80679778963525	0.982\\
226.4142763690901	0.982\\
227.02575673380335	0.982\\
227.63461372304909	0.982\\
228.24974742285855	0.982\\
228.86673693726647	0.982\\
229.48436427341443	0.982\\
230.0989457634348	0.982\\
230.722114636328	0.982\\
231.34244873087368	0.982\\
231.97325724844399	0.982\\
232.59474255779588	0.982\\
233.22159326059818	0.982\\
233.8431015560668	0.982\\
234.46367634501973	0.982\\
235.08641879225445	0.982\\
235.70278557911195	0.982\\
236.31864509320485	0.982\\
236.93937737772637	0.982\\
237.55407410514982	0.982\\
238.16547554548157	0.982\\
238.77939087141692	0.982\\
239.3813168273977	0.982\\
239.98100147277364	0.982\\
240.57543920085465	0.982\\
241.16836030089274	0.982\\
241.7571167129284	0.982\\
242.34201365077286	0.982\\
242.93055448890203	0.982\\
243.51170262633934	0.982\\
244.09257059533718	0.982\\
244.67179294361154	0.982\\
245.24482151044447	0.982\\
245.8173160071512	0.982\\
246.38351716417617	0.982\\
246.95362849999805	0.982\\
247.5202096844256	0.982\\
248.08325741316798	0.982\\
248.64446305128456	0.982\\
249.20075824534877	0.982\\
249.75469846513056	0.982\\
250.30945619721592	0.982\\
250.8614556493837	0.982\\
251.408510583341	0.982\\
251.95355357370266	0.982\\
252.4996012707087	0.982\\
253.04126098987143	0.982\\
253.1488138397171	0.982\\
253.16819209411136	0.982\\
253.1837823680185	0.982\\
253.19662431846268	0.982\\
253.2071936664194	0.982\\
253.21275590301065	0.982\\
253.22117114680987	0.982\\
253.26352439711104	0.982\\
253.41432990884306	0.982\\
253.82930310711612	0.982\\
254.30306641551323	0.982\\
254.78159567442054	0.982\\
255.25932726785965	0.982\\
255.7437876764298	0.982\\
256.23033824242543	0.982\\
256.72149575104197	0.982\\
257.2130748498888	0.982\\
257.70796578879254	0.982\\
258.206669200321	0.982\\
258.70610515962187	0.982\\
259.2079502656683	0.982\\
259.71188112252	0.982\\
260.2189424756507	0.982\\
260.7262302511605	0.982\\
261.24022815529725	0.982\\
261.75685841556344	0.982\\
262.27381092857786	0.982\\
262.79851097873814	0.982\\
263.3270605395941	0.982\\
263.85902142499447	0.982\\
264.3957196258134	0.982\\
264.9350026981771	0.982\\
265.4771865976642	0.982\\
266.02438826793184	0.982\\
266.57502465504126	0.982\\
267.12985589644336	0.982\\
267.69508687819234	0.982\\
268.2574473439623	0.982\\
268.82260791852957	0.982\\
269.39444721478594	0.982\\
269.97137562145883	0.982\\
270.55380970007513	0.982\\
271.14197731531294	0.982\\
271.73437146929496	0.982\\
272.33148825752005	0.982\\
272.9364726389575	0.982\\
273.5439946102076	0.982\\
274.1524582923545	0.982\\
274.7654429342565	0.982\\
275.3786325850501	0.982\\
275.99829889928617	0.982\\
276.625244334335	0.982\\
277.25199692051126	0.982\\
277.8805156104013	0.982\\
278.51241528731794	0.982\\
279.1472993194542	0.982\\
279.7798163586458	0.982\\
280.415774521491	0.982\\
281.0491750679978	0.982\\
281.6859483568941	0.982\\
282.32015512620876	0.982\\
282.9553797230003	0.982\\
283.58792414238735	0.982\\
284.2169522637232	0.982\\
284.84572396143164	0.982\\
285.47678441782114	0.982\\
286.10864649330836	0.982\\
286.7287745354	0.982\\
287.34611027100766	0.982\\
287.9675615727342	0.982\\
288.5858120101028	0.982\\
289.2040505432649	0.982\\
289.81305758687665	0.982\\
290.4204868585308	0.982\\
291.03235102704366	0.982\\
291.6389287296397	0.982\\
292.24256191587233	0.982\\
292.84553447424435	0.982\\
293.4438226071644	0.982\\
294.0409792947876	0.982\\
294.63063723150856	0.982\\
295.224486883787	0.982\\
295.81621351620277	0.982\\
296.40631441129733	0.982\\
296.99593820771656	0.982\\
297.5837872894514	0.982\\
298.1710572547879	0.982\\
298.75194642054066	0.982\\
299.3365399263279	0.982\\
299.92021707211177	0.982\\
300.5048038985856	0.982\\
301.07972254917684	0.982\\
301.65871501792253	0.982\\
302.23544339879004	0.982\\
302.8098166673582	0.982\\
303.382790903624	0.982\\
303.95411688302784	0.982\\
304.52572928756194	0.982\\
305.09702326798686	0.982\\
305.66909170428767	0.982\\
306.2389054217898	0.982\\
306.8075228050035	0.982\\
307.37625354138174	0.982\\
307.94253431645916	0.982\\
308.5093283037037	0.982\\
309.0741525852028	0.982\\
309.63790685611514	0.982\\
310.20182157857266	0.982\\
310.7628361601812	0.982\\
311.3282164355909	0.982\\
311.89268611617024	0.982\\
312.4584080165224	0.982\\
313.02159660049847	0.982\\
313.5840055190747	0.982\\
314.14555836603915	0.982\\
314.70744289948163	0.982\\
315.268337889587	0.982\\
315.8303704538257	0.982\\
316.39286263622955	0.982\\
316.9544987760597	0.982\\
317.51667588976545	0.982\\
318.0790129222488	0.982\\
318.6366322619465	0.982\\
319.19814757516315	0.982\\
319.75676359471856	0.982\\
320.3187177488146	0.982\\
320.8782448269069	0.982\\
321.43751154778784	0.982\\
321.99768440814876	0.982\\
322.5600371677781	0.982\\
323.11959052824477	0.982\\
323.67937097972344	0.982\\
324.2414708866254	0.982\\
324.8019271123844	0.982\\
325.36119738589264	0.982\\
325.9242540504797	0.982\\
326.4835412969944	0.982\\
327.0433627497323	0.982\\
327.6030477703922	0.982\\
328.1635910293122	0.982\\
328.72721834449067	0.982\\
329.28913308860956	0.982\\
329.84898169301687	0.982\\
330.41024941985984	0.982\\
330.9701687068524	0.982\\
331.5325210682887	0.982\\
332.09615480258867	0.982\\
332.6582728849294	0.982\\
333.2212641275107	0.982\\
333.78453649946596	0.982\\
334.34704722103925	0.982\\
334.9085363225354	0.982\\
335.47219158948656	0.982\\
336.03770868904985	0.982\\
336.60021491247426	0.982\\
337.164763535622	0.982\\
337.7300631146451	0.982\\
338.29569272794674	0.982\\
338.8620957725997	0.982\\
339.4283215708232	0.982\\
339.99415456232873	0.982\\
340.56464247726854	0.982\\
341.1345764539367	0.982\\
341.70271740632006	0.982\\
342.27245215221524	0.982\\
342.8434610976533	0.982\\
343.4144649347172	0.982\\
343.984884458447	0.982\\
344.55562013709914	0.982\\
345.1274307304152	0.982\\
345.6991236865042	0.982\\
346.2724608976106	0.982\\
346.845782037636	0.982\\
347.4175902060348	0.982\\
347.98929436482194	0.982\\
348.56420147749884	0.982\\
349.1410262205544	0.982\\
349.71588047656485	0.982\\
350.29209849271047	0.982\\
350.86868202225514	0.982\\
351.4510291101999	0.982\\
352.0306324127814	0.982\\
352.6092432498283	0.982\\
353.18876518286606	0.982\\
353.7694192783765	0.982\\
354.34843441171336	0.982\\
354.927716852344	0.982\\
355.5088980570638	0.982\\
356.09015458630836	0.982\\
356.6750178675279	0.982\\
357.2592942703857	0.982\\
357.8430227771056	0.982\\
358.42763932122045	0.982\\
359.015072217451	0.982\\
359.60104357058685	0.982\\
360.19078598942485	0.982\\
360.778582778148	0.982\\
361.3674359646898	0.982\\
361.9532913471419	0.982\\
362.54324641173696	0.982\\
363.13475408750946	0.982\\
363.72670023032936	0.982\\
364.3216988728641	0.982\\
364.91629231369564	0.982\\
365.51445534509253	0.982\\
366.1107290539038	0.982\\
366.7083704523294	0.982\\
367.3083188412687	0.982\\
367.90810715165117	0.982\\
368.5107196791125	0.982\\
369.11310622225324	0.982\\
369.71838879276936	0.982\\
370.3224805552321	0.982\\
370.92691039937665	0.982\\
371.531080400072	0.982\\
372.1351582088249	0.982\\
372.7425785137583	0.982\\
373.35070517362203	0.982\\
373.96050140264254	0.982\\
374.57426164671494	0.982\\
375.18775632483266	0.982\\
375.8025054899716	0.982\\
376.4183941555432	0.982\\
377.036157180591	0.982\\
377.65505813652214	0.982\\
378.2719293378151	0.982\\
378.8909778407759	0.982\\
379.5119717214518	0.982\\
380.1304093985665	0.982\\
380.7539319375877	0.982\\
381.377488569079	0.982\\
382.00412815402626	0.982\\
382.6328450687505	0.982\\
383.2631286425798	0.982\\
383.89165251718316	0.982\\
384.52173464362284	0.982\\
385.1531705630896	0.982\\
385.78936789488205	0.982\\
386.42309610358836	0.982\\
387.05764400489113	0.982\\
387.6954920751797	0.982\\
388.33483486853834	0.982\\
388.9761975281216	0.982\\
389.61933106250365	0.982\\
390.2654861091645	0.982\\
390.9102611975036	0.982\\
391.5589683237554	0.982\\
392.2085621207834	0.982\\
392.8559582459146	0.982\\
393.50855051623853	0.982\\
394.1619436525448	0.982\\
394.81718949105573	0.982\\
395.47582040435145	0.982\\
396.1350086783008	0.982\\
396.7992690747477	0.982\\
397.4598193356777	0.982\\
398.1245377356655	0.982\\
398.7932461547799	0.982\\
399.46339584754935	0.982\\
400.1361397462392	0.982\\
400.80782433846264	0.982\\
401.48331569845334	0.982\\
402.1558870975806	0.982\\
402.83373598120465	0.982\\
403.51858080091154	0.982\\
404.20495686213815	0.982\\
404.89138919151276	0.982\\
405.5782836115194	0.982\\
406.26899787518096	0.982\\
406.96495731692255	0.982\\
407.66223596240025	0.982\\
408.3581158233353	0.982\\
409.05987330460584	0.982\\
409.76189908353115	0.982\\
410.46798508148345	0.982\\
411.1781460426254	0.982\\
411.89252629574776	0.982\\
412.6099219905526	0.982\\
413.3267356835721	0.982\\
414.04289122142313	0.982\\
414.76467386265483	0.982\\
415.4902413711201	0.982\\
416.22310191950976	0.982\\
416.95605722569394	0.982\\
417.69179594913396	0.982\\
418.4317733358945	0.982\\
419.17431922313483	0.982\\
419.9254721628341	0.982\\
420.6719856542569	0.982\\
421.4230492978952	0.982\\
422.18501759372384	0.982\\
422.94576021989985	0.982\\
423.7140720273537	0.982\\
424.4856937255338	0.982\\
425.26187416748394	0.982\\
426.0447565561203	0.982\\
426.83056854233257	0.982\\
427.61945747313587	0.982\\
428.41784437459535	0.982\\
429.21803771724467	0.982\\
430.02397061246324	0.982\\
430.83478213389435	0.982\\
431.65136324029356	0.982\\
432.4790081599091	0.982\\
433.3141423067307	0.982\\
434.1542265250947	0.982\\
435.003161392734	0.982\\
435.85507079556146	0.982\\
436.70826637660014	0.982\\
437.58150845605326	0.982\\
438.457839681004	0.982\\
439.34707410675526	0.982\\
440.24123226094844	0.982\\
441.1523579576651	0.982\\
442.0673464703625	0.982\\
442.9942342836961	0.982\\
443.937399764033	0.982\\
444.8899544765534	0.982\\
445.85594700403635	0.982\\
446.8286295818426	0.982\\
447.80722953063264	0.982\\
448.8017517154209	0.982\\
449.7983304796701	0.982\\
450.805662499493	0.982\\
451.8119995298704	0.982\\
452.81588165598055	0.982\\
453.8135695821211	0.982\\
454.8064448773897	0.982\\
455.7903482522986	0.982\\
456.7671747104671	0.982\\
457.73220747263997	0.982\\
458.68865644649486	0.982\\
459.6333953524967	0.982\\
460.5665689820096	0.982\\
461.49336214642267	0.982\\
462.4101560111558	0.982\\
463.3102512158566	0.982\\
464.20619088989747	0.982\\
465.09274596013813	0.982\\
465.9726160332484	0.982\\
466.8455207893327	0.982\\
467.7101068913622	0.982\\
468.5654894786844	0.982\\
469.4174978092028	0.982\\
470.26317688639165	0.982\\
471.1012961241112	0.982\\
471.93318993555954	0.982\\
472.7575203744044	0.982\\
473.5832537614157	0.982\\
474.3998367198741	0.982\\
475.21332504982206	0.982\\
476.0247288711747	0.982\\
476.8295419991306	0.982\\
477.6288291922816	0.982\\
478.4255304532103	0.982\\
479.22100896978145	0.982\\
480.00851471011936	0.982\\
480.794535008141	0.982\\
481.57720489509757	0.982\\
482.35329570542444	0.982\\
483.1278241708404	0.982\\
483.89939420051314	0.982\\
484.6689365163576	0.982\\
485.4329009855759	0.982\\
486.1954443871997	0.982\\
486.3468643949451	0.982\\
486.7618524024307	0.982\\
486.9094347080062	0.982\\
486.91744904023597	0.982\\
486.92667141784887	0.982\\
486.97291146387215	0.982\\
487.1343625066205	0.982\\
487.6665767834313	0.982\\
488.4081581246535	0.982\\
489.1548350887846	0.982\\
489.90797031891395	0.982\\
490.66254775179027	0.982\\
491.4221365553293	0.982\\
492.18625608793207	0.982\\
492.95469842922785	0.982\\
493.72827052945286	0.982\\
494.5030744208201	0.982\\
495.2841489009794	0.982\\
496.0694717313663	0.982\\
496.8616472229803	0.982\\
497.6584497164645	0.982\\
498.4645107775325	0.982\\
499.2704783140715	0.982\\
500.0893509578748	0.982\\
500.9076236346813	0.982\\
501.7330021505518	0.982\\
502.5668270370386	0.982\\
503.4067823468481	0.982\\
504.2551084803504	0.982\\
505.1106888127799	0.982\\
505.9726115789439	0.982\\
506.84109106123356	0.982\\
507.7188428603879	0.982\\
508.6051431501455	0.982\\
509.5005291010972	0.982\\
510.4030705468955	0.982\\
511.3175083018144	0.982\\
512.2408899995571	0.982\\
513.1742154613398	0.982\\
514.1219390238991	0.982\\
515.0724564359525	0.982\\
516.0355756919005	0.982\\
517.0140687849528	0.982\\
518.0006871431597	0.982\\
518.9950504746023	0.982\\
519.9961965058226	0.982\\
521.012462048478	0.982\\
522.0392120273541	0.982\\
523.0694223761463	0.982\\
524.1008724108824	0.982\\
525.1335444850342	0.982\\
526.1737522994356	0.982\\
527.1997477425691	0.982\\
528.2301104500334	0.982\\
529.2594760103086	0.982\\
530.2748695837729	0.982\\
531.2863083414538	0.982\\
532.2909025646666	0.982\\
533.2907535300981	0.982\\
534.2803080932056	0.982\\
535.2655949327752	0.982\\
536.2446557023616	0.982\\
537.2083716118686	0.982\\
538.1729640865587	0.982\\
539.1314447194998	0.982\\
540.0838502659926	0.982\\
541.0291656373479	0.982\\
541.9644733864184	0.982\\
542.8976861397853	0.982\\
543.8271221908808	0.982\\
544.7520156855264	0.982\\
545.6728665853082	0.982\\
546.5869730488234	0.982\\
547.4982793693655	0.982\\
548.4049730831398	0.982\\
549.3070188492297	0.982\\
550.2042655527584	0.982\\
551.0965439619756	0.982\\
551.9901898679532	0.982\\
552.8814201335783	0.982\\
553.7666256997375	0.982\\
554.6483275083147	0.982\\
555.525896088627	0.982\\
556.4029124034878	0.982\\
557.2835507207992	0.982\\
558.1561284401853	0.982\\
559.0310821381238	0.982\\
559.9010071878142	0.982\\
560.7675445393661	0.982\\
561.6260389967929	0.982\\
562.4949335613719	0.982\\
563.3572637323246	0.982\\
564.2179669616914	0.982\\
565.0793124456375	0.982\\
565.935223126342	0.982\\
566.7930715069897	0.982\\
567.6505763921853	0.982\\
568.5016680747312	0.982\\
569.3498587737133	0.982\\
570.1996566716971	0.982\\
571.0533709175827	0.982\\
571.902711071169	0.982\\
572.7499158044309	0.982\\
573.5929169404451	0.982\\
574.4370395364938	0.982\\
575.2799275184843	0.982\\
576.1247275669607	0.982\\
576.970897161706	0.982\\
577.8120316910556	0.982\\
578.6569696899169	0.982\\
579.4939538592339	0.982\\
580.3346575763746	0.982\\
581.1716025514143	0.982\\
582.0084324604668	0.982\\
582.8471642199879	0.982\\
583.6893697122518	0.982\\
584.5259333364688	0.982\\
585.3637130124812	0.982\\
586.2052405112784	0.982\\
587.0404943457916	0.982\\
587.8776331056342	0.982\\
588.714411403334	0.982\\
589.5510634561113	0.982\\
590.3870372003607	0.982\\
591.2208341355947	0.982\\
592.0547039927965	0.982\\
592.8895291328427	0.982\\
593.7266174369222	0.982\\
594.5598143056632	0.982\\
595.3922880298232	0.982\\
596.2318707595243	0.982\\
597.0678235034709	0.982\\
597.9017664417227	0.982\\
598.7385912067914	0.982\\
599.5715611452567	0.982\\
600.405972402345	0.982\\
601.2398465494205	0.982\\
602.0767771255069	0.982\\
602.9102460757808	0.982\\
603.7438800625428	0.982\\
604.5809527851065	0.982\\
605.4183722970606	0.982\\
606.2554815235283	0.982\\
607.096909128574	0.982\\
607.9316600886439	0.982\\
608.770898634287	0.982\\
609.6089753958554	0.982\\
610.4414063997469	0.982\\
611.2794029006836	0.982\\
612.1121430988353	0.982\\
612.9514528120008	0.982\\
613.7915532250936	0.982\\
614.6311654386509	0.982\\
615.4699087426964	0.982\\
616.3093466367197	0.982\\
617.1468624394256	0.982\\
617.9862950239942	0.982\\
618.8275592116472	0.982\\
619.6690496642195	0.982\\
620.5132187241095	0.982\\
621.359373173012	0.982\\
622.2026234043203	0.982\\
623.0444549717708	0.982\\
623.8864285973766	0.982\\
624.7335013743159	0.982\\
625.5821670111884	0.982\\
626.4250460804415	0.982\\
627.2740846136364	0.982\\
628.1209925532255	0.982\\
628.9718338373859	0.982\\
629.8192251366443	0.982\\
630.6730302886374	0.982\\
631.5241044345235	0.982\\
632.3724283379472	0.982\\
633.2225294380346	0.982\\
634.074446944001	0.982\\
634.9265365542199	0.982\\
635.7842728366222	0.982\\
636.6410565112171	0.982\\
637.4960157599571	0.982\\
638.3527523676917	0.982\\
639.2113407928603	0.982\\
640.0690354130898	0.982\\
640.9287349132601	0.982\\
641.7886210032254	0.982\\
642.651054133521	0.982\\
643.5106116133793	0.982\\
644.3722204380554	0.982\\
645.233416654296	0.982\\
646.1004676270404	0.982\\
646.9652645350259	0.982\\
647.8317456579009	0.982\\
648.7009296075569	0.982\\
649.5677256425231	0.982\\
650.4363264062863	0.982\\
651.3031532103541	0.982\\
652.1766259869312	0.982\\
653.0501082072981	0.982\\
653.9215710724013	0.982\\
654.7980759923246	0.982\\
655.6773808690862	0.982\\
656.5563111862562	0.982\\
657.4322896161318	0.982\\
658.3135493524148	0.982\\
659.1931834744362	0.982\\
660.0731575342697	0.982\\
660.9593162718318	0.982\\
661.8507000981131	0.982\\
662.7366251175522	0.982\\
663.624841581762	0.982\\
664.5112140202268	0.982\\
665.4027516115905	0.982\\
666.2946744952274	0.982\\
667.1864918211306	0.982\\
668.0829360081555	0.982\\
668.982491107116	0.982\\
669.879701172269	0.982\\
670.7772852009964	0.982\\
671.6785675307792	0.982\\
672.5792073919633	0.982\\
673.482381974515	0.982\\
674.3896032514294	0.982\\
675.2982021132941	0.982\\
676.2040655113551	0.982\\
677.1129386555308	0.982\\
678.025591389561	0.982\\
678.9399304422304	0.982\\
679.8541530717516	0.982\\
680.7712112315996	0.982\\
681.6894840860055	0.982\\
682.6092541677001	0.982\\
683.5272609537842	0.982\\
684.4488743932984	0.982\\
685.3775800265878	0.982\\
686.3025527545947	0.982\\
687.2306555170044	0.982\\
688.1565443203638	0.982\\
689.0894922855637	0.982\\
690.0240523631844	0.982\\
690.9598381666153	0.982\\
691.9009986401907	0.982\\
692.8461755771525	0.982\\
693.7908829285077	0.982\\
694.7299502974756	0.982\\
695.6753622371589	0.982\\
696.6237297365233	0.982\\
697.5751868160869	0.982\\
698.5276956872949	0.982\\
699.4842469187531	0.982\\
700.4410228121335	0.982\\
701.4040768840773	0.982\\
702.3709042907053	0.982\\
703.3361645062716	0.982\\
704.3024555800198	0.982\\
705.2703789207435	0.982\\
706.243699919786	0.982\\
707.2180444667376	0.982\\
708.192456605891	0.982\\
709.165274235198	0.982\\
710.1451634888758	0.982\\
711.1267508984045	0.982\\
712.1170881903986	0.982\\
713.1073787767452	0.982\\
714.1015439619086	0.982\\
715.1026856687495	0.982\\
716.1018334268533	0.982\\
717.1045068560625	0.982\\
718.1124893141298	0.982\\
719.1159179287213	0.982\\
720.1289168774344	0.982\\
721.1451062556787	0.982\\
722.1628199997076	0.982\\
723.1832342515397	0.982\\
724.2102861491608	0.982\\
725.2361413172428	0.982\\
726.2633501406599	0.982\\
727.294483430831	0.982\\
728.331088717847	0.982\\
729.3690391724101	0.982\\
730.4120088704428	0.982\\
731.4599929657147	0.982\\
732.5143743638255	0.982\\
733.5735745866434	0.982\\
734.6348026096289	0.982\\
735.7028849579629	0.982\\
736.777861816028	0.982\\
737.8559710197073	0.982\\
738.9381928657783	0.982\\
740.0263655176273	0.982\\
741.1170111079907	0.982\\
742.2151415183407	0.982\\
743.3125477306871	0.982\\
744.4211126544437	0.982\\
745.533882035289	0.982\\
746.6500374104135	0.982\\
747.7719315348104	0.982\\
748.8986975270043	0.982\\
750.0324458954603	0.982\\
751.1699269505498	0.982\\
752.3185821598267	0.982\\
753.4708793271147	0.982\\
754.6325786229143	0.982\\
755.8081558433728	0.982\\
756.9851544768517	0.982\\
758.1670199275645	0.982\\
759.3618140727338	0.982\\
760.5565294301823	0.982\\
761.6604242678779	0.982\\
761.7678588135082	0.982\\
762.987882706158	0.9823961685638503\\
764.214461009715	0.986892548616394\\
765.4568983778809	0.9913990569257092\\
766.7045149693042	0.9959495926734148\\
767.9687192469412	1.000504684463091\\
769.235381342141	1.0051057186107943\\
770.5161842464395	1.0097009317225163\\
771.8171769313165	1.0143325326556676\\
773.1245905902938	1.0190218827522204\\
774.4528171430891	1.023718880586798\\
775.7998694250603	1.0284748793134137\\
777.1631026706443	1.0332821097218534\\
778.5475270360478	1.0381305556934755\\
779.9465342529186	1.0430374493460872\\
781.3689533763334	1.047978750353331\\
782.8174529102821	1.0529850568454984\\
784.2853638751565	1.0580649235758415\\
785.7839160226981	1.0631941461890992\\
787.3166230160559	1.0684111454671685\\
788.8694177083539	1.0737269988498062\\
790.445368837472	1.0790918641513534\\
792.0554040067857	1.0845155937292965\\
793.6669858001396	1.090034799801266\\
795.29064171204	1.0955371449283835\\
796.8876231305601	1.1010584633340688\\
798.4584112043144	1.106467187554967\\
800.0163373585076	1.1117661327632065\\
801.5424134548705	1.117001224300219\\
803.0369936482819	1.1221095289124619\\
804.5121413089328	1.1270935401182034\\
805.9627694591468	1.1319945860283815\\
807.3891094346895	1.136796626953711\\
808.7887547422254	1.1415013832281136\\
810.175858202268	1.1461018740588271\\
811.5390842669638	1.150645428244117\\
812.8892435546454	1.155095544609766\\
814.2262822617113	1.1594882380811162\\
815.5455008227439	1.1638238213243368\\
816.8517894643032	1.1680875906912407\\
818.1550008857048	1.1722959154598014\\
819.439684122462	1.1764808829468205\\
820.7178699980323	1.180593198002272\\
821.9777064119933	1.184671854211114\\
823.2362474444535	1.1886794067293835\\
824.4820308138185	1.1926705130557784\\
825.7156026752261	1.1966090315000393\\
826.9427015118342	1.200497098844155\\
828.1659159030451	1.2043531362160687\\
829.3752783549542	1.2081854780188992\\
830.5837365947682	1.2119631496021823\\
831.7837078856855	1.2157268909472045\\
832.979074966881	1.21945322723609\\
834.1666475288632	1.2231544487276915\\
835.3492689059235	1.2268208723251766\\
836.5256588727543	1.2304614958349454\\
837.6950146857	1.2340725596647988\\
838.8529147113559	1.237651808377465\\
840.0156034736649	1.2411859693777045\\
841.1694861702363	1.24472480279212\\
842.3179602676048	1.2482269696506414\\
843.4618054039834	1.2517030089006647\\
844.5972011447427	1.2551554432234595\\
845.7307565213584	1.2585729252710105\\
845.775816578802	1.2619755302510478\\
845.800696383948	1.2621104513438879\\
845.8178306770467	1.2621849399606728\\
845.82978090755	1.2622362360020278\\
845.8410230125139	1.262272010744815\\
845.909484978341	1.2623056646477113\\
846.207194134234	1.2625106013661973\\
846.9849658552212	1.2634015823385942\\
848.1450817321536	1.2657273679025427\\
849.3108475200652	1.2691896894368346\\
850.4851670911714	1.2726591584164124\\
851.6649959368278	1.276144283073636\\
852.8552080292368	1.279635875469879\\
854.0528255261991	1.283148211186797\\
855.2545891118257	1.2866723031913267\\
856.4684776505958	1.2901984391757872\\
857.688303456476	1.2937498877094915\\
858.9197318768861	1.2973083313373934\\
860.1579541861934	1.3008901301145273\\
861.4052143615625	1.3044810828347237\\
862.6600358333349	1.3080875404062904\\
863.9340169484929	1.3117050536110022\\
865.2105306676074	1.3153667942758787\\
866.5045391109227	1.3190246720377599\\
867.8102138534362	1.3227213946252028\\
869.1277975401963	1.3264399499734465\\
870.4631946641009	1.3301807620228903\\
871.8051123697117	1.3339602652476175\\
873.1663136985346	1.3377461772107555\\
874.5361045692266	1.3415742526288352\\
875.9251188333387	1.3454140482672585\\
877.3338130519294	1.3492950831495003\\
878.7634760258018	1.3532181515342336\\
880.2030538117244	1.3571863367294776\\
881.6608479127276	1.3611685380933936\\
883.1453021420614	1.3651874119382155\\
884.6478782527397	1.3692656904507805\\
886.1710437202976	1.3733793012051239\\
887.7208844559796	1.3775345113538833\\
889.2962695054086	1.3817473216693013\\
890.8770170643938	1.386013949041078\\
892.4841408538894	1.3902792620944413\\
894.0992436789757	1.3945996446379607\\
895.7213171032517	1.3989251200367416\\
897.3437017527356	1.403252833533149\\
898.967957938668	1.4075649575457716\\
900.5865925397538	1.4118656907229634\\
902.1930905537124	1.4161352959890596\\
903.7791156353987	1.4203569042542914\\
905.361631020548	1.4245091330113642\\
906.9135862640919	1.4286368830902276\\
908.4477995558295	1.432670051925761\\
909.9647550214086	1.4366427535643242\\
911.4752603087409	1.4405567944754822\\
912.9752568317836	1.4444404879982176\\
914.457488172854	1.4482836736913387\\
915.9198084458162	1.4520681703362985\\
917.3739423312372	1.4557890452001858\\
918.8189927045617	1.4594765931249096\\
920.253239749464	1.4631288100096043\\
921.6845701623604	1.4667416469653054\\
923.097823094645	1.4703352201838271\\
924.5009656514314	1.4738717244261406\\
925.9021682044986	1.4773715176173483\\
927.2893797114887	1.4808551985719904\\
928.6772552156829	1.484293003033917\\
930.0556829104503	1.4877215008059237\\
931.4269348447729	1.4911158270474278\\
932.7921831332058	1.4944818217402138\\
934.1439697026142	1.497822560810866\\
935.4982371613928	1.5011200358206467\\
936.8420098232793	1.504413351691538\\
938.1873074599466	1.5076710438002459\\
939.524178407926	1.5109224284692437\\
940.8542436160262	1.5141435388161673\\
942.1805736620049	1.5173384917323338\\
943.4996539796407	1.5205148250122704\\
944.8221930231991	1.5236642672809646\\
946.1410255194241	1.5268124949878612\\
947.4436198250291	1.5299424687678829\\
948.749141051655	1.5330246587490732\\
950.0561930762779	1.5361046446135012\\
951.3589992821153	1.5391791157789032\\
952.6534538639376	1.5422345299907345\\
953.9482949173287	1.5452614108461167\\
955.2393316770244	1.5482803311536473\\
956.5322730320488	1.55128157585395\\
957.8189966754385	1.5542784840828217\\
959.105166154498	1.5572522822134098\\
960.3885618699094	1.5602161754955095\\
961.6683379748781	1.563165107636789\\
961.8900959876896	1.5660972276932468\\
962.1173788590052	1.5666039426188436\\
962.3428680524232	1.5671230225875896\\
962.56802959569	1.5676377434082496\\
962.7996911214962	1.5681514561357768\\
963.0320906668592	1.5686797309661742\\
963.2614777768918	1.569209413138028\\
963.4940106330841	1.5697319570550827\\
963.7264594427861	1.5702613940498051\\
963.9581000618541	1.5707903636300575\\
964.1820262154031	1.5713172193287983\\
964.4011221310434	1.5718262650327006\\
964.626314063961	1.5723240806819563\\
964.8594757496	1.5728354954198782\\
965.071072011084	1.5733647415495682\\
965.3043243930572	1.5738447880403388\\
965.535829287599	1.5743737125292079\\
965.7690293613512	1.5748984002826307\\
965.9963598268891	1.5754266558152925\\
966.2257242495687	1.5759413468996486\\
966.4594825905908	1.5764603784910478\\
966.6891218414455	1.5769890811035354\\
966.9225096314033	1.5775081960443296\\
967.1532007077203	1.5780355133287252\\
967.3871986793604	1.5785564657526574\\
967.6167495064881	1.579084612882148\\
967.8463893899755	1.5796024518369323\\
968.0713862524065	1.5801202257774491\\
968.3062283896995	1.5806272709918354\\
968.5252946941298	1.5811562360346798\\
968.7566319579862	1.5816494096357168\\
968.9870583162069	1.5821699521375872\\
969.2220781300532	1.5826881770883334\\
969.4526687796663	1.5832164601427787\\
969.6779495827345	1.5837345155996974\\
969.9071544081764	1.5842403816258037\\
970.1419674850199	1.5847547997864837\\
970.369180270571	1.5852815347183016\\
970.6051306107572	1.5857909542453053\\
970.8415594275718	1.5863196946459501\\
971.068945021866	1.5868492283459266\\
971.3043106453881	1.5873582400870196\\
971.5355284132872	1.5878848475010185\\
971.7715141347753	1.588401903423954\\
972.0002638870978	1.5889293491223415\\
972.2321165284488	1.5894403536764794\\
972.466267281738	1.589958025478737\\
972.7020851302366	1.5904805581467303\\
972.9366498276297	1.5910065364817316\\
973.1729514357808	1.591529445093311\\
973.4092859887608	1.5920559504534866\\
973.6378301665491	1.5925822522079214\\
973.8728751679666	1.5930909383128562\\
974.1049712854087	1.593613827037367\\
974.3396895065509	1.5941298858433242\\
974.5757961926081	1.594651505116785\\
974.8132834693172	1.5951759359596611\\
975.0502236745785	1.5957031562374402\\
975.2853078540645	1.5962288843510355\\
975.522729679539	1.596750219738917\\
975.7589540533895	1.5972764639171793\\
975.9900298313537	1.5977997778565212\\
976.1959735509447	1.598311417830223\\
976.4295084962621	1.5987671793433176\\
976.6637657179458	1.599283762344514\\
976.9038664042728	1.5998016742848933\\
977.1433969441441	1.6003322287543473\\
977.3685060535031	1.6008612413707772\\
977.6047630518242	1.6013581407589048\\
977.845174252185	1.601879386171459\\
978.0846502528711	1.602409518496733\\
978.3254759604552	1.6029373071611495\\
978.5620064255243	1.603467788542004\\
978.7870049328396	1.603988530795247\\
979.0272737564378	1.6044836258120272\\
979.2560279674112	1.6050120571379811\\
979.4983582377206	1.6055148972383944\\
979.7368483253374	1.6060473085763207\\
979.9785035344519	1.6065710020215527\\
980.2175974215363	1.6071013651606307\\
980.4596258197396	1.607625826480203\\
980.7020115480502	1.6081564435474944\\
980.9438488977883	1.6086875593942689\\
981.1828363487168	1.6092171895336027\\
981.4199606973204	1.6097402986284628\\
981.6533923054228	1.610259055533208\\
981.894221321126	1.61076946644042\\
982.1223755726678	1.6112957797649456\\
982.352047913344	1.6117941291217974\\
982.5660557706956	1.6122955413478488\\
982.8096509648931	1.612762519707407\\
983.0531049512961	1.6132938053875856\\
983.2931463469392	1.6138244974778764\\
983.5335652281415	1.614347469718218\\
983.775608498408	1.6148709868054756\\
984.0205211978212	1.6153977612362298\\
984.2609240003505	1.6159304956578402\\
984.4876949195414	1.616453138047302\\
984.7282871279056	1.6169458841448758\\
984.9725513472592	1.6174683995504142\\
985.2164884921131	1.6179986080625683\\
985.459361475552	1.618527821568563\\
985.7041238177674	1.619054443270577\\
985.9471856589105	1.6195848775067039\\
986.1908192093445	1.620111342684277\\
986.4230950037575	1.6206387636431516\\
986.6693590857699	1.6211413284668477\\
986.9162674033553	1.6216738853622423\\
987.1628635783022	1.622207545987607\\
987.4064371489051	1.6227402424190789\\
987.6534430838599	1.6232661242701716\\
987.9007627799385	1.6237991306680093\\
988.1366639877324	1.6243325242199211\\
988.3810441612784	1.624841015950544\\
988.6240514028852	1.6253675104100531\\
988.8683960710582	1.6258907659848962\\
989.1111837283636	1.6264166203474133\\
989.3471690047206	1.6269388435692311\\
989.5880236299408	1.6274461651988053\\
989.837110251777	1.6279636862359763\\
990.0875932531237	1.6284986115072049\\
990.3290207910529	1.629036241374087\\
990.5791494680714	1.6295541508591098\\
990.82138984536	1.6300904409998407\\
991.0515401734126	1.6306095339672178\\
991.2956861852417	1.6311024584374154\\
991.545102476874	1.631625093058223\\
991.796424845088	1.6321587233797392\\
992.0455832974276	1.6326961377225144\\
992.2966896000758	1.6332286317105997\\
992.545335535568	1.6337649955319042\\
992.7865460018159	1.6342958121832645\\
993.0360072810779	1.6348104757205095\\
993.28506188696	1.635342461987901\\
993.5328130663929	1.6358732911027167\\
993.7819472800786	1.636401054511384\\
994.0298665695213	1.6369314763518625\\
994.28332749078	1.6374590240788989\\
994.5338882299045	1.637998070991093\\
994.7825118450537	1.6385306549879832\\
995.0344079785104	1.639058832301018\\
995.2872605553328	1.6395936707820868\\
995.5359407078724	1.6401302445415649\\
995.7808423645638	1.640657673051226\\
996.0318735533476	1.6411768060230594\\
996.2769463676209	1.6417086471137377\\
996.5316440955264	1.6422275807202773\\
996.7761749876875	1.6427666055005217\\
997.0227468542284	1.643283827264327\\
997.2781982494623	1.64380508770348\\
997.5302438627698	1.6443448285933293\\
997.7826148251493	1.6448770772024033\\
998.0388986786468	1.645409720090597\\
998.2949644012431	1.6459503235684005\\
998.5509883822042	1.6464901654007844\\
998.7946038513239	1.6470296182408612\\
999.0499205864726	1.647542640789006\\
999.3083965123906	1.6480800185036037\\
999.5629898627544	1.6486237429550046\\
999.8166921511613	1.6491589992719562\\
1000.0617032095586	1.6496920869203453\\
1000.3138477016871	1.6502066289798516\\
1000.5729628754809	1.6507358690891285\\
1000.8241946090789	1.6512794416316074\\
1001.0822062062359	1.6518061801980832\\
1001.328453565374	1.6523468377097608\\
1001.5850518054558	1.652862555357067\\
1001.8423704801417	1.6533996626320782\\
1002.0985520386369	1.653937977788659\\
1002.3613274505014	1.6544736148512693\\
1002.6204028824336	1.6550227326348832\\
1002.8789103714157	1.6555638103274273\\
1003.1376115131122	1.6561033985533524\\
1003.3893349367822	1.656643088288881\\
1003.6449450950583	1.6571679275479332\\
1003.9065256887429	1.6577005794874657\\
1004.1635292120388	1.6582453704489195\\
1004.407725033815	1.6587803258979417\\
1004.6725951973037	1.6592883401424974\\
1004.9348175463385	1.6598390711567912\\
1005.1943161583908	1.660383984336202\\
1005.4474083482348	1.660922931659543\\
1005.7100532101156	1.6614482790502927\\
1005.9731518359933	1.6619931557610776\\
1006.2377043719614	1.6625386637918034\\
1006.4990225285967	1.663086874223319\\
1006.7642152654587	1.663628072967374\\
1007.0233700415454	1.664176985622194\\
1007.286334096495	1.6647130937436454\\
1007.5529916284577	1.6652567772290277\\
1007.8099876380761	1.6658077836872225\\
1008.080919075144	1.6663385212623874\\
1008.3439453636126	1.666897726124285\\
1008.6120149009832	1.6674402980435374\\
1008.877332932909	1.6679929590249762\\
1009.1480895436371	1.6685396314587608\\
1009.4098863805791	1.6690971901811227\\
1009.6756131121699	1.6696359845621733\\
1009.943121255644	1.6701825580712388\\
1010.20576547165	1.6707324806432944\\
1010.457978303532	1.671272093697101\\
1010.6908855543447	1.6717899828967722\\
1010.9608474621125	1.672267972211435\\
1011.2240947239409	1.6728217268293215\\
1011.4950394864943	1.6733613951008408\\
1011.762580740889	1.6739165283964443\\
1012.0208470402235	1.6744643692428074\\
1012.296123059016	1.6749929144960594\\
1012.5624466695765	1.6755559561344782\\
1012.8253088157176	1.6761003653619762\\
1013.094320035922	1.6766373916872288\\
1013.3546231151506	1.6771866697733144\\
1013.6291999190892	1.6777178609907555\\
1013.9008185992973	1.6782778657758102\\
1014.1783824155966	1.678831511280145\\
1014.4581842923433	1.6793969446840469\\
1014.7289886924791	1.6799665978120857\\
1015.0039378208669	1.6805176028698523\\
1015.2841752090671	1.681076716109383\\
1015.5595654960212	1.681646246887383\\
1015.8336937421809	1.6822055912578602\\
1016.097544468777	1.6827620440303306\\
1016.3699859627418	1.683297320980894\\
1016.6502228993988	1.6838497132302865\\
1016.9256750391069	1.6844175792852099\\
1017.2003271163592	1.6849754153194616\\
1017.4837216014282	1.6855313034938346\\
1017.7668980703504	1.6861045484562687\\
1018.0481555859933	1.6866770054624856\\
1018.315453432836	1.6872452393129518\\
1018.5956878038853	1.6877849466725696\\
1018.8814919684132	1.6883504503343332\\
1019.1651197632898	1.6889268480822934\\
1019.4336425431543	1.6894985078642957\\
1019.7016567811468	1.6900393967635958\\
1019.984941897299	1.6905789520914623\\
1020.266346311869	1.6911489228212322\\
1020.541148034278	1.6917147677676896\\
1020.8245283065626	1.692267005216953\\
1021.0928824995792	1.692836147784495\\
1021.3832876554004	1.6933747877622838\\
1021.6675858062349	1.6939573533084697\\
1021.9430407039295	1.6945273158471914\\
1022.2244976053439	1.6950792159631618\\
1022.5087775301961	1.6956428106295798\\
1022.7915735556717	1.6962117171147053\\
1023.0782518088736	1.6967773119866245\\
1023.3587015269509	1.697350326309246\\
1023.645004880719	1.6979105499773592\\
1023.9316188110906	1.6984821255206515\\
1024.205936293266	1.6990539731023482\\
1024.4737198107855	1.6996009549089652\\
1024.744502489133	1.7001345977432951\\
1025.023770387891	1.7006739104377595\\
1025.315508825312	1.701229802732366\\
1025.5864096590176	1.701810173004155\\
1025.888942525357	1.702348758247383\\
1026.1752610104236	1.70294988377097\\
1026.4697768081355	1.703518428339672\\
1026.7592047319445	1.7041028949271562\\
1027.0511266126605	1.7046769068009837\\
1027.3482528903346	1.7052555098621325\\
1027.639870031278	1.7058440639596406\\
1027.927470114224	1.7064213427483792\\
1028.2039178149957	1.7069903186054507\\
1028.506637803021	1.7075368993368496\\
1028.800368622235	1.7081350724479352\\
1029.077982626276	1.708715112449926\\
1029.3698950899147	1.7092629871246632\\
1029.6453685574215	1.7098387410052893\\
1029.954258649178	1.7103817378240722\\
1030.2483249157108	1.7109902465148323\\
1030.5516852928222	1.7115691761500482\\
1030.8354987578787	1.712166031871921\\
1031.1376646982394	1.712724073768762\\
1031.4434636279507	1.7133178437665086\\
1031.7402889294335	1.7139183697794098\\
1032.0412375460855	1.7145008986465886\\
1032.330230299438	1.7150911500715411\\
1032.6295547640898	1.7156575942454855\\
1032.9142353848033	1.716243931496197\\
1033.2173340806112	1.7168012333211635\\
1033.5046952778398	1.7173942342168558\\
1033.813938434971	1.7179560882229437\\
1034.1057658109016	1.7185603591267853\\
1034.4042003666582	1.7191302298615678\\
1034.7138726545168	1.719712645047899\\
1035.0090698942927	1.7203166116935327\\
1035.3098790286576	1.720891973911764\\
1035.600604050811	1.7214779104376832\\
1035.898327525526	1.722043847832644\\
1036.1871457079424	1.7226230547321981\\
1036.4744613099724	1.7231845867404294\\
1036.7867474113564	1.7237428593017934\\
1037.0894041825804	1.72434928370719\\
1037.3970984792581	1.72493662534738\\
1037.7040047160826	1.7255333640420951\\
1038.0226477760625	1.726128191054313\\
1038.3283431519035	1.726745368018785\\
1038.6498131496915	1.7273370730861353\\
1038.9634325026095	1.7279589124258772\\
1039.2650150555933	1.7285651587222488\\
1039.54770145147	1.7291477559737887\\
1039.8477316339704	1.729693506956833\\
1040.1350820004873	1.7302723983003774\\
1040.4484540162148	1.7308264783020306\\
1040.7680651253859	1.7314303697089568\\
1041.0866887217949	1.7320458810836814\\
1041.410944768506	1.7326590817219198\\
1041.7184170842852	1.7332827071295467\\
1042.0283359111313	1.7338736549007412\\
1042.3432648148555	1.7344689229560712\\
1042.654709824275	1.735073423098834\\
1042.9667445353025	1.7356708442406408\\
1043.2924735535748	1.736269008495595\\
1043.619035911664	1.7368930179125464\\
1043.9185619654754	1.737518199855597\\
1044.231099964963	1.7380912352803142\\
1044.528549256992	1.738688791093836\\
1044.8662028967337	1.739257129916203\\
1045.181589467019	1.7399018854938197\\
1045.5077086092306	1.7405037012353581\\
1045.832864052291	1.7411255884472046\\
1046.1468043871414	1.741745218453688\\
1046.4589292663727	1.7423430738608654\\
1046.7795458462574	1.742937085204648\\
1047.0896466831027	1.7435468618512935\\
1047.384766165033	1.7435468618512933\\
1047.6979380855132	1.7435468618512933\\
1048.0095643166992	1.7435468618512933\\
1048.3179168554893	1.7435468618512933\\
1048.6504975259795	1.7435468618512933\\
1048.9637169609728	1.7435468618512933\\
1049.2960989614407	1.7435468618512933\\
1049.61798604177	1.7435468618512933\\
1049.9250810711828	1.7435468618512933\\
1050.2648743646682	1.7435468618512933\\
1050.5925058414673	1.7435468618512933\\
1050.908927373282	1.7435468618512933\\
1051.2246893974698	1.7435468618512933\\
1051.5442867643983	1.7435468618512933\\
1051.8538330238762	1.7435468618512933\\
1052.2031092327861	1.7435468618512933\\
1052.5217686747283	1.7435468618512933\\
1052.8698965892308	1.7435468618512933\\
1053.169256862484	1.7435468618512933\\
1053.512761406717	1.7435468618512933\\
1053.846052630488	1.7435468618512933\\
1054.186625944832	1.7435468618512933\\
1054.5381676252418	1.7435468618512933\\
1054.8804649656613	1.7435468618512933\\
1055.2297115406645	1.7435468618512933\\
1055.578801266473	1.7435468618512933\\
1055.8999900052522	1.7435468618512933\\
1056.2306925880862	1.7435468618512933\\
1056.5783108848623	1.7435468618512933\\
1056.913531040455	1.7435468618512933\\
1057.2245545702676	1.7435468618512933\\
1057.5650884584165	1.7435468618512933\\
1057.924959370569	1.7435468618512933\\
1058.269651032007	1.7435468618512933\\
1058.6172715125635	1.7435468618512933\\
1058.9607431980307	1.7435468618512933\\
1059.302023230554	1.7435468618512933\\
1059.631852032333	1.7435468618512933\\
1059.9892929504385	1.7435468618512933\\
1060.3236718654657	1.7435468618512933\\
1060.6509302771233	1.7435468618512933\\
1061.032688233382	1.7435468618512933\\
1061.3827222059663	1.7435468618512933\\
1061.7093376784815	1.7435468618512933\\
1062.0749055487927	1.7435468618512933\\
1062.438370434159	1.7435468618512933\\
1062.7679426253076	1.7435468618512933\\
1063.0893412607202	1.7435468618512933\\
1063.439206969033	1.7435468618512933\\
1063.8099638502586	1.7435468618512933\\
1064.1664370844692	1.7435468618512933\\
1064.5148131052251	1.7435468618512933\\
1064.864989014086	1.7435468618512933\\
1065.1876417394647	1.7435468618512933\\
1065.5268797482313	1.7435468618512933\\
1065.846605131761	1.7435468618512933\\
1066.2258032778482	1.7435468618512933\\
1066.5739473737876	1.7435468618512933\\
1066.9119871514213	1.7435468618512933\\
1067.2727822769548	1.7435468618512933\\
1067.624032708287	1.7435468618512933\\
1067.96614859061	1.7435468618512933\\
1068.3193438462163	1.7435468618512933\\
1068.6611160556026	1.7435468618512933\\
1069.0122025979367	1.7435468618512933\\
1069.342948890675	1.7435468618512933\\
1069.6899637102956	1.7435468618512933\\
1070.0530343815926	1.7435468618512933\\
1070.4043262555838	1.7435468618512933\\
1070.7244863373317	1.7435468618512933\\
1071.087029435314	1.7435468618512933\\
1071.442611531069	1.7435468618512933\\
1071.8211279606708	1.7435468618512933\\
1072.1637583807374	1.7435468618512933\\
1072.5310990968273	1.7435468618512933\\
1072.8721246576852	1.7435468618512933\\
1073.2413262694486	1.7435468618512933\\
1073.6001621946975	1.7435468618512933\\
1073.959742250002	1.7435468618512933\\
1074.291793938598	1.7435468618512933\\
1074.6351346147485	1.7435468618512933\\
1074.9676249311037	1.7435468618512933\\
1075.2941163185415	1.7435468618512933\\
1075.667677106263	1.7435468618512933\\
1076.0276158566894	1.7435468618512933\\
1076.4218765413261	1.7435468618512933\\
1076.803003842173	1.7435468618512933\\
1077.1711366510945	1.7435468618512933\\
1077.520332324667	1.7435468618512933\\
1077.893684641132	1.7435468618512933\\
1078.2676718552798	1.7435468618512933\\
1078.6490105999887	1.7435468618512933\\
1078.880932616033	1.7435468618512933\\
1079.001546921405	1.7435468618512933\\
1079.3891287770684	1.7430336750453959\\
1079.775608912024	1.7413846879235089\\
1080.1344773846795	1.7397405195745757\\
1080.487085378522	1.7382139343550063\\
1080.81640187604	1.736714090250709\\
1081.1898894104338	1.7353134162987554\\
1081.568367806707	1.7337249851186\\
1081.9780603448703	1.732115451712576\\
1082.3573851905603	1.7303733158168246\\
1082.7079890006116	1.7287604420522102\\
1083.10119119815	1.7272697995148545\\
1083.468507286157	1.7255981698863618\\
1083.826123640839	1.724036710649568\\
1084.1611481703603	1.7225165962368856\\
1084.5394407252156	1.7210926119788297\\
1084.916748601575	1.7194848372137281\\
1085.2847891705824	1.7178813690775325\\
1085.6466877272742	1.7163174016030074\\
1086.012613297406	1.7147796465340854\\
1086.394150203405	1.713224893118686\\
1086.7721510986967	1.711603930604612\\
1087.1410213141999	1.7099981121474868\\
1087.5181088507552	1.708431198673899\\
1087.8982394819318	1.7068294974259297\\
1088.289537728905	1.7052149913228476\\
1088.6758096110775	1.7035531801663744\\
1089.0519374290598	1.7019128411682343\\
1089.417449489385	1.7003156995472009\\
1089.8053748914563	1.6987637482488003\\
1090.1921613795462	1.6971167521946129\\
1090.5544634527268	1.6954747158869785\\
1090.9396960690533	1.6939367363735376\\
1091.3294388863455	1.6923015352511768\\
1091.7311331163783	1.690647314197492\\
1092.1014785320212	1.6889424975200096\\
1092.5017314341908	1.6873708447148947\\
1092.877237632913	1.685672398502766\\
1093.2769509803493	1.6840790824452974\\
1093.6762395293272	1.6823831792003785\\
1094.0615941794722	1.6806892083068274\\
1094.448511745149	1.6790544745849925\\
1094.828761273854	1.6774132320343242\\
1095.1980962614325	1.6758003924278106\\
1095.6213889947007	1.6742339591335194\\
1096.0168891024514	1.67243881425407\\
1096.391311769445	1.6707616657560016\\
1096.765359744269	1.6691740136724766\\
1097.150955318104	1.6675880627496766\\
1097.509016698345	1.665953267743648\\
1097.8964322542033	1.6644353149074291\\
1098.3016142167844	1.6627930343065351\\
1098.6909333085732	1.6610755686824876\\
1099.103870650537	1.6594254648509632\\
1099.5028408787016	1.6576753881091513\\
1099.9051884838636	1.6559846339864026\\
1100.2897557289748	1.6542796947512954\\
1100.6848550174718	1.6526502188831151\\
1101.0885125721388	1.6509762383853261\\
1101.4904684921962	1.6492661245516906\\
1101.8996409471274	1.6475633469333946\\
1102.2851398745515	1.6458301285093748\\
1102.6718603547301	1.644197308924729\\
1103.061781565997	1.6425594319756185\\
1103.427162323852	1.6409081170540885\\
1103.8257320226617	1.6393608382936704\\
1104.1927208326674	1.637673132578915\\
1104.6160967803785	1.6361192621570289\\
1105.0015502997849	1.63432677208692\\
1105.3966806922613	1.6326949586294486\\
1105.781640134839	1.6310222972900328\\
1106.1935076166365	1.629392807226729\\
1106.5780226246734	1.6276495447233565\\
1106.9846373273126	1.6260221714021903\\
1107.373249564825	1.6243013894499012\\
1107.7511592324636	1.6226569117358522\\
1108.1340329829077	1.6210578344650068\\
1108.521671090395	1.6194378634727942\\
1108.9260797853394	1.6177978479042279\\
1109.3378658697857	1.6160870013661648\\
1109.747530924929	1.614345072535071\\
1110.1350480905817	1.612612243664712\\
1110.540642782545	1.6109732144083972\\
1110.9422535826188	1.6092578466932608\\
1111.3315470626012	1.607559450296258\\
1111.729622295481	1.6059132594221044\\
1112.1173334106256	1.6042300514456875\\
1112.5188200305483	1.6025907812571014\\
1112.9242795595114	1.6008933861634689\\
1113.325639099614	1.5991793171106479\\
1113.7378645918543	1.5974827018175328\\
1114.1293622163244	1.5957402795975577\\
1114.558761849783	1.594085588704881\\
1114.9535987827876	1.5922708337529183\\
1115.3321793031078	1.5906022708559133\\
1115.70800840754	1.5890025155873158\\
1116.1121421691819	1.5874144920719035\\
1116.519205233923	1.5857069872000102\\
1116.9520920275259	1.583987227904415\\
1117.3568550636487	1.5821585029010918\\
1117.7761218621627	1.5804487114564474\\
1118.1762069365423	1.5786777808136903\\
1118.586148814908	1.5769879919918046\\
1118.9995906118838	1.5752566942469735\\
1119.405914186404	1.5735107403006694\\
1119.8205332502084	1.5717949684937158\\
1120.237691956852	1.570044292125044\\
1120.6511627510772	1.5682830192714885\\
1121.0758815162053	1.5665374424179574\\
1121.4987890988446	1.5647445090626806\\
1121.9113968931065	1.5629593520742877\\
1122.3198428770957	1.5612177974306276\\
1122.7241360037178	1.5594939309715459\\
1123.1385812198691	1.5577877110693157\\
1123.554611965636	1.5560387697341986\\
1123.9580528453512	1.5542832625932514\\
1124.3561683121575	1.5525809999049682\\
1124.7737484271925	1.5509013223053445\\
1125.1864691113901	1.5491396448450212\\
1125.6005753339714	1.5473985917274686\\
1126.0048641273283	1.5456518169924651\\
1126.3976225798306	1.5439465729108033\\
1126.8043206348343	1.5422900749335386\\
1127.2308147295103	1.5405749019529837\\
1127.6546215090843	1.53877637024459\\
1128.0687355611553	1.5369893000066304\\
1128.4589598328912	1.5352432252963197\\
1128.8642508624657	1.533597991849022\\
1129.2511456573197	1.531889350192698\\
1129.6321994417704	1.5302583734012862\\
1130.0530787881003	1.5286521239847959\\
1130.48374846357	1.5268781187172973\\
1130.911441507847	1.5250629776645424\\
1131.3297162319336	1.5232605126364431\\
1131.7457870055114	1.521497865679573\\
1132.1623584606446	1.5197446294799222\\
1132.5770152203863	1.517989406413069\\
1132.995557429092	1.5162423729346135\\
1133.399987650716	1.5144790926205909\\
1133.8288775236883	1.5127753824599595\\
1134.2414461272956	1.510968759337545\\
1134.6614353308992	1.5092310091859478\\
1135.0737093551497	1.5074621265490538\\
1135.4917594906083	1.505725859074089\\
1135.900970730831	1.5039653880491666\\
1136.3410814923427	1.5022422580060686\\
1136.7716347038522	1.5003891458916359\\
1137.2131010613211	1.4985764080744746\\
1137.6524715487171	1.4967178582777088\\
1138.0720976587772	1.494868267721762\\
1138.4974959772044	1.4931019201762497\\
1138.9204473053928	1.4913114013686133\\
1139.3444306731244	1.4895313076326344\\
1139.7736812277171	1.4877469959122878\\
1140.2107094522366	1.4859406455432262\\
1140.6237254458883	1.484101697838564\\
1141.0390814679354	1.4823639124928067\\
1141.4703137584197	1.4806164014221674\\
1141.8847346682933	1.4788022220706045\\
1142.2918192138009	1.477058889769625\\
1142.7018505823944	1.4753465356428828\\
1143.1258758972426	1.4736219027092234\\
1143.5573870929225	1.4718385329248342\\
1143.9641609673135	1.4700238073720504\\
1144.3925292635722	1.4683132334866977\\
1144.825866633575	1.466511974629526\\
1145.2530552026906	1.4646899508840336\\
1145.6849700854914	1.4628939082282746\\
1146.107448283702	1.4610781233779235\\
1146.5452139275558	1.459302135915318\\
1146.973108920356	1.4574620146615407\\
1147.4104492392676	1.455663512519037\\
1147.8391515655849	1.453825441514784\\
1148.270940807004	1.4520238032483386\\
1148.701986383498	1.4502093208030282\\
1149.145730762095	1.4483980922106787\\
1149.5810237170153	1.4465336383730547\\
1150.0065030740966	1.444704826798849\\
1150.447011335552	1.4429173721596569\\
1150.878523908782	1.441066912494413\\
1151.3004508860672	1.4392543714921888\\
1151.7246966544394	1.4374822186827867\\
1152.1506785522956	1.4357004507289917\\
1152.5859307931796	1.4339115164829335\\
1153.0113308061786	1.4320837804732394\\
1153.438735560882	1.4302975430121236\\
1153.8781906197487	1.4285030136564263\\
1154.306847687657	1.426658020716339\\
1154.7450433386043	1.4248584902329327\\
1155.1801377113588	1.4230190473581965\\
1155.6145379039813	1.4211927541607134\\
1156.0540361515864	1.419369505213065\\
1156.4881519137143	1.4175249915416819\\
1156.9187856343478	1.4157031984036215\\
1157.3502150895752	1.4138961464800857\\
1157.781904591738	1.41208588390381\\
1158.211660590122	1.410274658879201\\
1158.638618929744	1.4084716740739922\\
1159.0755320937092	1.4066805528420663\\
1159.510338380499	1.4048478008027896\\
1159.939582001522	1.4058860340999662\\
1160.3775999628192	1.4056818247410003\\
1161.14783308196	1.4053231120185525\\
1162.1358546079018	1.4048636780891313\\
1163.3901826663282	1.4042815529769197\\
1164.6689125065614	1.4036894154316182\\
1165.9243097312678	1.4031093677790603\\
1167.1699152494248	1.4025350995052348\\
1168.4823704268401	1.4019313601587118\\
1169.7126612593242	1.4013666705529326\\
1171.0082305190895	1.4007733265048072\\
1172.2926746464323	1.4001863980702338\\
1172.5485519816007	1.4000696313187326\\
1172.6424650282024	1.4000267882012496\\
1172.6767941543053	1.4000111290073203\\
1172.6948515058484	1.4000028925414323\\
1172.6984264464327	1.4000012619411935\\
1172.700769914084	1.4000001930453227\\
1172.7018525930794	1.3999996992182997\\
1172.7029108475167	1.399999216532607\\
1172.7082919243126	1.3999967621567313\\
1172.726197968881	1.3999885951539313\\
1172.7893790826001	1.3999597800931918\\
1172.9517982394837	1.3998857200640507\\
1173.3482163583499	1.399705049243151\\
1173.9751360515484	1.399419580807864\\
1174.8330264534657	1.3990294460145054\\
1175.7668086742906	1.3986054624984987\\
1176.904303219857	1.3980899164106368\\
1178.2535589891936	1.397479719192715\\
1179.5472397355961	1.3968960024504364\\
1180.787716401096	1.3963375265130036\\
1182.0550897988533	1.3957681864095066\\
1183.3835920709212	1.395172732617166\\
1184.654901082908	1.3946042011436162\\
1185.951148563353	1.394025809935313\\
1187.2782642456104	1.3934349937320423\\
1188.5497081729682	1.3928702380714149\\
1190.000689887433	1.3922272557963205\\
1191.4234253101454	1.391598360313697\\
1192.7523899673197	1.391012314415668\\
1194.1467500270242	1.390398879725437\\
1195.4921998990535	1.389808365298935\\
1196.9087353116065	1.3891881359255527\\
1198.293178527556	1.3885834248619457\\
1199.6494262456804	1.3879924310476635\\
1200.9986839761145	1.3874058557088003\\
1202.2785048906703	1.3868507287719765\\
1203.6344591900302	1.3862639147890283\\
1205.059413199976	1.3856487169663412\\
1206.4231990488338	1.3850613407622672\\
1207.8047343978433	1.3844677251807733\\
1209.2144073522686	1.3838634729554045\\
1210.6265347082876	1.3832596361596226\\
1212.0408874370714	1.3826563155368166\\
1213.4191045148555	1.382069818125506\\
1214.7756245853457	1.3814939077018398\\
1215.3427688862544	1.3812535238752093\\
};
\end{axis}
\end{tikzpicture}%
