%CL_vs_GroundDistance
\begin{tikzpicture}

\begin{axis}[
width=\figurewidth,
height=\figureheight,
scaled ticks=false, tick label style={/pgf/number format/fixed},
xmin=0.0,
xmax=1385.5092955907228,
xlabel={Ground distance (m)},
xmajorgrids,
ymin=0.0,
ymax=1.8829999312631553,
ylabel={CL },
ymajorgrids,
legend style={at={(1.03,0.5)},anchor=west,draw=black,fill=white,legend cell align=left}
]

\addplot [
color=black,
solid
]
table[row sep=crcr]{
1.3869093119902837E-8	0.982\\
2.2802400501143798E-7	0.982\\
1.9845107591171844E-6	0.982\\
1.0079742469561031E-5	0.982\\
3.5367298177616674E-5	0.982\\
9.660675783559796E-5	0.982\\
2.534206992149265E-4	0.982\\
5.052987232195959E-4	0.982\\
8.616867355095679E-4	0.982\\
0.0013152055866273195	0.982\\
0.0018674566411423644	0.982\\
0.002510837087582184	0.982\\
0.0032575407712107643	0.982\\
0.004103214180283874	0.982\\
0.005035519136351783	0.982\\
0.00607058329777381	0.982\\
0.007204880314881996	0.982\\
0.008424331054039322	0.982\\
0.009698913617500245	0.982\\
0.011075309973140848	0.982\\
0.01259501088237193	0.982\\
0.014199189074540517	0.982\\
0.015871498903692396	0.982\\
0.017682220900124876	0.982\\
0.01956155126760492	0.982\\
0.021548397068577738	0.982\\
0.023652657307740965	0.982\\
0.025825432013610677	0.982\\
0.028124099665392463	0.982\\
0.030526337968969253	0.982\\
0.03302936273409943	0.982\\
0.03554361645946451	0.982\\
0.0382123544715835	0.982\\
0.04095409590247644	0.982\\
0.0438222207968445	0.982\\
0.04676672832884865	0.982\\
0.04988605743958795	0.982\\
0.053087324136893335	0.982\\
0.05634499729565391	0.982\\
0.05967508063008066	0.982\\
0.06310862520356214	0.982\\
0.06663987960188808	0.982\\
0.07023891705536633	0.982\\
0.07403000993100428	0.982\\
0.07787408854255107	0.982\\
0.08182986366574077	0.982\\
0.0858848547797636	0.982\\
0.09001430152838788	0.982\\
0.09432659763184217	0.982\\
0.09872299023791903	0.982\\
0.10319977090401941	0.982\\
0.10778339592877695	0.982\\
0.11245228870442192	0.982\\
0.11727110147440215	0.982\\
0.12218248546421714	0.982\\
0.12711779711085153	0.982\\
0.1321998725352922	0.982\\
0.13741604083836056	0.982\\
0.1427172981186276	0.982\\
0.1480882252188504	0.982\\
0.15356693828927842	0.982\\
0.1590952305545758	0.982\\
0.16486162764624723	0.982\\
0.17068489187062647	0.982\\
0.17653962943575074	0.982\\
0.1825101131885934	0.982\\
0.1886337520060501	0.982\\
0.19494354764248334	0.982\\
0.20124132408712986	0.982\\
0.20771191339881084	0.982\\
0.21438174687555211	0.982\\
0.22111176278272288	0.982\\
0.22788714464546717	0.982\\
0.23479771106887426	0.982\\
0.24182749135934178	0.982\\
0.24894221715209813	0.982\\
0.25626097855534236	0.982\\
0.263701366736137	0.982\\
0.2712184787355255	0.982\\
0.27894298531321915	0.982\\
0.28670940436987347	0.982\\
0.29468483763913733	0.982\\
0.3024961649743947	0.982\\
0.31053369960887267	0.982\\
0.31882721049882745	0.982\\
0.32702449691556956	0.982\\
0.3355648383533507	0.982\\
0.3442344476486452	0.982\\
0.3528184908790096	0.982\\
0.36171259995857563	0.982\\
0.37051905058615364	0.982\\
0.37959301471340456	0.982\\
0.388573045161713	0.982\\
0.39774924453311733	0.982\\
0.40693752621487633	0.982\\
0.41659149834860665	0.982\\
0.42636011505995364	0.982\\
0.4360986489001091	0.982\\
0.44595037394886883	0.982\\
0.4560606614908438	0.982\\
0.4663609646473207	0.982\\
0.47670896030755994	0.982\\
0.48710905399536186	0.982\\
0.497695406431952	0.982\\
0.5082206708816244	0.982\\
0.5188851672909682	0.982\\
0.5299558907294131	0.982\\
0.5410194056495137	0.982\\
0.5521758248016828	0.982\\
0.5635363148185419	0.982\\
0.5748424305347266	0.982\\
0.5863097583457684	0.982\\
0.5978959905609902	0.982\\
0.6097875362411911	0.982\\
0.6219253753063527	0.982\\
0.6340618507092428	0.982\\
0.6465046608278249	0.982\\
0.658898420259374	0.982\\
0.6713853300088926	0.982\\
0.6840319898449596	0.982\\
0.6969170109330325	0.982\\
0.710128651970745	0.982\\
0.7232231224406802	0.982\\
0.7365457760762568	0.982\\
0.7501003104100104	0.982\\
0.763486659087196	0.982\\
0.7770549339636608	0.982\\
0.7908163516726294	0.982\\
0.8047303332786808	0.982\\
0.8192095846979848	0.982\\
0.8334783065364706	0.982\\
0.8477924237388237	0.982\\
0.8622201842672186	0.982\\
0.8770941067528399	0.982\\
0.8918839437062944	0.982\\
0.9069790559660553	0.982\\
0.9220728593849465	0.982\\
0.9371103945132164	0.982\\
0.9524036168246752	0.982\\
0.9680332620840353	0.982\\
0.9839350352010345	0.982\\
0.999705082829937	0.982\\
1.0151244325162292	0.982\\
1.0316676285159887	0.982\\
1.0482105820547338	0.982\\
1.0648305365987465	0.982\\
1.0815726480311159	0.982\\
1.0978487948621107	0.982\\
1.1147652576944633	0.982\\
1.1319749066076445	0.982\\
1.1492245800500824	0.982\\
1.1666865805689253	0.982\\
1.184066360101184	0.982\\
1.201923893199642	0.982\\
1.219134468556324	0.982\\
1.2370254018095364	0.982\\
1.2548998722390574	0.982\\
1.273075240706794	0.982\\
1.2916146897174672	0.982\\
1.3099341309773314	0.982\\
1.32822328750599	0.982\\
1.3469080741836708	0.982\\
1.3662676573752743	0.982\\
1.3856689582393145	0.982\\
1.4056163902641048	0.982\\
1.4256431197505988	0.982\\
1.445270341909819	0.982\\
1.4653037445875077	0.982\\
1.4852505233784847	0.982\\
1.5055220603702426	0.982\\
1.5259084957022755	0.982\\
1.5464876970370778	0.982\\
1.5674133873845753	0.982\\
1.588088944082068	0.982\\
1.609770281425376	0.982\\
1.6311933289867375	0.982\\
1.6524994841712894	0.982\\
1.6745746034781352	0.982\\
1.6965226820785295	0.982\\
1.7180261648257504	0.982\\
1.7401258419757522	0.982\\
1.7633992933492513	0.982\\
1.7859712204318448	0.982\\
1.8084286913789631	0.982\\
1.8312733934435785	0.982\\
1.8539207783241838	0.982\\
1.8772080166290812	0.982\\
1.9007024994891015	0.982\\
1.9245639260802254	0.982\\
1.9480066799031373	0.982\\
1.9717270101790203	0.982\\
1.9960336158227259	0.982\\
2.0204739309947923	0.982\\
2.045259174052924	0.982\\
2.0697886596470623	0.982\\
2.094854022148896	0.982\\
2.1210968714760003	0.982\\
2.1466330462125676	0.982\\
2.17298433462409	0.982\\
2.1984392083975592	0.982\\
2.224802267667349	0.982\\
2.250713645710328	0.982\\
2.277048227377769	0.982\\
2.30364770410241	0.982\\
2.330573140893507	0.982\\
2.3581157341307586	0.982\\
2.385058793817527	0.982\\
2.41207071016224	0.982\\
2.439689546324672	0.982\\
2.467888330021129	0.982\\
2.495952319971096	0.982\\
2.524462304633184	0.982\\
2.553125229281994	0.982\\
2.5822114816129833	0.982\\
2.6106219653033333	0.982\\
2.640826604110001	0.982\\
2.6698348576717965	0.982\\
2.6999324117680317	0.982\\
2.7300505290471824	0.982\\
2.7602441113341962	0.982\\
2.790774758083918	0.982\\
2.8212958514190296	0.982\\
2.8520740345669484	0.982\\
2.8827243205801203	0.982\\
2.9134253803180954	0.982\\
2.944925455590277	0.982\\
2.976205351160459	0.982\\
3.0088717355673396	0.982\\
3.0410966232262924	0.982\\
3.0744632743459244	0.982\\
3.1067960211155183	0.982\\
3.1385936979390294	0.982\\
3.1720065986240087	0.982\\
3.20528411702072	0.982\\
3.238989677608858	0.982\\
3.272778545265134	0.982\\
3.3063179493088137	0.982\\
3.3403407574108996	0.982\\
3.3743625496557987	0.982\\
3.408750301694133	0.982\\
3.4424644822576873	0.982\\
3.478328895352246	0.982\\
3.5133291966452402	0.982\\
3.5480847164827622	0.982\\
3.5841458544215374	0.982\\
3.621169950519752	0.982\\
3.656776160687227	0.982\\
3.6936389553635456	0.982\\
3.729612946007104	0.982\\
3.7656557450456383	0.982\\
3.8024746197761017	0.982\\
3.839998666128377	0.982\\
3.8764718240158995	0.982\\
3.915558475207832	0.982\\
3.953490316463455	0.982\\
3.991946233240933	0.982\\
4.0301915738510115	0.982\\
4.06852453389175	0.982\\
4.107322198264702	0.982\\
4.145718693491787	0.982\\
4.184972258633554	0.982\\
4.224380821558109	0.982\\
4.264544716896323	0.982\\
4.304373846724324	0.982\\
4.34437872522396	0.982\\
4.383590626962645	0.982\\
4.425028567960489	0.982\\
4.465552660485589	0.982\\
4.506026362017623	0.982\\
4.547800589841833	0.982\\
4.589241535463351	0.982\\
4.63042431000687	0.982\\
4.67236389443948	0.982\\
4.716626174669699	0.982\\
4.758668720404476	0.982\\
4.801260905979669	0.982\\
4.8445228643065	0.982\\
4.888013074484022	0.982\\
4.932567301700663	0.982\\
4.9759324425224865	0.982\\
5.020536954867952	0.982\\
5.06492769227555	0.982\\
5.111387819687744	0.982\\
5.156307160537899	0.982\\
5.201148772107125	0.982\\
5.247111540743388	0.982\\
5.292648869519017	0.982\\
5.339510690434942	0.982\\
5.384945053644197	0.982\\
5.4308570641600955	0.982\\
5.478145742838517	0.982\\
5.52573703899969	0.982\\
5.572608152315778	0.982\\
5.6196596818048	0.982\\
5.668094943383972	0.982\\
5.717503303028211	0.982\\
5.766741512393043	0.982\\
5.816955968660002	0.982\\
5.867158680565492	0.982\\
5.9169606397700445	0.982\\
5.967152492000372	0.982\\
6.01683894606119	0.982\\
6.068669447635536	0.982\\
6.119275035203492	0.982\\
6.170654006460193	0.982\\
6.221749242472269	0.982\\
6.274610241295461	0.982\\
6.326506267829924	0.982\\
6.37953830793572	0.982\\
6.432477093214482	0.982\\
6.485404413116569	0.982\\
6.53787401356055	0.982\\
6.589552251486465	0.982\\
6.644612538342313	0.982\\
6.698598153337279	0.982\\
6.7536593240502025	0.982\\
6.8073932812159175	0.982\\
6.863058732712242	0.982\\
6.918545389218819	0.982\\
6.973883409530396	0.982\\
7.030717765950715	0.982\\
7.086638443199089	0.982\\
7.1434173469990245	0.982\\
7.201449706559515	0.982\\
7.2593142590632525	0.982\\
7.318080578133218	0.982\\
7.376343878211072	0.982\\
7.434432647748306	0.982\\
7.493420491476197	0.982\\
7.551280820953414	0.982\\
7.611944067374399	0.982\\
7.670501277815259	0.982\\
7.7300624458704235	0.982\\
7.790221238110933	0.982\\
7.850541785790311	0.982\\
7.91198823102029	0.982\\
7.97353007307618	0.982\\
8.035606085845266	0.982\\
8.09726740689915	0.982\\
8.158251408414493	0.982\\
8.222930352025127	0.982\\
8.286715038397976	0.982\\
8.349104748198926	0.982\\
8.412160674278397	0.982\\
8.476964074257385	0.982\\
8.540614871737144	0.982\\
8.605622649471456	0.982\\
8.67147622573603	0.982\\
8.736964610086073	0.982\\
8.804336961264237	0.982\\
8.870881464349026	0.982\\
8.937100606606037	0.982\\
9.00420594618809	0.982\\
9.070694146591244	0.982\\
9.137269803743987	0.982\\
9.203729936351351	0.982\\
9.27039446804105	0.982\\
9.338025609339525	0.982\\
9.40635902812182	0.982\\
9.475516509795547	0.982\\
9.544212946063425	0.982\\
9.61303159260298	0.982\\
9.68470512442143	0.982\\
9.755790997394268	0.982\\
9.826753925406749	0.982\\
9.898486337984838	0.982\\
9.970877023345867	0.982\\
10.041915247801121	0.982\\
10.11549752438486	0.982\\
10.186893204217846	0.982\\
10.262228455525896	0.982\\
10.336423750626409	0.982\\
10.411711316232367	0.982\\
10.485865998502074	0.982\\
10.560436941586033	0.982\\
10.63473175342573	0.982\\
10.711003434449783	0.982\\
10.786975119661783	0.982\\
10.862429737760895	0.982\\
10.9397090357335	0.982\\
11.016110933498734	0.982\\
11.093954514506606	0.982\\
11.173363627684022	0.982\\
11.252029818075783	0.982\\
11.331593813747833	0.982\\
11.409680312965161	0.982\\
11.4884393230688	0.982\\
11.566935129677951	0.982\\
11.64769806985992	0.982\\
11.727478132194403	0.982\\
11.80835177669644	0.982\\
11.889049187506178	0.982\\
11.971250460106702	0.982\\
12.05274022166504	0.982\\
12.134530793152898	0.982\\
12.218993513173011	0.982\\
12.30303626426415	0.982\\
12.387354010253041	0.982\\
12.47148280386477	0.982\\
12.556387695321714	0.982\\
12.640626670439545	0.982\\
12.725114744599558	0.982\\
12.811472969310987	0.982\\
12.898088509604051	0.982\\
12.98601614057845	0.982\\
13.071793207229089	0.982\\
13.159685445919262	0.982\\
13.246650403130847	0.982\\
13.33500139402707	0.982\\
13.426094728685353	0.982\\
13.51501874921738	0.982\\
13.604141536820052	0.982\\
13.695080265320868	0.982\\
13.784792468275082	0.982\\
13.87465075140032	0.982\\
13.965992125768231	0.982\\
14.058263986420872	0.982\\
14.151283052619728	0.982\\
14.242454767751266	0.982\\
14.336509368461599	0.982\\
14.429798700849279	0.982\\
14.5238744792344	0.982\\
14.616796202060865	0.982\\
14.710940662326607	0.982\\
14.806910230953573	0.982\\
14.903980840871629	0.982\\
14.998829391956573	0.982\\
15.094307396737484	0.982\\
15.18982624810884	0.982\\
15.288013418761675	0.982\\
15.386302102220714	0.982\\
15.484234215757638	0.982\\
15.581282128883906	0.982\\
15.68100895098566	0.982\\
15.78073415105403	0.982\\
15.88198760393675	0.982\\
15.982644170168957	0.982\\
16.083069041254753	0.982\\
16.182687219498682	0.982\\
16.28235858701371	0.982\\
16.382849895443357	0.982\\
16.484531457586968	0.982\\
16.586341834101844	0.982\\
16.69091389938125	0.982\\
16.794926560796803	0.982\\
16.897745211063246	0.982\\
17.00260131632526	0.982\\
17.110154634276945	0.982\\
17.215774144357198	0.982\\
17.32050505808855	0.982\\
17.42590133764103	0.982\\
17.530949554728807	0.982\\
17.638318822531993	0.982\\
17.745997750741786	0.982\\
17.85447072254113	0.982\\
17.965545431685314	0.982\\
18.07466355094938	0.982\\
18.185813370252028	0.982\\
18.296540440390835	0.982\\
18.40978550750667	0.982\\
18.521600062433805	0.982\\
18.63224710549138	0.982\\
18.74507503287448	0.982\\
18.85836894575256	0.982\\
18.971750013838154	0.982\\
19.086219844962216	0.982\\
19.202182437719806	0.982\\
19.31805623350205	0.982\\
19.433103285021303	0.982\\
19.549099375416155	0.982\\
19.667287570002692	0.982\\
19.782704023716036	0.982\\
19.900771131234258	0.982\\
20.01850891589494	0.982\\
20.137456876147056	0.982\\
20.255859538178328	0.982\\
20.373713902158904	0.982\\
20.492096619195863	0.982\\
20.61134785127676	0.982\\
20.732366006954784	0.982\\
20.8516902007	0.982\\
20.97381622989502	0.982\\
21.0949544716251	0.982\\
21.215491178848502	0.982\\
21.339085945362726	0.982\\
21.46272213446452	0.982\\
21.584947748724858	0.982\\
21.708617968756677	0.982\\
21.83213191225599	0.982\\
21.95634574602669	0.982\\
22.083085715635455	0.982\\
22.21007829838385	0.982\\
22.335227859974573	0.982\\
22.46142883025862	0.982\\
22.588904216436305	0.982\\
22.714769741320367	0.982\\
22.841946409178966	0.982\\
22.969647554359824	0.982\\
23.09938911598234	0.982\\
23.228681055940307	0.982\\
23.35730666348954	0.982\\
23.488175317159957	0.982\\
23.617407348416187	0.982\\
23.750630162252982	0.982\\
23.88280701741192	0.982\\
24.014211164757626	0.982\\
24.146755544298408	0.982\\
24.280046803695598	0.982\\
24.412109791745458	0.982\\
24.544636517473947	0.982\\
24.676916184193068	0.982\\
24.80947085679017	0.982\\
24.943371103274494	0.982\\
25.078196135952524	0.982\\
25.212048463944775	0.982\\
25.34548230586728	0.982\\
25.48272832577807	0.982\\
25.510251802279754	0.982\\
25.578663774240695	0.982\\
25.603996771345095	0.982\\
25.60584106731008	0.982\\
25.607003940317455	0.982\\
25.608254563470346	0.982\\
25.615477633243223	0.982\\
25.637195890909666	0.982\\
25.702299345216822	0.982\\
25.834706251917616	0.982\\
25.962419746741837	0.982\\
26.09063719445075	0.982\\
26.218022321611755	0.982\\
26.346403002422285	0.982\\
26.474377168141835	0.982\\
26.604360820414726	0.982\\
26.735036298580006	0.982\\
26.86696009662517	0.982\\
26.998291231899103	0.982\\
27.1296637916467	0.982\\
27.26273086418052	0.982\\
27.398063218487366	0.982\\
27.532027699456087	0.982\\
27.664692733888096	0.982\\
27.79802339108528	0.982\\
27.934047321887988	0.982\\
28.070507264765766	0.982\\
28.20598794333904	0.982\\
28.34137476824975	0.982\\
28.47865489459204	0.982\\
28.615640379021116	0.982\\
28.75413559006345	0.982\\
28.890379098035716	0.982\\
29.02994818037729	0.982\\
29.170183195303828	0.982\\
29.31010943739716	0.982\\
29.450300741807823	0.982\\
29.59119485225102	0.982\\
29.73347453913489	0.982\\
29.87817657654338	0.982\\
30.022611024112173	0.982\\
30.165089098083037	0.982\\
30.308857645966192	0.982\\
30.45308481428571	0.982\\
30.59565207897485	0.982\\
30.7405474326044	0.982\\
30.888017630004313	0.982\\
31.03490827136443	0.982\\
31.18311048181164	0.982\\
31.330030847565908	0.982\\
31.476979207692153	0.982\\
31.62509281441455	0.982\\
31.7741507387749	0.982\\
31.924735206273922	0.982\\
32.07582610394536	0.982\\
32.225856467770996	0.982\\
32.379257779099376	0.982\\
32.53128578735141	0.982\\
32.683294729672895	0.982\\
32.83635835645697	0.982\\
32.99043429003608	0.982\\
33.14384951629606	0.982\\
33.29791680470743	0.982\\
33.45291817038111	0.982\\
33.60694055667501	0.982\\
33.76331680180557	0.982\\
33.92076022733379	0.982\\
34.07912487254737	0.982\\
34.23725197546621	0.982\\
34.395989205754276	0.982\\
34.554155874770586	0.982\\
34.71409999145121	0.982\\
34.87454219182827	0.982\\
35.03416368035384	0.982\\
35.194242867293084	0.982\\
35.35333728619287	0.982\\
35.51444003697286	0.982\\
35.67650841202372	0.982\\
35.83712730231329	0.982\\
36.00004757679264	0.982\\
36.16418333290606	0.982\\
36.32595647305732	0.982\\
36.49125096377887	0.982\\
36.65593385405313	0.982\\
36.81972635336763	0.982\\
36.98712880789924	0.982\\
37.15286075202279	0.982\\
37.32070644382317	0.982\\
37.48626810582016	0.982\\
37.65250634962695	0.982\\
37.82004168148812	0.982\\
37.9896485827599	0.982\\
38.159495940016726	0.982\\
38.3298859680001	0.982\\
38.49798849424927	0.982\\
38.66922542957086	0.982\\
38.8369477623869	0.982\\
39.00647254987264	0.982\\
39.175413262816235	0.982\\
39.34782333683883	0.982\\
39.52119705145584	0.982\\
39.693307064038095	0.982\\
39.86645061639743	0.982\\
40.039834893693566	0.982\\
40.21209755344192	0.982\\
40.387613903015094	0.982\\
40.562792071649596	0.982\\
40.741004849296814	0.982\\
40.91526109706477	0.982\\
41.09089707846546	0.982\\
41.266624802465856	0.982\\
41.4447163025811	0.982\\
41.62345911883652	0.982\\
41.79982569205886	0.982\\
41.98098775175956	0.982\\
42.15975785264246	0.982\\
42.3403055497466	0.982\\
42.523156686239034	0.982\\
42.70294061158151	0.982\\
42.88459067353459	0.982\\
43.064685437193205	0.982\\
43.24613720525085	0.982\\
43.42782876820489	0.982\\
43.610111992237336	0.982\\
43.79457921314747	0.982\\
43.977505204524576	0.982\\
44.15953175987171	0.982\\
44.342881238675375	0.982\\
44.52619640943978	0.982\\
44.7106721450038	0.982\\
44.896639079587814	0.982\\
45.08058768131855	0.982\\
45.266087121685786	0.982\\
45.4523672206998	0.982\\
45.63733713825597	0.982\\
45.82457653805157	0.982\\
46.01339650244779	0.982\\
46.20159395132545	0.982\\
46.39052598948889	0.982\\
46.580845150861705	0.982\\
46.769661553268946	0.982\\
46.959687979620284	0.982\\
47.151526379264595	0.982\\
47.339457860374424	0.982\\
47.529834953225816	0.982\\
47.720283696867966	0.982\\
47.91194227244985	0.982\\
48.10626684755802	0.982\\
48.29746613320118	0.982\\
48.49274590651069	0.982\\
48.68664030709222	0.982\\
48.88140701095297	0.982\\
49.073939435962714	0.982\\
49.26975347941173	0.982\\
49.46494187541869	0.982\\
49.66258683623488	0.982\\
49.86183779184503	0.982\\
50.05832234445424	0.982\\
50.254379796994115	0.982\\
50.45127281729047	0.982\\
50.6489287300178	0.982\\
50.847186873789624	0.982\\
51.0466948333127	0.982\\
51.245231191337965	0.982\\
51.443194361708436	0.982\\
51.641553655514755	0.982\\
51.84262563294642	0.982\\
52.04634116484719	0.982\\
52.2481089746678	0.982\\
52.45275984236912	0.982\\
52.65697523742368	0.982\\
52.858324467230204	0.982\\
53.062784278351955	0.982\\
53.26573599152549	0.982\\
53.47107805781495	0.982\\
53.67756544638708	0.982\\
53.886217766465506	0.982\\
54.08897586014743	0.982\\
54.29687388963862	0.982\\
54.50536189845498	0.982\\
54.712740727587615	0.982\\
54.92142306599639	0.982\\
55.12995763125542	0.982\\
55.33917564035697	0.982\\
55.5488154989614	0.982\\
55.75841366637641	0.982\\
55.96861878348837	0.982\\
56.17845246663795	0.982\\
56.3905360543538	0.982\\
56.60484452283791	0.982\\
56.81622335048152	0.982\\
57.030292716417875	0.982\\
57.243157487907	0.982\\
57.45788851108125	0.982\\
57.672833974388396	0.982\\
57.89073911408518	0.982\\
58.10997498664344	0.982\\
58.32976711197894	0.982\\
58.548161984226	0.982\\
58.76733444144736	0.982\\
58.988824719421316	0.982\\
59.2067633293844	0.982\\
59.428501624782584	0.982\\
59.64969324639121	0.982\\
59.869398675477925	0.982\\
60.09480233918042	0.982\\
60.31911668184175	0.982\\
60.541361024519375	0.982\\
60.76537950819652	0.982\\
60.98709388934586	0.982\\
61.21017847334862	0.982\\
61.43545736450854	0.982\\
61.663112265525186	0.982\\
61.887949209260626	0.982\\
62.11550945586693	0.982\\
62.34224980299135	0.982\\
62.571301087219084	0.982\\
62.79857266425185	0.982\\
63.027733504644615	0.982\\
63.258125664322606	0.982\\
63.491621273490935	0.982\\
63.72305584795902	0.982\\
63.95438974480325	0.982\\
64.18875289173462	0.982\\
64.42172969367968	0.982\\
64.65541244887024	0.982\\
64.8885021777223	0.982\\
65.12151907788046	0.982\\
65.35700936851674	0.982\\
65.59314248031893	0.982\\
65.83111664361562	0.982\\
66.06866060028813	0.982\\
66.30562684828669	0.982\\
66.54268263072203	0.982\\
66.78389306440755	0.982\\
67.02925923993706	0.982\\
67.2688274015631	0.982\\
67.50919324028123	0.982\\
67.75232725663068	0.982\\
67.9968719447561	0.982\\
68.24088631107722	0.982\\
68.48523720817775	0.982\\
68.72973308994767	0.982\\
68.97718655860311	0.982\\
69.22560530760472	0.982\\
69.47587692127155	0.982\\
69.72542575152497	0.982\\
69.97529708905464	0.982\\
70.22559606192891	0.982\\
70.47600798344351	0.982\\
70.73009274326117	0.982\\
70.98392240586327	0.982\\
71.23742271982184	0.982\\
71.49250452200997	0.982\\
71.74658013325927	0.982\\
72.0029976174043	0.982\\
72.25872434396072	0.982\\
72.51612151104212	0.982\\
72.77454067506858	0.982\\
73.03350345284201	0.982\\
73.29350783495872	0.982\\
73.55228047951451	0.982\\
73.81536814209304	0.982\\
74.07861453689759	0.982\\
74.33836529692303	0.982\\
74.60249372743974	0.982\\
74.86729016272344	0.982\\
75.13538178924176	0.982\\
75.40284188181468	0.982\\
75.67246082025954	0.982\\
75.94326106794955	0.982\\
76.21256394651294	0.982\\
76.48609715539905	0.982\\
76.75687674354651	0.982\\
77.03192369366184	0.982\\
77.30826012361521	0.982\\
77.58442411174985	0.982\\
77.85931854180802	0.982\\
78.13599737258002	0.982\\
78.41872285787636	0.982\\
78.69736727986265	0.982\\
78.97426734015647	0.982\\
79.25405612905615	0.982\\
79.53528346005987	0.982\\
79.81577831033235	0.982\\
80.10319376937247	0.982\\
80.38889780096426	0.982\\
80.67355417156045	0.982\\
80.95924288274122	0.982\\
81.2497615274736	0.982\\
81.54081448828273	0.982\\
81.82770715491435	0.982\\
82.12095568408947	0.982\\
82.41390289126153	0.982\\
82.70584081321942	0.982\\
82.9962673199513	0.982\\
83.29059363064533	0.982\\
83.58851167061238	0.982\\
83.88958853727644	0.982\\
84.1899305653589	0.982\\
84.48960145137158	0.982\\
84.79127913479437	0.982\\
85.0933741449937	0.982\\
85.40311219571095	0.982\\
85.70585521054113	0.982\\
86.01517448985362	0.982\\
86.32545136397297	0.982\\
86.63249667998494	0.982\\
86.94212850351246	0.982\\
87.2528965190584	0.982\\
87.56722955716108	0.982\\
87.88302884342392	0.982\\
88.19757595776912	0.982\\
88.51372598503161	0.982\\
88.83188440292633	0.982\\
89.15172347661368	0.982\\
89.47093119712503	0.982\\
89.79258145752524	0.982\\
90.11603842883389	0.982\\
90.44015747619505	0.982\\
90.76823665501763	0.982\\
91.09618085285143	0.982\\
91.42363672949818	0.982\\
91.75722080108213	0.982\\
92.08649358242585	0.982\\
92.42078608352355	0.982\\
92.75342332059898	0.982\\
93.08374688886687	0.982\\
93.41479759701687	0.982\\
93.74944100602616	0.982\\
94.08106621297708	0.982\\
94.41955859629397	0.982\\
94.75810613637887	0.982\\
95.1003609937197	0.982\\
95.43857955664177	0.982\\
95.77779859755356	0.982\\
96.1157624186765	0.982\\
96.45361700693448	0.982\\
96.79716597813197	0.982\\
97.14281841923932	0.982\\
97.48328230402998	0.982\\
97.82130962620977	0.982\\
98.16345634541003	0.982\\
98.50573099742886	0.982\\
98.85065645283109	0.982\\
99.19303680122172	0.982\\
99.53669686925792	0.982\\
99.88331708334684	0.982\\
100.2280628081501	0.982\\
100.57685210783177	0.982\\
100.92487685797445	0.982\\
101.26901133979572	0.982\\
101.6114420409229	0.982\\
101.9548804134694	0.982\\
102.30056836472127	0.982\\
102.64279541443966	0.982\\
102.98446315901413	0.982\\
103.32781175467352	0.982\\
103.67149243164656	0.982\\
104.01469339738168	0.982\\
104.35657281688427	0.982\\
104.69799506865502	0.982\\
105.03989815728329	0.982\\
105.37706761954558	0.982\\
105.71606250662407	0.982\\
106.05666318578798	0.982\\
106.39575090824917	0.982\\
106.73595988574434	0.982\\
106.8041611833903	0.982\\
106.84082044992874	0.982\\
106.84681172966688	0.982\\
106.85259258941602	0.982\\
106.86674093140792	0.982\\
106.87948889285005	0.982\\
106.92169911723568	0.982\\
107.03746652731598	0.982\\
107.31994334369637	0.982\\
107.62264024333888	0.982\\
107.92580400309552	0.982\\
108.2279176455398	0.982\\
108.53652241298565	0.982\\
108.84430938138703	0.982\\
109.15544612084562	0.982\\
109.46725677992717	0.982\\
109.77927204851292	0.982\\
110.09451567919436	0.982\\
110.41198575704729	0.982\\
110.72899924835363	0.982\\
111.04888234845467	0.982\\
111.37071735760486	0.982\\
111.69620237912113	0.982\\
112.01998966977501	0.982\\
112.34812905719636	0.982\\
112.67640781530596	0.982\\
113.00568130084133	0.982\\
113.33672115186886	0.982\\
113.66776289929265	0.982\\
114.00487325400289	0.982\\
114.34313336058901	0.982\\
114.68256750048965	0.982\\
115.02199779281673	0.982\\
115.36413815164553	0.982\\
115.70801500641264	0.982\\
116.05638064367085	0.982\\
116.40375255009974	0.982\\
116.75144902134002	0.982\\
117.10478228838181	0.982\\
117.45887504021712	0.982\\
117.8143500938157	0.982\\
118.17064728724958	0.982\\
118.52633826227301	0.982\\
118.88600623766115	0.982\\
119.24752381493465	0.982\\
119.60867239968161	0.982\\
119.97098911187521	0.982\\
120.33221679281382	0.982\\
120.69844357985187	0.982\\
121.06359416387116	0.982\\
121.43049557454228	0.982\\
121.79822971143992	0.982\\
122.16837113450197	0.982\\
122.53944267325383	0.982\\
122.91021193507268	0.982\\
123.28428568513391	0.982\\
123.65983981968671	0.982\\
124.03134471669884	0.982\\
124.40409576325047	0.982\\
124.77550855620231	0.982\\
125.14608963503406	0.982\\
125.51931322674119	0.982\\
125.89592866803045	0.982\\
126.27096944541694	0.982\\
126.64645660885884	0.982\\
127.01648304655487	0.982\\
127.38961570468982	0.982\\
127.76193649751508	0.982\\
128.13365360319705	0.982\\
128.51032571452583	0.982\\
128.88311528397548	0.982\\
129.25778856860893	0.982\\
129.62978884100772	0.982\\
130.00459643173554	0.982\\
130.38018246250692	0.982\\
130.7560097731809	0.982\\
131.12906573655727	0.982\\
131.50308395621454	0.982\\
131.87979218249626	0.982\\
132.2511997314969	0.982\\
132.62121239575544	0.982\\
132.9929347428236	0.982\\
133.3657218512427	0.982\\
133.73760435261823	0.982\\
134.10998684906139	0.982\\
134.4836328534073	0.982\\
134.85619000542823	0.982\\
135.2264167064128	0.982\\
135.5994308833778	0.982\\
135.97101310766402	0.982\\
136.3418396127788	0.982\\
136.71045324714805	0.982\\
137.08017382674592	0.982\\
137.45313263691702	0.982\\
137.82575255257933	0.982\\
138.19769678856028	0.982\\
138.5687794084231	0.982\\
138.94302754159702	0.982\\
139.3163642086675	0.982\\
139.68872803450603	0.982\\
140.05761175664554	0.982\\
140.43164797514288	0.982\\
140.80079815885802	0.982\\
141.17348115724235	0.982\\
141.54333184857967	0.982\\
141.91637620116097	0.982\\
142.2857294774861	0.982\\
142.65822710764104	0.982\\
143.02969387975514	0.982\\
143.3977582113585	0.982\\
143.77126573910726	0.982\\
144.1452805302535	0.982\\
144.5192429678661	0.982\\
144.88807771769422	0.982\\
145.26152819618	0.982\\
145.6340415347321	0.982\\
146.0052893833963	0.982\\
146.37772857587612	0.982\\
146.752534308954	0.982\\
147.12608452154473	0.982\\
147.4978752080101	0.982\\
147.87202229175227	0.982\\
148.2474935833152	0.982\\
148.6230064692104	0.982\\
148.9961563881697	0.982\\
149.37006713180347	0.982\\
149.7429515619218	0.982\\
150.11856859616142	0.982\\
150.49345770731804	0.982\\
150.86911878281438	0.982\\
151.24447059728152	0.982\\
151.62006217701446	0.982\\
151.998069860825	0.982\\
152.37223668040076	0.982\\
152.74730574098913	0.982\\
153.12693453572643	0.982\\
153.50381476156218	0.982\\
153.8806777081714	0.982\\
154.2594576125266	0.982\\
154.6359579666016	0.982\\
155.0144937728652	0.982\\
155.39405397194867	0.982\\
155.77253481441375	0.982\\
156.1495815167267	0.982\\
156.5282922504689	0.982\\
156.9060723555856	0.982\\
157.28463398316728	0.982\\
157.6650672731369	0.982\\
158.0450102511873	0.982\\
158.42549425831135	0.982\\
158.80530811605735	0.982\\
159.1848757447948	0.982\\
159.56686254204908	0.982\\
159.94888373257442	0.982\\
160.3327788295319	0.982\\
160.7148039477804	0.982\\
161.09903707263823	0.982\\
161.4838736071539	0.982\\
161.86813155256817	0.982\\
162.2533076676749	0.982\\
162.64159683407894	0.982\\
163.02749769601814	0.982\\
163.41223908942897	0.982\\
163.80042872412855	0.982\\
164.1873500908411	0.982\\
164.576997827553	0.982\\
164.96680440287548	0.982\\
165.35595462716674	0.982\\
165.74535113507636	0.982\\
166.13641238789063	0.982\\
166.5272041305824	0.982\\
166.91837247655582	0.982\\
167.30759278764248	0.982\\
167.70104669910194	0.982\\
168.09416993376993	0.982\\
168.48825473472624	0.982\\
168.8820505455161	0.982\\
169.278531160591	0.982\\
169.6744951377383	0.982\\
170.0702120569885	0.982\\
170.46616062818686	0.982\\
170.8625376157463	0.982\\
171.25888290566053	0.982\\
171.65609525124313	0.982\\
172.05767446894708	0.982\\
172.45777638989313	0.982\\
172.85839526788453	0.982\\
173.2620320272668	0.982\\
173.66666682678385	0.982\\
174.0727600369284	0.982\\
174.47424717146282	0.982\\
174.87749002167095	0.982\\
175.2826300731656	0.982\\
175.6886721086296	0.982\\
176.09488000380384	0.982\\
176.49889088645125	0.982\\
176.90886771447867	0.982\\
177.31781571164385	0.982\\
177.72642487292643	0.982\\
178.13502973903422	0.982\\
178.54689202607665	0.982\\
178.95868758491508	0.982\\
179.3684498018457	0.982\\
179.78413403632464	0.982\\
180.19835172636834	0.982\\
180.61308507052496	0.982\\
181.03033926302982	0.982\\
181.44847984383995	0.982\\
181.8662042021	0.982\\
182.28516197469884	0.982\\
182.70487821200925	0.982\\
183.12508813424512	0.982\\
183.54602814947026	0.982\\
183.9684273700393	0.982\\
184.3930040686863	0.982\\
184.81529898710158	0.982\\
185.24029069616898	0.982\\
185.66306074401683	0.982\\
186.09186334561628	0.982\\
186.51814344949725	0.982\\
186.94778401062632	0.982\\
187.37717343195453	0.982\\
187.80506025349968	0.982\\
188.23640090723615	0.982\\
188.66943641177994	0.982\\
189.10397359946433	0.982\\
189.53917157658924	0.982\\
189.9768347777259	0.982\\
190.41197089116582	0.982\\
190.8499535176722	0.982\\
191.29105781809722	0.982\\
191.73206460539996	0.982\\
192.17317567632028	0.982\\
192.61580042455637	0.982\\
193.05896425997838	0.982\\
193.50354136904696	0.982\\
193.9479424696773	0.982\\
194.3940645317569	0.982\\
194.84113043346207	0.982\\
195.2935272835012	0.982\\
195.74257032603407	0.982\\
196.1977603518465	0.982\\
196.65163370015847	0.982\\
197.10876972788003	0.982\\
197.563958380166	0.982\\
198.02287226111162	0.982\\
198.48323479281459	0.982\\
198.942304951739	0.982\\
199.40264860963867	0.982\\
199.8654076463639	0.982\\
200.3304065788347	0.982\\
200.79327986407577	0.982\\
201.25841509780594	0.982\\
201.72768066392644	0.982\\
202.19861384245866	0.982\\
202.67154891801374	0.982\\
203.14416979413	0.982\\
203.61826016416848	0.982\\
204.0930859643691	0.982\\
204.57119958197597	0.982\\
205.04926140560445	0.982\\
205.5299744055544	0.982\\
206.01488308697725	0.982\\
206.4982001654638	0.982\\
206.9833742936155	0.982\\
207.47130259636305	0.982\\
207.96178622820435	0.982\\
208.45455976422147	0.982\\
208.9459616117839	0.982\\
209.44112006801288	0.982\\
209.9437673087035	0.982\\
210.44172358698074	0.982\\
210.94586286755776	0.982\\
211.45234133199352	0.982\\
211.95972022129723	0.982\\
212.4720447887243	0.982\\
212.98277944158394	0.982\\
213.49814012759828	0.982\\
214.0133535734709	0.982\\
214.5318960979074	0.982\\
215.05246605193014	0.982\\
215.57936253692554	0.982\\
216.10529709645033	0.982\\
216.633472757101	0.982\\
217.16108316591578	0.982\\
217.6987951868632	0.982\\
218.23245816095852	0.982\\
218.7762394777567	0.982\\
219.3234071548069	0.982\\
219.86820956886277	0.982\\
220.41865933948816	0.982\\
220.97110145332402	0.982\\
221.52585634883667	0.982\\
222.08479813107766	0.982\\
222.64275476261383	0.982\\
223.20711063057945	0.982\\
223.7756147012364	0.982\\
224.34942301615297	0.982\\
224.92906002252641	0.982\\
225.50930861944835	0.982\\
226.09466411126925	0.982\\
226.68350578098017	0.982\\
227.28345677269476	0.982\\
227.87876561692138	0.982\\
228.47526510291686	0.982\\
229.07957241931643	0.982\\
229.68683766762746	0.982\\
230.29360660424425	0.982\\
230.9047145842004	0.982\\
231.52471298707428	0.982\\
232.1469595025519	0.982\\
232.77638073429983	0.982\\
233.40685642339315	0.982\\
234.0345749251851	0.982\\
234.67364749293654	0.982\\
235.3045439358322	0.982\\
235.93833124817593	0.982\\
236.57459110340278	0.982\\
237.21421670292727	0.982\\
237.85323862003912	0.982\\
238.49094754417285	0.982\\
239.12467480057882	0.982\\
239.75701211552325	0.982\\
240.38551981571635	0.982\\
241.01850253176536	0.982\\
241.64983901480497	0.982\\
242.2708298555949	0.982\\
242.89264632397516	0.982\\
243.51217354047253	0.982\\
244.1322823378266	0.982\\
244.7483491736666	0.982\\
245.35626450515934	0.982\\
245.96445682346103	0.982\\
246.57185003676653	0.982\\
247.17267680370657	0.982\\
247.77497637078244	0.982\\
248.3707105612798	0.982\\
248.95798877029665	0.982\\
249.5474097136866	0.982\\
250.13271560910886	0.982\\
250.71342944022575	0.982\\
251.29008687186837	0.982\\
251.86413450318844	0.982\\
252.43697239273735	0.982\\
253.00838633675323	0.982\\
253.57698824950984	0.982\\
254.14350090737804	0.982\\
254.70782121946104	0.982\\
255.27052768991865	0.982\\
255.38256863465705	0.982\\
255.44959716037482	0.982\\
255.48990717390126	0.982\\
255.49909994906284	0.982\\
255.54262149944458	0.982\\
255.5821676937441	0.982\\
255.7353681974531	0.982\\
256.1420255554707	0.982\\
256.6272242967332	0.982\\
257.1146718264083	0.982\\
257.60740638884545	0.982\\
258.0999319059506	0.982\\
258.59512367596164	0.982\\
259.0914309487491	0.982\\
259.59436031990913	0.982\\
260.0991923723178	0.982\\
260.60634662246093	0.982\\
261.11883934768446	0.982\\
261.63352413426617	0.982\\
262.1497017734032	0.982\\
262.6734524335227	0.982\\
263.19828243460915	0.982\\
263.72481817574715	0.982\\
264.2580042442271	0.982\\
264.79225489007604	0.982\\
265.3323373579908	0.982\\
265.8762219389657	0.982\\
266.42373701577503	0.982\\
266.97601194681295	0.982\\
267.5300694580337	0.982\\
268.09104666307394	0.982\\
268.65445974516956	0.982\\
269.2197094591779	0.982\\
269.7915757258469	0.982\\
270.3691604195516	0.982\\
270.9517357898668	0.982\\
271.53995059532724	0.982\\
272.13178805446546	0.982\\
272.72702451530074	0.982\\
273.33084933404484	0.982\\
273.93869388859764	0.982\\
274.5486136854835	0.982\\
275.162068839772	0.982\\
275.78186761499944	0.982\\
276.40784422738466	0.982\\
277.04033388205266	0.982\\
277.66584403025104	0.982\\
278.29753744224377	0.982\\
278.93542390327093	0.982\\
279.5770000499724	0.982\\
280.2128088360969	0.982\\
280.85054232038806	0.982\\
281.49165222033207	0.982\\
282.13571068888143	0.982\\
282.77531052904624	0.982\\
283.4154264604234	0.982\\
284.0488221727396	0.982\\
284.6835804625557	0.982\\
285.317489385434	0.982\\
285.9458987920607	0.982\\
286.57640217259734	0.982\\
287.20479140830037	0.982\\
287.83194381392343	0.982\\
288.4540604180726	0.982\\
289.06837996737875	0.982\\
289.6840193357408	0.982\\
290.2992155563787	0.982\\
290.90793146345015	0.982\\
291.51428023262724	0.982\\
292.11893486380245	0.982\\
292.7243410965814	0.982\\
293.32669475849457	0.982\\
293.9227318122263	0.982\\
294.51943080427736	0.982\\
295.1146438394593	0.982\\
295.7098087825955	0.982\\
296.3043002760339	0.982\\
296.90052157578214	0.982\\
297.4923135530289	0.982\\
298.08374697190754	0.982\\
298.6695404618587	0.982\\
299.2542348808689	0.982\\
299.84088765402316	0.982\\
300.4202074094294	0.982\\
301.0012904249089	0.982\\
301.58068784751526	0.982\\
302.15836971605495	0.982\\
302.73625180548424	0.982\\
303.3121966975516	0.982\\
303.88443886351934	0.982\\
304.45909969943284	0.982\\
305.03321907242275	0.982\\
305.60316769320787	0.982\\
306.18213317990785	0.982\\
306.7528690380926	0.982\\
307.32360458271205	0.982\\
307.89458063530776	0.982\\
308.4622845989833	0.982\\
309.02793800200686	0.982\\
309.59389666088487	0.982\\
310.161038881113	0.982\\
310.7268617738297	0.982\\
311.29167132258556	0.982\\
311.8592801253152	0.982\\
312.4228519487773	0.982\\
312.98616683617365	0.982\\
313.55056144568687	0.982\\
314.11140226068335	0.982\\
314.6722825503333	0.982\\
315.2360183864257	0.982\\
315.7973049675611	0.982\\
316.35766506280254	0.982\\
316.9193991129249	0.982\\
317.48150864889726	0.982\\
318.04131227408413	0.982\\
318.6036252478208	0.982\\
319.16188504198647	0.982\\
319.72337894483303	0.982\\
320.2822344134371	0.982\\
320.8422620430109	0.982\\
321.40257352667436	0.982\\
321.96225814187017	0.982\\
322.5216246238474	0.982\\
323.08163963072343	0.982\\
323.64364419606943	0.982\\
324.2016691389498	0.982\\
324.761881273546	0.982\\
325.3229083242819	0.982\\
325.8828752675174	0.982\\
326.4431889278751	0.982\\
327.00230321952324	0.982\\
327.5638625817785	0.982\\
328.123404383771	0.982\\
328.68730747287134	0.982\\
329.24720650266306	0.982\\
329.8056199882943	0.982\\
330.36563895146264	0.982\\
330.9240434425192	0.982\\
331.48422404225425	0.982\\
332.0451741437188	0.982\\
332.6058437805002	0.982\\
333.16798636168426	0.982\\
333.7317063847911	0.982\\
334.29077726510616	0.982\\
334.8522419372073	0.982\\
335.4128159363694	0.982\\
335.9754104883691	0.982\\
336.53859922373954	0.982\\
337.1036451869321	0.982\\
337.6690917221623	0.982\\
338.23096009830124	0.982\\
338.7923511417829	0.982\\
339.356843647035	0.982\\
339.9217688426261	0.982\\
340.4904593952648	0.982\\
341.0542688687972	0.982\\
341.6223667230263	0.982\\
342.1894076193199	0.982\\
342.756026615569	0.982\\
343.32650244217496	0.982\\
343.89579996558757	0.982\\
344.4632466472418	0.982\\
345.03135299034307	0.982\\
345.59918283361924	0.982\\
346.17037852740566	0.982\\
346.74116880827455	0.982\\
347.3106723226997	0.982\\
347.88047036403054	0.982\\
348.44957814465545	0.982\\
349.0217096777819	0.982\\
349.5928922742361	0.982\\
350.1639037284924	0.982\\
350.734680416827	0.982\\
351.3066484321415	0.982\\
351.8796563611903	0.982\\
352.4573211402578	0.982\\
353.03288244557166	0.982\\
353.6077253393953	0.982\\
354.18393073174263	0.982\\
354.7630508634559	0.982\\
355.33821269746045	0.982\\
355.9185375827858	0.982\\
356.49528568272126	0.982\\
357.07752111076525	0.982\\
357.6579952781442	0.982\\
358.2367211077577	0.982\\
358.81728475839225	0.982\\
359.40219901221985	0.982\\
359.98507700057655	0.982\\
360.56521796144705	0.982\\
361.1515404600375	0.982\\
361.7377949747805	0.982\\
362.32533764922744	0.982\\
362.90998401885975	0.982\\
363.5003311070907	0.982\\
364.089491293749	0.982\\
364.67979916860065	0.982\\
365.2701102641943	0.982\\
365.86010562662364	0.982\\
366.45236910420454	0.982\\
367.0437342040685	0.982\\
367.6401972982078	0.982\\
368.2348614164342	0.982\\
368.83153387410346	0.982\\
369.4292304504412	0.982\\
370.02807966828834	0.982\\
370.6257861698324	0.982\\
371.22484305572675	0.982\\
371.8230912706415	0.982\\
372.42666623008085	0.982\\
373.0270705438926	0.982\\
373.63070050165834	0.982\\
374.23431064582564	0.982\\
374.83566068085236	0.982\\
375.44219338409096	0.982\\
376.0503916348064	0.982\\
376.65913530137766	0.982\\
377.26905143215913	0.982\\
377.87869863814433	0.982\\
378.48606762946565	0.982\\
379.0955135911545	0.982\\
379.71025366825984	0.982\\
380.3251617382524	0.982\\
380.9372308091241	0.982\\
381.5529380381124	0.982\\
382.1698034670816	0.982\\
382.78817506387395	0.982\\
383.40836627248484	0.982\\
384.02920907683665	0.982\\
384.65074831752065	0.982\\
385.27501447086127	0.982\\
385.89923067936843	0.982\\
386.5257564619118	0.982\\
387.153356280503	0.982\\
387.78182961718244	0.982\\
388.41336649234586	0.982\\
389.046013943102	0.982\\
389.67903368302814	0.982\\
390.31205865248614	0.982\\
390.94778864131604	0.982\\
391.5814751555878	0.982\\
392.2160168022589	0.982\\
392.8560881618863	0.982\\
393.4975017482519	0.982\\
394.139691018128	0.982\\
394.78659088531276	0.982\\
395.4317697672818	0.982\\
396.07787448486306	0.982\\
396.724098278416	0.982\\
397.37745929325524	0.982\\
398.0296281225785	0.982\\
398.68257098972106	0.982\\
399.3385470625691	0.982\\
399.99340591274824	0.982\\
400.65255757128784	0.982\\
401.3107637949262	0.982\\
401.9724529877684	0.982\\
402.63500140454835	0.982\\
403.3000304974023	0.982\\
403.9651213376113	0.982\\
404.63488781877675	0.982\\
405.3061991599526	0.982\\
405.9779970624252	0.982\\
406.6514004032043	0.982\\
407.32901491728387	0.982\\
408.007393095755	0.982\\
408.6890638483994	0.982\\
409.37011479899036	0.982\\
410.05331453172187	0.982\\
410.7399067503111	0.982\\
411.4278955187883	0.982\\
412.11555742736743	0.982\\
412.8081089565528	0.982\\
413.50081466405436	0.982\\
414.19416335047333	0.982\\
414.8942839305422	0.982\\
415.59628542821736	0.982\\
416.3019672702129	0.982\\
417.00872339632815	0.982\\
417.7191004571687	0.982\\
418.42925098315663	0.982\\
419.14356675383283	0.982\\
419.85881115130985	0.982\\
420.57953319654655	0.982\\
421.30286361427704	0.982\\
422.02759379415636	0.982\\
422.7556685906799	0.982\\
423.487557884038	0.982\\
424.22435329491634	0.982\\
424.9609401540888	0.982\\
425.7017083102305	0.982\\
426.44571597151196	0.982\\
427.1928102204421	0.982\\
427.94532467600663	0.982\\
428.6984102584348	0.982\\
429.4580834790064	0.982\\
430.2182871265443	0.982\\
430.98366019633727	0.982\\
431.75030593458143	0.982\\
432.52240933460473	0.982\\
433.30197034906564	0.982\\
434.0838154680639	0.982\\
434.86844368084996	0.982\\
435.6572703227854	0.982\\
436.45787896911975	0.982\\
437.2598425944143	0.982\\
438.0657178849807	0.982\\
438.8743136369168	0.982\\
439.6833943523659	0.982\\
440.49652923576923	0.982\\
441.3186819645051	0.982\\
442.1549453239551	0.982\\
443.0020446036565	0.982\\
443.8533377410646	0.982\\
444.7023155495557	0.982\\
445.5568435660929	0.982\\
446.4264554271532	0.982\\
447.3041277658614	0.982\\
448.1905538462456	0.982\\
449.07830384511306	0.982\\
449.98003392050816	0.982\\
450.89206615544674	0.982\\
451.81749226167483	0.982\\
452.7531805134598	0.982\\
453.70087952418976	0.982\\
454.66218920653887	0.982\\
455.6326160973832	0.982\\
456.62917464008353	0.982\\
457.6326921365468	0.982\\
458.6372333604751	0.982\\
459.65377044378874	0.982\\
460.6882783962551	0.982\\
461.7176595919931	0.982\\
462.76209040843685	0.982\\
463.80938665232657	0.982\\
464.85240119958985	0.982\\
465.8919658869371	0.982\\
466.9193095069785	0.982\\
467.94293301756704	0.982\\
468.95334878259075	0.982\\
469.9498439470682	0.982\\
470.93457130708475	0.982\\
471.90642748068854	0.982\\
472.86845115908113	0.982\\
473.8148787873631	0.982\\
474.7616457508426	0.982\\
475.68877651119726	0.982\\
476.60853153198366	0.982\\
477.5218194671544	0.982\\
478.4239732758989	0.982\\
479.3188991724164	0.982\\
480.2068388980689	0.982\\
481.08919272498906	0.982\\
481.9636079575671	0.982\\
482.8310972848353	0.982\\
483.69295621789024	0.982\\
484.5495631964892	0.982\\
485.40077234005264	0.982\\
486.2497833134504	0.982\\
487.08528412631983	0.982\\
487.92225415476923	0.982\\
488.7515344738795	0.982\\
489.5762983060798	0.982\\
490.39491953850154	0.982\\
491.2135449222278	0.982\\
492.0240589460931	0.982\\
492.834026427838	0.982\\
493.6371879591453	0.982\\
494.4420942573878	0.982\\
495.2415622525459	0.982\\
495.40088175349433	0.982\\
495.8777094195141	0.982\\
495.9090623009679	0.982\\
495.9358079119222	0.982\\
495.94913433067404	0.982\\
495.9577889363326	0.982\\
495.9677419743176	0.982\\
496.0181366735686	0.982\\
496.2147848400152	0.982\\
496.8116229398157	0.982\\
497.5816102146755	0.982\\
498.3608633123166	0.982\\
499.1426675117531	0.982\\
499.93013234910757	0.982\\
500.72288713737885	0.982\\
501.52382562339074	0.982\\
502.32695778658	0.982\\
503.1340342760799	0.982\\
503.9462093980302	0.982\\
504.7670845950738	0.982\\
505.59183231629595	0.982\\
506.42670053400934	0.982\\
507.26000162100274	0.982\\
508.1036195138979	0.982\\
508.95645557407056	0.982\\
509.81096243087336	0.982\\
510.6756503404963	0.982\\
511.54734972357426	0.982\\
512.427735199396	0.982\\
513.3165885673588	0.982\\
514.2138130752533	0.982\\
515.1174021694399	0.982\\
516.0373841193536	0.982\\
516.9571164417935	0.982\\
517.8891983381488	0.982\\
518.8315955035009	0.982\\
519.786651032932	0.982\\
520.7541260948312	0.982\\
521.7333792628135	0.982\\
522.7247567968041	0.982\\
523.7188753258472	0.982\\
524.7291166797145	0.982\\
525.7468366461235	0.982\\
526.7783049052348	0.982\\
527.817375940808	0.982\\
528.8591193841166	0.982\\
529.9020473727446	0.982\\
530.951170060109	0.982\\
531.9986566997002	0.982\\
533.0398682765476	0.982\\
534.0830759595879	0.982\\
535.1232304370135	0.982\\
536.156304127165	0.982\\
537.1861507089923	0.982\\
538.2059202980365	0.982\\
539.2181136909721	0.982\\
540.2230224461248	0.982\\
541.2227004414115	0.982\\
542.2149713038859	0.982\\
543.2014317991805	0.982\\
544.1771979155394	0.982\\
545.1529297702377	0.982\\
546.1149790388279	0.982\\
547.0757379619715	0.982\\
548.0261986189198	0.982\\
548.9784922886756	0.982\\
549.9238294992629	0.982\\
550.8596169269592	0.982\\
551.7893116903324	0.982\\
552.7145004039819	0.982\\
553.6380401295626	0.982\\
554.5543388579861	0.982\\
555.4700354542731	0.982\\
556.3786458004995	0.982\\
557.2881642002887	0.982\\
558.1899809933091	0.982\\
559.0950282991555	0.982\\
559.9963049432051	0.982\\
560.8887819834231	0.982\\
561.783792203863	0.982\\
562.677365558312	0.982\\
563.564023152737	0.982\\
564.4477328845412	0.982\\
565.3350133094914	0.982\\
566.215646303348	0.982\\
567.0967418191915	0.982\\
567.9740124307568	0.982\\
568.8478063531513	0.982\\
569.7246449247164	0.982\\
570.6003105226569	0.982\\
571.4685306725398	0.982\\
572.3399746021096	0.982\\
573.206542501438	0.982\\
574.0686822566934	0.982\\
574.929189762355	0.982\\
575.7905036031909	0.982\\
576.6509089697645	0.982\\
577.5114618377236	0.982\\
578.3694721162826	0.982\\
579.2294465700481	0.982\\
580.0840087344329	0.982\\
580.9388814270844	0.982\\
581.7956987367036	0.982\\
582.6464152717388	0.982\\
583.4965630041117	0.982\\
584.3498421016607	0.982\\
585.2018049141695	0.982\\
586.0525515618931	0.982\\
586.9005435109796	0.982\\
587.7504428127231	0.982\\
588.5971208349456	0.982\\
589.4436552178772	0.982\\
590.290753131459	0.982\\
591.1344140887272	0.982\\
591.978496057694	0.982\\
592.8228743208749	0.982\\
593.6668532669455	0.982\\
594.509514609485	0.982\\
595.3522008137963	0.982\\
596.1960177924611	0.982\\
597.037289944489	0.982\\
597.8867308181477	0.982\\
598.7315065027014	0.982\\
599.5746040172678	0.982\\
600.4189111044441	0.982\\
601.257156402957	0.982\\
602.0992933556295	0.982\\
602.9436412252448	0.982\\
603.7847807339272	0.982\\
604.6249813815309	0.982\\
605.4687857043107	0.982\\
606.3094142783634	0.982\\
607.1526808468898	0.982\\
607.9957619733473	0.982\\
608.8367531817021	0.982\\
609.680078969021	0.982\\
610.5198046888165	0.982\\
611.3617469616563	0.982\\
612.2034273447309	0.982\\
613.0465679697356	0.982\\
613.8912403665588	0.982\\
614.7345752664155	0.982\\
615.5760613190328	0.982\\
616.4172329476037	0.982\\
617.2603302283205	0.982\\
618.1054322458851	0.982\\
618.9500431276069	0.982\\
619.7945200202826	0.982\\
620.6411775392019	0.982\\
621.485090687625	0.982\\
622.327758750487	0.982\\
623.175467351834	0.982\\
624.0247849821155	0.982\\
624.8716600421717	0.982\\
625.7202918046287	0.982\\
626.5684834413394	0.982\\
627.4201262466563	0.982\\
628.2682902181441	0.982\\
629.1144499797504	0.982\\
629.9683913818549	0.982\\
630.8191539517013	0.982\\
631.6705208264559	0.982\\
632.5224408470717	0.982\\
633.3719676375963	0.982\\
634.2274636172885	0.982\\
635.0821343234595	0.982\\
635.9335991516043	0.982\\
636.7866161482682	0.982\\
637.6431041606011	0.982\\
638.4983804777412	0.982\\
639.3552210926746	0.982\\
640.2100243373786	0.982\\
641.0695583361592	0.982\\
641.9273535281595	0.982\\
642.7872252393581	0.982\\
643.6499064230331	0.982\\
644.509686589281	0.982\\
645.3728044967397	0.982\\
646.2360541621897	0.982\\
647.1004519764497	0.982\\
647.9636348593385	0.982\\
648.8298883369878	0.982\\
649.6915167753202	0.982\\
650.5551609947067	0.982\\
651.422237915096	0.982\\
652.2910963697084	0.982\\
653.1606845377844	0.982\\
654.0269583792451	0.982\\
654.8995693252939	0.982\\
655.7705744624607	0.982\\
656.6400751693823	0.982\\
657.5142097543578	0.982\\
658.3878646069463	0.982\\
659.2611008471724	0.982\\
660.1351865298202	0.982\\
661.0153226021725	0.982\\
661.8921233206377	0.982\\
662.7681877304612	0.982\\
663.6505938447017	0.982\\
664.5290379539654	0.982\\
665.4109694825033	0.982\\
666.296646749536	0.982\\
667.1795116457379	0.982\\
668.062379294041	0.982\\
668.9451493704546	0.982\\
669.832354599188	0.982\\
670.722019889381	0.982\\
671.6100179961131	0.982\\
672.5021675071202	0.982\\
673.3907171248829	0.982\\
674.2813764651571	0.982\\
675.1750027478311	0.982\\
676.0716773487991	0.982\\
676.971657342252	0.982\\
677.868943249038	0.982\\
678.7677116754278	0.982\\
679.6713805926686	0.982\\
680.5725571368021	0.982\\
681.4736757160902	0.982\\
682.3793051030514	0.982\\
683.2858235265323	0.982\\
684.1956754315272	0.982\\
685.1018745287804	0.982\\
686.007984264859	0.982\\
686.9202406245945	0.982\\
687.8351362299202	0.982\\
688.7473004774081	0.982\\
689.6634107305097	0.982\\
690.5836066226339	0.982\\
691.5009150928777	0.982\\
692.4251791869358	0.982\\
693.3449455508035	0.982\\
694.2710550841009	0.982\\
695.1960381329768	0.982\\
696.1255992330082	0.982\\
697.0569085104046	0.982\\
697.9907151925715	0.982\\
698.9232213474697	0.982\\
699.8556086838014	0.982\\
700.7938845475526	0.982\\
701.7276835670309	0.982\\
702.6664050376303	0.982\\
703.6089538506897	0.982\\
704.5536091801678	0.982\\
705.5014252945448	0.982\\
706.4488067273276	0.982\\
707.3968224262753	0.982\\
708.3464382522457	0.982\\
709.2980030442075	0.982\\
710.2508417250806	0.982\\
711.2038703097678	0.982\\
712.1605061176192	0.982\\
713.1200693100759	0.982\\
714.0814721633396	0.982\\
715.0435707373724	0.982\\
716.0089306115112	0.982\\
716.9760967276468	0.982\\
717.9478816142739	0.982\\
718.9180563005493	0.982\\
719.8863028869164	0.982\\
720.8645919943003	0.982\\
721.8455395990366	0.982\\
722.8257666385798	0.982\\
723.8083678141375	0.982\\
724.7948371824857	0.982\\
725.7814744344971	0.982\\
726.7749709173222	0.982\\
727.7656471063005	0.982\\
728.7604954054157	0.982\\
729.7588173986001	0.982\\
730.7572057374573	0.982\\
731.7575835543839	0.982\\
732.7640227184927	0.982\\
733.7734628002022	0.982\\
734.7867447427523	0.982\\
735.7991949834802	0.982\\
736.8180378554193	0.982\\
737.8339067301795	0.982\\
738.8573086879326	0.982\\
739.8816339114792	0.982\\
740.908454751863	0.982\\
741.9417391114264	0.982\\
742.9799153012821	0.982\\
744.0135326066179	0.982\\
745.054292252624	0.982\\
746.0966326625687	0.982\\
747.1434666923844	0.982\\
748.1901119292397	0.982\\
749.2432874038918	0.982\\
750.2982870742255	0.982\\
751.3575971635382	0.982\\
752.4178231567985	0.982\\
753.4845913761055	0.982\\
754.5547687830342	0.982\\
755.6265907261613	0.982\\
756.7069286507588	0.982\\
757.787114742224	0.982\\
758.8702926711653	0.982\\
759.962362348833	0.982\\
761.0589140129441	0.982\\
762.1542546497246	0.982\\
763.2567423357434	0.982\\
764.3632093637143	0.982\\
765.4665299523103	0.982\\
766.5777201337378	0.982\\
767.6962294420352	0.982\\
768.8266143702008	0.982\\
769.9545639591522	0.982\\
771.0890882217047	0.982\\
772.2290920307364	0.982\\
773.378386445436	0.982\\
774.5303007787059	0.982\\
775.6876228815845	0.982\\
776.8478631728292	0.982\\
778.0136693080424	0.982\\
779.1902036391512	0.982\\
780.3727937542244	0.982\\
781.5609432189399	0.982\\
782.7545435605691	0.982\\
783.9494223427098	0.982\\
785.1591105971845	0.982\\
785.4170728279348	0.982\\
786.3701263491594	0.982\\
787.5872898376565	0.9855137182851338\\
788.8211110601064	0.9899901423021424\\
790.0658962290577	0.9945139616553953\\
791.3192299436782	0.999063861238119\\
792.5826320160481	1.003630725439137\\
793.8519875252762	1.0082198386362433\\
795.1341605772952	1.0128160189468134\\
796.4232305717292	1.0174438895075353\\
797.7200157252462	1.022081773313345\\
799.0276517844222	1.026732427022997\\
800.3505336794176	1.031406851744128\\
801.6895912137916	1.036120388146944\\
803.0435237380393	1.0408758682621024\\
804.4025928510614	1.0456681857666303\\
805.785339187209	1.0504625377053318\\
807.1812216459932	1.055323976193206\\
808.604476117757	1.0602148007846286\\
810.0418336166772	1.0651843016312323\\
811.4959365204909	1.0701854006683988\\
812.9610584078189	1.0752268158881286\\
814.4524613753483	1.080288231563762\\
815.9657446840297	1.0854218378966958\\
817.5190735059939	1.0906116438315965\\
819.0948633807507	1.0959189507108995\\
820.7055293589844	1.1012824690686043\\
822.3541084974943	1.106743496385203\\
824.0245033197689	1.1123110006632202\\
825.7149470336599	1.117929431170839\\
827.4567514159926	1.1235920952010252\\
829.215727839106	1.1294027028384188\\
830.9862927322181	1.1352456943598408\\
832.7433300473881	1.1411020142756978\\
834.4759727503947	1.1468886222942205\\
836.1820998837343	1.1525706044450263\\
837.8627362860664	1.1581421826111256\\
839.5097090203283	1.163607893438801\\
841.128719272989	1.1689424100033918\\
842.718091079269	1.1741655414255505\\
844.2799001995534	1.1792730727636953\\
845.8186905121781	1.1842728477124993\\
847.3412646213712	1.1891804480159816\\
848.8432685761659	1.194018389738991\\
850.3263240693063	1.198773545568956\\
851.7939749091668	1.2034518183202416\\
853.2447668316579	1.2080650618792999\\
854.6829746837986	1.2126093097002644\\
856.1081204295738	1.2170985252846622\\
857.5222633167116	1.221531697716849\\
858.9224930603041	1.2259156922725785\\
860.3133438253735	1.2302419309379506\\
861.6909553966177	1.2345248668933178\\
863.0606855009498	1.2387530044673638\\
864.4242305982457	1.2429431891432694\\
865.7751030982818	1.247100885810243\\
867.1166230810218	1.2512066218488147\\
868.4526213958825	1.2552708794434877\\
869.7847542957691	1.2593055488254847\\
871.1053775084924	1.263315825390004\\
872.4239468782857	1.267278936750584\\
873.7344628905357	1.2712235380885915\\
875.0403944897116	1.2751318485119474\\
876.3408865353542	1.2790144503848158\\
877.6319343835753	1.2828689832673914\\
877.8897095847431	1.2866838121679272\\
878.0623951929399	1.287443335813966\\
878.1629280330851	1.2879518465455724\\
878.2344262634949	1.2882477715374328\\
878.2858021782565	1.288458182687129\\
878.3098881926114	1.2886093513239758\\
878.3239047323609	1.2886802138976905\\
878.341377530782	1.2887214491874321\\
878.4463352067137	1.288772850722276\\
878.8543303658421	1.2890815975204293\\
879.972923554636	1.2902814007331604\\
881.3089458773477	1.2935672632522721\\
882.6526427814965	1.2974813405603662\\
884.0103319193056	1.3014055493448624\\
885.3727972308084	1.3053581144498922\\
886.7541510485569	1.3093119603638934\\
888.149565793264	1.3133078176273285\\
889.5655316408695	1.3173312942884636\\
890.9917784306322	1.3214006954376134\\
892.4376309662205	1.325486082430106\\
893.8970056184473	1.3296138326363809\\
895.3754573388587	1.3337661356143582\\
896.8833557697053	1.3379584071360702\\
898.4027551505526	1.3422194467151571\\
899.9406845117353	1.3464979292069579\\
901.5048573259869	1.3508132968440862\\
903.088291640642	1.355186623196068\\
904.7045422288047	1.359597740213732\\
906.340210158153	1.3640837442766016\\
908.001555477691	1.3686066571685704\\
909.6846730570621	1.3731831919132866\\
911.3846912264812	1.3778019085082136\\
913.1012170071126	1.3824488878478975\\
914.8407000766665	1.387122608256231\\
916.5791157121919	1.3918401159512714\\
918.3193375629698	1.3965358865268742\\
920.0467957887745	1.4012177792847709\\
921.7636404094444	1.4058468013916086\\
923.4679260389173	1.4104291911378692\\
925.1503965783068	1.4149602047027179\\
926.8229090349132	1.4194158178900604\\
928.4709637098533	1.4238280564677215\\
930.1011633359892	1.4281592107095662\\
931.727604890244	1.4324273710315953\\
933.3379490439702	1.4366698977798238\\
934.9241226746033	1.440854915940668\\
936.4953629810443	1.444962061227363\\
938.0624990456356	1.449015908772736\\
939.6041337136514	1.4530447710738408\\
941.1411488295598	1.4569940272408346\\
942.6682544991222	1.4609177213095568\\
944.1847424625676	1.4648025839280547\\
945.695692575629	1.468647141489233\\
947.1949408792855	1.472464560442794\\
948.6859883883162	1.4762395249169922\\
950.1716333201546	1.4799811734237338\\
951.6487780552129	1.4836967646091856\\
953.1194099619399	1.4873787681878095\\
954.5824795762653	1.49103238412341\\
956.0404806861957	1.494655226225801\\
957.4959315991321	1.4982536828504605\\
958.9470052663148	1.501834119739045\\
960.3858039127001	1.5053921681806472\\
961.8224368414913	1.508908683057288\\
963.2559757718086	1.512408624359054\\
964.6821824150559	1.5158898354104997\\
966.1091437997125	1.5193421771311668\\
967.5260364233156	1.5227853731967729\\
968.9450310913776	1.5261934230343006\\
970.3623298362902	1.5295957755356837\\
971.7787910348156	1.5329833505167585\\
973.1929473247687	1.5363582740068362\\
974.5927936113992	1.539717123060553\\
975.9973950688136	1.543031573269559\\
977.3973601482019	1.5463469734057653\\
978.7974968470214	1.5496411657096427\\
980.1951720709139	1.552925568124742\\
981.591705550399	1.556194060887838\\
982.9836488738651	1.5594498132549313\\
984.3714308301328	1.5626848765937227\\
985.7610587265842	1.565900381643261\\
987.1516156479299	1.5691103289233883\\
988.5373969770528	1.572312606470973\\
989.9260649629525	1.5754941387934593\\
991.3068720543972	1.5786725979929277\\
992.6878858651562	1.5818234418412693\\
994.0643941074911	1.5849652205876636\\
995.4499320651848	1.58808728097569\\
995.6911472403024	1.5912203522763013\\
995.9311943099117	1.5917642482014374\\
996.172749914384	1.5923052255248975\\
996.4097599252093	1.5928493173703595\\
996.648424233792	1.5933828896359037\\
996.8912519088267	1.5939199083657045\\
997.1227412141907	1.5944660104663235\\
997.3656460584377	1.5949863387388326\\
997.60667280542	1.5955320498290588\\
997.8469046513876	1.5960732551540928\\
998.0903277872685	1.5966123924401896\\
998.3281476819066	1.5971584056438743\\
998.5578149218902	1.5976915681195836\\
998.8000641310871	1.5982061874037625\\
999.0352498958766	1.5987487269284046\\
999.2670273462711	1.5992751700803352\\
999.4911548935058	1.5997937187775948\\
999.7342784208474	1.60029490031072\\
999.9680254941834	1.6008382930127378\\
1000.2125423382429	1.60136045340061\\
1000.4559058313562	1.6019063935605276\\
1000.6989498552282	1.602449469867342\\
1000.9441554947416	1.6029915464136921\\
1001.1715335551014	1.6035381551340402\\
1001.4051267980867	1.6040447542030054\\
1001.644994785112	1.604564943184834\\
1001.8890194196672	1.6050988339132117\\
1002.133025921747	1.6056416931531645\\
1002.3702211329442	1.6061842244924835\\
1002.6075446068421	1.606711332623218\\
1002.8445189656095	1.6072384543091727\\
1003.0870821972487	1.6077645295765755\\
1003.3320233177644	1.6083027347031806\\
1003.5652611405203	1.608845929844115\\
1003.809436127576	1.6093628972684315\\
1004.0506235572877	1.6099038321847567\\
1004.2950060549201	1.6104378660368472\\
1004.5358204569739	1.6109786912841566\\
1004.7822729534357	1.611511338332168\\
1005.0252008215834	1.6120561712216555\\
1005.2595461987639	1.6125929258327971\\
1005.5066266644592	1.613110445513832\\
1005.7437837139162	1.6136558110489947\\
1005.9515471428992	1.6141789940444609\\
1006.1963326317632	1.614637099643934\\
1006.4434963157955	1.6151765910662088\\
1006.6923187563668	1.6157210352330513\\
1006.937391049727	1.6162688401259022\\
1007.1869586601929	1.6168080987254076\\
1007.43597115189	1.6173569575347968\\
1007.6825517200646	1.6179043001343731\\
1007.9309808114972	1.6184460057674515\\
1008.1611784757995	1.6189914814600286\\
1008.4090223969192	1.6194966565023337\\
1008.643614958029	1.6200402849442472\\
1008.8942838553753	1.620554573057154\\
1009.1436107620952	1.62110382511317\\
1009.3895097604768	1.6216498412020148\\
1009.640466900848	1.6221880608385741\\
1009.8904575552372	1.6227370598427262\\
1010.1415929144621	1.6232836485788034\\
1010.3831429472293	1.6238324440230993\\
1010.6336123282899	1.6243600079677538\\
1010.8735240125147	1.6249067669154256\\
1011.1194639502703	1.6254301971564586\\
1011.3685562991204	1.6259665017644747\\
1011.614293199153	1.6265093925859633\\
1011.8546105375087	1.6270446832012677\\
1012.1038860140832	1.6275678917339553\\
1012.356135844484	1.6281103220535735\\
1012.5997638229117	1.6286589298966463\\
1012.8285270145293	1.6291884994415793\\
1013.0425312209422	1.629685498070244\\
1013.2660866858778	1.6301502042933893\\
1013.5196215347894	1.6306354268082424\\
1013.7635982056452	1.6311854520931166\\
1014.0120238973002	1.6317144538251473\\
1014.2670943807425	1.632252819325807\\
1014.518549541089	1.632805289200395\\
1014.7669168124069	1.6333496302732846\\
1015.020476462103	1.6338869966246565\\
1015.2726697405617	1.6344353041720603\\
1015.5200706733856	1.6349803602318809\\
1015.7724290949	1.6355147696658636\\
1016.0198553505456	1.6360595979339763\\
1016.2710421821737	1.6365934890424376\\
1016.4996413301062	1.6371352066731761\\
1016.7574117993395	1.6376279469288577\\
1017.0152187981164	1.6381832906972456\\
1017.26932351544	1.6387384062298147\\
1017.5244115472206	1.639285247879331\\
1017.7644590787993	1.639833906667442\\
1018.0222037705723	1.640349934350915\\
1018.2815302896179	1.6409037192013658\\
1018.5404033368616	1.6414605950791679\\
1018.7996464686032	1.6420161885724518\\
1019.0454929235004	1.6425722680170456\\
1019.3024253131825	1.643099319855149\\
1019.5500887024582	1.6436498474413548\\
1019.8016447278633	1.6441802234234344\\
1020.0471568765338	1.6447186499546997\\
1020.3034397380038	1.6452438580728952\\
1020.5651120837626	1.6457918187469973\\
1020.8186191531227	1.6463509958861478\\
1021.0613504667826	1.6468924220784535\\
1021.3094942654798	1.6474105540453243\\
1021.5668508686849	1.6479399644808141\\
1021.8255487295858	1.6484887386772809\\
1022.0846893168209	1.64904006975158\\
1022.3449308432321	1.64959203940706\\
1022.5903149306228	1.6501460474887262\\
1022.8515045813187	1.6506681377679953\\
1023.113555830131	1.6512235646713993\\
1023.3765641406612	1.651780513380547\\
1023.6405912771252	1.6523391838481163\\
1023.8945667279618	1.6528997040263114\\
1024.1374624413052	1.6534385822426896\\
1024.3950115273747	1.6539536737156284\\
1024.6572186834487	1.6544995559460507\\
1024.9089371722553	1.6550550059760631\\
1025.168363498311	1.6555879403160918\\
1025.4345441826413	1.6561368987651104\\
1025.6940619454176	1.6566998383512477\\
1025.9546344642167	1.6572483763948673\\
1026.2198645767126	1.657798839809519\\
1026.4736857197026	1.6583588317012308\\
1026.7297093433217	1.6588944340138858\\
1026.9952209964013	1.6594343923367196\\
1027.2394272938986	1.6599940557846486\\
1027.5065484591678	1.6605085214937017\\
1027.777994512399	1.6610709680783673\\
1028.030338891478	1.6616421966219987\\
1028.2997420308488	1.6621729231483424\\
1028.565733408242	1.6627392227042397\\
1028.805827095769	1.6632980312385435\\
1029.0747780295042	1.663802149691088\\
1029.3416456363138	1.6643665693241698\\
1029.6102072799913	1.664926297720187\\
1029.861951117377	1.6654892604658227\\
1030.1036133290158	1.6660166703343626\\
1030.3580277083893	1.6665226895899818\\
1030.604069113048	1.6670551372156939\\
1030.8616640097925	1.6675697847377264\\
1031.1340016007507	1.6681083173792592\\
1031.4000333491313	1.6686773598873268\\
1031.6621029609032	1.6692329066339222\\
1031.9244884323966	1.6697798716567274\\
1032.1989286952353	1.670327192373661\\
1032.458497795329	1.670899340211883\\
1032.7169049932563	1.6714401720376246\\
1032.9755013260215	1.6719782876941056\\
1033.243417150606	1.6725165032004774\\
1033.490833070768	1.6730738100935694\\
1033.7486493525116	1.6735881841366766\\
1034.0206693468535	1.6741238996997507\\
1034.2941600660188	1.674688820516498\\
1034.5731097634189	1.6752564695582821\\
1034.8355082584717	1.6758351146506196\\
1035.1030921395932	1.676379107321647\\
1035.3555305722407	1.6769335428208487\\
1035.619266377987	1.6774563028171214\\
1035.8993239954675	1.6780021665585982\\
1036.1803430166465	1.678581488887158\\
1036.4564051817529	1.67916245697654\\
1036.73603663723	1.6797328400712765\\
1037.0097772178465	1.680310261789316\\
1037.2826813751658	1.6808751869590348\\
1037.5502555550975	1.6814380616517588\\
1037.8332606298104	1.68198962662201\\
1038.0990998760544	1.682572670743607\\
1038.3789179681712	1.6831200252944254\\
1038.6515488278937	1.6836958389322487\\
1038.9330112806929	1.6842565332034236\\
1039.2152983357023	1.6848350584278733\\
1039.499186876526	1.685414935522549\\
1039.7784933117678	1.685997756655525\\
1040.0616970093615	1.6865708293880493\\
1040.3452706637245	1.6871515575629705\\
1040.6339739558157	1.687732698857204\\
1040.9180030694815	1.6883240003222726\\
1041.2068125604642	1.688905376663358\\
1041.4891741346264	1.6894961856170374\\
1041.7615061877855	1.6900734551288172\\
1042.051889650575	1.6906298912765596\\
1042.3373167562581	1.6912228708527244\\
1042.6303099653592	1.6918053752318767\\
1042.9215605756694	1.6924029628533812\\
1043.2104988601332	1.6929966321892382\\
1043.5019074793609	1.6935852295195573\\
1043.788884282886	1.6941785002817373\\
1044.0823772395247	1.6947623927697455\\
1044.3761130486637	1.6953591845817266\\
1044.6683284898031	1.6959561038894098\\
1044.956006348073	1.6965495692843953\\
1045.2197224420938	1.6971334629904562\\
1045.477263701337	1.6976684020280552\\
1045.781027400465	1.6981905284446843\\
1046.0652662924363	1.6988060296624785\\
1046.3328128782305	1.699381605090108\\
1046.6097029146986	1.699923058986934\\
1046.8940537003587	1.7004831087288594\\
1047.1884953828026	1.7010579164698254\\
1047.489868689951	1.701652769328861\\
1047.7855688100676	1.7022612520280922\\
1048.0588091036075	1.7028579060595406\\
1048.354473780406	1.7034089033986102\\
1048.6317999774028	1.7040047795813507\\
1048.9360850250441	1.7045633541211505\\
1049.2282573309808	1.7051758721942711\\
1049.513908079145	1.7057636362910822\\
1049.789697318458	1.706337932339352\\
1050.081815688131	1.7068920734431778\\
1050.3865816459493	1.7074786871251364\\
1050.6824159488383	1.708090326680781\\
1050.972484349306	1.7086836660384543\\
1051.2538290708926	1.7092650841394876\\
1051.5601895088166	1.7098286774418745\\
1051.8594048246405	1.7104420226158976\\
1052.1674509131026	1.7110406828465945\\
1052.4741962384337	1.7116566284395258\\
1052.7523637561226	1.7122695816063729\\
1053.0541151751927	1.712825077708513\\
1053.336108526937	1.7134273216940485\\
1053.6430964170054	1.7139897815206766\\
1053.9518823486774	1.7146017359435186\\
1054.2591757695982	1.7152168834214905\\
1054.576225646088	1.715828666612882\\
1054.873151474958	1.7164594718593533\\
1055.1833585874224	1.7170498521615511\\
1055.4989655276504	1.7176662603292578\\
1055.7927746952387	1.7182929960728395\\
1056.095862707607	1.718876066577621\\
1056.4127349161658	1.7194771856173907\\
1056.7036422277583	1.7201052489192572\\
1057.007222201371	1.7206814725109068\\
1057.3237782863298	1.721282436163823\\
1057.628277444288	1.7219086939724724\\
1057.926033532557	1.722510706614898\\
1058.2218965089974	1.7230990187883544\\
1058.5427292908266	1.7236832319982764\\
1058.86238797546	1.724316363018219\\
1059.1835112367985	1.7249467604240538\\
1059.4843115095096	1.7255796293234762\\
1059.7780820565795	1.726172055275322\\
1060.0600793634421	1.7267502786070612\\
1060.398575099598	1.727304994246737\\
1060.714655751061	1.7279704577435833\\
1061.005336286251	1.7285914236296485\\
1061.306833731589	1.729162119620034\\
1061.5993888714738	1.7297536985112196\\
1061.9278571136183	1.7303273765793032\\
1062.2392010368294	1.7309710883210199\\
1062.5601914514336	1.7315808307409024\\
1062.8747848007056	1.732209062977287\\
1063.1812520613807	1.7328243702384223\\
1063.4944520003041	1.733423397803933\\
1063.8227122676358	1.7340352003466344\\
1064.1282666003053	1.734676009263247\\
1064.468789280505	1.7352720935140933\\
1064.776387444891	1.7359359771782876\\
1065.1103280308666	1.7365352552515088\\
1065.4410543017684	1.7371854438438026\\
1065.7554142452968	1.737828934582048\\
1066.065509723208	1.738440169003273\\
1066.3989042575145	1.7390427246171587\\
1066.7319805504512	1.7396901414297519\\
1067.0666328412858	1.7403364999094117\\
1067.411290609808	1.7409854750594769\\
1067.7288551804522	1.741653396250385\\
1068.0544453866405	1.7422683817804727\\
1068.3749959554857	1.7428985006876427\\
1068.7271258577389	1.7435184548732918\\
1069.082612128716	1.7435184548732918\\
1069.4033770699439	1.7435184548732918\\
1069.7231909622124	1.7435184548732918\\
1070.0831455880943	1.7435184548732918\\
1070.411366769853	1.7435184548732918\\
1070.739260899662	1.7435184548732918\\
1071.0807691392474	1.7435184548732918\\
1071.3903102378008	1.7435184548732918\\
1071.711281989426	1.7435184548732918\\
1072.0219431549058	1.7435184548732918\\
1072.3492423643906	1.7435184548732918\\
1072.6944571268073	1.7435184548732918\\
1073.038391978996	1.7435184548732918\\
1073.3731747589559	1.7435184548732918\\
1073.7284756680851	1.7435184548732918\\
1074.0598917326938	1.7435184548732918\\
1074.3848359407862	1.7435184548732918\\
1074.6860773627454	1.7435184548732918\\
1075.0545143617564	1.7435184548732918\\
1075.3967508191727	1.7435184548732918\\
1075.7102318072211	1.7435184548732918\\
1076.0501265381781	1.7435184548732918\\
1076.3808776959459	1.7435184548732918\\
1076.7258630591723	1.7435184548732918\\
1077.0555002864166	1.7435184548732918\\
1077.3612788391601	1.7435184548732918\\
1077.684937958959	1.7435184548732918\\
1078.0381594349483	1.7435184548732918\\
1078.3637211575333	1.7435184548732918\\
1078.709005395166	1.7435184548732918\\
1079.0335886371195	1.7435184548732918\\
1079.3505862085908	1.7435184548732918\\
1079.6919968339798	1.7435184548732918\\
1080.0777998906856	1.7435184548732918\\
1080.4368153044475	1.7435184548732918\\
1080.7615318380595	1.7435184548732918\\
1081.074690889459	1.7435184548732918\\
1081.4180949840652	1.7435184548732918\\
1081.737723262333	1.7435184548732918\\
1082.087769480263	1.7435184548732918\\
1082.4169357839614	1.7435184548732918\\
1082.779985555393	1.7435184548732918\\
1083.1160849127377	1.7435184548732918\\
1083.4280152520755	1.7435184548732918\\
1083.7436269390173	1.7435184548732918\\
1084.0518952643793	1.7435184548732918\\
1084.3955121611789	1.7435184548732918\\
1084.7697747795278	1.7435184548732918\\
1085.1190376331083	1.7435184548732918\\
1085.4926859398065	1.7435184548732918\\
1085.8530880909912	1.7435184548732918\\
1086.1997700205989	1.7435184548732918\\
1086.5446785004788	1.7435184548732918\\
1086.867543766979	1.7435184548732918\\
1087.2112980779666	1.7435184548732918\\
1087.5510329276299	1.7435184548732918\\
1087.8762551354016	1.7435184548732918\\
1088.2128737671414	1.7435184548732918\\
1088.5823317235308	1.7435184548732918\\
1088.951957943058	1.7435184548732918\\
1089.3067334764196	1.7435184548732918\\
1089.6769755772625	1.7435184548732918\\
1090.0124637302465	1.7435184548732918\\
1090.349397580973	1.7435184548732918\\
1090.6891155898606	1.7435184548732918\\
1091.0271540082376	1.7435184548732918\\
1091.4075947838505	1.7435184548732918\\
1091.7810741684002	1.7435184548732918\\
1092.1462737317074	1.7435184548732918\\
1092.4879768096393	1.7435184548732918\\
1092.8738274416055	1.7435184548732918\\
1093.2314689521359	1.7435184548732918\\
1093.584079806701	1.7435184548732918\\
1093.9380368994134	1.7435184548732918\\
1094.2884519103627	1.7435184548732918\\
1094.6414908186734	1.7435184548732918\\
1095.0010384223988	1.7435184548732918\\
1095.3696306991574	1.7435184548732918\\
1095.714253656045	1.7435184548732918\\
1096.051998702384	1.7435184548732918\\
1096.3895268937963	1.7435184548732918\\
1096.751140805061	1.7435184548732918\\
1097.1344513467775	1.7435184548732918\\
1097.4961144303243	1.7435184548732918\\
1097.8845162523276	1.7435184548732918\\
1098.2409901204082	1.7435184548732918\\
1098.618732995335	1.7435184548732918\\
1098.9925035578317	1.7435184548732918\\
1099.3461357171996	1.7435184548732918\\
1099.7124379914508	1.7435184548732918\\
1099.9581463014697	1.7435184548732918\\
1100.0846467677852	1.7435184548732918\\
1100.4895912517777	1.7429700235241663\\
1100.871079457615	1.7412144934323457\\
1101.2304034849253	1.7395607495185619\\
1101.6091598812513	1.7380031734535084\\
1101.9798557320437	1.7363614539538585\\
1102.3335971349225	1.7347547630513684\\
1102.6968747006595	1.7332216401641005\\
1103.0679741990593	1.731647271718288\\
1103.4308044559443	1.730039092858597\\
1103.8026512659821	1.728466835278837\\
1104.2059826599616	1.7268555943822848\\
1104.5921163216535	1.7251080292475227\\
1104.978642582903	1.7234350771800124\\
1105.3701881261659	1.7217605203356134\\
1105.7423509886057	1.7200643163679232\\
1106.1191101247732	1.7184521709693552\\
1106.527972744008	1.7168202059451625\\
1106.94352437398	1.7150492849790258\\
1107.3304748217206	1.7132495015134408\\
1107.6892230976287	1.7115736912700545\\
1108.0824419868404	1.7100201050159387\\
1108.4900912516086	1.7083173357827923\\
1108.8742567162803	1.7065521825485526\\
1109.2392223083152	1.704888813155587\\
1109.6014141461355	1.703308663119143\\
1109.9738141435332	1.7017406062943494\\
1110.3497880043424	1.7001284419249871\\
1110.7295795787309	1.6985008954939405\\
1111.1258698032757	1.6968569139952996\\
1111.5130495770509	1.6951416135813915\\
1111.8689669156029	1.6934658432046064\\
1112.2366363957976	1.6919254652017983\\
1112.6041211230881	1.6903343094494256\\
1112.960499154778	1.688744038955091\\
1113.346707433861	1.6872019138828103\\
1113.7331013758435	1.6855307977345246\\
1114.091409529141	1.683858972759384\\
1114.4845124907865	1.6823087520549247\\
1114.8716277336616	1.6806080850028744\\
1115.2517406978195	1.678933417882388\\
1115.6546669041632	1.677289134884596\\
1116.0341255101503	1.6755462665813827\\
1116.4414178550574	1.6739050017286516\\
1116.8494865791122	1.6721434492458687\\
1117.2445064940853	1.6703786438104893\\
1117.6391408727486	1.6686703715217148\\
1118.0284708899749	1.6669638646674585\\
1118.4223769798336	1.6652803914381904\\
1118.7987389555283	1.6635772282696206\\
1119.1902096334143	1.6619500132090224\\
1119.5655148163419	1.6602575696648152\\
1119.995390592393	1.6586351048296242\\
1120.3854546054672	1.6567768371418872\\
1120.7970307461555	1.655090768302225\\
1121.196427867284	1.6533118159958018\\
1121.570583487081	1.651585606690606\\
1122.0053886449814	1.6499685829751973\\
1122.3978834625277	1.6480895548349257\\
1122.7779541950558	1.6463934744408717\\
1123.1558114635159	1.6447511741346115\\
1123.5450442076249	1.6431185281268061\\
1123.9389061240508	1.6414368245909667\\
1124.33529124389	1.6397352171410742\\
1124.7361123286605	1.638022806850186\\
1125.1508811198369	1.6362913330398103\\
1125.5609299227326	1.6344997136893187\\
1125.9635609842858	1.6327285885811718\\
1126.3552861461153	1.6309896054498352\\
1126.7425071340022	1.629297822899711\\
1127.144006056818	1.6276255874502246\\
1127.540419550805	1.6258917911234672\\
1127.9326197937062	1.6241800543073102\\
1128.298835327027	1.6224866074196984\\
1128.707806104344	1.6209054446034492\\
1129.1151963385837	1.6191397821299836\\
1129.5176185093883	1.6173810475366537\\
1129.886585246812	1.6156438625118223\\
1130.2935539839218	1.614051187794046\\
1130.6859471245025	1.612294573295302\\
1131.079266660282	1.6106009702501427\\
1131.4723471615184	1.6089034656244143\\
1131.8659124190185	1.6072070894941222\\
1132.2508837629712	1.60550871837691\\
1132.650066561339	1.6038475269324453\\
1133.0461912421547	1.6021251097160492\\
1133.4510446838917	1.600415986627548\\
1133.8536970976284	1.5986693040528752\\
1134.2397411680126	1.5969322194953657\\
1134.6261347360883	1.595266880595571\\
1135.004613981284	1.593600127681313\\
1135.4019216261486	1.5919676049767002\\
1135.802337651609	1.5902539651110028\\
1136.1962666665222	1.5885270187058738\\
1136.6102515508196	1.5868281482974895\\
1137.0074231820017	1.585042889426313\\
1137.4053611724794	1.5833302369019369\\
1137.7930237016126	1.5816143792302835\\
1138.172438307297	1.5799429238253755\\
1138.5636114063805	1.5783071219520584\\
1138.9661738240984	1.5766207195909092\\
1139.3693161016427	1.5748853168908286\\
1139.7497711890974	1.5731475168016078\\
1140.1290270865757	1.5715076069143987\\
1140.5126610518319	1.569872956855082\\
1140.9122613781906	1.5682195289901961\\
1141.3092396030647	1.5664973863241625\\
1141.7143885486794	1.5647866438794733\\
1142.1087338394746	1.5630407931057533\\
1142.5120323869205	1.5613415966402344\\
1142.9161165042292	1.559603923180621\\
1143.3167857007938	1.5578629682131484\\
1143.7234214718387	1.5561368281766208\\
1144.1096065213787	1.5543850872953109\\
1144.5102460388625	1.5527215428738608\\
1144.9138837094151	1.5509958338796621\\
1145.3157649763107	1.5492573137368648\\
1145.7156504983377	1.547526461485583\\
1146.1228935618533	1.5458043065685423\\
1146.5163716501784	1.5440505700658465\\
1146.9183712951208	1.542356210822404\\
1147.3253559153736	1.5406252586847384\\
1147.7375542832679	1.5388729469024258\\
1148.1436176313882	1.53709829452007\\
1148.5422613274663	1.5353501615101313\\
1148.9449941400535	1.533634073125067\\
1149.341140768167	1.5319004850122717\\
1149.7396594501383	1.530195348782418\\
1150.1290066438137	1.5284801039061109\\
1150.5220811463232	1.526804431882832\\
1150.9163284108372	1.5251128169060693\\
1151.3073240555304	1.5234162545215724\\
1151.7007115620845	1.5217337834478593\\
1152.10236764734	1.5200411193013064\\
1152.5049401784	1.5183129799538748\\
1152.9052002125413	1.5165810018470116\\
1153.3050739888254	1.514859076337899\\
1153.706072301482	1.5131389157648927\\
1154.1080890188891	1.51141402144124\\
1154.51517932667	1.5096848508264427\\
1154.9153889271033	1.507933964081115\\
1155.3099436379803	1.5062127757832018\\
1155.6997241875256	1.5045160092621677\\
1156.0887794148352	1.5028398730788313\\
1156.4897851676023	1.5011669544035502\\
1156.890927799719	1.4994427521158273\\
1157.2947304889717	1.4977180660795377\\
1157.6903878809458	1.4959820492703253\\
1158.0816822581205	1.4942811537153275\\
1158.48202742191	1.4925991149694684\\
1158.8802799069163	1.4908782736845199\\
1159.283721934486	1.489166531684833\\
1159.687641347778	1.4874325903538197\\
1160.0924056382928	1.4856967042870923\\
1160.4959079764499	1.4839572948006625\\
1160.8991147207548	1.4822234156147123\\
1161.2971014071181	1.480490913721732\\
1161.692891054311	1.4787809465346942\\
1162.0885083658632	1.4770805227196409\\
1162.4890155812805	1.4753809427745015\\
1162.877996012492	1.4761932292045956\\
1163.2792243410972	1.4760095975067569\\
1163.8606282555988	1.4757437336965524\\
1164.7100463713928	1.4753558003749698\\
1165.9549689065966	1.4747882829760777\\
1167.2330923949853	1.4742069198653145\\
1168.4350200264853	1.4736614042001939\\
1169.6327183434582	1.4731189521657206\\
1170.7895109260498	1.4725961087272106\\
1172.045440700138	1.4720296586140924\\
1173.2553166573425	1.4714851595828484\\
1174.4601851623943	1.470944062230421\\
1175.6320594386684	1.470418879040358\\
1176.8665937495011	1.469866781553839\\
1178.0868920400453	1.4693222249628946\\
1179.338687452041	1.468764823274593\\
1180.6335438042843	1.4681895342528892\\
1181.859667699664	1.4676459858029773\\
1183.0842286765874	1.467104296079014\\
1184.399674136569	1.4665236983147316\\
1185.7091939400498	1.4659470452393264\\
1186.937961385945	1.4654071551517263\\
1188.1661996104608	1.4648686592202935\\
1189.4422318894658	1.4643104362337276\\
1190.6448369017617	1.4637854775533754\\
1191.9348506716888	1.463223592750292\\
1193.165530125169	1.4626887352605344\\
1194.4827441503153	1.4621175468185719\\
1195.7213093198666	1.4615816651370253\\
1197.000597753854	1.4610293842182984\\
1198.2547731309887	1.4604891457860554\\
1199.4589740098195	1.4599715503488864\\
1200.7325552200696	1.4594253208632963\\
1202.023397593668	1.4588729308696264\\
1203.320188368018	1.4583192521387354\\
1204.632007728806	1.4577604354026041\\
1205.9104798041021	1.45721705859455\\
1207.17863326516	1.4566792684461414\\
1208.3794595571903	1.4561711300600988\\
1209.7007277121752	1.4556132594709539\\
1210.9907050212992	1.4550698447490331\\
1212.2812242835748	1.4545274288246175\\
1213.533844458877	1.4540021133025034\\
1214.8480854662566	1.4534521929297701\\
1216.1347249324385	1.4529150464183649\\
1217.3625740374027	1.4524035708367034\\
1218.6969850669316	1.4518489508882497\\
1220.0083451733071	1.451305172299656\\
1221.2849360767368	1.450777009010537\\
1222.5558391285358	1.4502523698805774\\
1222.8322710559182	1.450138410961112\\
1222.930063496397	1.4500981092778094\\
1223.1451287147274	1.4500095020417476\\
1223.1651591095583	1.450001251182532\\
1223.1671863790534	1.4500004161319753\\
1223.168231874905	1.4499999854839791\\
1223.16957459155	1.4499994324095542\\
1223.1771098936192	1.449996328590014\\
1223.203791896265	1.4499853385041368\\
1223.2748391190657	1.4499560772955769\\
1223.4483294271704	1.4498846397514291\\
1223.705825544529	1.449778651782962\\
1224.2517430726884	1.4495541061658916\\
1224.9537306278376	1.449265684399181\\
1225.9513696013005	1.4488564050969517\\
1227.2194533057636	1.4483372168443116\\
1228.5139182731555	1.4478084259984576\\
1229.8448677613392	1.4472659908197376\\
1231.2153300035393	1.4467087833660042\\
1232.5359083531594	1.4461731327224203\\
1233.9687267612821	1.445593367161406\\
1235.3151833736943	1.4450498821703142\\
1236.6882006378669	1.444497005634167\\
1238.080021141062	1.4439379242344323\\
1239.4095461536203	1.4434051481423829\\
1240.783209245557	1.442855996980054\\
1242.1272222748985	1.4423199866850351\\
1243.5018149266307	1.4417730949277832\\
1244.8632206127527	1.4412327562789469\\
1246.220247728697	1.4406954462769619\\
1247.5894842819766	1.4401546049244647\\
1248.9937520740964	1.4396012824336246\\
1250.3357040541673	1.4390737940896192\\
1251.7265416789146	1.438528406729257\\
1253.0178177328162	1.4380232571995006\\
1254.3974279539657	1.4374848214576108\\
1255.7415057160815	1.436961512319129\\
1257.1074235028677	1.436430969723384\\
1258.4552860003278	1.4359086917879407\\
1259.8390828328552	1.4353737801520805\\
1261.182628674041	1.43485567544231\\
1262.5905711201003	1.4343140536467038\\
1263.9886281725767	1.4337775638220236\\
1265.377351868789	1.4332459634952721\\
1266.7937948693134	1.4327050917026447\\
1268.216511509244	1.4321631824923862\\
1269.5978295024365	1.4316383409591846\\
1271.020000199478	1.431099310941267\\
1272.5083697756318	1.430536635704645\\
1273.9717006300693	1.4299848637213002\\
1275.342897569817	1.4294691223611302\\
1276.6559403001793	1.4289764211931566\\
1278.0375605529653	1.4284592169004953\\
1279.478111216777	1.4279212916533532\\
1280.9308237922323	1.4273802061461622\\
1282.3626280891244	1.4268482619309064\\
1282.8789773988174	1.4266567567643609\\
};
\end{axis}
\end{tikzpicture}%
