%RateOfClimb_evolution
\begin{tikzpicture}

\begin{axis}[
width=\figurewidth,
height=\figureheight,
scaled ticks=false, tick label style={/pgf/number format/fixed},
xmin=0.0,
xmax=34.79733245530347,
xlabel={Time (s)},
xmajorgrids,
ymin=0.0,
ymax=4.9632473628465,
ylabel={Rate of Climb (m/s)},
ymajorgrids,
legend style={at={(1.03,0.5)},anchor=west,draw=black,fill=white,legend cell align=left}
]

\addplot [
color=black,
solid
]
table[row sep=crcr]{
9.999999999999999E-5	0.0\\
0.0010999999999999998	0.0\\
0.003446429333058075	0.0\\
0.0068142272826717705	0.0\\
0.011724593613291177	0.0\\
0.017617678954588448	0.0\\
0.02349467632174624	0.0\\
0.0292417109025502	0.0\\
0.03513962680399378	0.0\\
0.04095058140485462	0.0\\
0.046880842440410825	0.0\\
0.05271084740945334	0.0\\
0.058592431198329395	0.0\\
0.06436291565317803	0.0\\
0.07028035693273094	0.0\\
0.0761670037914988	0.0\\
0.08204273653260605	0.0\\
0.08789325702034645	0.0\\
0.09383582391285747	0.0\\
0.09977332881533571	0.0\\
0.10568874135149536	0.0\\
0.11164173040862582	0.0\\
0.11757357362487458	0.0\\
0.123500593454579	0.0\\
0.12933155184443618	0.0\\
0.13525668990067624	0.0\\
0.14120030857786559	0.0\\
0.14714074725822313	0.0\\
0.15309593525660187	0.0\\
0.15900611887167643	0.0\\
0.16496096996739218	0.0\\
0.17090085994188825	0.0\\
0.1768859257425252	0.0\\
0.1827444852083177	0.0\\
0.18867627919740226	0.0\\
0.19457637214368118	0.0\\
0.20052559841545853	0.0\\
0.2064798782544522	0.0\\
0.21247959926841858	0.0\\
0.21847370857871828	0.0\\
0.22442716454873574	0.0\\
0.23037411838281513	0.0\\
0.23635461383599365	0.0\\
0.24232611554097244	0.0\\
0.2483805781581983	0.0\\
0.2542537982007297	0.0\\
0.2601646702524867	0.0\\
0.2661731733625975	0.0\\
0.27217441374685436	0.0\\
0.27822890971834846	0.0\\
0.28427506675449044	0.0\\
0.29033319695483417	0.0\\
0.29641139263194394	0.0\\
0.3024689604442732	0.0\\
0.30847732656556504	0.0\\
0.3145262603667315	0.0\\
0.32066780725504385	0.0\\
0.3267871689010283	0.0\\
0.33278294111748863	0.0\\
0.33882283087719745	0.0\\
0.3449328432187606	0.0\\
0.35101302402342105	0.0\\
0.3570137376787478	0.0\\
0.3630984828918675	0.0\\
0.36919097775486576	0.0\\
0.37539956905922167	0.0\\
0.38161401641113835	0.0\\
0.38766686182847976	0.0\\
0.3938069954707789	0.0\\
0.39998393939135046	0.0\\
0.4061396787249053	0.0\\
0.4123189909331305	0.0\\
0.4185616641885037	0.0\\
0.4247572255561143	0.0\\
0.43096783003717254	0.0\\
0.43708845073024194	0.0\\
0.4433078559567477	0.0\\
0.44949337358086827	0.0\\
0.45572124290559046	0.0\\
0.46199798735085784	0.0\\
0.4683729907449887	0.0\\
0.474548954609897	0.0\\
0.4807434262097491	0.0\\
0.4869474167167348	0.0\\
0.49323844893655644	0.0\\
0.49939662329308987	0.0\\
0.5056794458310834	0.0\\
0.5118325355695967	0.0\\
0.5181500232303857	0.0\\
0.5245293595645402	0.0\\
0.530836628046824	0.0\\
0.5372710403759633	0.0\\
0.5436032653706993	0.0\\
0.5499419692119849	0.0\\
0.5563175433290959	0.0\\
0.5626310223206978	0.0\\
0.5690251822126422	0.0\\
0.5754718257307851	0.0\\
0.5818321071796309	0.0\\
0.5882770338876742	0.0\\
0.5946032419734084	0.0\\
0.6010527236749654	0.0\\
0.607540797390119	0.0\\
0.6139996627537878	0.0\\
0.6203873320727593	0.0\\
0.6268683382515163	0.0\\
0.6334275775127423	0.0\\
0.6398718462620852	0.0\\
0.6462092120761878	0.0\\
0.6525527517398091	0.0\\
0.6589744525196701	0.0\\
0.6653423613615219	0.0\\
0.671719742348331	0.0\\
0.6783100345873887	0.0\\
0.684882097814443	0.0\\
0.6912612108810396	0.0\\
0.697865133310184	0.0\\
0.7045704955053094	0.0\\
0.7110540154447367	0.0\\
0.7175745210860105	0.0\\
0.72419793626963	0.0\\
0.7308081659349814	0.0\\
0.7372672028123566	0.0\\
0.7439346806130087	0.0\\
0.7505409748520113	0.0\\
0.7571308228008671	0.0\\
0.7636419253133071	0.0\\
0.7701982660587039	0.0\\
0.776672887172613	0.0\\
0.7831624462550737	0.0\\
0.7898518336510836	0.0\\
0.7965362106949443	0.0\\
0.8031727401523663	0.0\\
0.8098134786727982	0.0\\
0.8165131499968212	0.0\\
0.8233124542821557	0.0\\
0.8299980314902373	0.0\\
0.8368997867615044	0.0\\
0.843647367386879	0.0\\
0.8503947403759649	0.0\\
0.8570400734682855	0.0\\
0.8636872902390706	0.0\\
0.8705747608375911	0.0\\
0.8773929967577918	0.0\\
0.8840859227002158	0.0\\
0.8907231859722995	0.0\\
0.8975795967062574	0.0\\
0.904492949430316	0.0\\
0.9112799706685786	0.0\\
0.9181357222518853	0.0\\
0.9250811433626154	0.0\\
0.9319308931873882	0.0\\
0.9387464008453457	0.0\\
0.94568832117363	0.0\\
0.9527834385798502	0.0\\
0.9595928251615786	0.0\\
0.9663662919683103	0.0\\
0.9732340971492575	0.0\\
0.980258314581328	0.0\\
0.9871607504715052	0.0\\
0.9940059435517925	0.0\\
1.0010816753253922	0.0\\
1.0081043979199955	0.0\\
1.0151557550026058	0.0\\
1.0221544903699402	0.0\\
1.0291978491461515	0.0\\
1.036195392262493	0.0\\
1.0432064631907716	0.0\\
1.0504994119759625	0.0\\
1.0577242336384147	0.0\\
1.0647661390833507	0.0\\
1.071856816697606	0.0\\
1.0788896960406897	0.0\\
1.0861179845410271	0.0\\
1.0932633989216853	0.0\\
1.1003908824298194	0.0\\
1.1076685668138642	0.0\\
1.114855855144814	0.0\\
1.1221217856424786	0.0\\
1.1293233415179715	0.0\\
1.1366246459409637	0.0\\
1.1437412585182791	0.0\\
1.1510588076686585	0.0\\
1.1585318823487532	0.0\\
1.1658441897566578	0.0\\
1.1732204480775201	0.0\\
1.180610850702224	0.0\\
1.1880244448000612	0.0\\
1.195484442879493	0.0\\
1.2028124343631075	0.0\\
1.2102787661838947	0.0\\
1.217492611210651	0.0\\
1.2249316425976517	0.0\\
1.2322371057262793	0.0\\
1.2396700264026999	0.0\\
1.2471617591175423	0.0\\
1.2548633998754912	0.0\\
1.2623425894122668	0.0\\
1.2697445552886109	0.0\\
1.2770475666755177	0.0\\
1.2844106850754855	0.0\\
1.2919331944292698	0.0\\
1.2996140490244277	0.0\\
1.3072041656327138	0.0\\
1.3146476311384978	0.0\\
1.3221506607695885	0.0\\
1.3296010197272903	0.0\\
1.3372099691977275	0.0\\
1.3447684832894553	0.0\\
1.3523622221484168	0.0\\
1.3599141000500388	0.0\\
1.3676647037052674	0.0\\
1.3752292325357867	0.0\\
1.382820083827362	0.0\\
1.3904674405929804	0.0\\
1.398305595983988	0.0\\
1.4060994542283112	0.0\\
1.4137263103077902	0.0\\
1.4211765798670974	0.0\\
1.4289879677101118	0.0\\
1.4369377410533768	0.0\\
1.4446823746830417	0.0\\
1.452407468624954	0.0\\
1.4599550008942117	0.0\\
1.467568025037084	0.0\\
1.4754363265291537	0.0\\
1.4830596247800116	0.0\\
1.490969068813408	0.0\\
1.4987836732339312	0.0\\
1.5065812660008358	0.0\\
1.5145448189220039	0.0\\
1.5223908372782402	0.0\\
1.5301958995372131	0.0\\
1.537965487612107	0.0\\
1.5458529174929883	0.0\\
1.553798479502487	0.0\\
1.5617204637139892	0.0\\
1.5695746693804695	0.0\\
1.5775370556127442	0.0\\
1.5855217509739248	0.0\\
1.5936333783494425	0.0\\
1.6017466098891862	0.0\\
1.6096961089752142	0.0\\
1.6174494072321992	0.0\\
1.62556241961241	0.0\\
1.633616036355142	0.0\\
1.6416280702464832	0.0\\
1.6496913813385499	0.0\\
1.6578868567301082	0.0\\
1.66584952040006	0.0\\
1.674014201068192	0.0\\
1.6821971509009028	0.0\\
1.6901286940222358	0.0\\
1.6985168023332289	0.0\\
1.7068464712877947	0.0\\
1.7150856832708117	0.0\\
1.7233144236986528	0.0\\
1.73155584661494	0.0\\
1.739788947751245	0.0\\
1.7479024264544414	0.0\\
1.756047438971187	0.0\\
1.7645269380971809	0.0\\
1.7729732927740867	0.0\\
1.7812918172577388	0.0\\
1.7896676712026522	0.0\\
1.7979494084500027	0.0\\
1.8062911226539309	0.0\\
1.8146603561081123	0.0\\
1.8230816902318123	0.0\\
1.831748564212313	0.0\\
1.8403435310040348	0.0\\
1.8488012836259475	0.0\\
1.857297232473408	0.0\\
1.8657533086021232	0.0\\
1.8742756754018495	0.0\\
1.882715911439488	0.0\\
1.8911224334810561	0.0\\
1.8996881504837582	0.0\\
1.908343493711441	0.0\\
1.9169041084945442	0.0\\
1.9252796979213338	0.0\\
1.9339042355218057	0.0\\
1.9424503503941706	0.0\\
1.9508079840138097	0.0\\
1.959434479078186	0.0\\
1.9678688911157316	0.0\\
1.9764622427882683	0.0\\
1.9854040284324843	0.0\\
1.994129993591006	0.0\\
2.0026853957555115	0.0\\
2.0112640573402585	0.0\\
2.020085386689095	0.0\\
2.028496705760209	0.0\\
2.037103111610569	0.0\\
2.0458039878202046	0.0\\
2.0547034604386427	0.0\\
2.063365128881065	0.0\\
2.072147682991935	0.0\\
2.0809728924355015	0.0\\
2.0898810058761095	0.0\\
2.0987704922924717	0.0\\
2.1076829425772026	0.0\\
2.1166158446199965	0.0\\
2.1256048757598993	0.0\\
2.134283206760675	0.0\\
2.143183614853676	0.0\\
2.15203265599056	0.0\\
2.161159362412416	0.0\\
2.1701032044022117	0.0\\
2.1790983137700426	0.0\\
2.1882016911173814	0.0\\
2.1972110056946947	0.0\\
2.2062695378672394	0.0\\
2.2153923026544806	0.0\\
2.2241775589373924	0.0\\
2.2333258873203725	0.0\\
2.2423146816324024	0.0\\
2.2513275841025226	0.0\\
2.2605262297156345	0.0\\
2.2695988679866206	0.0\\
2.2787092227487795	0.0\\
2.2879492027932145	0.0\\
2.296976038000915	0.0\\
2.3060734490878882	0.0\\
2.315285927040171	0.0\\
2.3246443932088026	0.0\\
2.3336999707552737	0.0\\
2.3431957875036584	0.0\\
2.352425996178078	0.0\\
2.361715506054054	0.0\\
2.371004145273858	0.0\\
2.3801739618799767	0.0\\
2.3895946448130765	0.0\\
2.399050214817276	0.0\\
2.4084299317677917	0.0\\
2.4178524506450643	0.0\\
2.4273064859770033	0.0\\
2.4365892311203705	0.0\\
2.446059642652596	0.0\\
2.4553459853354456	0.0\\
2.4645676364424762	0.0\\
2.4739430172573327	0.0\\
2.483566593815702	0.0\\
2.4929524910814926	0.0\\
2.5023045215563453	0.0\\
2.5118566840595307	0.0\\
2.5214572708069767	0.0\\
2.5308107861335944	0.0\\
2.5403251883086204	0.0\\
2.549706478004614	0.0\\
2.559236723899015	0.0\\
2.5686412349308414	0.0\\
2.578168240835839	0.0\\
2.5876989824801617	0.0\\
2.5972946557716092	0.0\\
2.6070357295445463	0.0\\
2.6167051255006664	0.0\\
2.6264415405108785	0.0\\
2.6359553374876343	0.0\\
2.6455845794767825	0.0\\
2.655351641401224	0.0\\
2.665182819344423	0.0\\
2.6748185720197313	0.0\\
2.6844657577709414	0.0\\
2.6941908356144566	0.0\\
2.7038794578020715	0.0\\
2.7137432440334237	0.0\\
2.723585331241197	0.0\\
2.7332685465880164	0.0\\
2.7429590846131813	0.0\\
2.7528529161188233	0.0\\
2.7628448589850043	0.0\\
2.77275607434942	0.0\\
2.782676949184861	0.0\\
2.7926958935053214	0.0\\
2.802627097441624	0.0\\
2.812365223853069	0.0\\
2.822482330230409	0.0\\
2.832247465641652	0.0\\
2.842083775130746	0.0\\
2.8522068586863156	0.0\\
2.8620948392844285	0.0\\
2.8720912726462675	0.0\\
2.882326582834316	0.0\\
2.8922525743572134	0.0\\
2.9022085793833714	0.0\\
2.912180184131431	0.0\\
2.922414669693447	0.0\\
2.932463755994969	0.0\\
2.9425766955506774	0.0\\
2.952616950052218	0.0\\
2.9626907697780336	0.0\\
2.972815955989514	0.0\\
2.9828016329151996	0.0\\
2.992973874181927	0.0\\
3.003209408373424	0.0\\
3.013090948002322	0.0\\
3.02317492156663	0.0\\
3.0332759724773073	0.0\\
3.0435984675158716	0.0\\
3.053997342598816	0.0\\
3.064142448255276	0.0\\
3.074693751586807	0.0\\
3.0849841734582393	0.0\\
3.095251966248644	0.0\\
3.1053882244468083	0.0\\
3.1157983659285984	0.0\\
3.1259484454468502	0.0\\
3.1363985713916795	0.0\\
3.146678484163152	0.0\\
3.1574002195780455	0.0\\
3.16789853466452	0.0\\
3.1782039557298596	0.0\\
3.188767046904557	0.0\\
3.199380965499901	0.0\\
3.209849710635951	0.0\\
3.220305245694674	0.0\\
3.23070339617854	0.0\\
3.24099947985503	0.0\\
3.2514033494639394	0.0\\
3.2620644112906003	0.0\\
3.2727836928510516	0.0\\
3.2832710587213265	0.0\\
3.293796229875456	0.0\\
3.3042321705186533	0.0\\
3.3149106516219122	0.0\\
3.3257649454519314	0.0\\
3.3365146871170976	0.0\\
3.3474386552055977	0.0\\
3.358117264699154	0.0\\
3.368781947656541	0.0\\
3.379390560805409	0.0\\
3.3900152945977347	0.0\\
3.400832794971339	0.0\\
3.4116270278063245	0.0\\
3.422527591623747	0.0\\
3.433400956336068	0.0\\
3.4442556649253353	0.0\\
3.455198216897857	0.0\\
3.466000840409208	0.0\\
3.4767124361562987	0.0\\
3.4875435844582343	0.0\\
3.4984474015003206	0.0\\
3.509239125820053	0.0\\
3.5198689176251365	0.0\\
3.530803330813458	0.0\\
3.541819749263473	0.0\\
3.5528156254306262	0.0\\
3.5636162807852703	0.0\\
3.5747879863020815	0.0\\
3.585820648152543	0.0\\
3.596764410083649	0.0\\
3.6077264733132166	0.0\\
3.618900126785581	0.0\\
3.629823798526224	0.0\\
3.6407327614021296	0.0\\
3.6518913831047364	0.0\\
3.6631451384623412	0.0\\
3.6743101210678626	0.0\\
3.685335454642323	0.0\\
3.696550233634608	0.0\\
3.707595861342768	0.0\\
3.7188791887301944	0.0\\
3.7300958815960854	0.0\\
3.7413910887499178	0.0\\
3.752503696304365	0.0\\
3.763576266333101	0.0\\
3.774716903048075	0.0\\
3.786001748190424	0.0\\
3.79743851174047	0.0\\
3.808746592742297	0.0\\
3.8199241127017016	0.0\\
3.831181250552806	0.0\\
3.8425244979618576	0.0\\
3.8538335878483583	0.0\\
3.8652712040724406	0.0\\
3.876610540812605	0.0\\
3.887965549439267	0.0\\
3.899427565859293	0.0\\
3.910838074190414	0.0\\
3.922275270136324	0.0\\
3.933477373695636	0.0\\
3.944885737329262	0.0\\
3.956323820849061	0.0\\
3.9677003745145853	0.0\\
3.9791570681816637	0.0\\
3.9906563273638644	0.0\\
4.00186108015726	0.0\\
4.013364457206279	0.0\\
4.0250040589167035	0.0\\
4.036538782389986	0.0\\
4.048016431613213	0.0\\
4.059531622184441	0.0\\
4.071034082079082	0.0\\
4.082638082696501	0.0\\
4.093958437542257	0.0\\
4.105614300734869	0.0\\
4.117011494835211	0.0\\
4.128474567456083	0.0\\
4.1399338610524765	0.0\\
4.151385637041054	0.0\\
4.162819728378592	0.0\\
4.174222151696561	0.0\\
4.185835784200211	0.0\\
4.197482629865112	0.0\\
4.209135901952136	0.0\\
4.220806814053123	0.0\\
4.232227038010327	0.0\\
4.243905889533869	0.0\\
4.2555481300165265	0.0\\
4.267139218990346	0.0\\
4.27876443180477	0.0\\
4.290465710350574	0.0\\
4.301930802759134	0.0\\
4.313326352163504	0.0\\
4.3156222277196274	0.0\\
4.321975981525343	0.0\\
4.322409888659871	0.0\\
4.322723776727505	0.0\\
4.323022699532871	0.0\\
4.324093656377668	0.0\\
4.32707507352405	0.0\\
4.333932397128516	0.0\\
4.345473669590172	0.0\\
4.356183995644297	0.0\\
4.366875679552992	0.0\\
4.377476048297387	0.0\\
4.388034808341068	0.0\\
4.398891280446593	0.0\\
4.409902806778398	0.0\\
4.420664785163833	0.0\\
4.431490558185255	0.0\\
4.442666170123294	0.0\\
4.453606824931285	0.0\\
4.464397314599241	0.0\\
4.475239222480091	0.0\\
4.486091973192892	0.0\\
4.496930818704666	0.0\\
4.507917114785688	0.0\\
4.5189618181993705	0.0\\
4.529874237635978	0.0\\
4.541059492557681	0.0\\
4.5521363196144105	0.0\\
4.563188819607628	0.0\\
4.574189242230075	0.0\\
4.585138449946625	0.0\\
4.5963590680951345	0.0\\
4.607524094989172	0.0\\
4.618668743354204	0.0\\
4.629899274985311	0.0\\
4.6411015341002155	0.0\\
4.652146447189777	0.0\\
4.663437567095119	0.0\\
4.674691438618973	0.0\\
4.685892072195024	0.0\\
4.697295187199757	0.0\\
4.7086438266211275	0.0\\
4.720005313591214	0.0\\
4.731308909790991	0.0\\
4.742625360781181	0.0\\
4.754093005511519	0.0\\
4.7655558751095075	0.0\\
4.776938019970913	0.0\\
4.788308983255874	0.0\\
4.799781144085847	0.0\\
4.811342677326431	0.0\\
4.823018807847168	0.0\\
4.8344225475981215	0.0\\
4.845919163227608	0.0\\
4.857310405614701	0.0\\
4.868766517631585	0.0\\
4.880338496197647	0.0\\
4.891749087017676	0.0\\
4.90337746277066	0.0\\
4.9147590935677705	0.0\\
4.926246424745898	0.0\\
4.937955247963654	0.0\\
4.949521924776819	0.0\\
4.961132146001608	0.0\\
4.972825350228833	0.0\\
4.9846590119973335	0.0\\
4.996386866569157	0.0\\
5.0080874353224605	0.0\\
5.019879717589058	0.0\\
5.031593760819842	0.0\\
5.043255476030987	0.0\\
5.054943565632552	0.0\\
5.066496682830266	0.0\\
5.078206641119094	0.0\\
5.089686684980798	0.0\\
5.101217725019161	0.0\\
5.112950819706924	0.0\\
5.124732057400486	0.0\\
5.136492266703836	0.0\\
5.148168698996091	0.0\\
5.159877964921565	0.0\\
5.1716046666006505	0.0\\
5.183455974096027	0.0\\
5.19527471081169	0.0\\
5.206953707929937	0.0\\
5.218630779676065	0.0\\
5.230310430602605	0.0\\
5.242175101135883	0.0\\
5.2541101229568525	0.0\\
5.266013749838258	0.0\\
5.2777300278396275	0.0\\
5.289555030934423	0.0\\
5.301350508938148	0.0\\
5.313209633704089	0.0\\
5.32495143476387	0.0\\
5.336835321444537	0.0\\
5.348820546682553	0.0\\
5.36061696687254	0.0\\
5.372297212619369	0.0\\
5.384342225258793	0.0\\
5.3963115004862665	0.0\\
5.408092985271937	0.0\\
5.419968799925293	0.0\\
5.43189336131169	0.0\\
5.443977875356406	0.0\\
5.455906065489778	0.0\\
5.467945258290452	0.0\\
5.479905082480775	0.0\\
5.491860770620638	0.0\\
5.5038658722999845	0.0\\
5.515652314846571	0.0\\
5.527652362568837	0.0\\
5.5395569520129655	0.0\\
5.551508649455521	0.0\\
5.563461656729645	0.0\\
5.575461776170364	0.0\\
5.587391766062696	0.0\\
5.599413877527322	0.0\\
5.611358794525957	0.0\\
5.623194782199144	0.0\\
5.6350253408295305	0.0\\
5.6470238447560845	0.0\\
5.659045642316782	0.0\\
5.671121576253233	0.0\\
5.6830870248157925	0.0\\
5.695141665133013	0.0\\
5.707012033700536	0.0\\
5.718980159883209	0.0\\
5.730941103893002	0.0\\
5.743012680272528	0.0\\
5.754975067557734	0.0\\
5.7669624107450925	0.0\\
5.7788371892560715	0.0\\
5.790902990446211	0.0\\
5.802806108211064	0.0\\
5.814822380563983	0.0\\
5.82684562989941	0.0\\
5.838841635226439	0.0\\
5.851056018578948	0.0\\
5.863130126168439	0.0\\
5.875216094489492	0.0\\
5.887324390354641	0.0\\
5.899254557970471	0.0\\
5.911207397763134	0.0\\
5.923275241589732	0.0\\
5.935391456859469	0.0\\
5.947498405238237	0.0\\
5.959643144217496	0.0\\
5.971793447635418	0.0\\
5.983914371617841	0.0\\
5.996081691993584	0.0\\
6.008190422724342	0.0\\
6.020385622095144	0.0\\
6.032399071825244	0.0\\
6.044491051111846	0.0\\
6.056686046287846	0.0\\
6.068860857113895	0.0\\
6.081029006003131	0.0\\
6.093154811206974	0.0\\
6.10533405889236	0.0\\
6.117515484954257	0.0\\
6.129815193284264	0.0\\
6.14187366078742	0.0\\
6.153992646453624	0.0\\
6.166241775865444	0.0\\
6.178466418359992	0.0\\
6.190744468209687	0.0\\
6.2029936266330665	0.0\\
6.215172382442855	0.0\\
6.227323595959367	0.0\\
6.239706988285958	0.0\\
6.25195433506774	0.0\\
6.264267521261704	0.0\\
6.276366388389086	0.0\\
6.288600841936688	0.0\\
6.300786129095476	0.0\\
6.313064210766283	0.0\\
6.325338441839573	0.0\\
6.337616521808057	0.0\\
6.349991189240383	0.0\\
6.362151341375515	0.0\\
6.374627187803819	0.0\\
6.3870208229163286	0.0\\
6.399409384647699	0.0\\
6.411696988896226	0.0\\
6.423992139834796	0.0\\
6.436286549291024	0.0\\
6.448699007978918	0.0\\
6.461031371630773	0.0\\
6.47334400122384	0.0\\
6.4856062728065815	0.0\\
6.497849883244331	0.0\\
6.510153628047101	0.0\\
6.522434005032327	0.0\\
6.534951808666349	0.0\\
6.547557187794011	0.0\\
6.559840640925453	0.0\\
6.5723371349198505	0.0\\
6.584686998100853	0.0\\
6.596886420525324	0.0\\
6.609334912771729	0.0\\
6.62184315239824	0.0\\
6.634341541386778	0.0\\
6.646853978535335	0.0\\
6.659437969249453	0.0\\
6.671989530391896	0.0\\
6.684425800729393	0.0\\
6.69686359995363	0.0\\
6.709387631995707	0.0\\
6.721924363952301	0.0\\
6.7345149900241985	0.0\\
6.74704683897305	0.0\\
6.7595567857832926	0.0\\
6.772269512466428	0.0\\
6.784999862353951	0.0\\
6.797531732918781	0.0\\
6.810106635152668	0.0\\
6.822829946666962	0.0\\
6.835465582441273	0.0\\
6.848088411160342	0.0\\
6.860871151075576	0.0\\
6.873542722248407	0.0\\
6.886334087885016	0.0\\
6.899087387562695	0.0\\
6.911805951959156	0.0\\
6.924467188295582	0.0\\
6.937195719143276	0.0\\
6.950037606299798	0.0\\
6.962764598616618	0.0\\
6.975560793388871	0.0\\
6.988373565352049	0.0\\
7.001140975620512	0.0\\
7.014003968056798	0.0\\
7.026872101602759	0.0\\
7.039850967910173	0.0\\
7.052831788669465	0.0\\
7.065831038647211	0.0\\
7.078664461020674	0.0\\
7.091587468054039	0.0\\
7.1044684187374685	0.0\\
7.117452317423597	0.0\\
7.1305440076187825	0.0\\
7.143544433120354	0.0\\
7.156575278781213	0.0\\
7.169700082043104	0.0\\
7.182740003858363	0.0\\
7.195900501951812	0.0\\
7.209013494029088	0.0\\
7.222063627893851	0.0\\
7.235302609865993	0.0\\
7.2484233267331035	0.0\\
7.261548205760711	0.0\\
7.274901920894573	0.0\\
7.288215054259499	0.0\\
7.301500092774141	0.0\\
7.314781789029656	0.0\\
7.328184486002666	0.0\\
7.341553184625454	0.0\\
7.354797904530839	0.0\\
7.368162594389348	0.0\\
7.38151680635484	0.0\\
7.394962723091631	0.0\\
7.408556975692564	0.0\\
7.422098919135172	0.0\\
7.435565601212284	0.0\\
7.449266649772669	0.0\\
7.46274537209978	0.0\\
7.476168810684133	0.0\\
7.489831447652493	0.0\\
7.503303669049888	0.0\\
7.51691690156083	0.0\\
7.530616987695469	0.0\\
7.544197061261508	0.0\\
7.5578176211224655	0.0\\
7.571463970618453	0.0\\
7.585438600744796	0.0\\
7.599241210920422	0.0\\
7.613101457956585	0.0\\
7.626983319156265	0.0\\
7.640941638585696	0.0\\
7.654814651111343	0.0\\
7.668747164889588	0.0\\
7.682635450366341	0.0\\
7.696626449984704	0.0\\
7.710667528972468	0.0\\
7.724696992304835	0.0\\
7.738852033607406	0.0\\
7.753028464022982	0.0\\
7.767281641891529	0.0\\
7.781455791174446	0.0\\
7.7955187167284805	0.0\\
7.809781470985142	0.0\\
7.823902234855451	0.0\\
7.838098201658873	0.0\\
7.852436139125569	0.0\\
7.866694765850799	0.0\\
7.881007390507662	0.0\\
7.895361650022796	0.0\\
7.909660599860471	0.0\\
7.924130549457516	0.0\\
7.938502739042665	0.0\\
7.953072137069249	0.0\\
7.967637002289557	0.0\\
7.982370158187825	0.0\\
7.997077579082646	0.0\\
8.01178065762738	0.0\\
8.026603894108902	0.0\\
8.041437558466725	0.0\\
8.056270469871468	0.0\\
8.07086916882534	0.0\\
8.085758904094089	0.0\\
8.100736851838391	0.0\\
8.115699121342967	0.0\\
8.130625218691033	0.0\\
8.145482754229803	0.0\\
8.16026270920015	0.0\\
8.175288502134812	0.0\\
8.19032877934968	0.0\\
8.205149716090226	0.0\\
8.220099057315483	0.0\\
8.235045362266682	0.0\\
8.250092580878142	0.0\\
8.265261654533301	0.0\\
8.280307795005353	0.0\\
8.295393503145174	0.0\\
8.310576619849005	0.0\\
8.32557865054893	0.0\\
8.340805446242669	0.0\\
8.35592526365425	0.0\\
8.370991260563219	0.0\\
8.38616298518182	0.0\\
8.401352927719373	0.0\\
8.416577985462087	0.0\\
8.431794054116114	0.0\\
8.446923479356343	0.0\\
8.461955369419623	0.0\\
8.477010561857185	0.0\\
8.492236605786353	0.0\\
8.50728197404629	0.0\\
8.52223923768572	0.0\\
8.537294876235705	0.0\\
8.552450641109168	0.0\\
8.567401630777695	0.0\\
8.582206043414075	0.0\\
8.59721892596405	0.0\\
8.612152471988637	0.0\\
8.627155686734678	0.0\\
8.642069283413143	0.0\\
8.656924517777718	0.0\\
8.67165483288002	0.0\\
8.686544612368568	0.0\\
8.701321708706626	0.0\\
8.716003600851607	0.0\\
8.73064232319236	0.0\\
8.745198106907452	0.0\\
8.759623215632669	0.0\\
8.774014338906824	0.0\\
8.788582859692905	0.0\\
8.80300782578286	0.0\\
8.817334278486666	0.0\\
8.831894742713942	0.0\\
8.84623490855769	0.0\\
8.860533269374596	0.0\\
8.874890330524678	0.0\\
8.889004322324752	0.0\\
8.891843851608478	0.0\\
8.893613457977352	0.0\\
8.895046093042097	0.0\\
8.896008594328695	0.0\\
8.896691979242938	0.0\\
8.89712854611323	0.0\\
8.897329084934615	0.0\\
8.897447812293422	0.0\\
8.897570989412706	0.0\\
8.89817796810311	0.0\\
8.900643710438423	0.0\\
8.907641376344198	0.0\\
8.919816382346372	0.0\\
8.932590714923194	0.0\\
8.945459828845497	0.0\\
8.958368915436509	0.0\\
8.971297673844802	0.0\\
8.984301565506843	0.0\\
8.997312681200025	0.0\\
9.010421858751478	0.0\\
9.023459257099127	0.0\\
9.036589418026203	0.0\\
9.049703290096701	0.0\\
9.062949432038032	0.0\\
9.076228122859	0.0\\
9.08947517451092	0.0\\
9.10292051377926	0.0\\
9.11630620453996	0.0\\
9.129649116061255	0.0\\
9.143134456483835	0.0\\
9.156681184079286	0.0\\
9.170329404127987	0.0\\
9.184044975600912	0.0\\
9.19771303068309	0.0\\
9.211386059288802	0.0\\
9.225281429028719	0.0\\
9.239235920802212	0.0\\
9.253225607337676	0.0\\
9.267311075639384	0.0\\
9.281306816483884	0.0\\
9.295414562210379	0.0\\
9.309481422896468	0.0\\
9.32371340881118	0.0\\
9.337944294954369	0.0\\
9.352278695668009	0.0\\
9.36659306583402	0.0\\
9.381022176071312	0.0\\
9.395311344037417	0.0\\
9.409646163658433	0.0\\
9.424060066863504	0.0\\
9.43857610863683	0.0\\
9.453164017061965	0.0\\
9.46769302946949	0.0\\
9.48218917776504	0.0\\
9.496842108867579	0.0\\
9.51154845049625	0.0\\
9.526222456731656	0.0\\
9.54088782550868	0.0\\
9.555575751034066	0.0\\
9.570375404106453	0.0\\
9.585193618431788	0.0\\
9.599929915617487	0.0\\
9.614834654307582	0.0\\
9.629654170953518	0.0\\
9.64443223307089	0.0\\
9.65925806535613	0.0\\
9.674064949715323	0.0\\
9.688693017007122	0.0\\
9.703505652921962	0.0\\
9.718269574176976	0.0\\
9.732854358357553	0.0\\
9.747653605306464	0.0\\
9.76227522320361	0.0\\
9.776921949420245	0.0\\
9.791637930899718	0.0\\
9.806319836552277	0.0\\
9.820972533148076	0.0\\
9.835486727962127	0.0\\
9.850082135360438	0.0\\
9.86461737374734	0.0\\
9.87907808365653	0.0\\
9.893567095778725	0.0\\
9.907948250285482	0.0\\
9.922415647882008	0.0\\
9.936897672305168	0.0\\
9.951282882068739	0.0\\
9.965709470370275	0.0\\
9.98012901687235	0.0\\
9.994385178291115	0.0\\
10.008655971273619	0.0\\
10.022882736501636	0.0\\
10.037115757809879	0.0\\
10.051282700243867	0.0\\
10.065446265261542	0.0\\
10.079606436962116	0.0\\
10.093804602200748	0.0\\
10.107843208234016	0.0\\
10.121963874732522	0.0\\
10.136085933749747	0.0\\
10.150104230640693	0.0\\
10.164172505457998	0.0\\
10.178157523908048	0.0\\
10.192206639119576	0.0\\
10.20621755325353	0.0\\
10.220154129792405	0.0\\
10.234133794455946	0.0\\
10.248111958029565	0.0\\
10.262038956266494	0.0\\
10.275890966088586	0.0\\
10.289709307317018	0.0\\
10.303677616450877	0.0\\
10.317573310029662	0.0\\
10.331467298535618	0.0\\
10.345285855894826	0.0\\
10.359146558557981	0.0\\
10.372976050764564	0.0\\
10.38673312307131	0.0\\
10.400577932864238	0.0\\
10.414341714298946	0.0\\
10.428106337630059	0.0\\
10.441853374362378	0.0\\
10.455695074095342	0.0\\
10.469367591374645	0.0\\
10.483043439293777	0.0\\
10.496747649089148	0.0\\
10.510406390716177	0.0\\
10.524063022699146	0.0\\
10.53775060316918	0.0\\
10.551350399013096	0.0\\
10.564960342836194	0.0\\
10.578627003111638	0.0\\
10.592240094188686	0.0\\
10.60599139536306	0.0\\
10.619569953718976	0.0\\
10.633285464228095	0.0\\
10.646857107067657	0.0\\
10.66046814605891	0.0\\
10.674106621364032	0.0\\
10.687708979592191	0.0\\
10.701342615675355	0.0\\
10.714932311277977	0.0\\
10.72854259465753	0.0\\
10.74212428939338	0.0\\
10.75568147189487	0.0\\
10.769268854632514	0.0\\
10.782829386352407	0.0\\
10.796418887910654	0.0\\
10.810020476175254	0.0\\
10.823566869660702	0.0\\
10.837106888116363	0.0\\
10.850666310869531	0.0\\
10.864240269552578	0.0\\
10.877844240447445	0.0\\
10.891349641812454	0.0\\
10.904990206895246	0.0\\
10.918493899180984	0.0\\
10.93200272499405	0.0\\
10.945526411695365	0.0\\
10.959053455587824	0.0\\
10.97256733116879	0.0\\
10.986096626813989	0.0\\
10.999698635490251	0.0\\
11.013206636722405	0.0\\
11.026813947205774	0.0\\
11.040335686175656	0.0\\
11.053930435249939	0.0\\
11.067473518261231	0.0\\
11.081020714924197	0.0\\
11.094589779460609	0.0\\
11.108128904625122	0.0\\
11.121594189541565	0.0\\
11.135192568701687	0.0\\
11.148828804612663	0.0\\
11.162457103515177	0.0\\
11.17604211523264	0.0\\
11.189664379920227	0.0\\
11.203187871178653	0.0\\
11.216703027822433	0.0\\
11.230257837289788	0.0\\
11.243855065464185	0.0\\
11.257428599747072	0.0\\
11.271126062393247	0.0\\
11.284635907629678	0.0\\
11.298287617180108	0.0\\
11.311890920563116	0.0\\
11.325520543512596	0.0\\
11.339154033404967	0.0\\
11.352810656052544	0.0\\
11.366417028976947	0.0\\
11.380085407493798	0.0\\
11.393802510098304	0.0\\
11.40747448167102	0.0\\
11.421145893588221	0.0\\
11.434850576189707	0.0\\
11.448602043728972	0.0\\
11.462332947390234	0.0\\
11.476033793868318	0.0\\
11.4898001095635	0.0\\
11.503611111647317	0.0\\
11.517343314413843	0.0\\
11.531162686148217	0.0\\
11.544915717134575	0.0\\
11.55876125399492	0.0\\
11.572565836803065	0.0\\
11.586377105374709	0.0\\
11.600169574390133	0.0\\
11.614014887398262	0.0\\
11.627922697964301	0.0\\
11.641813275901178	0.0\\
11.655676265668294	0.0\\
11.66957469748808	0.0\\
11.68337627157048	0.0\\
11.697200647343784	0.0\\
11.71119112299581	0.0\\
11.725230247956109	0.0\\
11.739245389201958	0.0\\
11.753392846271169	0.0\\
11.767382486315356	0.0\\
11.781440765851961	0.0\\
11.795462335439716	0.0\\
11.809498898104618	0.0\\
11.823684681507778	0.0\\
11.83784844171706	0.0\\
11.85194616964888	0.0\\
11.866131115910587	0.0\\
11.880289213154828	0.0\\
11.894501212689526	0.0\\
11.908717639412085	0.0\\
11.923088409234364	0.0\\
11.937330939390563	0.0\\
11.951573476582439	0.0\\
11.965879799097195	0.0\\
11.980259519980347	0.0\\
11.994600764475273	0.0\\
12.008986452987482	0.0\\
12.023380566254811	0.0\\
12.037906359917638	0.0\\
12.052404512775936	0.0\\
12.0669975751055	0.0\\
12.081507312005332	0.0\\
12.096011631254651	0.0\\
12.110540148263262	0.0\\
12.1250812985269	0.0\\
12.13961586591844	0.0\\
12.154191960479583	0.0\\
12.168772476787293	0.0\\
12.183373793588753	0.0\\
12.198141664435695	0.0\\
12.212857328664615	0.0\\
12.22764280917066	0.0\\
12.242385619691543	0.0\\
12.257234189814096	0.0\\
12.272142626936063	0.0\\
12.287040526268786	0.0\\
12.30194361004984	0.0\\
12.316901756950532	0.0\\
12.331916885061109	0.0\\
12.346994554636389	0.0\\
12.362007088123416	0.0\\
12.377155709040291	0.0\\
12.392246952700514	0.0\\
12.407515613984952	0.0\\
12.422825765142338	0.0\\
12.438121785869257	0.0\\
12.453369858214778	0.0\\
12.468733095269979	0.0\\
12.484165933755236	0.0\\
12.49962384342621	0.0\\
12.515146364864115	0.0\\
12.530746535985134	0.0\\
12.546406616861013	0.0\\
12.5621211434309	0.0\\
12.577719051820335	0.0\\
12.593469744858794	0.0\\
12.60922699525041	0.0\\
12.6250412770722	0.0\\
12.641013265306452	0.0\\
12.65707339964981	0.0\\
12.6731271331989	0.0\\
12.68928201199282	0.0\\
12.705397474492024	0.0\\
12.72151835145149	0.0\\
12.73777909278326	0.0\\
12.754073036341428	0.0\\
12.770491187121973	0.0\\
12.787095124453497	0.0\\
12.803648301018978	0.0\\
12.820410374113582	0.0\\
12.837052722606693	0.0\\
12.853961297547205	0.0\\
12.870823847085603	0.0\\
12.887795875939432	0.0\\
12.904948291590166	0.0\\
12.92215056115539	0.0\\
12.939440099130358	0.0\\
12.956866351806006	0.0\\
12.974343853952341	0.0\\
12.99197070937731	0.0\\
13.009497255328988	0.0\\
13.0272415066399	0.0\\
13.045210592593257	0.0\\
13.063229896608743	0.0\\
13.081374086591698	0.0\\
13.099545461951244	0.0\\
13.117814075942292	0.0\\
13.135982008332082	0.0\\
13.154314721287651	0.0\\
13.17268010263216	0.0\\
13.1910418507018	0.0\\
13.20929067328202	0.0\\
13.227771783639518	0.0\\
13.246146214001712	0.0\\
13.264807858241294	0.0\\
13.283171056500226	0.0\\
13.301670123401841	0.0\\
13.319989146785257	0.0\\
13.338258504848355	0.0\\
13.356569514453781	0.0\\
13.374671277826415	0.0\\
13.392736587796037	0.0\\
13.41092311335035	0.0\\
13.428911399471733	0.0\\
13.446782202156129	0.0\\
13.464705438759825	0.0\\
13.4822582476192	0.0\\
13.499725686556257	0.0\\
13.517020654012978	0.0\\
13.534252085882475	0.0\\
13.551343370827084	0.0\\
13.568303824915809	0.0\\
13.585351102640288	0.0\\
13.60216576910738	0.0\\
13.618954043493403	0.0\\
13.635676614588927	0.0\\
13.65220260101917	0.0\\
13.66869559893172	0.0\\
13.68499006044512	0.0\\
13.701379794453608	0.0\\
13.717650943272329	0.0\\
13.733803786030066	0.0\\
13.749887139679227	0.0\\
13.765813421592842	0.0\\
13.781656163584127	0.0\\
13.797506217106207	0.0\\
13.813261552095508	0.0\\
13.828860148880384	0.0\\
13.844385970890674	0.0\\
13.8599250389215	0.0\\
13.87532408034511	0.0\\
13.878379947232382	0.0\\
13.87893047270963	0.0\\
13.879373369786485	0.0\\
13.879738181621612	0.0\\
13.88003842743036	0.0\\
13.880196432818213	0.0\\
13.880435480020719	0.0\\
13.88163853042116	0.0\\
13.885921437494662	0.0\\
13.897700754303958	0.0\\
13.911138120991353	0.0\\
13.924699059090646	0.0\\
13.938225788811	0.0\\
13.951931233245315	0.0\\
13.965683872687176	0.0\\
13.97955463104443	0.0\\
13.993425156944902	0.0\\
14.00737689740911	0.0\\
14.0214237350664	0.0\\
14.035478783418487	0.0\\
14.049589142392104	0.0\\
14.063745586036191	0.0\\
14.07797730338579	0.0\\
14.09220269541644	0.0\\
14.106603353899231	0.0\\
14.12106471619034	0.0\\
14.135522043969129	0.0\\
14.150182727305822	0.0\\
14.16493744685502	0.0\\
14.17977373095411	0.0\\
14.194728286949896	0.0\\
14.20974089640863	0.0\\
14.224820183337808	0.0\\
14.240024757816869	0.0\\
14.255310344982114	0.0\\
14.270697789828002	0.0\\
14.286358642213472	0.0\\
14.301924969359202	0.0\\
14.317553785806087	0.0\\
14.3333520180386	0.0\\
14.349275324964577	0.0\\
14.365334824456102	0.0\\
14.381536392471403	0.0\\
14.397838161506751	0.0\\
14.414253468029077	0.0\\
14.430868302875204	0.0\\
14.447535909198947	0.0\\
14.464212414554424	0.0\\
14.480995746055516	0.0\\
14.497767594008337	0.0\\
14.514699277664839	0.0\\
14.531812203643462	0.0\\
14.548902179994926	0.0\\
14.566022616740533	0.0\\
14.583217345779172	0.0\\
14.600475366640516	0.0\\
14.61765124946556	0.0\\
14.634902729144724	0.0\\
14.65206710360103	0.0\\
14.669305105667824	0.0\\
14.686455981813385	0.0\\
14.703616789259279	0.0\\
14.720687754368761	0.0\\
14.737646626854453	0.0\\
14.754581507421786	0.0\\
14.771560921808511	0.0\\
14.788544789579426	0.0\\
14.805196662031953	0.0\\
14.821757280599552	0.0\\
14.838411957975243	0.0\\
14.8549646346269	0.0\\
14.871500870188243	0.0\\
14.887774477240164	0.0\\
14.903990442851853	0.0\\
14.920309223286797	0.0\\
14.936471626908084	0.0\\
14.952540417180714	0.0\\
14.968576575977828	0.0\\
14.984473337056311	0.0\\
15.00032536730832	0.0\\
15.015964003444914	0.0\\
15.031699460824868	0.0\\
15.047364385722467	0.0\\
15.062972123027798	0.0\\
15.078553173290626	0.0\\
15.09407337079999	0.0\\
15.109564408538045	0.0\\
15.12487353736745	0.0\\
15.14026668381976	0.0\\
15.155622123157851	0.0\\
15.17098793728318	0.0\\
15.186086431827626	0.0\\
15.201278731469216	0.0\\
15.216398512797088	0.0\\
15.231443586137178	0.0\\
15.246439160823105	0.0\\
15.261378855131316	0.0\\
15.276313343128855	0.0\\
15.29122686101115	0.0\\
15.30614796096565	0.0\\
15.320997720398488	0.0\\
15.335803872393594	0.0\\
15.350600592102467	0.0\\
15.36532130216268	0.0\\
15.380043130643244	0.0\\
15.394701669439584	0.0\\
15.409320401014686	0.0\\
15.423931296861507	0.0\\
15.438455179763181	0.0\\
15.453080140350036	0.0\\
15.467669619633327	0.0\\
15.482279542528381	0.0\\
15.496812221486348	0.0\\
15.511313046568795	0.0\\
15.525780132773075	0.0\\
15.540244129920143	0.0\\
15.554671080860068	0.0\\
15.569115726635307	0.0\\
15.583560627294524	0.0\\
15.597972041800897	0.0\\
15.612385859900293	0.0\\
15.626792323077972	0.0\\
15.64106664342972	0.0\\
15.655429376792164	0.0\\
15.669706712165596	0.0\\
15.684058087202239	0.0\\
15.698336272495382	0.0\\
15.712596671403322	0.0\\
15.726869039998057	0.0\\
15.741185771344806	0.0\\
15.755420149204028	0.0\\
15.769649271533417	0.0\\
15.783926280287062	0.0\\
15.798150525268614	0.0\\
15.812333737682284	0.0\\
15.826601971808962	0.0\\
15.84076378851912	0.0\\
15.854928285640064	0.0\\
15.869078513534298	0.0\\
15.883239629254142	0.0\\
15.897467780263888	0.0\\
15.911641871612737	0.0\\
15.925753123666915	0.0\\
15.939889432583865	0.0\\
15.953981121069415	0.0\\
15.968123358556475	0.0\\
15.982287105419573	0.0\\
15.996402110559494	0.0\\
16.010528405796954	0.0\\
16.024651132925214	0.0\\
16.038744189576647	0.0\\
16.05280114179312	0.0\\
16.066901793101962	0.0\\
16.081038446291693	0.0\\
16.09508935572139	0.0\\
16.109180803718836	0.0\\
16.12328050613916	0.0\\
16.137377963097286	0.0\\
16.151484223734066	0.0\\
16.16557562361433	0.0\\
16.17964684252813	0.0\\
16.193823319161815	0.0\\
16.207975530173556	0.0\\
16.222072800849446	0.0\\
16.23619920229892	0.0\\
16.25034676015443	0.0\\
16.26448377150821	0.0\\
16.278595940849556	0.0\\
16.29270558136453	0.0\\
16.30683144140746	0.0\\
16.320944062676972	0.0\\
16.335086925468694	0.0\\
16.349219057574977	0.0\\
16.363303630264944	0.0\\
16.37737541986469	0.0\\
16.391515767822284	0.0\\
16.405692950945287	0.0\\
16.419811436516206	0.0\\
16.43395315814243	0.0\\
16.448093598133134	0.0\\
16.462365005194684	0.0\\
16.476558839720575	0.0\\
16.490718117199258	0.0\\
16.504889449893774	0.0\\
16.519078217186497	0.0\\
16.533216745285387	0.0\\
16.547351645520287	0.0\\
16.561522696988185	0.0\\
16.575685413909568	0.0\\
16.5899257727204	0.0\\
16.604141614366256	0.0\\
16.618333944545206	0.0\\
16.632537693926658	0.0\\
16.646799643198932	0.0\\
16.661015923803653	0.0\\
16.675313451601575	0.0\\
16.689553612706753	0.0\\
16.70380918576901	0.0\\
16.717982099724445	0.0\\
16.73224405440208	0.0\\
16.746533356531465	0.0\\
16.760823067093725	0.0\\
16.7751762266399	0.0\\
16.789509384065433	0.0\\
16.80391830082157	0.0\\
16.8182714634262	0.0\\
16.832647313752375	0.0\\
16.847068379054853	0.0\\
16.86147533030166	0.0\\
16.875939809633707	0.0\\
16.89038856413959	0.0\\
16.904896437138994	0.0\\
16.919365456208745	0.0\\
16.933832290254834	0.0\\
16.948282653563737	0.0\\
16.96272059222607	0.0\\
16.97722814281616	0.0\\
16.991742268677356	0.0\\
17.00628592597296	0.0\\
17.020913721828926	0.0\\
17.035524786073132	0.0\\
17.05015532321527	0.0\\
17.06480256375245	0.0\\
17.07948393576313	0.0\\
17.094181889318826	0.0\\
17.108821247147013	0.0\\
17.123501873633657	0.0\\
17.13821819256222	0.0\\
17.152863568478146	0.0\\
17.167618915528593	0.0\\
17.182364608908998	0.0\\
17.19717269678093	0.0\\
17.21201931349176	0.0\\
17.226892336434126	0.0\\
17.24171330542	0.0\\
17.25656049293216	0.0\\
17.271429036227197	0.0\\
17.28639905003473	0.0\\
17.301300367356	0.0\\
17.31621039015014	0.0\\
17.331187327625187	0.0\\
17.34618869560782	0.0\\
17.361226756473528	0.0\\
17.376295605841598	0.0\\
17.39142445532689	0.0\\
17.406510238117562	0.0\\
17.42167720385781	0.0\\
17.436854059340014	0.0\\
17.451968804808118	0.0\\
17.46719401767693	0.0\\
17.482427033849163	0.0\\
17.497692338407155	0.0\\
17.51302552954813	0.0\\
17.528360707805916	0.0\\
17.543802792090688	0.0\\
17.559147616455014	0.0\\
17.574578214363584	0.0\\
17.59009027687341	0.0\\
17.605624574614033	0.0\\
17.62120776199402	0.0\\
17.636755202173802	0.0\\
17.652379491369743	0.0\\
17.66792504657225	0.0\\
17.683581311750878	0.0\\
17.69938770129665	0.0\\
17.715217905365577	0.0\\
17.731037897223267	0.0\\
17.746857047850845	0.0\\
17.762752609837143	0.0\\
17.77875718812973	0.0\\
17.794780365582817	0.0\\
17.810759717754664	0.0\\
17.826862250335154	0.0\\
17.84295912884535	0.0\\
17.859137221925742	0.0\\
17.87539669419708	0.0\\
17.891740672659125	0.0\\
17.908141464238525	0.0\\
17.924516797169524	0.0\\
17.940864996486624	0.0\\
17.957329447565726	0.0\\
17.973867921909317	0.0\\
17.990560135584047	0.0\\
18.007241980165865	0.0\\
18.023974609686398	0.0\\
18.04079097503042	0.0\\
18.057652981147434	0.0\\
18.07469750112601	0.0\\
18.0916238900611	0.0\\
18.10864055055238	0.0\\
18.125891091329258	0.0\\
18.143100674011727	0.0\\
18.16046812837663	0.0\\
18.177896927870933	0.0\\
18.19541511245601	0.0\\
18.21307079599748	0.0\\
18.230778688758363	0.0\\
18.24854199171059	0.0\\
18.26650499226922	0.0\\
18.284494377096813	0.0\\
18.302598406916253	0.0\\
18.320797499125796	0.0\\
18.33911140722379	0.0\\
18.357658454814924	0.0\\
18.376358075444323	0.0\\
18.395153117994816	0.0\\
18.41413051428139	0.0\\
18.433158626394864	0.0\\
18.452199672121438	0.0\\
18.47167178353895	0.0\\
18.491196232912245	0.0\\
18.510991271174014	0.0\\
18.530878811464007	0.0\\
18.551126149636573	0.0\\
18.571441517614836	0.0\\
18.59200294274501	0.0\\
18.612906776782367	0.0\\
18.63399964142262	0.0\\
18.65537055941298	0.0\\
18.676869699738546	0.0\\
18.6984796631153	0.0\\
18.72042077652621	0.0\\
18.742386647638924	0.0\\
18.764568632402025	0.0\\
18.78670779319092	0.0\\
18.80877218815921	0.0\\
18.830679965703403	0.0\\
18.85246186653987	0.0\\
18.874027125933303	0.0\\
18.895417823287325	0.0\\
18.916531289851598	0.0\\
18.937438408695712	0.0\\
18.95807148407902	0.0\\
18.978434394600775	0.0\\
18.99864083448074	0.0\\
19.018612407856715	0.0\\
19.038203951905544	0.0\\
19.05768908891224	0.0\\
19.076954499113313	0.0\\
19.096059311787798	0.0\\
19.11499783631163	0.0\\
19.13374114354324	0.0\\
19.15227053425717	0.0\\
19.17071263593744	0.0\\
19.189003764085435	0.0\\
19.207117680144883	0.0\\
19.22508359476447	0.0\\
19.242872978966545	0.0\\
19.26067950961867	0.0\\
19.278275823974532	0.0\\
19.295792736570476	0.0\\
19.313252149860716	0.0\\
19.33055733295223	0.0\\
19.347731488432068	0.0\\
19.364838001202664	0.0\\
19.381906255430316	0.0\\
19.39879165283638	0.0\\
19.415633530713706	0.0\\
19.43239206228146	0.0\\
19.448998359825964	0.0\\
19.465559971466377	0.0\\
19.482047167639664	0.0\\
19.49847996839859	0.0\\
19.514782751346445	0.0\\
19.53104439372575	0.0\\
19.534272221830925	0.0\\
19.543116364687265	0.0\\
19.546260841014863	0.0\\
19.546431587600786	0.0\\
19.546628070309268	0.0\\
19.547613190527372	0.0\\
19.551052511132127	0.0\\
19.562386625125676	0.0\\
19.57817073019102	0.0\\
19.594053052375642	0.0\\
19.610062358928168	0.0\\
19.626091882009824	0.0\\
19.642217329496972	0.0\\
19.65842832119555	0.0\\
19.674720283462506	0.0\\
19.691110149197918	0.0\\
19.707515220588704	0.0\\
19.72404205030874	0.0\\
19.740647650811795	0.0\\
19.757386878242812	0.0\\
19.77421248230602	0.0\\
19.791221991728264	0.0\\
19.80821788659349	0.0\\
19.82547402451813	0.0\\
19.84270557117373	0.0\\
19.860074683879866	0.0\\
19.877609258313143	0.0\\
19.89526029812128	0.0\\
19.91307458982464	0.0\\
19.93102836467675	0.0\\
19.949102213931234	0.0\\
19.9673003698259	0.0\\
19.985679406121697	0.0\\
20.00422379029584	0.0\\
20.02294438742299	0.0\\
20.04180049817721	0.0\\
20.060890757050736	0.0\\
20.08015307243363	0.0\\
20.0996078883392	0.0\\
20.11934750635558	0.0\\
20.1391298511696	0.0\\
20.159158713942126	0.0\\
20.179491093621067	0.0\\
20.1999758295875	0.0\\
20.220604673916284	0.0\\
20.24135734434946	0.0\\
20.26240614610795	0.0\\
20.28365447231502	0.0\\
20.304956653782106	0.0\\
20.32626670318659	0.0\\
20.34758424491725	0.0\\
20.369039440059638	0.0\\
20.390183938777305	0.0\\
20.41140094878405	0.0\\
20.432579973057692	0.0\\
20.453454485637643	0.0\\
20.474230918908148	0.0\\
20.49485022981453	0.0\\
20.51535587947472	0.0\\
20.53563439236605	0.0\\
20.55580970805073	0.0\\
20.575842021064936	0.0\\
20.595545306051633	0.0\\
20.615251592024407	0.0\\
20.63481827043249	0.0\\
20.654246412072233	0.0\\
20.673515649292163	0.0\\
20.692566936440898	0.0\\
20.71156175336003	0.0\\
20.73046603697513	0.0\\
20.74926442936183	0.0\\
20.767967315314188	0.0\\
20.78652008777037	0.0\\
20.805003039894558	0.0\\
20.823379603465348	0.0\\
20.8416492914998	0.0\\
20.85980927446012	0.0\\
20.877856362731137	0.0\\
20.89591880943641	0.0\\
20.91392020257033	0.0\\
20.93178784921637	0.0\\
20.94957285856372	0.0\\
20.967262717784678	0.0\\
20.984929735111606	0.0\\
21.002657967066618	0.0\\
21.020212347717226	0.0\\
21.03780298069035	0.0\\
21.055281079741057	0.0\\
21.07267980790069	0.0\\
21.0899059465466	0.0\\
21.107329546174817	0.0\\
21.12461037770116	0.0\\
21.14184757189271	0.0\\
21.15908661982356	0.0\\
21.17620601324152	0.0\\
21.193353305791874	0.0\\
21.21048289566692	0.0\\
21.227473687855067	0.0\\
21.244395999470157	0.0\\
21.26133982344693	0.0\\
21.27835112386797	0.0\\
21.295264737744496	0.0\\
21.31212539181128	0.0\\
21.328892068087384	0.0\\
21.34567075949368	0.0\\
21.362414660926262	0.0\\
21.379186293285848	0.0\\
21.395974850990505	0.0\\
21.412653353395072	0.0\\
21.42939710288246	0.0\\
21.445973209225457	0.0\\
21.462612958642936	0.0\\
21.479168360451062	0.0\\
21.4957115819646	0.0\\
21.51228248730149	0.0\\
21.528912060577134	0.0\\
21.545420373719317	0.0\\
21.561942858950793	0.0\\
21.578529383254512	0.0\\
21.594982490488903	0.0\\
21.61146299127941	0.0\\
21.627926677759298	0.0\\
21.644378189590768	0.0\\
21.66080670807292	0.0\\
21.677182856791994	0.0\\
21.69355088028331	0.0\\
21.70992810319096	0.0\\
21.72634015018034	0.0\\
21.74266640372784	0.0\\
21.75896904656652	0.0\\
21.775401372078406	0.0\\
21.791753159599523	0.0\\
21.808056218945737	0.0\\
21.824406185782962	0.0\\
21.840671477026582	0.0\\
21.85695557229908	0.0\\
21.87321986779905	0.0\\
21.88953443324504	0.0\\
21.905772238461736	0.0\\
21.92200401536683	0.0\\
21.938293468095722	0.0\\
21.954580385933646	0.0\\
21.970852010451203	0.0\\
21.987198268151417	0.0\\
22.00340562123219	0.0\\
22.01969088975614	0.0\\
22.035944415324515	0.0\\
22.052079369331466	0.0\\
22.06831308119888	0.0\\
22.084435926287462	0.0\\
22.100676866179263	0.0\\
22.116923979979788	0.0\\
22.13315255057914	0.0\\
22.149355262395062	0.0\\
22.16556234260237	0.0\\
22.181723311369133	0.0\\
22.197912265632482	0.0\\
22.214127523093737	0.0\\
22.230338128733663	0.0\\
22.246591298992186	0.0\\
22.262873632960215	0.0\\
22.279091076722345	0.0\\
22.295272290323012	0.0\\
22.311447313923907	0.0\\
22.3277113146451	0.0\\
22.343996884987966	0.0\\
22.360162503723807	0.0\\
22.376437299048057	0.0\\
22.392662319725815	0.0\\
22.40895373044509	0.0\\
22.425170172357205	0.0\\
22.44150038252549	0.0\\
22.457769415287167	0.0\\
22.4739770095235	0.0\\
22.490209699443	0.0\\
22.506468197813277	0.0\\
22.522721113002426	0.0\\
22.53907279737348	0.0\\
22.555397390857323	0.0\\
22.571678346137325	0.0\\
22.587984272906986	0.0\\
22.604316552195918	0.0\\
22.620622961501482	0.0\\
22.636958613399123	0.0\\
22.653288943811134	0.0\\
22.669658758686836	0.0\\
22.685965155360016	0.0\\
22.702301635184682	0.0\\
22.71862147540589	0.0\\
22.73504338035297	0.0\\
22.751413734180467	0.0\\
22.767807116340713	0.0\\
22.78424275138618	0.0\\
22.800624392432546	0.0\\
22.81703130560672	0.0\\
22.83339591294711	0.0\\
22.849877118106214	0.0\\
22.866349617823467	0.0\\
22.882775202897356	0.0\\
22.89928694302497	0.0\\
22.91584250214381	0.0\\
22.932382093825474	0.0\\
22.948857288972626	0.0\\
22.96542292044206	0.0\\
22.981949119022076	0.0\\
22.998472852262218	0.0\\
23.015103791515074	0.0\\
23.03182377535805	0.0\\
23.04843242634405	0.0\\
23.06507510861244	0.0\\
23.081674348520387	0.0\\
23.098361378367386	0.0\\
23.115046669634452	0.0\\
23.131721056041158	0.0\\
23.148472972435087	0.0\\
23.16527399424163	0.0\\
23.182022229526055	0.0\\
23.198768483863105	0.0\\
23.21557473890681	0.0\\
23.232360026753987	0.0\\
23.24918355303337	0.0\\
23.266073403434163	0.0\\
23.28297982617972	0.0\\
23.29982633006496	0.0\\
23.31671977621687	0.0\\
23.33367439316239	0.0\\
23.350651232619384	0.0\\
23.367616819713774	0.0\\
23.384625915139523	0.0\\
23.401648416850747	0.0\\
23.41868954263417	0.0\\
23.43568890746525	0.0\\
23.45274594368268	0.0\\
23.46992502268514	0.0\\
23.487025874032547	0.0\\
23.50417540930721	0.0\\
23.521274889062298	0.0\\
23.538495519952228	0.0\\
23.555736650998867	0.0\\
23.57299113288461	0.0\\
23.590335388955978	0.0\\
23.607744270900078	0.0\\
23.62513512031216	0.0\\
23.642412868810673	0.0\\
23.659798029004833	0.0\\
23.677228163923502	0.0\\
23.69470566841725	0.0\\
23.712193069910533	0.0\\
23.729745219053896	0.0\\
23.74729202155023	0.0\\
23.764944420993288	0.0\\
23.782656376835256	0.0\\
23.800330041484266	0.0\\
23.81801301442745	0.0\\
23.83571628364372	0.0\\
23.853508635462617	0.0\\
23.871310037523443	0.0\\
23.889103030220326	0.0\\
23.906857307744694	0.0\\
23.92473097104442	0.0\\
23.942625897463287	0.0\\
23.960670511142418	0.0\\
23.97870442514845	0.0\\
23.99679901482878	0.0\\
24.015010598295177	0.0\\
24.033175943753044	0.0\\
24.051395402593293	0.0\\
24.069701270872017	0.0\\
24.087914441657645	0.0\\
24.106291230136634	0.0\\
24.124715730831696	0.0\\
24.14315768908382	0.0\\
24.161638377828126	0.0\\
24.180228985789192	0.0\\
24.198787645308542	0.0\\
24.217360516583177	0.0\\
24.23599402672503	0.0\\
24.254716023640405	0.0\\
24.27345189459708	0.0\\
24.292267887979968	0.0\\
24.311163789254195	0.0\\
24.330164385057934	0.0\\
24.349241084848806	0.0\\
24.368343541851637	0.0\\
24.387558525024758	0.0\\
24.406886572742835	0.0\\
24.426259913543127	0.0\\
24.445696077830817	0.0\\
24.465227949487335	0.0\\
24.484792999999854	0.0\\
24.504481010140054	0.0\\
24.52414472537715	0.0\\
24.543996933196063	0.0\\
24.563912885252535	0.0\\
24.58387784221454	0.0\\
24.603933773700838	0.0\\
24.62406504460464	0.0\\
24.64430920448344	0.0\\
24.664608087065965	0.0\\
24.685094282498596	0.0\\
24.705633249197632	0.0\\
24.726327480784683	0.0\\
24.747256366131474	0.0\\
24.768197925987117	0.0\\
24.789213391755908	0.0\\
24.810445860341687	0.0\\
24.831664001524906	0.0\\
24.851257707761093	0.0\\
24.853164042439687	0.0\\
24.874805037077437	0.0\\
24.896548806262217	0.0\\
24.918559958076216	0.0\\
24.940648971730987	0.0\\
24.963017504167176	0.0\\
24.985415260237495	0.0\\
25.008048580291465	0.0\\
25.031023809085077	0.0\\
25.054097373866263	0.0\\
25.077522834088278	0.0\\
25.10126448963802	0.0\\
25.125275149255273	0.0\\
25.149642431611305	0.0\\
25.174249422710865	0.0\\
25.199250767762535	0.0\\
25.224692502308862	0.0\\
25.250456688447258	0.0\\
25.276739526814666	0.0\\
25.303601445435653	0.0\\
25.33079489911549	0.0\\
25.35837282929834	0.0\\
25.386525368743293	0.0\\
25.41468291871943	0.0\\
25.443029203765434	0.0\\
25.470888103349303	0.0\\
25.498269142708978	0.0\\
25.52540554429644	0.0\\
25.551967497351903	0.0\\
25.577962432341586	0.0\\
25.60360117034549	0.0\\
25.62879615305239	0.0\\
25.653552324373237	0.0\\
25.677828860323935	0.0\\
25.70187196089281	0.0\\
25.725485803833294	0.0\\
25.74885830983036	0.0\\
25.771989017619646	0.0\\
25.794797165530007	0.0\\
25.817367830780853	0.0\\
25.839871540803564	0.0\\
25.86204186226273	0.0\\
25.884086837715287	0.0\\
25.905802465287714	0.0\\
25.92748303245437	0.0\\
25.948931321377273	0.0\\
25.97015713573213	0.0\\
25.991259519252957	0.0\\
26.012283165420243	0.0\\
26.03305704408333	0.0\\
26.053803803269446	0.0\\
26.074393421369592	0.0\\
26.09489273007543	0.0\\
26.115247217062496	0.0\\
26.135505817251484	0.0\\
26.155646777845647	0.0\\
26.17565656010158	0.0\\
26.19545977634847	0.0\\
26.215334363220215	0.0\\
26.23504801051414	0.0\\
26.254658974140987	0.0\\
26.274180720714234	0.0\\
26.293548240603634	0.0\\
26.312874424971966	0.0\\
26.313642456742926	0.0\\
26.314066516972375	0.0\\
26.31435855716815	0.0\\
26.314562237860507	0.0\\
26.314753848198237	0.0\\
26.31592069228985	0.0\\
26.320994332544124	0.0\\
26.33424610520884	0.0\\
26.35400365076928	0.0\\
26.373846997097317	0.0\\
26.393825402263133	0.0\\
26.413886901476907	0.0\\
26.434114175845416	0.0\\
26.454456396840698	0.0\\
26.47485806674252	0.0\\
26.495454436793935	0.0\\
26.516140292138694	0.0\\
26.537011485523742	0.0\\
26.557986281942455	0.0\\
26.579102495319646	0.0\\
26.60033491822022	0.0\\
26.62187944893202	0.0\\
26.64345462109403	0.0\\
26.665313057910524	0.0\\
26.68735591106004	0.0\\
26.709586961419227	0.0\\
26.732105425190476	0.0\\
26.754720543454162	0.0\\
26.777647055262683	0.0\\
26.80070445466108	0.0\\
26.82407135008861	0.0\\
26.847754860718965	0.0\\
26.871776060453946	0.0\\
26.895948775091142	0.0\\
26.92041199416706	0.0\\
26.94530673795584	0.0\\
26.970489137026526	0.0\\
26.99599995669498	0.0\\
27.021940392114473	0.0\\
27.048290687865766	0.0\\
27.07471280489758	0.0\\
27.10155749631692	0.0\\
27.128516926520263	0.0\\
27.155574058050938	0.0\\
27.182617736809597	0.0\\
27.209673988343063	0.0\\
27.236618113379834	0.0\\
27.263342018055923	0.0\\
27.28970763039181	0.0\\
27.315997393447752	0.0\\
27.341762537440594	0.0\\
27.367216697834635	0.0\\
27.392368510561965	0.0\\
27.41739758924725	0.0\\
27.442236990730663	0.0\\
27.46676702995706	0.0\\
27.490952808551803	0.0\\
27.51498870682994	0.0\\
27.53886019122571	0.0\\
27.562539182022448	0.0\\
27.586156123846024	0.0\\
27.609461202796318	0.0\\
27.632586238803903	0.0\\
27.655666092364925	0.0\\
27.678502523081818	0.0\\
27.701337003614	0.0\\
27.72400332063249	0.0\\
27.746539096206384	0.0\\
27.768963805272065	0.0\\
27.79115524096909	0.0\\
27.813375301566275	0.0\\
27.83541122645071	0.0\\
27.85746027184029	0.0\\
27.87935945354527	0.0\\
27.90113555349439	0.0\\
27.922839010013732	0.0\\
27.944412482892645	0.0\\
27.966031185177762	0.0\\
27.98757802173438	0.0\\
28.00884853470422	0.0\\
28.030155873501464	0.0\\
28.051477222649694	0.0\\
28.07271841159254	0.0\\
28.09381268240532	0.0\\
28.114902555132048	0.0\\
28.135919840241613	0.0\\
28.156957524119164	0.0\\
28.177883525787458	0.0\\
28.198790059944685	0.0\\
28.219641113046542	0.0\\
28.240423045369063	0.0\\
28.244023069250645	0.0010724861035705585\\
28.247712467209716	0.002190429442512986\\
28.25137243258026	0.003318494101489668\\
28.25502676545318	0.004463699943292432\\
28.258786264299225	0.00566134933634725\\
28.262557406388723	0.006882729871605037\\
28.266279338280953	0.008107939232499854\\
28.270051979797522	0.009369701939231704\\
28.273822924050535	0.010650969983831866\\
28.277580425626695	0.011947650548683304\\
28.281212474386997	0.013220184967258405\\
28.284765878368887	0.014483305233063914\\
28.288417842488826	0.01579984847255532\\
28.292198724223567	0.017182454659460396\\
28.295629617999296	0.018455086632984896\\
28.299411332679085	0.019876455809731138\\
28.303164385044667	0.02130703736870078\\
28.306944586396874	0.02276799184202412\\
28.31062931971026	0.02421160149982448\\
28.3143466999162	0.025687335486826307\\
28.318134962276005	0.027211117121258288\\
28.321856145546903	0.02872772191534361\\
28.325637741553017	0.03028882851796457\\
28.32937531549358	0.0318516346431766\\
28.33316613462609	0.033456709308269744\\
28.336884584435737	0.03505093161675937\\
28.340604155420984	0.03666511298000699\\
28.344248209914404	0.038265543057637436\\
28.34805139001373	0.039955513889154165\\
28.35159878398762	0.04155060274058857\\
28.35534456790605	0.043253775906460956\\
28.35907527939309	0.04496974982330344\\
28.362880029110492	0.046739819001732144\\
28.36661274922654	0.04849629732404667\\
28.370259204204487	0.05023125699616507\\
28.37396885901328	0.052015369808270484\\
28.377768953064006	0.053862886291947465\\
28.381445730501213	0.05566999094121422\\
28.38526356964823	0.057566290975126375\\
28.389088813708227	0.059486807758759974\\
28.392767426942676	0.06135335984498827\\
28.39657481170037	0.06330505253154461\\
28.400314773858163	0.06524213545830654\\
28.40413152614581	0.06723911779088335\\
28.40783092664192	0.06919443455287372\\
28.411580186958574	0.0711956323166118\\
28.415366282123728	0.07323646118577631\\
28.419179000832592	0.07531193681265289\\
28.42297112773494	0.07739648589197068\\
28.42679100137488	0.07951664873426978\\
28.430611073241913	0.08165740482483616\\
28.434304905043916	0.08374711041755056\\
28.438103480398688	0.0859158560990955\\
28.441854074927647	0.08807715458651821\\
28.445646714849502	0.09028267462711762\\
28.44946145855409	0.0925213617529293\\
28.453298173243745	0.09479348836839419\\
28.45712571517285	0.09708076600741969\\
28.460922944784535	0.0993702785955542\\
28.464757600198425	0.10170280161627632\\
28.468572583099096	0.10404384364224215\\
28.4723040967297	0.10635353989366869\\
28.475629500007656	0.10842893202326062\\
28.479400118843834	0.11080014586050219\\
28.48318207512358	0.11319847301387362\\
28.487058034190362	0.11567702624382681\\
28.490924449909095	0.11817045107889287\\
28.494557771315442	0.12053302073845173\\
28.49837070112779	0.12303193338122045\\
28.502250337488654	0.1255953270055254\\
28.506114543661695	0.1281694878286544\\
28.510000188519655	0.13077895507768988\\
28.513816199129963	0.13336233502159733\\
28.517445856525335	0.13583876642727677\\
28.52132152535868	0.1385029402350622\\
28.52501114254848	0.14105904838859634\\
28.528919395978946	0.14378698120088518\\
28.532765380085124	0.14649239915309964\\
28.53666206686156	0.14925446932635106\\
28.54051711651583	0.15200797275452305\\
28.544419141074272	0.1548160812001365\\
28.548326584123693	0.1576493850274901\\
28.55222484566078	0.16049728913615557\\
28.55607683413188	0.16333230636101204\\
28.55989846482175	0.16616549754267135\\
28.563660261992432	0.16897433694035463\\
28.56754093824165	0.17189241488905016\\
28.57121706517369	0.17467640174135862\\
28.574917347493532	0.17749767202371236\\
28.578364982219448	0.18014389243747536\\
28.582288942009498	0.18317501479093218\\
28.586210284369578	0.18622555835212012\\
28.590076324525086	0.18925415451694516\\
28.593948111048697	0.19230811087105387\\
28.597845720632023	0.1954034788048722\\
28.601789192985407	0.19855671639582928\\
28.605659713324762	0.20167280489991174\\
28.6093104537849	0.20463143182824683\\
28.613183377506232	0.20779000072392106\\
28.61711507143592	0.21101774161331016\\
28.621041159343186	0.21426234850447096\\
28.62494978129625	0.21751384782888994\\
28.62888846770882	0.22081179174768872\\
28.632799450914554	0.22410792844577576\\
28.636719294569346	0.2274328485140667\\
28.640456086802914	0.23062269177038502\\
28.644417583037864	0.23402512554972793\\
28.64838909593186	0.23745802471649163\\
28.65235524181103	0.24090815327226206\\
28.65627243411157	0.244337221483845\\
28.66024448223761	0.24783595785399992\\
28.664221229110638	0.251360757261494\\
28.66801405077603	0.25474329517296235\\
28.671942865059727	0.2582679097109386\\
28.67584927223679	0.2617936845706781\\
28.67977684246084	0.2653598510789522\\
28.683679051636197	0.26892421001416034\\
28.687471610829604	0.2724088222761236\\
28.691342102621036	0.2759854468683882\\
28.695344537722384	0.27970557846233834\\
28.699369058678755	0.28346856454209846\\
28.703247751584144	0.28711667628914694\\
28.70726588908164	0.2909176457935889\\
28.71115697242017	0.2946199458190152\\
28.714853550074032	0.2981569054320746\\
28.718774596602508	0.30192889510456244\\
28.722779941161896	0.3058037733686223\\
28.726815543867623	0.30973029728632795\\
28.730816051821556	0.3136449535259995\\
28.734847484691464	0.3176121830758303\\
28.738839071363458	0.3215623907213334\\
28.74271096580128	0.3254153797131982\\
28.746714961850124	0.3294213524731353\\
28.750712086155737	0.3334425328108519\\
28.75468795046146	0.33746423342855125\\
28.758685666783364	0.34152998403655876\\
28.762663547162013	0.34559747329195434\\
28.76672999235744	0.3497779088749884\\
28.770749559522145	0.3539326373448741\\
28.774737708727876	0.3580769513208797\\
28.778778004993853	0.36229770096935954\\
28.782833291171798	0.36655668889932325\\
28.786821316779715	0.37076724105099\\
28.79074841582097	0.3749349672582972\\
28.794773463176263	0.37922848647656504\\
28.798702640725068	0.3834414088241247\\
28.802785783410982	0.38784162608699846\\
28.806705604686208	0.39208769395204535\\
28.810657812223802	0.3963901666736598\\
28.814751996769445	0.40086956941817253\\
28.818791247658538	0.4053115348787597\\
28.822835366286775	0.40978129059585466\\
28.826941832855738	0.4143428154146901\\
28.83104444823978	0.4189231805900723\\
28.83514603945094	0.42352548888970565\\
28.83904851250557	0.4279261435118775\\
28.843138083462556	0.432559843241506\\
28.847277898423243	0.4372737283675252\\
28.85135517661164	0.44193947574894765\\
28.85541783699656	0.4466111741538783\\
28.859340991456783	0.45114415308058764\\
28.86337803045935	0.4558305099908039\\
28.867526319939913	0.4606690395008365\\
28.871548055960908	0.4653826658770728\\
28.87567797245743	0.47024590641746455\\
28.87961924987458	0.47490909547419013\\
28.88372585191967	0.47979017348684605\\
28.887843630704026	0.4847076541892723\\
28.89194286178416	0.4896260256952063\\
28.896147239658873	0.4946941938338575\\
28.900292058560694	0.49971429843068027\\
28.904427435687744	0.5047463493008968\\
28.908565555588943	0.5098050856628105\\
28.912591721038197	0.5147495770444639\\
28.916679709144127	0.5197924893280033\\
28.920862825024052	0.5249761483895359\\
28.924972393811004	0.5300920189662297\\
28.928876840489217	0.5349742059812006\\
28.933111493943784	0.5402921241928369\\
28.937303451346594	0.5455805422605904\\
28.941451510548127	0.5508371947763551\\
28.945496823212785	0.5559863660708231\\
28.94969446642726	0.561352669326499\\
28.953898999631754	0.5667517738856787\\
28.958126402507602	0.5722044158449735\\
28.962301762922962	0.5776138528300647\\
28.966538667496174	0.5831271009924179\\
28.97067875142993	0.5885380739705879\\
28.974879332692538	0.5940517661961242\\
28.979138546548818	0.5996667395768343\\
28.983243091597764	0.6051013630095508\\
28.98756983207341	0.6108544717937698\\
28.991769964879524	0.6164637287433532\\
28.996050262810925	0.6222044680386134\\
29.00028626187285	0.6279102918775346\\
29.004608717757762	0.6337574315643197\\
29.008787777709074	0.6394348875359839\\
29.013029210178345	0.6452211044493861\\
29.017298710690625	0.6510701128204752\\
29.021490224655544	0.6568363837326809\\
29.025514932684445	0.6623958055524517\\
29.029231281314658	0.6675492101373035\\
29.033538540168934	0.6735442058560359\\
29.03773830842937	0.6794138891457626\\
29.042060511675004	0.6854792869440145\\
29.04632805456145	0.6914927860094435\\
29.050447307973947	0.697320869936366\\
29.05483748767473	0.7035568979440552\\
29.0590845264747	0.7096145617006415\\
29.06327601375135	0.7156168909902152\\
29.067565190113164	0.7217833909630238\\
29.071715174328844	0.7277735757923223\\
29.07609235306475	0.7341163387676071\\
29.08042200155483	0.74041564009628\\
29.084846033656966	0.7468780782565059\\
29.08930534659224	0.7534185685899979\\
29.093620889758746	0.7597738685636435\\
29.098002108121946	0.7662513064078027\\
29.10246720454188	0.7728790623113015\\
29.10685468927889	0.7794177865392435\\
29.111221692277965	0.7859516266203184\\
29.11542461623958	0.7922643875063011\\
29.119764021303823	0.7988066806256378\\
29.124227207011828	0.8055616207125185\\
29.128613808914736	0.812226750384736\\
29.132987296333518	0.8188975765790576\\
29.137499605282834	0.8258066462164932\\
29.142008047576198	0.8327369509552522\\
29.146485547723287	0.8396465978332333\\
29.1507404556884	0.8462379381886476\\
29.15520091384962	0.8531732085419124\\
29.15974962958302	0.8602728320298205\\
29.16426331239822	0.8673450866495904\\
29.168536250431018	0.874065574471176\\
29.172800745625054	0.8807970219392931\\
29.177307842512924	0.8879372227750464\\
29.181784631061603	0.8950562017124435\\
29.186156008258642	0.9020334551512204\\
29.190663464566043	0.909254213833365\\
29.194931557410584	0.9161168304206988\\
29.199549972324107	0.9235692425184745\\
29.204070871445417	0.9308918905722128\\
29.208450774297802	0.9380122698264559\\
29.212925735982353	0.9453132470400876\\
29.21744519578138	0.9527136489416814\\
29.221940680471583	0.9601016580708583\\
29.226497488760707	0.9676176083844641\\
29.230954913436058	0.9749963921108111\\
29.235504988062033	0.9825554428479497\\
29.24005960770228	0.9901494201413881\\
29.244418457237806	0.9974430045670739\\
29.24867313900701	1.0045866570433666\\
29.25297512755739	1.0118339206211355\\
29.257411559550754	1.0193329598110474\\
29.262045704430456	1.0271934864870804\\
29.26634849330344	1.0345178984621217\\
29.271153293828434	1.042724599324036\\
29.27570018292497	1.0505192566764525\\
29.280376848554795	1.058564474329554\\
29.28497232735687	1.0664981800822897\\
29.2896070081394	1.0745275710814264\\
29.294323907960738	1.0827281777843942\\
29.298952950078778	1.090804587024338\\
29.303517839422206	1.098796701969575\\
29.307905352421045	1.106504337960967\\
29.31270942786889	1.114971796431627\\
29.31737044279948	1.1232162586501357\\
29.321775344826456	1.1310343096048139\\
29.326406737482834	1.1392812440308484\\
29.3307769546128	1.1470893050715616\\
29.335676891497066	1.155872317689564\\
29.340341271031505	1.1642626827082738\\
29.345152656009887	1.1729469042892648\\
29.34965364067655	1.1810987939011741\\
29.354445272842455	1.1898054800894604\\
29.35929409261381	1.1986463842502002\\
29.36400021825702	1.2072566528434505\\
29.36877131079072	1.216015043513373\\
29.373352475224628	1.224452990112682\\
29.378097022161874	1.2332202595958295\\
29.38260907703434	1.2415854701437685\\
29.3874126490254	1.2505195571901684\\
29.391966428837065	1.2590171664500924\\
29.396866556078777	1.2681903500569405\\
29.401490328364552	1.2768752437052955\\
29.406218392881854	1.2857844192083574\\
29.41112407589896	1.2950584594683865\\
29.41580005491106	1.3039276588224507\\
29.420564529447425	1.31299356946033\\
29.42516890214813	1.3217829855524759\\
29.42988372585299	1.3308113507548631\\
29.4344571492787	1.3395966004409088\\
29.439006414817158	1.3483622166338414\\
29.44395064382843	1.357918223032946\\
29.448742009400668	1.3672090955893252\\
29.453612712960506	1.3766838906530197\\
29.458470529634766	1.3861639965200379\\
29.46351368612187	1.3960374414520462\\
29.468351504604072	1.4055399625812903\\
29.47343852845725	1.415563791208203\\
29.478400890110024	1.4253741808784142\\
29.483172393739814	1.434837367216602\\
29.487644574458926	1.4437339274057504\\
29.492390762398983	1.4532029792960257\\
29.496936005117163	1.4622984927909508\\
29.501892448583575	1.472246049230486\\
29.506947139544693	1.4824228513841864\\
29.511985778539653	1.492599783966455\\
29.517113043549536	1.5029887236657578\\
29.521974504529226	1.5128705433188205\\
29.52687424144193	1.5228605008653946\\
29.53185276975396	1.5330421889176469\\
29.53677581107545	1.5431414697833619\\
29.541707763766816	1.5532898539745954\\
29.54685572876106	1.5639151503740698\\
29.552016417204648	1.5746003857970003\\
29.55674945632689	1.584430678671882\\
29.56168770745594	1.5947169680115505\\
29.56638717148042	1.604534976401438\\
29.57172138641645	1.6157114583785206\\
29.576703401212924	1.6261831810080407\\
29.581854520296815	1.6370428935129766\\
29.58698998011826	1.647902916569112\\
29.59194789659405	1.6584193700582124\\
29.596876740619372	1.6689048769775017\\
29.60193926310353	1.679706280442252\\
29.60683534213276	1.6901835344111484\\
29.611494520744493	1.7001629136948657\\
29.616438312711367	1.710761560275916\\
29.62135730807939	1.721316902926378\\
29.626224240399935	1.7317701855955026\\
29.6314731495617	1.743054633525729\\
29.636416083763343	1.753691456442188\\
29.641660990686503	1.7649888797506432\\
29.646739866431766	1.7759392318727496\\
29.65158495873996	1.7863951963794116\\
29.656945496771648	1.7979744943020703\\
29.66211373413865	1.8091492990942672\\
29.667104733060846	1.8199510110502581\\
29.672084931909588	1.8307392553734112\\
29.6771252183078	1.841667720035724\\
29.682006605172987	1.852261281523981\\
29.687514057842066	1.8642248789816782\\
29.69253831941701	1.8751493394701675\\
29.698026749329102	1.8870944631191118\\
29.702745949349918	1.897374922325982\\
29.7081606191188	1.9091812183776886\\
29.713413854739663	1.9206465310316805\\
29.718781420467515	1.9323725516625898\\
29.724321377987906	1.9444870070819333\\
29.729715192180628	1.9562934035478392\\
29.735218042084362	1.9683501533795615\\
29.740717949205383	1.9804122263488502\\
29.745777861059032	1.9915196996886029\\
29.750987236227353	2.0029656375710703\\
29.75646262247409	2.015007361157303\\
29.7617422852446	2.026629597051956\\
29.766640470895446	2.0374216791979496\\
29.772002980264865	2.0492473718561106\\
29.777669517105934	2.061755508533758\\
29.783096580101862	2.073746560672965\\
29.78856930076246	2.085849885142612\\
29.793976257007834	2.097818977483202\\
29.799348271739277	2.1097217335296836\\
29.80453961902944	2.121234592287168\\
29.810165107107707	2.1337217692155024\\
29.815427207251652	2.1454131425482306\\
29.820576848363437	2.156864764506815\\
29.826583574184937	2.1702349563657757\\
29.83209066700207	2.182504935151335\\
29.837228906600814	2.1939633443883357\\
29.84297946878963	2.206798954148077\\
29.8486964615755	2.2195718630096195\\
29.853879931231454	2.2311632893229287\\
29.858934464498716	2.2424759941336116\\
29.864436260572347	2.2548004939793715\\
29.87026609212088	2.2678720364003953\\
29.875870853733602	2.2804507537244882\\
29.88134785852302	2.2927539184333705\\
29.88685271728294	2.3051307536928594\\
29.89192451204738	2.3165437395630724\\
29.89725660706702	2.32855261771818\\
29.902281626605642	2.339879399413353\\
29.908240884850116	2.3533239426084895\\
29.913711662685024	2.3656777932142026\\
29.91902324621242	2.3776825359824088\\
29.924691933438538	2.3905056232936923\\
29.930210213823273	2.4029996107737883\\
29.935584566949338	2.4151782651921883\\
29.941132534074143	2.4277612195054497\\
29.946500650422074	2.439946762661319\\
29.952014636950416	2.4524741513111046\\
29.957208774713195	2.464284782343891\\
29.96265798717642	2.476685728535289\\
29.96835887704392	2.4896707053849783\\
29.973874381415932	2.5022443799410468\\
29.978900724193394	2.5137122733497925\\
29.984592029657428	2.5267080660908583\\
29.99017361880434	2.539464388479071\\
29.996114731259233	2.553054379929458\\
30.0014921607126	2.5653656218209804\\
30.007256960873008	2.578574928975777\\
30.0126083763339	2.5908473721298053\\
30.018401487675547	2.604143969656217\\
30.024031508559084	2.617077373805876\\
30.029672767430363	2.63004757895383\\
30.034881760893725	2.6420336733770293\\
30.04026745772203	2.654436178764505\\
30.04548257680458	2.666455349528208\\
30.050603242246638	2.678265891162587\\
30.056461703737618	2.6917890990200535\\
30.06210609446434	2.704829217479067\\
30.06828821187966	2.7191240497433915\\
30.074263904874527	2.732953872671054\\
30.080035401966732	2.7463225656502672\\
30.085509594921746	2.7590129732771755\\
30.091362038583945	2.772591387048289\\
30.09722397709689	2.786203335536147\\
30.103200674745167	2.80009358772318\\
30.106835342132754	2.808546625295265\\
30.108725532946373	2.812944323335298\\
30.11479915033822	2.8270609573804126\\
30.12085501902674	2.8410773322974343\\
30.126477800682615	2.8540362664062986\\
30.132002088359584	2.8667182152305832\\
30.137161108440445	2.8785155075665667\\
30.143011683689636	2.8918463093303046\\
30.14893998352766	2.9052984499223786\\
30.15535669032601	2.9197980772718726\\
30.161297293510593	2.9331599465463887\\
30.166787689596617	2.9454561590949417\\
30.172944704802852	2.9591913944804373\\
30.1786959358776	2.971963794897408\\
30.18429488399061	2.9843457892857526\\
30.18953976155251	2.995896938850616\\
30.195461583891742	3.008889306453246\\
30.20136754387773	3.0217901745969886\\
30.20712801339716	3.0343179244216545\\
30.21279193630295	3.046582664632333\\
30.218518468219706	3.058930354808636\\
30.22448886421998	3.0717485283610912\\
30.23040348100497	3.0843894572927057\\
30.236174801349676	3.0966684367339194\\
30.24207425346006	3.109164686057979\\
30.248020868941026	3.121703696588467\\
30.254141720346084	3.1345508926835075\\
30.260183484611794	3.14717165123803\\
30.266066142516152	3.1594018471951903\\
30.271782353559985	3.1712308819437736\\
30.277848637369146	3.183727949163056\\
30.283896653235203	3.1961273032521014\\
30.289561402824305	3.2076844471222907\\
30.295584243053995	3.2199165585570952\\
30.301677138279352	3.232230813769104\\
30.307956389393468	3.244859079984809\\
30.313745165839563	3.2564408085668877\\
30.320000952992892	3.2688978019962054\\
30.325869520423716	3.280523003128822\\
30.332115941215314	3.2928367121229174\\
30.33835524469064	3.3050721849925413\\
30.34437636337143	3.316817670301086\\
30.350421455639086	3.328549903815852\\
30.356361933011144	3.340019736978693\\
30.362131484739656	3.351102794795641\\
30.368743436413503	3.3637418316247194\\
30.374920778947825	3.37548215215478\\
30.380768484596167	3.3865359200457883\\
30.38660992445915	3.3975212707589737\\
30.392631268864413	3.4087868206115814\\
30.398222255369824	3.4191910321604446\\
30.404271171026892	3.4303916879456144\\
30.410597011262794	3.4420418463646616\\
30.416674741765647	3.4531709835711384\\
30.423120696615783	3.4649096044885876\\
30.42934815194819	3.476183356581262\\
30.435627854471605	3.487486650240795\\
30.441629607208917	3.498226636287498\\
30.447795281233923	3.509198429294096\\
30.454094043052102	3.5203424090647815\\
30.460365783819306	3.5313726404497086\\
30.466749645417906	3.542533306374545\\
30.47276371386964	3.5529830195974688\\
30.478796409814798	3.5634044587697193\\
30.48487860105432	3.573850063142083\\
30.490577602013502	3.5835792540277156\\
30.496793829323835	3.5941325525584684\\
30.502517108962458	3.6037889679607815\\
30.509119282333025	3.6148657061112033\\
30.515129644975644	3.6248824796604477\\
30.52129046022211	3.6350879613089253\\
30.52729226524349	3.6449678034119835\\
30.5337131216095	3.6554730631569115\\
30.539707130158916	3.66521488584955\\
30.546045185231804	3.675452245671039\\
30.55210219338668	3.68517079365164\\
30.557991980756277	3.694560808859948\\
30.563958724742328	3.7040143467727393\\
30.56999929773889	3.713524137789536\\
30.57630075828424	3.7233806439512778\\
30.5827167024135	3.73334806539916\\
30.589099129191986	3.7431942187236613\\
30.595136069362574	3.752441995926385\\
30.601454182493832	3.7620562267365667\\
30.607709786166033	3.7715084143155506\\
30.61377310430288	3.7806056970011364\\
30.619972765357822	3.78984398654182\\
30.62601059294009	3.7987775608274923\\
30.632262508570413	3.8079640698170953\\
30.638575838415058	3.8171739107456677\\
30.644824881851946	3.82622295121178\\
30.651242643251486	3.8354483303569236\\
30.6573372690072	3.844142488690598\\
30.66402144930909	3.8536089042194064\\
30.6701671690034	3.8622424243804883\\
30.676059453602285	3.870458093102193\\
30.681908527323877	3.878554791558229\\
30.68819767970654	3.8871983564598978\\
30.694531968088107	3.895836085051741\\
30.701267603459463	3.9049486858047935\\
30.70756517784121	3.913395908559843\\
30.71408794263958	3.9220752442198057\\
30.720311842536027	3.9302873260980196\\
30.726688629809807	3.938633429144426\\
30.733119399409453	3.9469801125854183\\
30.739439000908362	3.9551128980145123\\
30.745887164328884	3.9633414892890038\\
30.75237435715966	3.9715482875161703\\
30.75880373783565	3.9796104457859185\\
30.765407543932433	3.987818689615895\\
30.771982707793917	3.9959168440120694\\
30.778397273700584	4.003744708109101\\
30.784746689756133	4.011423101023132\\
30.791031109285527	4.018954312806104\\
30.797472882158885	4.026604658933136\\
30.803938838479134	4.034212141165018\\
30.810208682634872	4.04151901470544\\
30.816395340460375	4.048662136495681\\
30.82288402355549	4.05608510758926\\
30.829296742220507	4.063349450358988\\
30.83573053498295	4.0705665839608915\\
30.84201136032977	4.077542342821374\\
30.848112642013987	4.08425246472528\\
30.8544300378908	4.091133917733957\\
30.86105446407273	4.098277809600264\\
30.867636674893944	4.105300833057065\\
30.874067889296562	4.112089486177661\\
30.880127680999315	4.118418436567973\\
30.88642102043329	4.12492552587188\\
30.892428301432965	4.13107122748591\\
30.898344505545268	4.137062173140421\\
30.90487859492832	4.143612342556159\\
30.911564197332574	4.150238838231539\\
30.9182031108799	4.156742095465413\\
30.92469536486469	4.163026844604499\\
30.931152956760272	4.169205288452956\\
30.9376178667671	4.175318289720037\\
30.9440526125441	4.181330522132097\\
30.95054719933608	4.18732612473851\\
30.956822374881682	4.193048199420264\\
30.963476603693522	4.199043619723122\\
30.96987715673808	4.204736225886057\\
30.976392378236767	4.210458351872873\\
30.98278747022559	4.2160023654422645\\
30.989271709728065	4.221551525012812\\
30.995618413385884	4.226911197559794\\
31.002443872370904	4.232600051432081\\
31.00912062307868	4.238085401120781\\
31.015966110359585	4.2436297876037194\\
31.022778598595117	4.249066044235882\\
31.02928448274065	4.254180038996406\\
31.03587939547596	4.2592891491921225\\
31.04243591015728	4.264292938840731\\
31.049007960692627	4.269233283210525\\
31.055661184888066	4.2741582531687925\\
31.062434472934704	4.279093362481161\\
31.068835155607843	4.283680856884109\\
31.075271660472076	4.288221930697148\\
31.081953720698827	4.292861110040198\\
31.088374834146265	4.297243767528471\\
31.094681847504432	4.301477491823999\\
31.101034086670765	4.305671365792737\\
31.107602667828736	4.309935048276431\\
31.114286739846357	4.314196748417077\\
31.120587196145998	4.318139679078994\\
31.127221667074807	4.322218489463957\\
31.13393262009688	4.326266171540807\\
31.140547878497465	4.330178059656079\\
31.147235852163583	4.334055231144486\\
31.153777242449422	4.337770392066986\\
31.160554852960573	4.341541898086621\\
31.167179170244196	4.345148986069585\\
31.17394922919172	4.3487565930852075\\
31.18058509757642	4.352213484099819\\
31.187268274170563	4.355616927737696\\
31.193939466039254	4.3589356895234666\\
31.200806699327003	4.3622713503968615\\
31.207542653559806	4.365461564205853\\
31.214126280223496	4.368501282829621\\
31.220941969598243	4.371569116530685\\
31.227617995389124	4.374493648161371\\
31.234145261722098	4.3772759447222676\\
31.240707942951545	4.379997676698919\\
31.247297019364282	4.382653946184261\\
31.254029012033506	4.385289505180003\\
31.260608155536694	4.387786783469052\\
31.267217840088065	4.390218738089915\\
31.2740133941952	4.392639718840728\\
31.28064149910646	4.394921184352446\\
31.28741661098394	4.397173825091684\\
31.29414328942771	4.399329587993982\\
31.300858755164903	4.4014016933310245\\
31.307652544009777	4.403417139388928\\
31.31436264764904	4.40532685685395\\
31.32101845583886	4.4071418558575\\
31.327686089637297	4.408881335417123\\
31.33435726836514	4.410542782514447\\
31.340998096376957	4.412117982439096\\
31.34759522798626	4.41360496871375\\
31.354345695902566	4.415047494559971\\
31.361063129410255	4.416402340852748\\
31.367694151780896	4.417660503421441\\
31.374460238451853	4.419082869845774\\
31.38635688862236	4.421583419777692\\
31.401615190542117	4.4247898753333175\\
31.42098257976678	4.4288587376803665\\
31.440722649727462	4.433004632823232\\
31.460098515646834	4.437072796306596\\
31.47931933441218	4.44110719244431\\
31.49956748620461	4.445355915690175\\
31.51854410991595	4.44933661341296\\
31.538523526517906	4.4535263926644575\\
31.558327240787683	4.457678038046039\\
31.562271896969172	4.4585048415537685\\
31.563719638360027	4.458808276697177\\
31.564248842593607	4.458919192007961\\
31.564527206406716	4.458977533594059\\
31.564582315947625	4.458989083836981\\
31.564618441685	4.458996655316232\\
31.564635131723882	4.4590001533273504\\
31.56465144524315	4.4590035724240575\\
31.564734397179116	4.45902095803322\\
31.565010427112306	4.459078810028467\\
31.565984386732588	4.459282936274947\\
31.56848809090461	4.4598076580042925\\
31.574598631889238	4.461088207339065\\
31.58426141459298	4.463112927756759\\
31.597482591597867	4.465882769165843\\
31.611871281360507	4.468896551184873\\
31.629396063626253	4.472566283031595\\
31.650179190222055	4.47691701032128\\
31.67010205215425	4.481086316441353\\
31.689201691678548	4.485082119166414\\
31.708711553409444	4.489162505335694\\
31.729158198150373	4.493437471917211\\
31.748720549291832	4.497526264973457\\
31.76866257647746	4.501693121099475\\
31.789075248489468	4.505956964723028\\
31.808627600408435	4.510039819660772\\
31.830936100683125	4.514696671000001\\
31.85280536776773	4.519260247815673\\
31.873228837592748	4.523520705303227\\
31.894652721021004	4.527988384657432\\
31.91532067892893	4.532296999016136\\
31.937075909907833	4.536830762722165\\
31.958333620456955	4.541259345715325\\
31.979153953304646	4.545595375729409\\
31.999862624684418	4.549906743211704\\
32.01950156029203	4.553994104110995\\
32.04030452153259	4.558322351951247\\
32.062161373928944	4.562868346800986\\
32.08307549109047	4.567216800472867\\
32.10425732607068	4.571619460999216\\
32.12586593541242	4.576109316772779\\
32.147507485072566	4.580604488923047\\
32.16917845222525	4.585104239824199\\
32.19029123950352	4.589486617273053\\
32.21106732141661	4.593797686131008\\
32.21975227342914	4.5955994100430555\\
};
\end{axis}
\end{tikzpicture}%
