%RateOfClimb_vs_GroundDistance
\begin{tikzpicture}

\begin{axis}[
width=\figurewidth,
height=\figureheight,
scaled ticks=false, tick label style={/pgf/number format/fixed},
xmin=0.0,
xmax=1361.8575686758534,
xlabel={Ground distance (m)},
xmajorgrids,
ymin=0.0,
ymax=4.158925592671762,
ylabel={Rate of Climb (m/s)},
ymajorgrids,
legend style={at={(1.03,0.5)},anchor=west,draw=black,fill=white,legend cell align=left}
]

\addplot [
color=black,
solid
]
table[row sep=crcr]{
1.3869093119903592E-8	0.0\\
1.8247812789035E-7	0.0\\
1.5689169813013997E-6	0.0\\
1.230312239660371E-5	0.0\\
7.276210507913195E-5	0.0\\
2.2014036563555413E-4	0.0\\
4.751369312677885E-4	0.0\\
8.252406893231165E-4	0.0\\
0.001274457569045092	0.0\\
0.0018206816157891837	0.0\\
0.00245908613124946	0.0\\
0.0031841560796724826	0.0\\
0.004019200274963388	0.0\\
0.004951823956536754	0.0\\
0.005980072973450908	0.0\\
0.007084534716307267	0.0\\
0.00830859645298716	0.0\\
0.009629170425140502	0.0\\
0.011047577321469399	0.0\\
0.012538624079878213	0.0\\
0.014116005426645505	0.0\\
0.0157993518069761	0.0\\
0.01761150063393705	0.0\\
0.01947575586868927	0.0\\
0.021430329621987654	0.0\\
0.02352430152381732	0.0\\
0.025651619589079085	0.0\\
0.027931718347829745	0.0\\
0.030318298421023293	0.0\\
0.032778693236998335	0.0\\
0.03532861918664695	0.0\\
0.03798970612122757	0.0\\
0.04075626698457191	0.0\\
0.043630952837042006	0.0\\
0.04659077363873938	0.0\\
0.04968955728164415	0.0\\
0.05287110877064442	0.0\\
0.056150397377987965	0.0\\
0.05951918974668685	0.0\\
0.06299368302680824	0.0\\
0.06657320821989007	0.0\\
0.07026067283903731	0.0\\
0.0740576897941109	0.0\\
0.07792958446382525	0.0\\
0.081879604605539	0.0\\
0.08594396467062113	0.0\\
0.09008751154253766	0.0\\
0.09434993694545912	0.0\\
0.09870655728554548	0.0\\
0.1031506783612004	0.0\\
0.10775619525641539	0.0\\
0.1124503913007778	0.0\\
0.11720951552986722	0.0\\
0.12210763268919247	0.0\\
0.12707148295624981	0.0\\
0.13222778702770294	0.0\\
0.13740849183365966	0.0\\
0.1426621796619541	0.0\\
0.14816361896279345	0.0\\
0.1536709577275428	0.0\\
0.1592829013791034	0.0\\
0.16502620638211996	0.0\\
0.17086936713095452	0.0\\
0.17683728126999898	0.0\\
0.18289782982267244	0.0\\
0.1890865913084009	0.0\\
0.19547914306204933	0.0\\
0.20184843412061787	0.0\\
0.20848231782841908	0.0\\
0.21525685944689305	0.0\\
0.2219196186362385	0.0\\
0.2287001349244005	0.0\\
0.2356604833989146	0.0\\
0.24265266865573004	0.0\\
0.2499164500533298	0.0\\
0.25727118144332306	0.0\\
0.2646542794473028	0.0\\
0.2720560537148452	0.0\\
0.27959700815793587	0.0\\
0.28723257503258093	0.0\\
0.29496554790269347	0.0\\
0.3031027276718027	0.0\\
0.31126987386973526	0.0\\
0.3193240498425317	0.0\\
0.3275729793668669	0.0\\
0.33588341034427516	0.0\\
0.34459215629046336	0.0\\
0.3533150015622637	0.0\\
0.36204661072435085	0.0\\
0.3710705786710855	0.0\\
0.3799857288984858	0.0\\
0.38910207745577896	0.0\\
0.3982248500726798	0.0\\
0.40782394674062716	0.0\\
0.4173941959285571	0.0\\
0.4270561864022726	0.0\\
0.4367508193952593	0.0\\
0.4468280563275776	0.0\\
0.4567011739675302	0.0\\
0.46714717765859826	0.0\\
0.47734758372910735	0.0\\
0.48765006482368967	0.0\\
0.49824050484010696	0.0\\
0.5091728344453814	0.0\\
0.5200504965029025	0.0\\
0.5307088785461178	0.0\\
0.5416770237520268	0.0\\
0.5528556389920627	0.0\\
0.5643995664915897	0.0\\
0.5757682364477201	0.0\\
0.5872613899925703	0.0\\
0.5990519639626675	0.0\\
0.6110438273119208	0.0\\
0.6231066002948633	0.0\\
0.6351417856602535	0.0\\
0.6473345523551146	0.0\\
0.6596051267062564	0.0\\
0.671933282119491	0.0\\
0.6847440522191508	0.0\\
0.6975405996853177	0.0\\
0.7104651369857145	0.0\\
0.7237087829719286	0.0\\
0.7369876496608332	0.0\\
0.7499230950065965	0.0\\
0.7634716230156258	0.0\\
0.776960526629878	0.0\\
0.7903907564332187	0.0\\
0.8046737323172766	0.0\\
0.81898339826211	0.0\\
0.8332187790265435	0.0\\
0.8478113782604424	0.0\\
0.8622688624712964	0.0\\
0.877127358593488	0.0\\
0.8915302538319987	0.0\\
0.9062084985251779	0.0\\
0.9208901997428689	0.0\\
0.9358125249195757	0.0\\
0.9509941804739459	0.0\\
0.9664746949422658	0.0\\
0.9818980032477744	0.0\\
0.9971184158791462	0.0\\
1.0127101353166563	0.0\\
1.028493051751549	0.0\\
1.0444980930760321	0.0\\
1.0608241672937382	0.0\\
1.0768859082984252	0.0\\
1.0937007968972896	0.0\\
1.1105240928101323	0.0\\
1.1276027462075207	0.0\\
1.1448810284698587	0.0\\
1.1619905047660053	0.0\\
1.1791223115034226	0.0\\
1.1968001660051848	0.0\\
1.2144877057213108	0.0\\
1.2321009527293487	0.0\\
1.249899120793739	0.0\\
1.2682320328482555	0.0\\
1.2866179840133922	0.0\\
1.3054447133866782	0.0\\
1.3240343586032064	0.0\\
1.3431524385921576	0.0\\
1.3626218777105907	0.0\\
1.3818924907835934	0.0\\
1.4011546873414984	0.0\\
1.4212272981825094	0.0\\
1.4410964638561543	0.0\\
1.4611059171985135	0.0\\
1.4810908293294673	0.0\\
1.5013723730042647	0.0\\
1.5220739888880042	0.0\\
1.5426804614617384	0.0\\
1.5639697374283865	0.0\\
1.5850672259881167	0.0\\
1.6061371627464527	0.0\\
1.6275630663206826	0.0\\
1.6494680571146239	0.0\\
1.6712747032804858	0.0\\
1.6940858988940954	0.0\\
1.7161668782598607	0.0\\
1.7383993807696618	0.0\\
1.7607121524963407	0.0\\
1.7832137152022698	0.0\\
1.8064108864158999	0.0\\
1.8290489135731023	0.0\\
1.85268283914175	0.0\\
1.8760732574562144	0.0\\
1.900145678018316	0.0\\
1.9236012441778771	0.0\\
1.9476847886333148	0.0\\
1.9718594592493743	0.0\\
1.9959330820616104	0.0\\
2.020853177572503	0.0\\
2.045577550525026	0.0\\
2.0697069128993997	0.0\\
2.0943447861162916	0.0\\
2.1193655664161577	0.0\\
2.145561291189246	0.0\\
2.171596034419741	0.0\\
2.197053986953348	0.0\\
2.2226690360302745	0.0\\
2.2490544208834535	0.0\\
2.2754094858735456	0.0\\
2.302227798729695	0.0\\
2.329387453318212	0.0\\
2.3563163686927187	0.0\\
2.3838298902366386	0.0\\
2.4120338106141137	0.0\\
2.4397621741646685	0.0\\
2.467398068223523	0.0\\
2.4951352926957817	0.0\\
2.523971068992118	0.0\\
2.552002734558495	0.0\\
2.5803424772323433	0.0\\
2.6092445329760325	0.0\\
2.638120213220536	0.0\\
2.667401911133659	0.0\\
2.6977426690365087	0.0\\
2.7277927474786496	0.0\\
2.7573732435561036	0.0\\
2.7870063076878324	0.0\\
2.816944235927263	0.0\\
2.8473957654598596	0.0\\
2.8775823908766878	0.0\\
2.908240465329544	0.0\\
2.9392435165190482	0.0\\
2.9707274884449353	0.0\\
3.0023947546957483	0.0\\
3.034702216463094	0.0\\
3.0674140568731643	0.0\\
3.0998951520315936	0.0\\
3.1321031264939236	0.0\\
3.1644505774199168	0.0\\
3.1973203311951295	0.0\\
3.2303543215726487	0.0\\
3.2624876012457786	0.0\\
3.295528246767616	0.0\\
3.3306302715129945	0.0\\
3.3653980048335876	0.0\\
3.400060562116951	0.0\\
3.4349697719512973	0.0\\
3.4703331802754995	0.0\\
3.5046666168795735	0.0\\
3.5398146408029154	0.0\\
3.5751964452833223	0.0\\
3.6114486353251776	0.0\\
3.6474941475545375	0.0\\
3.684021693177268	0.0\\
3.7203532120766356	0.0\\
3.7570660052485927	0.0\\
3.7936669859303658	0.0\\
3.8301873209705617	0.0\\
3.8670728328630553	0.0\\
3.9037977080340998	0.0\\
3.940749666575443	0.0\\
3.9785665546497766	0.0\\
4.017052182989676	0.0\\
4.055237289578118	0.0\\
4.093820736954161	0.0\\
4.1336419395348525	0.0\\
4.172461677781557	0.0\\
4.212343094726345	0.0\\
4.2519571308220705	0.0\\
4.291145467762695	0.0\\
4.331657847474826	0.0\\
4.37319023638052	0.0\\
4.413389714447906	0.0\\
4.454234456898378	0.0\\
4.4951352819767845	0.0\\
4.535855529430162	0.0\\
4.577998443325766	0.0\\
4.619388838181317	0.0\\
4.661610316239084	0.0\\
4.703814903426986	0.0\\
4.746993370089566	0.0\\
4.790138698362497	0.0\\
4.833883801591162	0.0\\
4.876964289918613	0.0\\
4.920710233430784	0.0\\
4.9651354349888575	0.0\\
5.010822597569749	0.0\\
5.055289708876712	0.0\\
5.100818830910166	0.0\\
5.145536044802251	0.0\\
5.190259639784339	0.0\\
5.235629739046027	0.0\\
5.281600413813866	0.0\\
5.327608576622117	0.0\\
5.374657697706018	0.0\\
5.42241222430267	0.0\\
5.469761785533125	0.0\\
5.517750195365682	0.0\\
5.565925966194889	0.0\\
5.614022934355058	0.0\\
5.661886898732471	0.0\\
5.709852698981779	0.0\\
5.75949303317633	0.0\\
5.809364927820409	0.0\\
5.858717399113981	0.0\\
5.908880547575039	0.0\\
5.9581812433839385	0.0\\
6.008629668535329	0.0\\
6.058906491518771	0.0\\
6.109815987983724	0.0\\
6.161197853831258	0.0\\
6.2125454560720215	0.0\\
6.264474908072986	0.0\\
6.315551222727082	0.0\\
6.36784934769781	0.0\\
6.420288569460748	0.0\\
6.473580497175364	0.0\\
6.527607626892218	0.0\\
6.581165851584883	0.0\\
6.635649882390716	0.0\\
6.6912445235203	0.0\\
6.7454532363408894	0.0\\
6.7993717918383965	0.0\\
6.8544316282210165	0.0\\
6.910253942567945	0.0\\
6.966655869038254	0.0\\
7.022434706232904	0.0\\
7.078209373789733	0.0\\
7.135279134967652	0.0\\
7.191866849609289	0.0\\
7.248405822452986	0.0\\
7.305641906493888	0.0\\
7.36426928062262	0.0\\
7.422827388740611	0.0\\
7.482219622596796	0.0\\
7.541042369771537	0.0\\
7.599385730751699	0.0\\
7.658670385067202	0.0\\
7.717970683670401	0.0\\
7.778017891092761	0.0\\
7.837852826761194	0.0\\
7.89725257029567	0.0\\
7.959152169391707	0.0\\
8.020157559895448	0.0\\
8.08201956161707	0.0\\
8.143695792851922	0.0\\
8.205590337756458	0.0\\
8.269451946406345	0.0\\
8.331603774635603	0.0\\
8.394227611068498	0.0\\
8.457146598626533	0.0\\
8.520433628577024	0.0\\
8.583520015702565	0.0\\
8.648313934605664	0.0\\
8.714462773425485	0.0\\
8.779887237178777	0.0\\
8.845157184624682	0.0\\
8.909741157676734	0.0\\
8.975654579369799	0.0\\
9.043085958760255	0.0\\
9.110118443288272	0.0\\
9.177510905077991	0.0\\
9.244761987000164	0.0\\
9.314098550455093	0.0\\
9.381836265144415	0.0\\
9.450847224427381	0.0\\
9.521627871201314	0.0\\
9.591360740975635	0.0\\
9.66251922718612	0.0\\
9.732446314873197	0.0\\
9.803502303986797	0.0\\
9.876403608536311	0.0\\
9.949264142285358	0.0\\
10.02166285647424	0.0\\
10.093407516516656	0.0\\
10.165348482578004	0.0\\
10.238309542026322	0.0\\
10.311260759764767	0.0\\
10.383430951741278	0.0\\
10.45772055865655	0.0\\
10.531357622333335	0.0\\
10.608088529109779	0.0\\
10.683535909628937	0.0\\
10.759139609630964	0.0\\
10.834238689509323	0.0\\
10.910002300297638	0.0\\
10.985657663707098	0.0\\
11.06230126054965	0.0\\
11.139958824023012	0.0\\
11.218301401898849	0.0\\
11.294990834155008	0.0\\
11.374837307139433	0.0\\
11.453422787695189	0.0\\
11.533284901693722	0.0\\
11.612161328419173	0.0\\
11.691872973053357	0.0\\
11.772207321791065	0.0\\
11.855195575551132	0.0\\
11.938187372729182	0.0\\
12.018758522628222	0.0\\
12.103066182246753	0.0\\
12.185549671138524	0.0\\
12.268391197856648	0.0\\
12.35126802785565	0.0\\
12.434006438079397	0.0\\
12.516931514696182	0.0\\
12.600387361672002	0.0\\
12.684240969607838	0.0\\
12.769341126407351	0.0\\
12.857900037158263	0.0\\
12.944207230603983	0.0\\
13.029958948075254	0.0\\
13.116523160088597	0.0\\
13.202302509855723	0.0\\
13.290206686673294	0.0\\
13.378766838859164	0.0\\
13.46782685101903	0.0\\
13.558467808270102	0.0\\
13.64878996300775	0.0\\
13.73781298019933	0.0\\
13.828624893105403	0.0\\
13.919527130652693	0.0\\
14.010434305264155	0.0\\
14.100449270964141	0.0\\
14.192524769748488	0.0\\
14.285266167304421	0.0\\
14.375774492364517	0.0\\
14.467624474067819	0.0\\
14.560646690107589	0.0\\
14.654239278603082	0.0\\
14.747210936408646	0.0\\
14.843457476678807	0.0\\
14.937775600102608	0.0\\
15.033440010246952	0.0\\
15.130338347992804	0.0\\
15.2276628616736	0.0\\
15.325757336570135	0.0\\
15.422704563955275	0.0\\
15.519866855016023	0.0\\
15.618449168119824	0.0\\
15.7172581965565	0.0\\
15.815515691879028	0.0\\
15.915898195838924	0.0\\
16.013697565290443	0.0\\
16.114878889965453	0.0\\
16.215652031782497	0.0\\
16.319742696607456	0.0\\
16.422924636548537	0.0\\
16.526866381918254	0.0\\
16.62948953086365	0.0\\
16.733880252975368	0.0\\
16.83857219961115	0.0\\
16.942339628315636	0.0\\
17.049308382223188	0.0\\
17.153986053735117	0.0\\
17.259756235439625	0.0\\
17.36558820736125	0.0\\
17.47261904100185	0.0\\
17.579852449306934	0.0\\
17.68671584411821	0.0\\
17.796227794001005	0.0\\
17.90582081607166	0.0\\
18.015459456601448	0.0\\
18.12477796807896	0.0\\
18.235462298887512	0.0\\
18.346383725908865	0.0\\
18.456668838422658	0.0\\
18.568860329074113	0.0\\
18.682332041413027	0.0\\
18.795552295427328	0.0\\
18.908295296608173	0.0\\
19.02104989435081	0.0\\
19.134213736196998	0.0\\
19.248948960801357	0.0\\
19.36231006895838	0.0\\
19.478106021522393	0.0\\
19.59407636926486	0.0\\
19.711886760856785	0.0\\
19.82671495246788	0.0\\
19.941956651325434	0.0\\
20.06028079882197	0.0\\
20.176113750697816	0.0\\
20.296346598172903	0.0\\
20.41493910505428	0.0\\
20.534497366440633	0.0\\
20.653811725513165	0.0\\
20.775068009869997	0.0\\
20.896036278743644	0.0\\
21.017366461022625	0.0\\
21.138943693273596	0.0\\
21.263658505219688	0.0\\
21.38774681230982	0.0\\
21.509840089154743	0.0\\
21.635847162082676	0.0\\
21.75911516728884	0.0\\
21.883015235244336	0.0\\
22.007712266276805	0.0\\
22.13344613160261	0.0\\
22.259424055033627	0.0\\
22.385044815430703	0.0\\
22.514158498145946	0.0\\
22.642127375145705	0.0\\
22.770968984621724	0.0\\
22.89761202616527	0.0\\
23.023643236639423	0.0\\
23.152652946452953	0.0\\
23.283233620946795	0.0\\
23.412652658205822	0.0\\
23.544987293080574	0.0\\
23.674545386273884	0.0\\
23.8060654276443	0.0\\
23.937247993176506	0.0\\
24.067876463844314	0.0\\
24.199953209917602	0.0\\
24.33358707332716	0.0\\
24.46726010485738	0.0\\
24.599196603634667	0.0\\
24.733489238437997	0.0\\
24.866238279120033	0.0\\
25.00040569356578	0.0\\
25.134355240333136	0.0\\
25.26920662746462	0.0\\
25.40343187346741	0.0\\
25.540824933029953	0.0\\
25.567755144751267	0.0\\
25.581458498667537	0.0\\
25.590394273878708	0.0\\
25.59491794504104	0.0\\
25.597464098305423	0.0\\
25.598802199791493	0.0\\
25.600388218816185	0.0\\
25.60656164315934	0.0\\
25.628613230036606	0.0\\
25.684145555288097	0.0\\
25.78692924537644	0.0\\
25.91280897402204	0.0\\
26.040436261254996	0.0\\
26.168132775525265	0.0\\
26.29653555804019	0.0\\
26.426776047765863	0.0\\
26.554863956198908	0.0\\
26.683913776209486	0.0\\
26.81245878475906	0.0\\
26.943285346552628	0.0\\
27.074716755543932	0.0\\
27.206934370081434	0.0\\
27.339134783062818	0.0\\
27.47367248518021	0.0\\
27.605782726735093	0.0\\
27.739619001837816	0.0\\
27.8726200620844	0.0\\
28.007807729410075	0.0\\
28.14304661944702	0.0\\
28.27782106250705	0.0\\
28.41616241544059	0.0\\
28.5530147749826	0.0\\
28.69064689708098	0.0\\
28.82889684097809	0.0\\
28.966590555931077	0.0\\
29.10556358330242	0.0\\
29.245575827740225	0.0\\
29.385711781617978	0.0\\
29.527671031037976	0.0\\
29.669189975186782	0.0\\
29.812402123928408	0.0\\
29.953829873099394	0.0\\
30.09668457625262	0.0\\
30.24079679113062	0.0\\
30.38504523145034	0.0\\
30.531079724382778	0.0\\
30.67699897433348	0.0\\
30.821965927244626	0.0\\
30.969512330474352	0.0\\
31.117186227862504	0.0\\
31.26340392604466	0.0\\
31.413439352957255	0.0\\
31.562383808442156	0.0\\
31.71310419723703	0.0\\
31.862428996670133	0.0\\
32.012833402407054	0.0\\
32.16266394208647	0.0\\
32.31336950827607	0.0\\
32.46528521733683	0.0\\
32.617707594643804	0.0\\
32.77157371578721	0.0\\
32.922942272916956	0.0\\
33.07533460356588	0.0\\
33.2294837905002	0.0\\
33.384391273940565	0.0\\
33.53730240630665	0.0\\
33.689409057569904	0.0\\
33.84789451457726	0.0\\
34.003563804368824	0.0\\
34.16059842691239	0.0\\
34.31836473702728	0.0\\
34.478578138382105	0.0\\
34.637743721462655	0.0\\
34.79745086656007	0.0\\
34.957933534977045	0.0\\
35.11783857944498	0.0\\
35.27823823162902	0.0\\
35.44062762629383	0.0\\
35.60186826006334	0.0\\
35.76500223872223	0.0\\
35.929014035732905	0.0\\
36.09181779042113	0.0\\
36.25561835488253	0.0\\
36.421260739582166	0.0\\
36.585807450608925	0.0\\
36.74942257161517	0.0\\
36.91746143269515	0.0\\
37.083501517918066	0.0\\
37.25015993372379	0.0\\
37.41712049886813	0.0\\
37.58456948312224	0.0\\
37.75407649513696	0.0\\
37.92471031205143	0.0\\
38.09198552467343	0.0\\
38.26058639698218	0.0\\
38.429119902772285	0.0\\
38.601863218911106	0.0\\
38.77031625085962	0.0\\
38.94328261970375	0.0\\
39.11633834806791	0.0\\
39.288018134659254	0.0\\
39.462957104741136	0.0\\
39.63335551502351	0.0\\
39.8069076832588	0.0\\
39.97985142037089	0.0\\
40.15236103245438	0.0\\
40.32690626448715	0.0\\
40.503942857276755	0.0\\
40.68048706045579	0.0\\
40.85570968158741	0.0\\
41.031004983492295	0.0\\
41.20966757316356	0.0\\
41.38927438403644	0.0\\
41.56572772824951	0.0\\
41.74343658016842	0.0\\
41.92275890242992	0.0\\
42.10074232894202	0.0\\
42.27855714020619	0.0\\
42.4589459021371	0.0\\
42.636650497209175	0.0\\
42.816253686969375	0.0\\
42.99854305196436	0.0\\
43.17897738249923	0.0\\
43.36039675436268	0.0\\
43.54319634507982	0.0\\
43.72688258163318	0.0\\
43.90818925224778	0.0\\
44.09422780591028	0.0\\
44.276584301812846	0.0\\
44.46142762826776	0.0\\
44.64619404862077	0.0\\
44.83324881658072	0.0\\
45.01875126699808	0.0\\
45.20550709250411	0.0\\
45.39224157484071	0.0\\
45.58100206663484	0.0\\
45.76750010648328	0.0\\
45.95316013965167	0.0\\
46.14057473216806	0.0\\
46.33137324873762	0.0\\
46.5223206257255	0.0\\
46.71155312603564	0.0\\
46.90269990605111	0.0\\
47.09255623127291	0.0\\
47.28208111331037	0.0\\
47.47189801655455	0.0\\
47.66135117987058	0.0\\
47.85258903197909	0.0\\
48.047576760265585	0.0\\
48.23951500803368	0.0\\
48.432114690672336	0.0\\
48.626613294397984	0.0\\
48.81724708996417	0.0\\
49.0128007043387	0.0\\
49.208640412176734	0.0\\
49.406101720074915	0.0\\
49.602712198842156	0.0\\
49.79912369033693	0.0\\
49.995798466645965	0.0\\
50.19325671959972	0.0\\
50.3928536418895	0.0\\
50.59205806601541	0.0\\
50.792193135276676	0.0\\
50.99229501014207	0.0\\
51.18946482763779	0.0\\
51.39030553267693	0.0\\
51.59125945201842	0.0\\
51.793051417080974	0.0\\
51.99582886164703	0.0\\
52.197191547771254	0.0\\
52.40043379976454	0.0\\
52.60408126963077	0.0\\
52.80650015942487	0.0\\
53.009049356318954	0.0\\
53.21412882239373	0.0\\
53.41976673184239	0.0\\
53.62458198631778	0.0\\
53.83505016412012	0.0\\
54.04189712593126	0.0\\
54.24808151179661	0.0\\
54.45709317758343	0.0\\
54.66603660436941	0.0\\
54.87284424574503	0.0\\
55.08154694992942	0.0\\
55.29163683216095	0.0\\
55.50065568885775	0.0\\
55.70975982171946	0.0\\
55.92012047014565	0.0\\
56.130115438774	0.0\\
56.341288453964324	0.0\\
56.556118852446076	0.0\\
56.772481225187676	0.0\\
56.98955284964127	0.0\\
57.204245839381954	0.0\\
57.41865929662066	0.0\\
57.63653094648326	0.0\\
57.85101947784817	0.0\\
58.06946529004529	0.0\\
58.28631337366747	0.0\\
58.50354827448214	0.0\\
58.722596217392194	0.0\\
58.940198008737454	0.0\\
59.16153150687565	0.0\\
59.381344682893	0.0\\
59.59925403460264	0.0\\
59.82373089909706	0.0\\
60.04779482409104	0.0\\
60.26840346425908	0.0\\
60.49184164022249	0.0\\
60.714213331132825	0.0\\
60.93975913099388	0.0\\
61.16464199976156	0.0\\
61.389153157437576	0.0\\
61.61396121917254	0.0\\
61.842644990510124	0.0\\
62.071121753123876	0.0\\
62.30068012106943	0.0\\
62.52780318150202	0.0\\
62.75601684160364	0.0\\
62.985424168203664	0.0\\
63.21570434420103	0.0\\
63.44443359324926	0.0\\
63.6763249437446	0.0\\
63.907413264703635	0.0\\
64.14108096706815	0.0\\
64.37577897814609	0.0\\
64.61087753396785	0.0\\
64.84520133891905	0.0\\
65.08125382306582	0.0\\
65.3161825810422	0.0\\
65.55398436081407	0.0\\
65.7933158807916	0.0\\
66.03246963621388	0.0\\
66.27349907767561	0.0\\
66.51273908207267	0.0\\
66.75484397051116	0.0\\
66.99531099116311	0.0\\
67.23636477191309	0.0\\
67.47742363616572	0.0\\
67.72090136991088	0.0\\
67.96527690327142	0.0\\
68.20967243991032	0.0\\
68.45657126331915	0.0\\
68.70167618307775	0.0\\
68.94572949683155	0.0\\
69.19360619798616	0.0\\
69.44304468791887	0.0\\
69.69328941713718	0.0\\
69.94223154386833	0.0\\
70.19379234855168	0.0\\
70.4429710804547	0.0\\
70.69425380168454	0.0\\
70.94457222460059	0.0\\
71.20003403999223	0.0\\
71.4531540832904	0.0\\
71.70824946365224	0.0\\
71.9637197958848	0.0\\
72.2210425220326	0.0\\
72.47998494389506	0.0\\
72.73887269348674	0.0\\
72.9988799946168	0.0\\
73.26132127414672	0.0\\
73.522082441176	0.0\\
73.78408491414152	0.0\\
74.0453185049897	0.0\\
74.30992992504684	0.0\\
74.57257633772414	0.0\\
74.83856098743809	0.0\\
75.10450072637798	0.0\\
75.37306790526227	0.0\\
75.64081700297811	0.0\\
75.9105836746553	0.0\\
76.18302582986954	0.0\\
76.4517759558646	0.0\\
76.72432249318865	0.0\\
76.99570558122656	0.0\\
77.26905902942201	0.0\\
77.54177742307914	0.0\\
77.81591433098814	0.0\\
78.09055676341256	0.0\\
78.37196036504864	0.0\\
78.64993943245327	0.0\\
78.93208157265926	0.0\\
79.21294931070872	0.0\\
79.49510168868301	0.0\\
79.77909215739717	0.0\\
80.06474398550785	0.0\\
80.34944619523438	0.0\\
80.63572288376656	0.0\\
80.9254324312447	0.0\\
81.21385804820005	0.0\\
81.50272557008563	0.0\\
81.79220340046308	0.0\\
82.08849219600535	0.0\\
82.38223487741183	0.0\\
82.67849071937493	0.0\\
82.97171099196802	0.0\\
83.26997499306648	0.0\\
83.56615785665872	0.0\\
83.86633917540286	0.0\\
84.16761809089675	0.0\\
84.4665455219857	0.0\\
84.76881737803927	0.0\\
85.07205791041142	0.0\\
85.37959657339815	0.0\\
85.68306133390206	0.0\\
85.99204653769155	0.0\\
86.3014626132975	0.0\\
86.61037198844014	0.0\\
86.92125238615765	0.0\\
87.23712994960223	0.0\\
87.55180911302523	0.0\\
87.86662499546622	0.0\\
88.18175704076822	0.0\\
88.49275795929262	0.0\\
88.8117075513967	0.0\\
89.13089476595786	0.0\\
89.45435358968788	0.0\\
89.7769611462771	0.0\\
90.09899231157667	0.0\\
90.42143169133917	0.0\\
90.74590794483444	0.0\\
91.07756667978347	0.0\\
91.41044052458253	0.0\\
91.73883336972324	0.0\\
92.06556810390774	0.0\\
92.39366668087385	0.0\\
92.72884140428533	0.0\\
93.0605001690283	0.0\\
93.39625628271097	0.0\\
93.7292064171933	0.0\\
94.06382445334947	0.0\\
94.39692380123714	0.0\\
94.73565300911545	0.0\\
95.07417187117346	0.0\\
95.40809315465239	0.0\\
95.74763587012507	0.0\\
96.0873617093068	0.0\\
96.42527683732169	0.0\\
96.76647830445842	0.0\\
97.11129726570672	0.0\\
97.45647133360069	0.0\\
97.7974047343078	0.0\\
98.13829870542091	0.0\\
98.4837287276545	0.0\\
98.82571946103522	0.0\\
99.16978500595081	0.0\\
99.51446881514792	0.0\\
99.859119873027	0.0\\
100.19982754880914	0.0\\
100.5399161407426	0.0\\
100.8787513574992	0.0\\
101.21989532677046	0.0\\
101.56347919954024	0.0\\
101.90369328413072	0.0\\
102.24561833228998	0.0\\
102.5860207434969	0.0\\
102.92891357383121	0.0\\
103.27031379205278	0.0\\
103.61231427773234	0.0\\
103.95381819029956	0.0\\
104.29458368095328	0.0\\
104.6360607715122	0.0\\
104.97839071587731	0.0\\
105.31788001668048	0.0\\
105.65656699753009	0.0\\
105.99385522881187	0.0\\
106.33416540235154	0.0\\
106.67288750027186	0.0\\
106.68633852309881	0.0\\
106.69635453304724	0.0\\
106.70479031351948	0.0\\
106.71241100473256	0.0\\
106.71508047681851	0.0\\
106.71782586716708	0.0\\
106.73181349997262	0.0\\
106.77723746366817	0.0\\
106.9199095048107	0.0\\
107.23401193484167	0.0\\
107.53561947021922	0.0\\
107.8366715339701	0.0\\
108.14035356500068	0.0\\
108.44387775429692	0.0\\
108.75133519847782	0.0\\
109.05900317458347	0.0\\
109.36863254171456	0.0\\
109.68283944110738	0.0\\
109.9966343504745	0.0\\
110.31114916779114	0.0\\
110.62657846643745	0.0\\
110.94492070367554	0.0\\
111.2654472496406	0.0\\
111.59023106794706	0.0\\
111.9139763819934	0.0\\
112.2383643397838	0.0\\
112.56592873995493	0.0\\
112.89433856763583	0.0\\
113.22500916333038	0.0\\
113.55896740358173	0.0\\
113.89217773833971	0.0\\
114.22807960074178	0.0\\
114.56481420123794	0.0\\
114.9053689191326	0.0\\
115.24641688825841	0.0\\
115.5887913090333	0.0\\
115.93175667554505	0.0\\
116.27604955137875	0.0\\
116.63066399308181	0.0\\
116.97918616537027	0.0\\
117.32859286084886	0.0\\
117.68031598880609	0.0\\
118.03524516321528	0.0\\
118.38780524572971	0.0\\
118.74077462162995	0.0\\
119.1013103174422	0.0\\
119.46487118462898	0.0\\
119.82394102950832	0.0\\
120.1889973147835	0.0\\
120.55619945749746	0.0\\
120.9257470155502	0.0\\
121.2935728191307	0.0\\
121.66086483732803	0.0\\
122.03029349066304	0.0\\
122.40068959360224	0.0\\
122.76828335467258	0.0\\
123.14171795663725	0.0\\
123.51301630246485	0.0\\
123.88451841042459	0.0\\
124.25570090592697	0.0\\
124.62687240749318	0.0\\
125.00142221618054	0.0\\
125.37269963419729	0.0\\
125.74753928580989	0.0\\
126.12027869830843	0.0\\
126.49234791813757	0.0\\
126.8676164708672	0.0\\
127.24439658028112	0.0\\
127.61799813374972	0.0\\
127.9930072827618	0.0\\
128.36964748295924	0.0\\
128.7463565919998	0.0\\
129.1239663100481	0.0\\
129.49756892210075	0.0\\
129.8734233766802	0.0\\
130.24865237624442	0.0\\
130.62522296348948	0.0\\
130.9988272369552	0.0\\
131.36999105278164	0.0\\
131.74475294165592	0.0\\
132.12123546072053	0.0\\
132.49373954230765	0.0\\
132.8664994276677	0.0\\
133.2393235561671	0.0\\
133.61206643638934	0.0\\
133.9870074588071	0.0\\
134.36129624114733	0.0\\
134.73443205178768	0.0\\
135.10838146356275	0.0\\
135.4842029227803	0.0\\
135.85713517055643	0.0\\
136.2268953764592	0.0\\
136.59977973941392	0.0\\
136.972194890847	0.0\\
137.34252785663784	0.0\\
137.7161263507531	0.0\\
138.0855854482843	0.0\\
138.45888215964789	0.0\\
138.82855134946146	0.0\\
139.20194354506003	0.0\\
139.57370294316638	0.0\\
139.9454478950048	0.0\\
140.3176258738436	0.0\\
140.68935146886236	0.0\\
141.06144771290707	0.0\\
141.43304044500718	0.0\\
141.80680248134087	0.0\\
142.1791461817582	0.0\\
142.55225002937385	0.0\\
142.92458027675815	0.0\\
143.29596740629688	0.0\\
143.6710529198067	0.0\\
144.0455798358982	0.0\\
144.41820884381735	0.0\\
144.78731751296095	0.0\\
145.1590271052766	0.0\\
145.53327592254806	0.0\\
145.90854486473745	0.0\\
146.2812064114296	0.0\\
146.65887399797805	0.0\\
147.02892309230765	0.0\\
147.40226836953417	0.0\\
147.7751093122742	0.0\\
148.1501008035989	0.0\\
148.52310841132868	0.0\\
148.89721640789668	0.0\\
149.2686123237753	0.0\\
149.64521075101533	0.0\\
150.0205092401386	0.0\\
150.39646070396526	0.0\\
150.76958572018992	0.0\\
151.14498866317263	0.0\\
151.51993328859209	0.0\\
151.89745534097096	0.0\\
152.27354633873335	0.0\\
152.6500370936207	0.0\\
153.02620061496066	0.0\\
153.40541299228516	0.0\\
153.78274952421123	0.0\\
154.1610303488141	0.0\\
154.53724005089907	0.0\\
154.9144098450871	0.0\\
155.29344880530618	0.0\\
155.67490305780552	0.0\\
156.0558899990628	0.0\\
156.43598880300237	0.0\\
156.81374890201852	0.0\\
157.1928742153579	0.0\\
157.5735753416747	0.0\\
157.95462059795943	0.0\\
158.3350777321856	0.0\\
158.7184931553473	0.0\\
159.103093041139	0.0\\
159.48633330538627	0.0\\
159.87314173636673	0.0\\
160.25727928189093	0.0\\
160.64271296304025	0.0\\
161.0276445869804	0.0\\
161.41410776790866	0.0\\
161.79951583540299	0.0\\
162.18726653307812	0.0\\
162.57323390595843	0.0\\
162.95789568406258	0.0\\
163.34791233279924	0.0\\
163.73838995990099	0.0\\
164.1272222718904	0.0\\
164.5161240634099	0.0\\
164.90574289708576	0.0\\
165.29714178288384	0.0\\
165.68819987396478	0.0\\
166.07985828020855	0.0\\
166.47281890986966	0.0\\
166.86362071686563	0.0\\
167.25583793621712	0.0\\
167.64968624767687	0.0\\
168.04444233800285	0.0\\
168.43804539770844	0.0\\
168.8320974500013	0.0\\
169.2276573899141	0.0\\
169.6233825439627	0.0\\
170.02035300228607	0.0\\
170.41800216745133	0.0\\
170.81498792403852	0.0\\
171.21263228741907	0.0\\
171.61175807690609	0.0\\
172.00988739647767	0.0\\
172.40986542725778	0.0\\
172.81440609085502	0.0\\
173.22013290958353	0.0\\
173.62445731503993	0.0\\
174.02824035665208	0.0\\
174.43188048571494	0.0\\
174.83807300048386	0.0\\
175.24201790335826	0.0\\
175.64762853509893	0.0\\
176.05595918677068	0.0\\
176.46506632282637	0.0\\
176.87356952146905	0.0\\
177.28233687744938	0.0\\
177.6923431202971	0.0\\
178.10824103722314	0.0\\
178.51968310967231	0.0\\
178.93291380133644	0.0\\
179.34671750487962	0.0\\
179.76214080107354	0.0\\
180.17542070832081	0.0\\
180.58976107521522	0.0\\
181.00727629132422	0.0\\
181.42746900181902	0.0\\
181.84790277167087	0.0\\
182.26795272776684	0.0\\
182.6888212999997	0.0\\
183.108973266882	0.0\\
183.53411889394567	0.0\\
183.95963581441453	0.0\\
184.3848324697929	0.0\\
184.80997578921995	0.0\\
185.23628567906496	0.0\\
185.66524611490706	0.0\\
186.09432938624383	0.0\\
186.52237951586454	0.0\\
186.95210667785886	0.0\\
187.38335902556958	0.0\\
187.8183772804141	0.0\\
188.25373093559625	0.0\\
188.6911939593826	0.0\\
189.12787404508282	0.0\\
189.5628525618099	0.0\\
190.00156110034368	0.0\\
190.43962909412176	0.0\\
190.87923230731792	0.0\\
191.3196198741092	0.0\\
191.76185410235496	0.0\\
192.20693885807344	0.0\\
192.65142232099333	0.0\\
193.0950876615779	0.0\\
193.5402749936274	0.0\\
193.98554229874588	0.0\\
194.4350661028255	0.0\\
194.88283249264066	0.0\\
195.33411861035057	0.0\\
195.7847749442492	0.0\\
196.23953040115987	0.0\\
196.69695864156824	0.0\\
197.15436670199483	0.0\\
197.61415379123628	0.0\\
198.07446050168448	0.0\\
198.5339691126557	0.0\\
198.99769966488225	0.0\\
199.46144317997897	0.0\\
199.92349219753697	0.0\\
200.39186220229794	0.0\\
200.85855695655118	0.0\\
201.3320686638287	0.0\\
201.8081628245389	0.0\\
202.28199077456912	0.0\\
202.75714789055456	0.0\\
203.23429859392115	0.0\\
203.71229340412475	0.0\\
204.19252621898715	0.0\\
204.6728356642679	0.0\\
205.15438473521317	0.0\\
205.6413618219077	0.0\\
206.1285402082899	0.0\\
206.61887614711526	0.0\\
207.10643413894633	0.0\\
207.6001016913084	0.0\\
208.0949260729427	0.0\\
208.59000321918796	0.0\\
209.0879268927336	0.0\\
209.58683613266908	0.0\\
210.09184646871796	0.0\\
210.5935160195749	0.0\\
211.10133042315624	0.0\\
211.6111256571332	0.0\\
212.1208452924963	0.0\\
212.63589622859973	0.0\\
213.14946523546416	0.0\\
213.66939609183316	0.0\\
214.18858746701443	0.0\\
214.71141777304285	0.0\\
215.23984714164453	0.0\\
215.76933641830044	0.0\\
216.30251067976377	0.0\\
216.83590320411184	0.0\\
217.37745426318264	0.0\\
217.91620797575308	0.0\\
218.46378384061268	0.0\\
219.013452414102	0.0\\
219.5667812802959	0.0\\
220.1225066453187	0.0\\
220.68137274287443	0.0\\
221.24326295961913	0.0\\
221.80649694001147	0.0\\
222.372413877135	0.0\\
222.9429463380216	0.0\\
223.5163956911975	0.0\\
224.09717786593376	0.0\\
224.67858669278337	0.0\\
225.26219209829964	0.0\\
225.84896424041114	0.0\\
226.4439145920216	0.0\\
227.03594928457676	0.0\\
227.6399910353074	0.0\\
228.2449501271929	0.0\\
228.85234745130685	0.0\\
229.46598824568127	0.0\\
230.08682694113344	0.0\\
230.7059847897517	0.0\\
231.32601262225353	0.0\\
231.9486194057879	0.0\\
232.57281463233807	0.0\\
233.19565923399244	0.0\\
233.83260586161174	0.0\\
234.4659261425565	0.0\\
235.09274600913852	0.0\\
235.72616367396716	0.0\\
236.35623036613714	0.0\\
236.98932308552918	0.0\\
237.61607390184872	0.0\\
238.24977647074496	0.0\\
238.8740545036851	0.0\\
239.49689940114462	0.0\\
240.12129519560057	0.0\\
240.74125453097275	0.0\\
241.35766091917014	0.0\\
241.96781755649323	0.0\\
242.57743781089778	0.0\\
243.18834327374395	0.0\\
243.79452620661834	0.0\\
244.39708391300042	0.0\\
244.99514105477988	0.0\\
245.5911473622823	0.0\\
246.18264109163158	0.0\\
246.77088913133917	0.0\\
247.35883078113721	0.0\\
247.94594823478872	0.0\\
248.52628392650098	0.0\\
249.1047858993495	0.0\\
249.67960234529107	0.0\\
250.2489295149585	0.0\\
250.81940544518955	0.0\\
251.38279642944684	0.0\\
251.9511326046856	0.0\\
252.51859122839454	0.0\\
253.08096007129558	0.0\\
253.64007284582908	0.0\\
254.1966433062338	0.0\\
254.3077204769216	0.0\\
254.61992503884244	0.0\\
254.6540262319764	0.0\\
254.67730928017232	0.0\\
254.68722231422845	0.0\\
254.69631866298528	0.0\\
254.73521640901936	0.0\\
254.8663357031213	0.0\\
255.29370703959808	0.0\\
255.77392366200746	0.0\\
256.2581464918834	0.0\\
256.7459280662333	0.0\\
257.2362926823157	0.0\\
257.72988336294054	0.0\\
258.22567892211373	0.0\\
258.72360203060657	0.0\\
259.22434098348765	0.0\\
259.72850434032944	0.0\\
260.2363028972786	0.0\\
260.7456403434172	0.0\\
261.2594154008692	0.0\\
261.7747053219813	0.0\\
262.2947849436208	0.0\\
262.8167214550001	0.0\\
263.34219654524316	0.0\\
263.8724459254487	0.0\\
264.4048629689246	0.0\\
264.9455860431599	0.0\\
265.4843869052494	0.0\\
266.03194750837304	0.0\\
266.58096248280356	0.0\\
267.1340662897843	0.0\\
267.6913130637381	0.0\\
268.25209595306796	0.0\\
268.8201854014951	0.0\\
269.39115139761725	0.0\\
269.9664858356382	0.0\\
270.54750866256666	0.0\\
271.1312710139106	0.0\\
271.72304232112754	0.0\\
272.3159681087236	0.0\\
272.9153705054988	0.0\\
273.51777531464245	0.0\\
274.12404516199524	0.0\\
274.73558566679526	0.0\\
275.3558599739572	0.0\\
275.97858357303585	0.0\\
276.6075202569551	0.0\\
277.23680528437694	0.0\\
277.8682659881449	0.0\\
278.50533263924683	0.0\\
279.1439317096887	0.0\\
279.78139626885365	0.0\\
280.41857404264215	0.0\\
281.06067285404436	0.0\\
281.69896919903874	0.0\\
282.33865065381224	0.0\\
282.97632237800156	0.0\\
283.6171475177488	0.0\\
284.2510745459706	0.0\\
284.88413272704713	0.0\\
285.5139727721846	0.0\\
286.1396311749662	0.0\\
286.76456023374135	0.0\\
287.3891107846531	0.0\\
288.0075321704861	0.0\\
288.6224373742773	0.0\\
289.2390791906348	0.0\\
289.8517214413664	0.0\\
290.46267914434145	0.0\\
291.072580321102	0.0\\
291.6781945420304	0.0\\
292.28342568453036	0.0\\
292.8861824173724	0.0\\
293.4888372792676	0.0\\
294.0889439604563	0.0\\
294.6841108189153	0.0\\
295.2789299855208	0.0\\
295.8722994817199	0.0\\
296.4669715275919	0.0\\
297.05903039116004	0.0\\
297.64597159773996	0.0\\
298.2364154028637	0.0\\
298.8231337367372	0.0\\
299.4058052057875	0.0\\
299.98881513415347	0.0\\
300.56974861219703	0.0\\
301.15228546233766	0.0\\
301.7306557130664	0.0\\
302.3091334138036	0.0\\
302.884643394102	0.0\\
303.4646542357639	0.0\\
304.0374918952699	0.0\\
304.6090649237541	0.0\\
305.1844008956417	0.0\\
305.75456412068957	0.0\\
306.3241780145788	0.0\\
306.89266702006046	0.0\\
307.46024732441447	0.0\\
308.0310277574763	0.0\\
308.6001189881349	0.0\\
309.16666307078594	0.0\\
309.73199945043075	0.0\\
310.30069010121576	0.0\\
310.86670218170264	0.0\\
311.43447660658603	0.0\\
311.99751149448093	0.0\\
312.56154608964096	0.0\\
313.124112548054	0.0\\
313.6861452216551	0.0\\
314.2485746298536	0.0\\
314.81113140244383	0.0\\
315.3745594939344	0.0\\
315.93588404418824	0.0\\
316.49509569778763	0.0\\
317.05598641299275	0.0\\
317.6153566626507	0.0\\
318.1787708964083	0.0\\
318.73635486845274	0.0\\
319.29592654902854	0.0\\
319.858776620522	0.0\\
320.41703721774115	0.0\\
320.97891611497005	0.0\\
321.541195670275	0.0\\
322.10067675279595	0.0\\
322.6627499694856	0.0\\
323.2208347446914	0.0\\
323.7803834312523	0.0\\
324.34030497255037	0.0\\
324.90142640781255	0.0\\
325.4632594673184	0.0\\
326.0204508619986	0.0\\
326.5823509649973	0.0\\
327.13993772512106	0.0\\
327.7009632632672	0.0\\
328.2592873775744	0.0\\
328.82293156554033	0.0\\
329.3870212394695	0.0\\
329.94784387729965	0.0\\
330.50952403697215	0.0\\
331.07027971529214	0.0\\
331.63206748704727	0.0\\
332.19572570749153	0.0\\
332.75843365745675	0.0\\
333.3206989205272	0.0\\
333.88210748533186	0.0\\
334.4444786757033	0.0\\
335.0073291070994	0.0\\
335.56998864088155	0.0\\
336.1326331271596	0.0\\
336.69744254864247	0.0\\
337.25837209219947	0.0\\
337.8219534819998	0.0\\
338.3863709567404	0.0\\
338.9529439451982	0.0\\
339.5201761836855	0.0\\
340.0844387670868	0.0\\
340.64779611907124	0.0\\
341.2130760405038	0.0\\
341.77933989441465	0.0\\
342.34620671000914	0.0\\
342.9145228346167	0.0\\
343.4811255419212	0.0\\
344.0506361989238	0.0\\
344.6196032917136	0.0\\
345.19015933004493	0.0\\
345.7595459878311	0.0\\
346.3286524549286	0.0\\
346.89496467435356	0.0\\
347.4669023822362	0.0\\
348.0387379988771	0.0\\
348.6108389789051	0.0\\
349.18224599516066	0.0\\
349.75370596448545	0.0\\
350.3286537308429	0.0\\
350.9064260157011	0.0\\
351.48165407972283	0.0\\
352.0568182978086	0.0\\
352.63167834839294	0.0\\
353.21053573319887	0.0\\
353.7867988389537	0.0\\
354.3666581589621	0.0\\
354.94625898445975	0.0\\
355.5259761787205	0.0\\
356.1080271955856	0.0\\
356.687261979946	0.0\\
357.26761752540403	0.0\\
357.8496620771125	0.0\\
358.43320159295024	0.0\\
359.0178003843555	0.0\\
359.5996930841021	0.0\\
360.1843098957172	0.0\\
360.77173407790724	0.0\\
361.35755416730865	0.0\\
361.946360957558	0.0\\
362.53470502176447	0.0\\
363.12585271339447	0.0\\
363.71718831505416	0.0\\
364.30709094271594	0.0\\
364.89964695045376	0.0\\
365.49223190273494	0.0\\
366.08592220036087	0.0\\
366.6790985470526	0.0\\
367.27344169665014	0.0\\
367.87230792798107	0.0\\
368.4696913053939	0.0\\
369.06744866012923	0.0\\
369.6682494827154	0.0\\
370.26668110620267	0.0\\
370.86748342354895	0.0\\
371.4671190218172	0.0\\
372.0698487472732	0.0\\
372.6716791251878	0.0\\
373.2754416316268	0.0\\
373.87976271212096	0.0\\
374.4852288034821	0.0\\
375.0921748991303	0.0\\
375.70273818557575	0.0\\
376.3110708999344	0.0\\
376.9218025332758	0.0\\
377.53237910072926	0.0\\
378.1473721486524	0.0\\
378.7634580205772	0.0\\
379.3794934847749	0.0\\
379.9928739069163	0.0\\
380.61091581206483	0.0\\
381.2316196990174	0.0\\
381.85375684448695	0.0\\
382.4748016799608	0.0\\
383.0977872388943	0.0\\
383.721843477942	0.0\\
384.3487936118097	0.0\\
384.9734933428982	0.0\\
385.60021198891525	0.0\\
386.2279145387091	0.0\\
386.86091767624714	0.0\\
387.4932995003704	0.0\\
388.12447750841784	0.0\\
388.7600837792312	0.0\\
389.39480991634855	0.0\\
390.032233730764	0.0\\
390.6693526065909	0.0\\
391.3098307264004	0.0\\
391.9504258343393	0.0\\
392.59391053758554	0.0\\
393.23650472912186	0.0\\
393.88277533536507	0.0\\
394.5289140742826	0.0\\
395.17672469206366	0.0\\
395.8296674826529	0.0\\
396.4806110233525	0.0\\
397.13178089056555	0.0\\
397.7878216079712	0.0\\
398.44471841093525	0.0\\
399.1022428442286	0.0\\
399.7634055092693	0.0\\
400.4282326720139	0.0\\
401.09461037155904	0.0\\
401.76078813241736	0.0\\
402.4278506833291	0.0\\
403.094619832734	0.0\\
403.7643899221522	0.0\\
404.43921343184354	0.0\\
405.11424930816395	0.0\\
405.7911013245017	0.0\\
406.4701303810009	0.0\\
407.1501026822589	0.0\\
407.832389081183	0.0\\
408.52207667921175	0.0\\
409.212444145758	0.0\\
409.9002861097812	0.0\\
410.59391434664917	0.0\\
411.2873372996953	0.0\\
411.98684167076215	0.0\\
412.6862323092356	0.0\\
413.3873973015561	0.0\\
414.0918454312184	0.0\\
414.7977066266012	0.0\\
415.50786752205465	0.0\\
416.2160401649138	0.0\\
416.9324821199996	0.0\\
417.6493000485427	0.0\\
418.36858677220994	0.0\\
419.0915781076827	0.0\\
419.81549568096807	0.0\\
420.5435054242637	0.0\\
421.275307280472	0.0\\
422.01059259164913	0.0\\
422.7506124342693	0.0\\
423.4926363308624	0.0\\
424.2362381826897	0.0\\
424.9823486369661	0.0\\
425.73666155429794	0.0\\
426.4915940709285	0.0\\
427.25367416483664	0.0\\
428.0213405269802	0.0\\
428.79269356772204	0.0\\
429.56184692888996	0.0\\
430.3367580334368	0.0\\
431.1168349797242	0.0\\
431.9035907429885	0.0\\
432.6931576111091	0.0\\
433.49507493912165	0.0\\
434.29203238694186	0.0\\
435.09518586606146	0.0\\
435.90351136735865	0.0\\
436.7182965809725	0.0\\
437.54092835903066	0.0\\
438.36745881395393	0.0\\
439.20313460297757	0.0\\
440.042291058126	0.0\\
440.8890924332619	0.0\\
441.7416364967236	0.0\\
442.60591322503444	0.0\\
443.47818457428843	0.0\\
444.3586560008031	0.0\\
445.24578344127167	0.0\\
446.14414991403805	0.0\\
447.0518357966099	0.0\\
447.9701043249313	0.0\\
448.90187990659933	0.0\\
449.8418841403211	0.0\\
450.7945613743618	0.0\\
451.75433422634876	0.0\\
452.7307692155099	0.0\\
453.71165181917786	0.0\\
454.7146148106857	0.0\\
455.7271866270555	0.0\\
456.7438670004241	0.0\\
457.7720363961306	0.0\\
458.8040532490967	0.0\\
459.83054580528164	0.0\\
460.8551599926618	0.0\\
461.8743655199712	0.0\\
462.8854935448767	0.0\\
463.88415130933083	0.0\\
464.8794886470761	0.0\\
465.85748070814896	0.0\\
466.83290367162067	0.0\\
467.7949289061071	0.0\\
468.74017049361976	0.0\\
469.6792739068477	0.0\\
470.6059249881574	0.0\\
471.52522602929844	0.0\\
472.43044322681294	0.0\\
473.3316976090159	0.0\\
474.2225309711994	0.0\\
475.1094376717248	0.0\\
475.985605152237	0.0\\
476.8565104468797	0.0\\
477.7219299854121	0.0\\
478.57806609110764	0.0\\
479.43441589273266	0.0\\
480.2770408894778	0.0\\
481.11304296071773	0.0\\
481.948836075402	0.0\\
482.78197330289845	0.0\\
483.60989306348483	0.0\\
484.4281070253486	0.0\\
485.2455713307045	0.0\\
486.0565352358684	0.0\\
486.8655434048902	0.0\\
487.67076328343876	0.0\\
488.472738607039	0.0\\
489.26803335440843	0.0\\
490.0580666362746	0.0\\
490.8453183053358	0.0\\
491.6291506096743	0.0\\
492.4095804324204	0.0\\
492.5649967312713	0.0\\
492.6516595821603	0.0\\
492.6671911758873	0.0\\
492.6876475082803	0.0\\
492.71041656447073	0.0\\
492.82579541808445	0.0\\
493.2236684617195	0.0\\
493.94482187863105	0.0\\
494.7119690372581	0.0\\
495.4814814918336	0.0\\
496.25343868580353	0.0\\
497.03251951913126	0.0\\
497.8179039275153	0.0\\
498.60458107172826	0.0\\
499.3993036091665	0.0\\
500.19688862738667	0.0\\
501.00119712181754	0.0\\
501.8113009232459	0.0\\
502.62683615097876	0.0\\
503.4475170884183	0.0\\
504.27569320069586	0.0\\
505.1090624541323	0.0\\
505.950096410142	0.0\\
506.7964673135757	0.0\\
507.65149549020487	0.0\\
508.5064325064069	0.0\\
509.3746656660186	0.0\\
510.25229841484213	0.0\\
511.1354147282849	0.0\\
512.0269501496575	0.0\\
512.9273109338046	0.0\\
513.8352802748097	0.0\\
514.7546341861391	0.0\\
515.6861780199006	0.0\\
516.6267705625803	0.0\\
517.575870821423	0.0\\
518.5376274993271	0.0\\
519.5131849602815	0.0\\
520.4957822345696	0.0\\
521.4851364078777	0.0\\
522.4928827184362	0.0\\
523.5018107851968	0.0\\
524.5216592664683	0.0\\
525.5517914657171	0.0\\
526.5931397856568	0.0\\
527.6294915723893	0.0\\
528.6753956170039	0.0\\
529.7249587960587	0.0\\
530.771600839561	0.0\\
531.8093891668307	0.0\\
532.8458994926586	0.0\\
533.8822076592512	0.0\\
534.9047378125501	0.0\\
535.9236231803727	0.0\\
536.9383025960176	0.0\\
537.9400490885826	0.0\\
538.9336064946176	0.0\\
539.9171567919943	0.0\\
540.9021784600029	0.0\\
541.8721055431047	0.0\\
542.8416283357637	0.0\\
543.7989423249587	0.0\\
544.7537608354726	0.0\\
545.6979132247245	0.0\\
546.6407598155236	0.0\\
547.5772024632181	0.0\\
548.5088587117996	0.0\\
549.4398911508254	0.0\\
550.3597181018363	0.0\\
551.2725514189933	0.0\\
552.1840610421309	0.0\\
553.0997732467338	0.0\\
554.0093166801116	0.0\\
554.9130238196369	0.0\\
555.8135990456678	0.0\\
556.7067399356756	0.0\\
557.6071386313438	0.0\\
558.5018097143977	0.0\\
559.3904242392273	0.0\\
560.2777007930724	0.0\\
561.1593846746457	0.0\\
562.0408543155174	0.0\\
562.915115883553	0.0\\
563.7952854056043	0.0\\
564.6734995675674	0.0\\
565.5462071063898	0.0\\
566.4188034029767	0.0\\
567.2879929309852	0.0\\
568.1540183267321	0.0\\
569.0193740497468	0.0\\
569.882899087864	0.0\\
570.7469233777035	0.0\\
571.606000438627	0.0\\
572.4620713128279	0.0\\
573.3180138995219	0.0\\
574.175404644144	0.0\\
575.0318953867643	0.0\\
575.8834592864603	0.0\\
576.7354369483255	0.0\\
577.5867214346147	0.0\\
578.4403741646397	0.0\\
579.2910746757391	0.0\\
580.1424211647766	0.0\\
580.9938594918376	0.0\\
581.8408038956704	0.0\\
582.68948310818	0.0\\
583.538395052366	0.0\\
584.3877827281894	0.0\\
585.2324209928533	0.0\\
586.0795471720737	0.0\\
586.9253127115787	0.0\\
587.7670258411376	0.0\\
588.6124133441299	0.0\\
589.4525154433761	0.0\\
590.2942692198678	0.0\\
591.1391463561699	0.0\\
591.9820374935707	0.0\\
592.8254968827305	0.0\\
593.6658663176804	0.0\\
594.5039399785567	0.0\\
595.3440077433959	0.0\\
596.1825895312681	0.0\\
597.0238645108168	0.0\\
597.8618839764235	0.0\\
598.7011072958546	0.0\\
599.5416131083136	0.0\\
600.3800299657371	0.0\\
601.2168818010755	0.0\\
602.0515138886797	0.0\\
602.8904856594972	0.0\\
603.7308767624072	0.0\\
604.5712792715622	0.0\\
605.4116781725675	0.0\\
606.2540518524054	0.0\\
607.0929396516851	0.0\\
607.9323280379517	0.0\\
608.7736001890037	0.0\\
609.614300139601	0.0\\
610.4538320852444	0.0\\
611.2951140701191	0.0\\
612.1357879204659	0.0\\
612.9741265410116	0.0\\
613.8139176055213	0.0\\
614.6528672998791	0.0\\
615.495297652488	0.0\\
616.3364364259596	0.0\\
617.1780008394433	0.0\\
618.0175032600484	0.0\\
618.8606400409212	0.0\\
619.7023691632482	0.0\\
620.5456477160164	0.0\\
621.3885290727483	0.0\\
622.233594283708	0.0\\
623.0781644649842	0.0\\
623.9232435178274	0.0\\
624.7675306925084	0.0\\
625.6119721098669	0.0\\
626.4565642968269	0.0\\
627.3015825694795	0.0\\
628.1475984506151	0.0\\
628.9950292449928	0.0\\
629.8436569663957	0.0\\
630.6916754698357	0.0\\
631.5378197995483	0.0\\
632.3835285341515	0.0\\
633.235109723249	0.0\\
634.0889007870567	0.0\\
634.9446424191926	0.0\\
635.7954116659998	0.0\\
636.6476670479549	0.0\\
637.5034833349898	0.0\\
638.3565119796817	0.0\\
639.2128729506699	0.0\\
640.0679612006952	0.0\\
640.9269906705463	0.0\\
641.788143075197	0.0\\
642.6500960557171	0.0\\
643.5103203068036	0.0\\
644.3714076586505	0.0\\
645.2337178593054	0.0\\
646.0917841453111	0.0\\
646.9560724148864	0.0\\
647.8178642936477	0.0\\
648.6817226912349	0.0\\
649.5505947441745	0.0\\
650.4113150733508	0.0\\
651.2825650367145	0.0\\
652.1505869450998	0.0\\
653.0205887414888	0.0\\
653.8894343460895	0.0\\
654.7606204923486	0.0\\
655.6376638117265	0.0\\
656.5117004845622	0.0\\
657.3856232394658	0.0\\
658.2603356541733	0.0\\
659.137535232243	0.0\\
660.0175532366588	0.0\\
660.8973858319789	0.0\\
661.7758194534874	0.0\\
662.6552330743659	0.0\\
663.536246936495	0.0\\
664.4210631338804	0.0\\
665.3040653657363	0.0\\
666.1902762395673	0.0\\
667.0783069611748	0.0\\
667.9645449007785	0.0\\
668.8576833123532	0.0\\
669.7515666236413	0.0\\
670.6445175521146	0.0\\
671.5386911503358	0.0\\
672.4358117937709	0.0\\
673.3341595313584	0.0\\
674.2313913422763	0.0\\
675.1259356668816	0.0\\
676.0263459416931	0.0\\
676.9295296869905	0.0\\
677.8267412311793	0.0\\
678.7316226716612	0.0\\
679.6363715226485	0.0\\
680.5418338934519	0.0\\
681.4479748689744	0.0\\
682.3547779482578	0.0\\
683.2656233565951	0.0\\
684.176336355581	0.0\\
685.0917345773989	0.0\\
686.007479873185	0.0\\
686.922023558298	0.0\\
687.8430677230333	0.0\\
688.7588613957571	0.0\\
689.6778426194385	0.0\\
690.6010683667496	0.0\\
691.5240041089758	0.0\\
692.4502436252585	0.0\\
693.3819697227232	0.0\\
694.3120160755602	0.0\\
695.2437221123339	0.0\\
696.1777402557921	0.0\\
697.1166425067788	0.0\\
698.0573197449075	0.0\\
698.9980543733786	0.0\\
699.9349362080295	0.0\\
700.8787155789241	0.0\\
701.8242207506999	0.0\\
702.7689089839655	0.0\\
703.7154073869024	0.0\\
704.6588181365319	0.0\\
705.6135840773536	0.0\\
706.5711841493594	0.0\\
707.5275582630516	0.0\\
708.4840589336618	0.0\\
709.4473491225829	0.0\\
710.4065044904748	0.0\\
711.3703378759878	0.0\\
712.3368232415646	0.0\\
713.3034220562915	0.0\\
714.2731662057595	0.0\\
715.2429484298857	0.0\\
716.2158962090809	0.0\\
717.1945253628733	0.0\\
718.1766229477246	0.0\\
719.158645612378	0.0\\
720.1435863410827	0.0\\
721.1293798938984	0.0\\
722.1225852164237	0.0\\
723.116119005412	0.0\\
724.11217357503	0.0\\
725.1111254981154	0.0\\
726.1140858682738	0.0\\
727.1148231685409	0.0\\
728.1216078899681	0.0\\
729.1298608517018	0.0\\
730.1382900240717	0.0\\
731.1527142819211	0.0\\
732.1754864447985	0.0\\
733.19851871684	0.0\\
734.2225105254197	0.0\\
735.2491046249856	0.0\\
736.278928741895	0.0\\
737.311255859523	0.0\\
738.3513409025061	0.0\\
739.3876362815404	0.0\\
740.4330127612764	0.0\\
741.4794624324943	0.0\\
742.5343070098579	0.0\\
743.5865721325376	0.0\\
744.6407719849733	0.0\\
745.7042449013611	0.0\\
746.7705759440171	0.0\\
747.8379574647504	0.0\\
748.9081709994664	0.0\\
749.9841362468953	0.0\\
751.0647853701064	0.0\\
752.1503180003481	0.0\\
753.2400248519714	0.0\\
754.3339858116249	0.0\\
755.4339269705231	0.0\\
756.5325183297423	0.0\\
757.6403045604707	0.0\\
758.7508244815292	0.0\\
759.8640603793215	0.0\\
760.9809219532167	0.0\\
762.1064248794937	0.0\\
763.2412515613771	0.0\\
764.3806948868764	0.0\\
765.526304108975	0.0\\
766.6784104409674	0.0\\
767.8299531785067	0.0\\
768.9928440193341	0.0\\
770.1583782726307	0.0\\
771.3318731902839	0.0\\
772.5118181194957	0.0\\
773.7023722103625	0.0\\
774.902165372496	0.0\\
776.1036776145668	0.0\\
776.7286214557716	0.0\\
777.3183961557686	0.0\\
778.5359343082143	0.0\\
779.757158750841	0.0\\
780.9986829736229	0.0\\
782.2461059374496	0.0\\
783.5049793139417	0.0\\
784.7702066548804	0.0\\
786.0519296805448	0.0\\
787.3438509479461	0.0\\
788.6431323710858	0.0\\
789.9563009019269	0.0\\
791.2777606441489	0.0\\
792.6165885086925	0.0\\
793.9697536644501	0.0\\
795.3423725390237	0.0\\
796.7350468730028	0.0\\
798.1487085113527	0.0\\
799.5813458283553	0.0\\
801.0314325643335	0.0\\
802.5033124360889	0.0\\
804.0029770476017	0.0\\
805.5180353995177	0.0\\
807.0705420248942	0.0\\
808.653085666502	0.0\\
810.266514132865	0.0\\
811.9044988369503	0.0\\
813.5772223669076	0.0\\
815.2706618531331	0.0\\
816.9808566626623	0.0\\
818.6920901818974	0.0\\
820.39107244299	0.0\\
822.0495137589955	0.0\\
823.6943590877313	0.0\\
825.3036935106672	0.0\\
826.8926780287088	0.0\\
828.4527706305435	0.0\\
829.9862315413711	0.0\\
831.4951537320512	0.0\\
832.9895408087161	0.0\\
834.463643680089	0.0\\
835.9251069657744	0.0\\
837.3556281454648	0.0\\
838.7720376996865	0.0\\
840.1735221377726	0.0\\
841.5658838225565	0.0\\
842.9449670303445	0.0\\
844.3119588879333	0.0\\
845.6658086083887	0.0\\
847.0151145102177	0.0\\
848.3494837477851	0.0\\
849.6790137275527	0.0\\
850.9963005240543	0.0\\
852.3078797531284	0.0\\
853.6110131732185	0.0\\
854.9088141583577	0.0\\
856.1967392321078	0.0\\
857.4822935640866	0.0\\
858.7575234288661	0.0\\
860.0267615936884	0.0\\
861.2881169569791	0.0\\
862.5486862625839	0.0\\
863.8021310282309	0.0\\
865.0514148035415	0.0\\
866.2886003725596	0.0\\
866.5356700171367	0.0\\
866.6802882966913	0.0\\
866.6955811036873	0.0\\
866.710092133307	0.0\\
866.7794657771378	0.0\\
867.0740563434779	0.0\\
868.0194204648406	0.0\\
869.290220314442	0.0\\
870.5745217702888	0.0\\
871.8692369492289	0.0\\
873.1726497779944	0.0\\
874.4804739811891	0.0\\
875.8093068311516	0.0\\
877.1521492882475	0.0\\
878.509330635912	0.0\\
879.8759635051676	0.0\\
881.2578498086084	0.0\\
882.6547567498237	0.0\\
884.0643933256081	0.0\\
885.4891910972792	0.0\\
886.9325982126784	0.0\\
888.3933747662929	0.0\\
889.8793478058994	0.0\\
891.382628765648	0.0\\
892.9128741590914	0.0\\
894.457203919754	0.0\\
896.027214698649	0.0\\
897.6233804324465	0.0\\
899.2410607896747	0.0\\
900.8831151075453	0.0\\
902.5431100684127	0.0\\
904.2290103240914	0.0\\
905.9205275293016	0.0\\
907.6348980220168	0.0\\
909.3479369148499	0.0\\
911.0476721932364	0.0\\
912.7505960611122	0.0\\
914.4261597430886	0.0\\
916.0888197020545	0.0\\
917.729908553996	0.0\\
919.3672304586571	0.0\\
920.9695490862111	0.0\\
922.5707203160962	0.0\\
924.1580606118141	0.0\\
925.7153072682247	0.0\\
927.2720492864912	0.0\\
928.8098632384649	0.0\\
930.3317279426376	0.0\\
931.8475190934396	0.0\\
933.3523742706466	0.0\\
934.8497155746902	0.0\\
936.3295597133906	0.0\\
937.8029308422706	0.0\\
939.2780505492515	0.0\\
940.7440071664728	0.0\\
942.1939970662124	0.0\\
943.6394896392621	0.0\\
945.0796409653508	0.0\\
946.5084840095406	0.0\\
947.9381890194961	0.0\\
949.3544000277705	0.0\\
950.76904127748	0.0\\
952.179937777935	0.0\\
953.5800718547773	0.0\\
954.9803704335459	0.0\\
956.3768954618654	0.0\\
957.7752085358104	0.0\\
959.1627981715274	0.0\\
960.5560594295932	0.0\\
961.9467699322365	0.0\\
963.3321272268317	0.0\\
964.7095190254142	0.0\\
966.0879224765188	0.0\\
967.4575456825576	0.0\\
968.8209126814806	0.0\\
970.190015362519	0.0\\
971.5512045783921	0.0\\
972.9072131011262	0.0\\
974.2666174634912	0.0\\
975.6256852309632	0.0\\
976.9797967767427	0.0\\
978.3290234594283	0.0\\
979.6820650600812	0.0\\
981.0339381369363	0.0\\
982.3881391825298	0.0\\
983.7375235741379	0.0\\
983.9738273109056	0.0011986693081413279\\
984.1949411950234	0.0023383404442422987\\
984.413643568065	0.00348241712284393\\
984.6506117427084	0.004740333590746038\\
984.8901906446645	0.006031920974809056\\
985.111404002884	0.007242745022749238\\
985.3509823735783	0.008572766514408695\\
985.590231969898	0.009920902655874152\\
985.8304094607226	0.011294263533999531\\
986.0608177376664	0.012630884311967145\\
986.2959974531552	0.01401407107839334\\
986.5361795547772	0.015446359384892916\\
986.7756885191848	0.01689459592305642\\
987.0050652037448	0.01830050951272324\\
987.2454669118763	0.01979326072966038\\
987.4796825359444	0.021267046077695154\\
987.7041404574427	0.022697536684750295\\
987.9183650803288	0.024079352033435086\\
988.1580657945221	0.02564358829919912\\
988.3940924424073	0.027203383339676618\\
988.6355225432499	0.028818665926269305\\
988.8775343790105	0.030458049892571115\\
989.1173528193742	0.03210260661365444\\
989.3573197836372	0.03376806253440884\\
989.5993982139289	0.03546825572061264\\
989.838392363657	0.037166715301824735\\
990.0794600350653	0.03889980954978885\\
990.3143226313773	0.04060773987311096\\
990.5510049895295	0.04234808182878354\\
990.7939671514084	0.044154485193018816\\
991.0364133001419	0.045977326024225634\\
991.2793339643069	0.04782400750052443\\
991.5121490481595	0.04961319891670665\\
991.7558545481193	0.05150572480855828\\
991.996600839205	0.05339539515193656\\
992.2302729867138	0.05524877616995576\\
992.472107835564	0.05718639986786456\\
992.7162858274714	0.059163088205488115\\
992.9494406881709	0.06106993554864901\\
993.1885077691402	0.06304431451095963\\
993.4246151256032	0.06501355417733304\\
993.6688466239257	0.06707040129543118\\
993.9116913332944	0.06913585356295215\\
994.1556337564689	0.0712309229274169\\
994.391404793241	0.07327538272130166\\
994.623904530439	0.0753101724762317\\
994.8692182679276	0.07747675086243305\\
995.1146846119116	0.0796652395217613\\
995.348551962614	0.08176976986151768\\
995.5901503691659	0.08396323783168472\\
995.8307027022233	0.0861670098186395\\
996.0726165836213	0.08840310188396336\\
996.3055789291416	0.09057554121802514\\
996.551318566492	0.09288677903556808\\
996.793329627953	0.0951831385131264\\
997.0357944711996	0.09750376462505128\\
997.2833259296995	0.09989334641703246\\
997.5242925344251	0.10223973744811662\\
997.7613675565842	0.10456758569136415\\
997.9832894708493	0.10676433147202147\\
998.2288772551929	0.10921411856482771\\
998.4742696490814	0.11168238682898107\\
998.7221533826446	0.11419635794392455\\
998.9703216875203	0.11673405371436762\\
999.2187089934032	0.11929485796128039\\
999.4681418265716	0.12188741582188004\\
999.7175569264978	0.12450082609420088\\
999.9585567629067	0.12704627337237867\\
1000.2079048712719	0.12970029782976678\\
1000.4543812659288	0.13234446971915126\\
1000.7014884446507	0.1350159676761466\\
1000.9506796781181	0.1377307889631697\\
1001.1995898111747	0.14046345108893848\\
1001.44062720226	0.1431297995012481\\
1001.6890716049991	0.14589833861249346\\
1001.9358789004098	0.148669249219892\\
1002.1843990212278	0.15148004063581982\\
1002.4204824623764	0.15416974867338196\\
1002.6712284338537	0.1570465784379787\\
1002.918458415621	0.1599038423892784\\
1003.1664921852519	0.16279098567124206\\
1003.4128851363309	0.16567950868150277\\
1003.6546395002413	0.16853356608963\\
1003.906333207563	0.17152547474517504\\
1004.1525451436089	0.17447290654597353\\
1004.4043193818975	0.1775077416550011\\
1004.6569962772162	0.18057474862587514\\
1004.9006459423665	0.18355265599887072\\
1005.1315737047885	0.18639373022031308\\
1005.385799468703	0.18954133334735002\\
1005.6355215181136	0.19265430940591505\\
1005.8848268337572	0.1957828527947042\\
1006.1387891021029	0.19899100256799646\\
1006.3890203186108	0.2021731487919326\\
1006.637061175622	0.2053480827240785\\
1006.886990131962	0.20856783957177855\\
1007.1398441344963	0.2118463355292604\\
1007.383438170182	0.21502513266868262\\
1007.6103894423004	0.21800493215114364\\
1007.8392445234867	0.22102699634349565\\
1008.0791596682907	0.22421346237240963\\
1008.3325067968879	0.22759865503085697\\
1008.5826589033284	0.23096212764167684\\
1008.8385584434982	0.23442415982162373\\
1009.0876661033744	0.23781533197299626\\
1009.3437346863095	0.2413224619686184\\
1009.5958368011086	0.2447965699067034\\
1009.8431109836151	0.24822469424942756\\
1010.1012446659295	0.25182459341482466\\
1010.3579970644944	0.25542709412923903\\
1010.6146126284252	0.2590494132923514\\
1010.8740823899227	0.26273401427017995\\
1011.1214943995958	0.266268401552884\\
1011.3814114748643	0.27000276621409425\\
1011.6386290970022	0.27372031946742337\\
1011.8986391672972	0.27750026769339065\\
1012.1562883499271	0.28126788902507627\\
1012.3989021799534	0.2848360099773477\\
1012.6599382320176	0.2886960930615653\\
1012.9166970225717	0.2925148679785764\\
1013.175685070376	0.29638863497591317\\
1013.4359481617926	0.30030358171197014\\
1013.696873014489	0.30425073502118094\\
1013.9577800618999	0.30821990370120644\\
1014.2189290469378	0.31221504600959404\\
1014.4748963365812	0.3161527076877305\\
1014.7343553620603	0.3201658263192271\\
1014.9971940387459	0.32425352846015043\\
1015.2611372735319	0.3283810603469396\\
1015.5234240394063	0.33250524329252096\\
1015.7804116818809	0.3365680047605487\\
1016.0463778107119	0.3407950822036313\\
1016.309189807112	0.34499474086097537\\
1016.5717633464533	0.3492130312433849\\
1016.8347720100164	0.3534607647180097\\
1017.0781303647725	0.3574116999691809\\
1017.3449093178544	0.3617642406215773\\
1017.5868888327352	0.36573283448159033\\
1017.8317028488975	0.36976715482126477\\
1018.0970269324641	0.3741607658522348\\
1018.3437466839291	0.37826728100780804\\
1018.5793242806039	0.3822070259562864\\
1018.821572341832	0.38627685814027524\\
1019.0707839776221	0.3904832741022014\\
1019.336861499283	0.39499599636692173\\
1019.6044809822461	0.39955787558722367\\
1019.8692733428559	0.4040943874708207\\
1020.1311238068492	0.408602813070821\\
1020.3998582268607	0.4132525186700827\\
1020.6653995248482	0.41786990935250445\\
1020.9170187578338	0.42226654669750396\\
1021.1873748400101	0.42701268574200313\\
1021.457402968113	0.43177651788815796\\
1021.725113498429	0.43652264303973465\\
1021.9884189196127	0.4412132334338458\\
1022.2622677673271	0.44611489875176646\\
1022.527201772798	0.45088013140117755\\
1022.7906338782311	0.4556406767742095\\
1023.0617202863077	0.46056248873453676\\
1023.3164620543596	0.4652094364783995\\
1023.5837987374587	0.47010805169713543\\
1023.8426431560022	0.4748730494787694\\
1024.097568618894	0.47958691200166037\\
1024.3661833863075	0.4845759076567242\\
1024.6281258036656	0.48946331643998175\\
1024.8916207615584	0.4944016881596722\\
1025.1384839120665	0.49904885891150286\\
1025.4134674113075	0.5042473298315728\\
1025.6847365619797	0.5093992385181636\\
1025.960641645609	0.5146630149042004\\
1026.2364034653397	0.5199481966290256\\
1026.50622997443	0.5251431420106485\\
1026.7836497553476	0.5305080911799636\\
1027.051868267767	0.535718544506141\\
1027.325109693501	0.5410498209801249\\
1027.6012768632709	0.5464620736843933\\
1027.8792570492437	0.5519341307153245\\
1028.1575728756316	0.5574372199655782\\
1028.4199652201187	0.5626483029435503\\
1028.6979818240402	0.5681928698234335\\
1028.975164539363	0.5737450664308918\\
1029.2548000429138	0.5793708186066642\\
1029.5312320666658	0.5849563918358052\\
1029.8046918561545	0.5905056257419559\\
1030.0845482471764	0.596208773871765\\
1030.3669041319708	0.6019876831259463\\
1030.6487417966946	0.6077809286079578\\
1030.9253507272292	0.6134910539075522\\
1031.2061920677588	0.6193129200233924\\
1031.4849747442631	0.625116573529577\\
1031.7694175906208	0.6310629148242131\\
1032.0540409289074	0.6370383149098326\\
1032.3217688208847	0.6426825896297896\\
1032.6063191266198	0.6487054821463409\\
1032.872289947346	0.6543584768597939\\
1033.1523549821436	0.660334396796366\\
1033.4191049463284	0.6660492891394469\\
1033.6917337107502	0.671912806015901\\
1033.9545079814097	0.67758651746532\\
1034.2356170931735	0.6836792594389587\\
1034.5247000657337	0.68997012981089\\
1034.8184380263733	0.6963886727781512\\
1035.0945315318972	0.7024465602417913\\
1035.3735882539336	0.7085933367363932\\
1035.6683658855159	0.7151120274002527\\
1035.9602970943615	0.7215943163537992\\
1036.2479503846575	0.7280074770939613\\
1036.5323892934348	0.7343741638534422\\
1036.8251720650965	0.7409533775668076\\
1037.1167277106751	0.7475312788235773\\
1037.3951596963334	0.7538379036181875\\
1037.6924441430465	0.7605972254961462\\
1037.987240718136	0.7673268603976307\\
1038.2702440915496	0.7738127323721198\\
1038.561990404878	0.7805243937443722\\
1038.84861464926	0.7871437697631474\\
1039.1156160159435	0.7933331653566771\\
1039.404643460451	0.8000570175324604\\
1039.6890453826063	0.8066983199323552\\
1039.975922210071	0.8134223508931961\\
1040.2770482532533	0.8205068942832194\\
1040.5681579719676	0.8273823741709698\\
1040.8604335118976	0.8343113072142436\\
1041.1588100746371	0.8414114806657889\\
1041.467732086231	0.8487907444966833\\
1041.7680476301425	0.8559924857237309\\
1042.0711337762345	0.8632883151332036\\
1042.3738240285033	0.8706024149139622\\
1042.6699638857667	0.8777852952870855\\
1042.944160761876	0.8844602627018938\\
1043.2486384007188	0.8918979953129147\\
1043.5411493982529	0.8990701602419757\\
1043.834060742708	0.9062779979796085\\
1044.140875631444	0.9138552364527179\\
1044.4520991972258	0.9215701690501252\\
1044.757621561428	0.9291723128083171\\
1045.054570263233	0.9365882901141027\\
1045.3486298253301	0.9439583037455255\\
1045.6278414060484	0.9509806477880236\\
1045.9278843787674	0.9585522846203931\\
1046.2355811401007	0.9663448139646542\\
1046.5220159958199	0.973625001891915\\
1046.8280864692865	0.9814307130971773\\
1047.131867432739	0.9892057766761546\\
1047.4383351436045	0.9970774185135673\\
1047.751363912249	1.0051462622665581\\
1048.0338128520352	1.0124528408882028\\
1048.3377157464206	1.02034020671484\\
1048.6260465433502	1.0278492866759148\\
1048.923554488958	1.0356229538429882\\
1049.228398737711	1.0436153112735114\\
1049.5437310439215	1.0519112682710476\\
1049.8612070946247	1.060293295615852\\
1050.186747702964	1.0689189215183812\\
1050.4979498881553	1.0771943923234768\\
1050.8282757197958	1.0860089954009484\\
1051.1419236379452	1.094408901825271\\
1051.4743652856955	1.1033430932211932\\
1051.787651770796	1.1117929128550341\\
1052.0861643194612	1.1198715757640048\\
1052.3930504006375	1.1282038571154067\\
1052.7237167702415	1.137211879051748\\
1053.0387212466653	1.1458235746988064\\
1053.3223209767011	1.1536025249372281\\
1053.6174552720618	1.1617224743847188\\
1053.9343449747607	1.1704685710877123\\
1054.2585524205606	1.17944671865726\\
1054.5576263094677	1.1877568364613462\\
1054.866166986661	1.196356993108624\\
1055.1953630667776	1.2055627108576692\\
1055.523462372622	1.214769142289958\\
1055.823958672218	1.2232293477183092\\
1056.1514725268876	1.2324790946710107\\
1056.477130040113	1.2417072969599143\\
1056.780715678845	1.2503384068515375\\
1057.098323884164	1.259396234667932\\
1057.4117711157896	1.2683641015998348\\
1057.731480244513	1.2775401139159812\\
1058.0726290885796	1.2873631813649498\\
1058.4024050014564	1.2968910234787492\\
1058.7462960736102	1.306859472642865\\
1059.072816466069	1.3163564343606167\\
1059.3912039769561	1.3256465780882447\\
1059.6974863366786	1.3346113175918979\\
1060.0175834247143	1.344008638362149\\
1060.3478009443038	1.353733422736806\\
1060.6903885466554	1.36385497236064\\
1061.0305027176373	1.3739120136680638\\
1061.378275615988	1.3842043263943031\\
1061.7228938951712	1.3944120402109865\\
1062.0722105173277	1.4047677997803025\\
1062.3953180269373	1.4143545093392436\\
1062.706683885985	1.4236000422549475\\
1062.9963914855098	1.4322088007260017\\
1063.3395664425493	1.442414242481628\\
1063.661425355001	1.451993532257271\\
1063.9997957757978	1.4620723143561078\\
1064.3350468573876	1.4720663217933594\\
1064.6673940883197	1.4819817406868623\\
1064.9984192554607	1.49186559215797\\
1065.3191773383846	1.5014503661474854\\
1065.6394364409366	1.5110275577744026\\
1065.9744972625017	1.521055206712373\\
1066.3281687755166	1.5316484865418212\\
1066.6653265252098	1.5417553943044346\\
1066.9833577303816	1.551296314889841\\
1067.2946795072448	1.5606428621157593\\
1067.6361380148014	1.5709020199186368\\
1067.946603502351	1.580237092401704\\
1068.2670759910325	1.5898801344638485\\
1068.565918408162	1.5988787908455766\\
1068.9120696193527	1.609309776016493\\
1069.2479768863418	1.6194400324542322\\
1069.5575180068863	1.6287820693367947\\
1069.8641042992126	1.638041463185214\\
1070.2031589873786	1.648289008797064\\
1070.5119698110502	1.6576293555274235\\
1070.8574239107443	1.66808578301006\\
1071.1902479359392	1.678167648355164\\
1071.5352348989604	1.6886259413742502\\
1071.857383814961	1.6983992225009397\\
1072.2083411968688	1.7090545182743422\\
1072.553785392171	1.719550586135378\\
1072.8941849677103	1.7299012710194055\\
1073.2356958198684	1.7402936006688892\\
1073.6058637446718	1.7515668382507195\\
1073.9528343500938	1.7621419615269613\\
1074.3293786290283	1.773627556156049\\
1074.679121799878	1.784304118323286\\
1075.0104438275976	1.7944258461790157\\
1075.3684238109504	1.805370146813662\\
1075.693316858637	1.8153102407999757\\
1076.045704301565	1.826099399323863\\
1076.3915620783887	1.836696583108675\\
1076.7424875952966	1.8474570673420745\\
1077.1195101467065	1.8590267490784762\\
1077.4905310147929	1.8704213118624988\\
1077.8475834181008	1.881395339914922\\
1078.1815770165545	1.891668140584036\\
1078.4980378127934	1.9014083352444469\\
1078.8497729165902	1.9122418032512574\\
1079.2305911828307	1.9239800094990263\\
1079.5965743027155	1.9352697091812612\\
1079.935664162541	1.9457374625168713\\
1080.2606009082465	1.9557751882724452\\
1080.6127893357161	1.966662338805421\\
1080.9719458444602	1.9777729948643028\\
1081.3559976487445	1.9896628220182988\\
1081.70480860747	2.0004696891389964\\
1082.0688057881262	2.0117552103625833\\
1082.4282711016426	2.022908372615486\\
1082.7822201026333	2.033898268563812\\
1083.1383525749952	2.044963836847119\\
1083.513177583989	2.0566187184528024\\
1083.8761423319265	2.0679131054147115\\
1084.247670024632	2.079482367822896\\
1084.594517813247	2.090290771926271\\
1084.9400735898603	2.1010662543959473\\
1085.2938086253075	2.112104356878972\\
1085.6244130401324	2.122427581022456\\
1085.9974938726918	2.134085126441791\\
1086.3600243616715	2.145421092028985\\
1086.7199493997814	2.1566834450149033\\
1087.0643814750915	2.167468318530707\\
1087.4491153140648	2.179523547093477\\
1087.820159170657	2.1911582087822383\\
1088.186927585563	2.202666881219624\\
1088.5383152905388	2.2137004341948128\\
1088.895705356466	2.2249299711979322\\
1089.2571925977704	2.236295925803966\\
1089.6001155681856	2.247085295978862\\
1089.945927745357	2.257972564782424\\
1090.3362321197915	2.2702690016395204\\
1090.6903093598407	2.2814318040607553\\
1091.052292952511	2.2928514054002003\\
1091.4191601197003	2.304432822940684\\
1091.7838150513599	2.3159521125248865\\
1092.0638089265344	2.3248021967180748\\
1092.1442521945532	2.3273456919296835\\
1092.4905341980102	2.338285599758284\\
1092.891800295719	2.3509050976603376\\
1093.2594822894512	2.362406315220559\\
1093.5992271644413	2.3729810977065853\\
1093.9310563410618	2.383262229692563\\
1094.257084927915	2.393318288107306\\
1094.5985430452693	2.403803782252127\\
1094.9411615997124	2.414275915303871\\
1095.3206790590689	2.4258217765383465\\
1095.68733039681	2.436917767815352\\
1096.06231223332	2.448208319107909\\
1096.4294943502073	2.4592062124471115\\
1096.7783662360885	2.4696017727266657\\
1097.1675230915707	2.481141217297192\\
1097.5236376359453	2.4916424018350387\\
1097.8834880783556	2.502200009221304\\
1098.259798993643	2.513183878533601\\
1098.6383411194392	2.5241730885204605\\
1099.002451014419	2.534685298855293\\
1099.370036497976	2.5452416702300287\\
1099.7556427448985	2.5562562063890564\\
1100.1126064051746	2.566394467012226\\
1100.4898157386478	2.5770513493987544\\
1100.8565770786508	2.587354792322542\\
1101.226966171232	2.597703068108772\\
1101.6377953394508	2.609117655482536\\
1102.0095623343104	2.619382285957774\\
1102.390420149461	2.62983844024346\\
1102.7997915222281	2.6410121132251767\\
1103.1843844352097	2.651442928519632\\
1103.5817337602175	2.6621555115300426\\
1103.9361425606235	2.671650694789025\\
1104.3401886976699	2.6824159651991932\\
1104.7215075746253	2.6925105532292255\\
1105.1095914318798	2.702721940800104\\
1105.4645138314354	2.7120024042525754\\
1105.8282092191753	2.7214579334587885\\
1106.2168349135904	2.7315022791365537\\
1106.6100942135713	2.741601983420459\\
1106.9836665912871	2.7511339268769133\\
1107.3556684505456	2.7605671568166494\\
1107.7300816221223	2.770002789465745\\
1108.1036968081476	2.7793592716099154\\
1108.5173644473239	2.789653996658309\\
1108.899327465781	2.799092682711275\\
1109.2699489229376	2.808191224786687\\
1109.641693184592	2.817259159893182\\
1110.0040038252855	2.826040004776001\\
1110.4119884634183	2.8358658369094307\\
1110.8084308993266	2.845345231741362\\
1111.2002036570952	2.8546472891130854\\
1111.5781224613625	2.8635576927875546\\
1111.9681455105138	2.8726913025852374\\
1112.3412669784357	2.881367420401081\\
1112.7169955521408	2.8900449081410216\\
1113.0858191506745	2.8985042548284783\\
1113.4543188094217	2.9068986840991204\\
1113.8307478414818	2.9154151438668476\\
1114.229965640293	2.924383840339403\\
1114.6300174479152	2.933303691933985\\
1115.0214802614155	2.941965663009883\\
1115.4111912197955	2.9505242695839424\\
1115.798315800169	2.958962173023405\\
1116.2059088384053	2.9677796108054535\\
1116.5755136197922	2.9757110877412654\\
1116.9882474031228	2.9845039243590588\\
1117.3820994929706	2.9928254516712665\\
1117.7860195234507	3.0012923997625887\\
1118.1614474938888	3.0090975664492197\\
1118.5608324528548	3.017337497523993\\
1118.9396231927376	3.0250882155200367\\
1119.3425553210773	3.033268453833686\\
1119.7651118490685	3.0417751256325136\\
1120.158481732769	3.0496234541220035\\
1120.568157178781	3.057728929466691\\
1120.9764865002912	3.065736806689695\\
1121.3633553518443	3.0732565970219152\\
1121.7440585904446	3.0805940010929147\\
1122.15231673976	3.088396817551388\\
1122.5438805720164	3.0958125663157317\\
1122.9569276937514	3.1035667684253783\\
1123.3570067374876	3.111007250554155\\
1123.7397538266046	3.118060235266892\\
1124.1339512187737	3.125260280248769\\
1124.529269410195	3.132414646583274\\
1124.9379235933538	3.1397419056440574\\
1125.339115827458	3.1468656744283257\\
1125.759236547267	3.1542541630432703\\
1126.1672711369288	3.161357155116394\\
1126.5710061641494	3.1683152680389615\\
1126.9717363742534	3.1751528209563213\\
1127.3740257911913	3.181948489117171\\
1127.7760132241997	3.1886703267128906\\
1128.1761700216234	3.195293166683687\\
1128.5788105894603	3.2018886533336666\\
1128.9765904639285	3.2083363857932294\\
1129.3987325509747	3.2151078768772043\\
1129.803712970795	3.2215312212169964\\
1130.2023825099955	3.227785754727633\\
1130.5894122192262	3.233791950601681\\
1130.9957797110228	3.2400315494466696\\
1131.3919617167298	3.2460461805174656\\
1131.8014286340358	3.252193627300863\\
1132.2030461440845	3.2581531965336845\\
1132.607888825186	3.2640914858754524\\
1132.9887890152363	3.269612753515699\\
1133.4119134978896	3.2756779386324224\\
1133.8196031375633	3.2814483198970086\\
1134.21029368558	3.286910155653862\\
1134.618519782277	3.292549438173231\\
1135.011777010653	3.297913470843663\\
1135.4184826933556	3.3033929995635534\\
1135.8387699318573	3.3089828929559406\\
1136.2451507370033	3.314314986286514\\
1136.6508696168935	3.3195681996069757\\
1137.0452585386356	3.324606483977563\\
1137.4433004822408	3.3296246351207044\\
1137.8670366650622	3.3348951556795834\\
1138.2761105595669	3.3399093364939816\\
1138.6878892611744	3.3448849556857247\\
1139.0926123812337	3.3497042679708047\\
1139.4955637292028	3.3544329997837323\\
1139.8896114915797	3.3589895243126415\\
1140.2971928603201	3.3636342591869886\\
1140.6961473779834	3.36811132794376\\
1141.1047722587664	3.3726275596530275\\
1141.5082754677533	3.3770168869072537\\
1141.9310977661303	3.381543872609397\\
1142.3450350462776	3.385901065665479\\
1142.7671308313966	3.3902697691627592\\
1143.1713204865664	3.3943802689701323\\
1143.5726588186226	3.3983926163359595\\
1143.9848791530421	3.402443359773014\\
1144.3857230849135	3.4063117822325033\\
1144.7875400973885	3.4101209605682756\\
1145.2051077143892	3.414008100081195\\
1145.6109308606106	3.4177135697895977\\
1146.0218078396924	3.421394163918399\\
1146.4282328417949	3.424963656183551\\
1146.8382676622264	3.428493853738206\\
1147.2518308663598	3.4319821804840345\\
1147.6592831288076	3.4353470730930935\\
1148.0715577929313	3.438680230996658\\
1148.488709823128	3.4419795564017264\\
1148.9040850543079	3.4451909445871447\\
1149.3149660769204	3.448294781018073\\
1149.7165155163816	3.4512576858517905\\
1150.1388518094195	3.4543018671441743\\
1150.5393827105017	3.4571165360922222\\
1150.9498855615057	3.4599312679909433\\
1151.3708442461898	3.4627441101258\\
1151.7758467803314	3.4653774767824457\\
1152.1834669077975	3.4679574893851024\\
1152.5861068636514	3.4704359427594254\\
1152.9790569395695	3.4727871877645446\\
1153.3839658899774	3.4751422530175002\\
1153.7842416023477	3.477401208066092\\
1154.1826449006076	3.479581570743359\\
1154.5938099475852	3.481762042380349\\
1155.0055167059568	3.483873200879615\\
1155.4178759052038	3.485915310290907\\
1155.8325678649858	3.4878960690254805\\
1156.2347291057504	3.4897457325066217\\
1156.6410952340452	3.491545081810316\\
1157.0535382300404	3.4932999224572026\\
1157.464091701127	3.4949744927030464\\
1157.874005786301	3.496574679493121\\
1158.2750166393562	3.4980699249058445\\
1158.6847084808387	3.4995275618180957\\
1159.087326892518	3.5008896221272012\\
1159.5003639918787	3.502216115635335\\
1159.9067731089713	3.50363508365058\\
1160.5730545179058	3.505960990366944\\
1161.5936896571288	3.509522940662219\\
1162.8337353613902	3.5138490540462257\\
1164.0607781197946	3.518128114625399\\
1165.3549893051058	3.522639590831221\\
1166.5673962845558	3.5268642119644955\\
1167.8127933279043	3.531202080609737\\
1169.01239593409	3.535378807726759\\
1170.2216140812502	3.5395873919679186\\
1171.5313114640298	3.544143849941533\\
1172.787377192023	3.5485119299471233\\
1174.0727103946692	3.5529799742484505\\
1175.3097878166582	3.557278539203817\\
1176.5279709049987	3.561509789684661\\
1177.6906444866809	3.5655466964520484\\
1177.941472538896	3.566417397202196\\
1178.0318884205467	3.566731241218508\\
1178.0691734734141	3.566860659322396\\
1178.0897606615486	3.5669321177221995\\
1178.1050186398807	3.5669850780616015\\
1178.11547241896	3.567021362908876\\
1178.1241500975511	3.567051482856641\\
1178.1305127998571	3.567073567541909\\
1178.1355785872302	3.5670911506551963\\
1178.1420044979382	3.5671134546526133\\
1178.143713716378	3.5671193872520286\\
1178.1443927246696	3.5671217440500618\\
1178.1451203989063	3.5671242697641707\\
1178.1491263004154	3.567138174000072\\
1178.1652565286763	3.5671941608412565\\
1178.213815771468	3.5673627046614467\\
1178.3381130598286	3.5677941149439443\\
1178.5674767358437	3.5685901436764462\\
1178.994474475282	3.5700719238382597\\
1179.7073743858377	3.5725453961111784\\
1180.7762993122337	3.5762530663386194\\
1181.9981180310656	3.5804895010327673\\
1183.2589100495966	3.5848593221166354\\
1184.5462063865243	3.5893191763040297\\
1185.7910541236688	3.593630210149226\\
1187.1292665109563	3.5982626500910575\\
1188.4442001232687	3.602812565026184\\
1189.738567361101	3.6072894379286424\\
1191.1268180433176	3.612088958728104\\
1192.4494371420055	3.6166595835675848\\
1193.7672673773973	3.621211727852554\\
1195.0927603610962	3.6257883978405703\\
1196.4013790764348	3.630304893482454\\
1197.678267300796	3.6347100474451404\\
1199.010702725695	3.639304909862263\\
1200.275286422308	3.643663970980337\\
1201.4704579819395	3.6477821410730478\\
1202.714786211507	3.6520680120504627\\
1204.048797713493	3.656660882591944\\
1205.3680122032374	3.6612008775997085\\
1206.6838725285738	3.665727418076508\\
1207.9736019687753	3.6701622175825053\\
1209.2335418824505	3.6744928160535073\\
1210.5821844365041	3.6791263634805835\\
1211.8627898620125	3.6835243043244077\\
1213.0692372770886	3.6876659188340764\\
1214.4549193384614	3.692420856891699\\
1215.839032756715	3.6971683098455514\\
1217.142843729201	3.7016384083705205\\
1218.4604581056037	3.7061539405683828\\
1219.761804160944	3.7106118558429735\\
1221.1161935896089	3.71524951125195\\
1222.488756478409	3.7199473512328733\\
1223.8093887748123	3.7244655084560403\\
1225.138253430186	3.7290099103657655\\
1226.5506937016435	3.7338380114390857\\
1227.91971582407	3.7385156246320967\\
1229.329187915277	3.743329315388846\\
1230.668288096614	3.7479006687210745\\
1232.0613493158157	3.7526541649799663\\
1233.4496785223805	3.7573894195229833\\
1234.8678070844217	3.7622241553062636\\
1236.3175975249333	3.767164582384644\\
1237.6717532635275	3.7717770624270237\\
1239.0050529469017	3.7763165664475986\\
1240.3724019274632	3.780970004316531\\
1241.7560476245762	3.7856768502607787\\
1243.1187793170384	3.7903105340071033\\
1244.4712794504253	3.7949074495954447\\
1245.796918849932	3.7994111597679048\\
1247.1496046282432	3.8040048092124215\\
1248.57282449097	3.8088358666731956\\
1249.905785114437	3.8133585716279432\\
1251.3902165800164	3.8183929715966807\\
1252.7850250654024	3.8231212673084416\\
1254.1677531621426	3.8278065564767614\\
1255.5857312396606	3.832609165197586\\
1257.0563774327134	3.8375878891906705\\
1258.496266204097	3.842460251349559\\
1259.970260497123	3.847445732423628\\
1260.9792302554197	3.850857030251632\\
};
\end{axis}
\end{tikzpicture}%
