%RateOfClimb_evolution
\begin{tikzpicture}

\begin{axis}[
width=\figurewidth,
height=\figureheight,
scaled ticks=false, tick label style={/pgf/number format/fixed},
xmin=0.0,
xmax=99.29919288631771,
xlabel={Time (s)},
xmajorgrids,
ymin=0.0,
ymax=6.869085683489412,
ylabel={Rate of Climb (m/s)},
ymajorgrids,
legend style={at={(1.03,0.5)},anchor=west,draw=black,fill=white,legend cell align=left}
]

\addplot [
color=black,
solid
]
table[row sep=crcr]{
9.999999999999999E-5	0.0\\
4.508933625880162E-4	0.0\\
0.0012957179508469533	0.0\\
0.003002443126214849	0.0\\
0.006906690469748025	0.0\\
0.013678480569452249	0.0\\
0.02448642584513458	0.0\\
0.03566942563894336	0.0\\
0.046844147807222264	0.0\\
0.057675970315243213	0.0\\
0.06829843826027246	0.0\\
0.07915163794116939	0.0\\
0.09028304873538134	0.0\\
0.10134917714395086	0.0\\
0.11234724979973895	0.0\\
0.12352080390974449	0.0\\
0.1346522040250398	0.0\\
0.1457246663448059	0.0\\
0.15680113803029005	0.0\\
0.1677799621612573	0.0\\
0.1787816246153061	0.0\\
0.18990044852667493	0.0\\
0.20091010253750563	0.0\\
0.2122433393939422	0.0\\
0.22348826066662042	0.0\\
0.2346149233042948	0.0\\
0.2455283862031017	0.0\\
0.25692240516155695	0.0\\
0.26820109417372606	0.0\\
0.27947755523731477	0.0\\
0.2909076845148387	0.0\\
0.3022490996217706	0.0\\
0.31344866836565843	0.0\\
0.32476732548685583	0.0\\
0.336307310374519	0.0\\
0.3475807647731938	0.0\\
0.3585901387316136	0.0\\
0.3697516597585371	0.0\\
0.3811211916574706	0.0\\
0.39257194665848294	0.0\\
0.40413473067558026	0.0\\
0.41553206395282183	0.0\\
0.4268646367903475	0.0\\
0.4381165639925235	0.0\\
0.4494374578144932	0.0\\
0.461095472400988	0.0\\
0.4726976254369212	0.0\\
0.4843797357309074	0.0\\
0.4961112862114654	0.0\\
0.5077255987768672	0.0\\
0.5192506631688594	0.0\\
0.5313078742067476	0.0\\
0.5429755999448469	0.0\\
0.5545878165457174	0.0\\
0.5667225665620477	0.0\\
0.5784986701935835	0.0\\
0.5904588236553578	0.0\\
0.6023439573857097	0.0\\
0.6138522450892041	0.0\\
0.6253439777406897	0.0\\
0.6373896062583884	0.0\\
0.6496708748405191	0.0\\
0.6617215403318739	0.0\\
0.6731352830177022	0.0\\
0.6852107098762703	0.0\\
0.6969711046204778	0.0\\
0.7089636073871544	0.0\\
0.720482688922442	0.0\\
0.7328657981063915	0.0\\
0.7448069469561802	0.0\\
0.7565665272128528	0.0\\
0.7688064545780131	0.0\\
0.7811143952312376	0.0\\
0.7934288749633049	0.0\\
0.8053945673300722	0.0\\
0.8174165041860821	0.0\\
0.8291147242202228	0.0\\
0.8413353352153055	0.0\\
0.8536255392244019	0.0\\
0.865589359241911	0.0\\
0.8778442511785913	0.0\\
0.8905139140137126	0.0\\
0.9029277513545968	0.0\\
0.9152738455932683	0.0\\
0.9275678967340593	0.0\\
0.9403138132650855	0.0\\
0.952517636755883	0.0\\
0.9649562029793042	0.0\\
0.9776789683249993	0.0\\
0.9901621828424145	0.0\\
1.0028645727459442	0.0\\
1.0159656138619884	0.0\\
1.028852201886123	0.0\\
1.04180390901732	0.0\\
1.0548211378565124	0.0\\
1.06769645725148	0.0\\
1.0803220533556503	0.0\\
1.0932065999313378	0.0\\
1.1058796428325248	0.0\\
1.1184397641083335	0.0\\
1.130906798509209	0.0\\
1.143452484378102	0.0\\
1.1567005510915398	0.0\\
1.1695084871430717	0.0\\
1.1828203253487453	0.0\\
1.1956076303796617	0.0\\
1.208696476581514	0.0\\
1.2218322552473695	0.0\\
1.2356440387108965	0.0\\
1.2484556952712804	0.0\\
1.2619119793435343	0.0\\
1.2752138191185618	0.0\\
1.289033389386395	0.0\\
1.3024123102345917	0.0\\
1.3156632950300797	0.0\\
1.3292226930201578	0.0\\
1.3427075946891631	0.0\\
1.3563911463228426	0.0\\
1.3701600197693273	0.0\\
1.383576261909464	0.0\\
1.397874055076505	0.0\\
1.4114866543308437	0.0\\
1.424632244856105	0.0\\
1.438220461245621	0.0\\
1.4520582649376057	0.0\\
1.4654169264882229	0.0\\
1.4789656527082702	0.0\\
1.4925362882794255	0.0\\
1.5060133320264688	0.0\\
1.5199363495484977	0.0\\
1.5336294784072555	0.0\\
1.5476000409440362	0.0\\
1.5615128082158471	0.0\\
1.5752412297147984	0.0\\
1.5895098780036054	0.0\\
1.6036438905870116	0.0\\
1.61775582815923	0.0\\
1.6321411854653527	0.0\\
1.646718778152545	0.0\\
1.6605622036635599	0.0\\
1.6740767333598252	0.0\\
1.687695211446032	0.0\\
1.701795338274013	0.0\\
1.7158399931822257	0.0\\
1.7302169693400908	0.0\\
1.744248446799614	0.0\\
1.7583371615024341	0.0\\
1.7729649559626912	0.0\\
1.7872709460572098	0.0\\
1.8014100309388081	0.0\\
1.8160200079658169	0.0\\
1.8303808037540836	0.0\\
1.8449313409449575	0.0\\
1.8597048605532223	0.0\\
1.8745583270361221	0.0\\
1.8894000258624204	0.0\\
1.904054502492769	0.0\\
1.9194750240710245	0.0\\
1.9342124789246875	0.0\\
1.9492839121878762	0.0\\
1.9640373573725967	0.0\\
1.9785570126491443	0.0\\
1.9935834503826722	0.0\\
2.0080351585778677	0.0\\
2.022524059239041	0.0\\
2.0381978046341036	0.0\\
2.053127200968171	0.0\\
2.067920752552852	0.0\\
2.0831645184298972	0.0\\
2.0983655637496206	0.0\\
2.1131687164552995	0.0\\
2.128937853964956	0.0\\
2.1445739352345523	0.0\\
2.1601103654735185	0.0\\
2.175248503036671	0.0\\
2.1909186399906533	0.0\\
2.206013793227699	0.0\\
2.220948730995998	0.0\\
2.2364112866825456	0.0\\
2.2526374339954254	0.0\\
2.2680037566768574	0.0\\
2.2837274529162688	0.0\\
2.2992888279821813	0.0\\
2.314758611084561	0.0\\
2.3301445057076036	0.0\\
2.345926554919001	0.0\\
2.3618854198402506	0.0\\
2.378116880674571	0.0\\
2.394054370717398	0.0\\
2.4097083213935653	0.0\\
2.425482918758812	0.0\\
2.442191648279537	0.0\\
2.4588020808561213	0.0\\
2.474677464612019	0.0\\
2.4906293063483957	0.0\\
2.5068591508569176	0.0\\
2.523673400069333	0.0\\
2.53947972655969	0.0\\
2.5558071406459373	0.0\\
2.5716088505930674	0.0\\
2.5884029746505837	0.0\\
2.60536755015172	0.0\\
2.6215713669973555	0.0\\
2.6383121813174677	0.0\\
2.6554296862051743	0.0\\
2.671803776336243	0.0\\
2.6881873745069935	0.0\\
2.704801370218548	0.0\\
2.72097606937582	0.0\\
2.738387780056599	0.0\\
2.7548395944506625	0.0\\
2.7711855283878855	0.0\\
2.788020158109605	0.0\\
2.8046326204900707	0.0\\
2.822066156923608	0.0\\
2.8389072818657475	0.0\\
2.8553478500533007	0.0\\
2.872060762943863	0.0\\
2.889319821019682	0.0\\
2.9062264728600944	0.0\\
2.923456917646689	0.0\\
2.9404122904248347	0.0\\
2.9575283115931077	0.0\\
2.97424935020896	0.0\\
2.9918896776969808	0.0\\
3.009183835877603	0.0\\
3.0264271539602197	0.0\\
3.04324934300182	0.0\\
3.061295489158738	0.0\\
3.078284355848635	0.0\\
3.0960315208465055	0.0\\
3.1130624557261983	0.0\\
3.1300504221468177	0.0\\
3.1472832639192454	0.0\\
3.1646028555461934	0.0\\
3.1822353896626634	0.0\\
3.1995513820075026	0.0\\
3.2173258952937767	0.0\\
3.234719010945976	0.0\\
3.2527188763485695	0.0\\
3.270234352494014	0.0\\
3.2877160761823694	0.0\\
3.3055957338765882	0.0\\
3.3238238605531327	0.0\\
3.3418168833836583	0.0\\
3.3603644435725473	0.0\\
3.378638910934729	0.0\\
3.3969144106681117	0.0\\
3.4152727674867025	0.0\\
3.4334487652701746	0.0\\
3.452312812895719	0.0\\
3.4704771185299785	0.0\\
3.4882954058944575	0.0\\
3.5062951634265023	0.0\\
3.525104062753111	0.0\\
3.543541592733235	0.0\\
3.56271529325036	0.0\\
3.5807317245684054	0.0\\
3.5990482452163235	0.0\\
3.6181750875811707	0.0\\
3.63636983732503	0.0\\
3.6549878384025387	0.0\\
3.673459451391061	0.0\\
3.692203235132385	0.0\\
3.710791167629356	0.0\\
3.729576787995989	0.0\\
3.7488020664259203	0.0\\
3.7675381101064467	0.0\\
3.78596447114748	0.0\\
3.8046994975977357	0.0\\
3.824069329545484	0.0\\
3.842844793464378	0.0\\
3.861801671763285	0.0\\
3.8806946154869433	0.0\\
3.8998498490410025	0.0\\
3.9187287891797205	0.0\\
3.9372549521433458	0.0\\
3.9567699250812813	0.0\\
3.975912422246103	0.0\\
3.9943572408062353	0.0\\
4.0138065650866945	0.0\\
4.033233714633337	0.0\\
4.052191541051915	0.0\\
4.0711577912212675	0.0\\
4.090314619167339	0.0\\
4.109757395884621	0.0\\
4.128891114795627	0.0\\
4.149142403550352	0.0\\
4.16839394728194	0.0\\
4.188356010777964	0.0\\
4.20764532708251	0.0\\
4.22730347683914	0.0\\
4.2462377122269785	0.0\\
4.266103132549604	0.0\\
4.285633063436661	0.0\\
4.30549634010176	0.0\\
4.325190336458359	0.0\\
4.345531608501783	0.0\\
4.365379658506496	0.0\\
4.385247992440105	0.0\\
4.405044804215027	0.0\\
4.425359653701008	0.0\\
4.445566323366435	0.0\\
4.465653831055834	0.0\\
4.485825939265068	0.0\\
4.505990153784914	0.0\\
4.526183737118155	0.0\\
4.546181808260185	0.0\\
4.566197411986982	0.0\\
4.586825623974928	0.0\\
4.60694578281003	0.0\\
4.626812457015623	0.0\\
4.646565844536079	0.0\\
4.6663576566329965	0.0\\
4.6862903285758595	0.0\\
4.706941642544974	0.0\\
4.727215876333357	0.0\\
4.747772473241602	0.0\\
4.768011202552323	0.0\\
4.7889266475661785	0.0\\
4.8092290939031574	0.0\\
4.830358227785501	0.0\\
4.851788357925754	0.0\\
4.872202136103704	0.0\\
4.89297656080069	0.0\\
4.914407261693118	0.0\\
4.935673679206024	0.0\\
4.956699516962745	0.0\\
4.9778546784132445	0.0\\
4.999111138508777	0.0\\
5.020132995609066	0.0\\
5.041215734927379	0.0\\
5.062460308790795	0.0\\
5.083390796098168	0.0\\
5.104406674067171	0.0\\
5.125324495754912	0.0\\
5.146648706638244	0.0\\
5.167832672277173	0.0\\
5.1889805979179275	0.0\\
5.210245593970857	0.0\\
5.231322912970615	0.0\\
5.252214810994161	0.0\\
5.27321641033104	0.0\\
5.295194916398506	0.0\\
5.316686880100702	0.0\\
5.338443969446612	0.0\\
5.359676979757689	0.0\\
5.38109652817535	0.0\\
5.4031151330414495	0.0\\
5.424782520469593	0.0\\
5.446408831206119	0.0\\
5.468031023916756	0.0\\
5.489671520120897	0.0\\
5.511048205968921	0.0\\
5.532741934425175	0.0\\
5.554688871361723	0.0\\
5.576309633096596	0.0\\
5.598184029663429	0.0\\
5.620286182306016	0.0\\
5.642010949423659	0.0\\
5.664268677852265	0.0\\
5.686768192799187	0.0\\
5.708775155094935	0.0\\
5.730836927023644	0.0\\
5.752723882115113	0.0\\
5.774473684455861	0.0\\
5.796825296734957	0.0\\
5.81871413567589	0.0\\
5.8405913014438955	0.0\\
5.8628229396868665	0.0\\
5.88523874701081	0.0\\
5.907755764027339	0.0\\
5.9303587672348765	0.0\\
5.952949684020904	0.0\\
5.975108154226417	0.0\\
5.997017393365082	0.0\\
6.019554449578738	0.0\\
6.042000165268256	0.0\\
6.064776845366641	0.0\\
6.087012951811749	0.0\\
6.109615402661747	0.0\\
6.13222258761215	0.0\\
6.154776632741202	0.0\\
6.177439397317164	0.0\\
6.199648263302185	0.0\\
6.20419353584726	0.0\\
6.212805789597212	0.0\\
6.213504294052795	0.0\\
6.213754741377299	0.0\\
6.214099177650482	0.0\\
6.215468926490191	0.0\\
6.219144364931969	0.0\\
6.229708377666613	0.0\\
6.248714226705465	0.0\\
6.2685711520927825	0.0\\
6.288825527682738	0.0\\
6.308611673817881	0.0\\
6.32841592675064	0.0\\
6.348232121411188	0.0\\
6.368000666146521	0.0\\
6.387792064391029	0.0\\
6.407660490877641	0.0\\
6.4278510271826725	0.0\\
6.447749803050881	0.0\\
6.467791456222736	0.0\\
6.487950412550823	0.0\\
6.5081482369839865	0.0\\
6.528554307721391	0.0\\
6.548452801420394	0.0\\
6.568561918028157	0.0\\
6.58877806508864	0.0\\
6.608781074526897	0.0\\
6.628795141157969	0.0\\
6.648830329284623	0.0\\
6.668968197103858	0.0\\
6.689556781582899	0.0\\
6.70961269022583	0.0\\
6.72956187851848	0.0\\
6.749762428134066	0.0\\
6.769995925977071	0.0\\
6.790605916812279	0.0\\
6.810797056824013	0.0\\
6.831499963674103	0.0\\
6.852145104661103	0.0\\
6.872770635729923	0.0\\
6.893435824405913	0.0\\
6.914048428013109	0.0\\
6.934596338920459	0.0\\
6.955161569539301	0.0\\
6.975822473995878	0.0\\
6.996883648824388	0.0\\
7.017631719998791	0.0\\
7.038493992916473	0.0\\
7.059347820573526	0.0\\
7.08042369967999	0.0\\
7.101207817342464	0.0\\
7.121991278961701	0.0\\
7.142556621861514	0.0\\
7.163178854811104	0.0\\
7.184101874998751	0.0\\
7.205097959792825	0.0\\
7.2258894966473335	0.0\\
7.247009829498451	0.0\\
7.268091237246608	0.0\\
7.289189522881927	0.0\\
7.310300484484095	0.0\\
7.3313315268823125	0.0\\
7.352243826132863	0.0\\
7.373703322128094	0.0\\
7.394774429481718	0.0\\
7.415734258569275	0.0\\
7.436656823051798	0.0\\
7.457825124952613	0.0\\
7.479633829664149	0.0\\
7.501053938000329	0.0\\
7.522551545466431	0.0\\
7.543655031764651	0.0\\
7.565322151219805	0.0\\
7.586813785134337	0.0\\
7.608525687140988	0.0\\
7.629989662716474	0.0\\
7.651432821612403	0.0\\
7.672832990324602	0.0\\
7.69463675032161	0.0\\
7.716175624288924	0.0\\
7.737356475588443	0.0\\
7.758620775140907	0.0\\
7.780210920108891	0.0\\
7.801642360972075	0.0\\
7.823261059430763	0.0\\
7.845025884681537	0.0\\
7.8669184710918625	0.0\\
7.888695851199966	0.0\\
7.910421510891494	0.0\\
7.9324346841233755	0.0\\
7.954382681208832	0.0\\
7.976134966256112	0.0\\
7.998176662539622	0.0\\
8.019744021920442	0.0\\
8.041314595710531	0.0\\
8.063100081137346	0.0\\
8.084822893133602	0.0\\
8.106743330016794	0.0\\
8.128956454347193	0.0\\
8.15080756932652	0.0\\
8.172964831817282	0.0\\
8.194582404817616	0.0\\
8.216531961766513	0.0\\
8.238693817779346	0.0\\
8.26050686512992	0.0\\
8.28263527592095	0.0\\
8.304801175464679	0.0\\
8.326799554402776	0.0\\
8.348865892590116	0.0\\
8.371149719388985	0.0\\
8.393271826681744	0.0\\
8.415643464154876	0.0\\
8.438099443020626	0.0\\
8.460473294823927	0.0\\
8.482746433015773	0.0\\
8.505487584886247	0.0\\
8.527518730792103	0.0\\
8.549973215003376	0.0\\
8.572282587772719	0.0\\
8.59446117910008	0.0\\
8.616923053116864	0.0\\
8.639591870118139	0.0\\
8.661857875156592	0.0\\
8.684148348800676	0.0\\
8.706836906020708	0.0\\
8.72918541209635	0.0\\
8.75156435135142	0.0\\
8.773821741943475	0.0\\
8.796661708060466	0.0\\
8.819241854210617	0.0\\
8.841880591287836	0.0\\
8.864428844751401	0.0\\
8.887109867610025	0.0\\
8.90975415530881	0.0\\
8.932758235980838	0.0\\
8.95565193522853	0.0\\
8.97840230227516	0.0\\
9.001275178783505	0.0\\
9.023817875402276	0.0\\
9.046750191436391	0.0\\
9.069916348961488	0.0\\
9.093073822764339	0.0\\
9.115920996332829	0.0\\
9.13919764169712	0.0\\
9.162151029389936	0.0\\
9.185034898944732	0.0\\
9.208158337180329	0.0\\
9.230990305493542	0.0\\
9.253906635846935	0.0\\
9.27714937526164	0.0\\
9.300214139233638	0.0\\
9.32344056528596	0.0\\
9.346744620870027	0.0\\
9.36994678207446	0.0\\
9.393369918896653	0.0\\
9.416485905444521	0.0\\
9.439888759538501	0.0\\
9.46341540084613	0.0\\
9.486912632773382	0.0\\
9.510474674519106	0.0\\
9.53409917019206	0.0\\
9.557628327569653	0.0\\
9.581122581344093	0.0\\
9.604111984638909	0.0\\
9.627274132575888	0.0\\
9.650864624204104	0.0\\
9.67451330231004	0.0\\
9.697779677961265	0.0\\
9.721050083892802	0.0\\
9.74481283784537	0.0\\
9.768187032166136	0.0\\
9.792184944606202	0.0\\
9.815858083494977	0.0\\
9.840151443929784	0.0\\
9.863675516128588	0.0\\
9.887681424891099	0.0\\
9.911245366471505	0.0\\
9.934996202631474	0.0\\
9.958865195208826	0.0\\
9.982774860161111	0.0\\
10.006943301951654	0.0\\
10.03097663445347	0.0\\
10.054718995541002	0.0\\
10.079224038160827	0.0\\
10.102824859234104	0.0\\
10.127016175761714	0.0\\
10.150859505499039	0.0\\
10.17489324778241	0.0\\
10.199329999301227	0.0\\
10.223639260844635	0.0\\
10.2482348698884	0.0\\
10.272729876654278	0.0\\
10.297033833117151	0.0\\
10.321422770853701	0.0\\
10.34607133684387	0.0\\
10.369832019340716	0.0\\
10.39409386882203	0.0\\
10.418948354971093	0.0\\
10.443764023573635	0.0\\
10.468126879298644	0.0\\
10.492599107010388	0.0\\
10.517130379311045	0.0\\
10.541649694644768	0.0\\
10.566007123753234	0.0\\
10.590587091520831	0.0\\
10.615290801560818	0.0\\
10.639801464501751	0.0\\
10.66457428064085	0.0\\
10.689158577413899	0.0\\
10.714093905500572	0.0\\
10.738891672655981	0.0\\
10.76391789044579	0.0\\
10.789189596614275	0.0\\
10.813975753806545	0.0\\
10.838757196214566	0.0\\
10.863872075647866	0.0\\
10.889052544140316	0.0\\
10.913902467056193	0.0\\
10.939028768027313	0.0\\
10.964028141273573	0.0\\
10.989256408867664	0.0\\
11.014354448174714	0.0\\
11.039314824913014	0.0\\
11.064776463916306	0.0\\
11.089933862933776	0.0\\
11.115317073177017	0.0\\
11.14049182262782	0.0\\
11.16582632230822	0.0\\
11.191197790365013	0.0\\
11.216605272960408	0.0\\
11.24195836903845	0.0\\
11.267246984795388	0.0\\
11.292666505976207	0.0\\
11.318125179889922	0.0\\
11.343470448720613	0.0\\
11.368941324544878	0.0\\
11.394675476443147	0.0\\
11.420594604419378	0.0\\
11.44622576710309	0.0\\
11.471926318359763	0.0\\
11.497725278632814	0.0\\
11.523276686128554	0.0\\
11.549178987089281	0.0\\
11.57525561873818	0.0\\
11.601184240265837	0.0\\
11.62728393253223	0.0\\
11.653260002237001	0.0\\
11.679206588066428	0.0\\
11.705470413401304	0.0\\
11.731456553984529	0.0\\
11.757304516667055	0.0\\
11.783078172968292	0.0\\
11.809243334797781	0.0\\
11.835108620389317	0.0\\
11.861313254006841	0.0\\
11.88738443013171	0.0\\
11.913604542869031	0.0\\
11.939883348912069	0.0\\
11.966122436712574	0.0\\
11.99220378978784	0.0\\
12.018497765532242	0.0\\
12.044902843944548	0.0\\
12.071242126550647	0.0\\
12.09739347429587	0.0\\
12.123625544873185	0.0\\
12.149929761766959	0.0\\
12.176196876044145	0.0\\
12.202406903016776	0.0\\
12.228422005534142	0.0\\
12.254863512907686	0.0\\
12.281269934307833	0.0\\
12.307617698764087	0.0\\
12.334285612400283	0.0\\
12.361059139959153	0.0\\
12.387658508845487	0.0\\
12.413622356003462	0.0\\
12.440090211776393	0.0\\
12.466636423258858	0.0\\
12.492971383918647	0.0\\
12.519661489115322	0.0\\
12.525026068048177	0.0\\
12.528561573013189	0.0\\
12.538753276343833	0.0\\
12.538976039349379	0.0\\
12.539180881158472	0.0\\
12.540380039243551	0.0\\
12.544332082714405	0.0\\
12.555313799747669	0.0\\
12.577007480083402	0.0\\
12.599238680941074	0.0\\
12.621788157621861	0.0\\
12.644215077852383	0.0\\
12.666649142872583	0.0\\
12.689115221105084	0.0\\
12.71164030495401	0.0\\
12.734208142236206	0.0\\
12.75708435965273	0.0\\
12.779682172440179	0.0\\
12.802365735805473	0.0\\
12.825270772608718	0.0\\
12.848201438356586	0.0\\
12.871160187201983	0.0\\
12.89424170003609	0.0\\
12.917456167365668	0.0\\
12.940413297792812	0.0\\
12.9635610605086	0.0\\
12.986446144943926	0.0\\
13.009562703486893	0.0\\
13.033043953329429	0.0\\
13.05619860793546	0.0\\
13.079670152620263	0.0\\
13.10277341589072	0.0\\
13.126012822374602	0.0\\
13.149547942160204	0.0\\
13.173010060381898	0.0\\
13.196182857899402	0.0\\
13.219684687814443	0.0\\
13.243179015087797	0.0\\
13.266654521779643	0.0\\
13.290232477229402	0.0\\
13.314083719601538	0.0\\
13.338064466048358	0.0\\
13.361604662642776	0.0\\
13.385405792741274	0.0\\
13.40931708716225	0.0\\
13.433054781346456	0.0\\
13.457038727255881	0.0\\
13.480944581639275	0.0\\
13.504950561126119	0.0\\
13.528707019183955	0.0\\
13.55262734460285	0.0\\
13.57639369359644	0.0\\
13.600385132870613	0.0\\
13.6244741976099	0.0\\
13.648235074732476	0.0\\
13.672191020425135	0.0\\
13.69588490799341	0.0\\
13.719808918389443	0.0\\
13.743588107284644	0.0\\
13.767776875903458	0.0\\
13.791731880009692	0.0\\
13.815597734796988	0.0\\
13.839335310340903	0.0\\
13.863168575421746	0.0\\
13.887232348667954	0.0\\
13.91147976631337	0.0\\
13.935592448188693	0.0\\
13.959329340028411	0.0\\
13.983314674456683	0.0\\
14.007337913071655	0.0\\
14.03122010107468	0.0\\
14.055143153331233	0.0\\
14.07884662302876	0.0\\
14.1027298867728	0.0\\
14.126570287193669	0.0\\
14.150265176790331	0.0\\
14.174038941248739	0.0\\
14.197846932594839	0.0\\
14.221623231202049	0.0\\
14.24578483013681	0.0\\
14.269731554629825	0.0\\
14.2936685290845	0.0\\
14.317651095556695	0.0\\
14.34140759828042	0.0\\
14.365024537875886	0.0\\
14.38878589658329	0.0\\
14.412505491116768	0.0\\
14.436433760299533	0.0\\
14.46027731778879	0.0\\
14.483839400213164	0.0\\
14.507762288098618	0.0\\
14.531511161653917	0.0\\
14.55544927790519	0.0\\
14.579347513424278	0.0\\
14.60306403987613	0.0\\
14.626856425887055	0.0\\
14.650954243094215	0.0\\
14.6745867261716	0.0\\
14.698446655899442	0.0\\
14.722075646554064	0.0\\
14.745930332676043	0.0\\
14.769857927638732	0.0\\
14.793507112595133	0.0\\
14.81711258144911	0.0\\
14.8408048807209	0.0\\
14.864482239698038	0.0\\
14.888106038953552	0.0\\
14.911709061196458	0.0\\
14.935235353864591	0.0\\
14.958907327108829	0.0\\
14.982838619926628	0.0\\
15.00659314386687	0.0\\
15.030202451505723	0.0\\
15.053890217686224	0.0\\
15.077608984395589	0.0\\
15.101348678978319	0.0\\
15.124960203161592	0.0\\
15.148684979695567	0.0\\
15.172567642854794	0.0\\
15.196465646364462	0.0\\
15.22037030438769	0.0\\
15.244220417510242	0.0\\
15.267869437245665	0.0\\
15.291627489882764	0.0\\
15.315352483124453	0.0\\
15.33910652718286	0.0\\
15.363098816059868	0.0\\
15.386808569794248	0.0\\
15.410455067623808	0.0\\
15.434138961980182	0.0\\
15.457781711054622	0.0\\
15.481406379973905	0.0\\
15.50546073095476	0.0\\
15.529385434548253	0.0\\
15.553304161391676	0.0\\
15.577368511734946	0.0\\
15.601290076530663	0.0\\
15.625150113595296	0.0\\
15.649079457151334	0.0\\
15.6730776122908	0.0\\
15.696982164653843	0.0\\
15.720901053305738	0.0\\
15.74477656772547	0.0\\
15.768628939889403	0.0\\
15.792782278005308	0.0\\
15.816946858859154	0.0\\
15.84088792047407	0.0\\
15.864804924042492	0.0\\
15.888660332860113	0.0\\
15.912766787209087	0.0\\
15.936752190792085	0.0\\
15.960869328505982	0.0\\
15.984790753693897	0.0\\
16.00876733734932	0.0\\
16.032694229462834	0.0\\
16.056617604645794	0.0\\
16.081040009291748	0.0\\
16.105204400939357	0.0\\
16.129321074948592	0.0\\
16.153672533244517	0.0\\
16.177905368264284	0.0\\
16.20216552996608	0.0\\
16.226416064876716	0.0\\
16.250539341673836	0.0\\
16.274996542743537	0.0\\
16.29938607061049	0.0\\
16.323679674958605	0.0\\
16.348072368706916	0.0\\
16.372596196004288	0.0\\
16.39698241879696	0.0\\
16.42137490392554	0.0\\
16.445949807531505	0.0\\
16.470390200258606	0.0\\
16.494999134476316	0.0\\
16.519664109585776	0.0\\
16.544201070000945	0.0\\
16.569161364174107	0.0\\
16.594032539099807	0.0\\
16.61883943573315	0.0\\
16.643616847683525	0.0\\
16.668343792428296	0.0\\
16.692897214357217	0.0\\
16.717696462148794	0.0\\
16.742680978065344	0.0\\
16.76749658146273	0.0\\
16.792373351926976	0.0\\
16.817310253008152	0.0\\
16.842451642256	0.0\\
16.867849992869132	0.0\\
16.89300921070356	0.0\\
16.918157838340242	0.0\\
16.943310358469198	0.0\\
16.968887169839526	0.0\\
16.994251536692516	0.0\\
17.019913827247443	0.0\\
17.04516561658007	0.0\\
17.070509520593184	0.0\\
17.096158836987172	0.0\\
17.121689141921706	0.0\\
17.14717437797235	0.0\\
17.17280099786722	0.0\\
17.198562500098326	0.0\\
17.224431555714737	0.0\\
17.25026348252959	0.0\\
17.276070316493723	0.0\\
17.302174510626422	0.0\\
17.32820945588307	0.0\\
17.354156296698044	0.0\\
17.380487537056013	0.0\\
17.406638964793522	0.0\\
17.432936605538032	0.0\\
17.45939377399616	0.0\\
17.485673600801114	0.0\\
17.512200379995015	0.0\\
17.538614338900587	0.0\\
17.565046008438124	0.0\\
17.591540471126535	0.0\\
17.61792879481058	0.0\\
17.644847478796727	0.0\\
17.671646279777676	0.0\\
17.698690792752274	0.0\\
17.725739581687314	0.0\\
17.752815800713883	0.0\\
17.77961859770698	0.0\\
17.807029139862955	0.0\\
17.83426934236561	0.0\\
17.861562063431826	0.0\\
17.889024071678946	0.0\\
17.916372723728585	0.0\\
17.943944944585233	0.0\\
17.971414414426484	0.0\\
17.99925772544951	0.0\\
18.02702391711353	0.0\\
18.054500814897843	0.0\\
18.0823305818344	0.0\\
18.11024637669653	0.0\\
18.13806290093448	0.0\\
18.16601255640539	0.0\\
18.194190043878045	0.0\\
18.22203305032469	0.0\\
18.2499508065425	0.0\\
18.278259888956484	0.0\\
18.306339963279058	0.0\\
18.334733829572528	0.0\\
18.36290390628313	0.0\\
18.391429818665614	0.0\\
18.419635066069986	0.0\\
18.44768644923657	0.0\\
18.47562651794111	0.0\\
18.50374177905301	0.0\\
18.53202094488328	0.0\\
18.560002814711687	0.0\\
18.588334136999507	0.0\\
18.61646776862692	0.0\\
18.64471307913081	0.0\\
18.67254814577995	0.0\\
18.700648884038046	0.0\\
18.72866488784601	0.0\\
18.75647047164958	0.0\\
18.784453695823423	0.0\\
18.81189477437237	0.0\\
18.83942697686497	0.0\\
18.86728998503358	0.0\\
18.894738529479596	0.0\\
18.92219201182062	0.0\\
18.949679842723505	0.0\\
18.976795258256885	0.0\\
19.003948488250195	0.0\\
19.03114002525222	0.0\\
19.058030500253494	0.0\\
19.08470818968459	0.0\\
19.090106455813235	0.0\\
19.090811023764587	0.0\\
19.091475732711224	0.0\\
19.092035484872078	0.0\\
19.092272768500116	0.0\\
19.092719277794764	0.0\\
19.09466113658356	0.0\\
19.102435375788332	0.0\\
19.11943360850986	0.0\\
19.13869099069327	0.0\\
19.158066166340895	0.0\\
19.17750923825445	0.0\\
19.19702593023745	0.0\\
19.216772558495926	0.0\\
19.23638523618399	0.0\\
19.25607774205387	0.0\\
19.27606657821191	0.0\\
19.295982116485824	0.0\\
19.316106901933644	0.0\\
19.33624468062549	0.0\\
19.35655370815965	0.0\\
19.376916650107383	0.0\\
19.397306944564214	0.0\\
19.417946739517816	0.0\\
19.438751679038894	0.0\\
19.45958060172908	0.0\\
19.480508613322826	0.0\\
19.501644185023032	0.0\\
19.522842582410235	0.0\\
19.544075603773145	0.0\\
19.565371630296205	0.0\\
19.58680287459474	0.0\\
19.608580203277718	0.0\\
19.63042773655914	0.0\\
19.652441033014526	0.0\\
19.674487629259204	0.0\\
19.696824090579618	0.0\\
19.719297286895994	0.0\\
19.741780497649692	0.0\\
19.764380584494177	0.0\\
19.787005846610676	0.0\\
19.8100672353156	0.0\\
19.833005616734575	0.0\\
19.856308493993318	0.0\\
19.879508591289046	0.0\\
19.90284181262563	0.0\\
19.926265675291432	0.0\\
19.949778527399445	0.0\\
19.97358337731478	0.0\\
19.997205803804746	0.0\\
20.02129976909299	0.0\\
20.045182074931652	0.0\\
20.069071273102146	0.0\\
20.09295701139709	0.0\\
20.116798302181422	0.0\\
20.14060701476859	0.0\\
20.164358597272567	0.0\\
20.188290827312933	0.0\\
20.212102301307816	0.0\\
20.23593855453506	0.0\\
20.259424821469374	0.0\\
20.283132721319994	0.0\\
20.30682766758467	0.0\\
20.330435652394875	0.0\\
20.353800405703304	0.0\\
20.37705127397504	0.0\\
20.40039502193612	0.0\\
20.423393029833008	0.0\\
20.446385727841886	0.0\\
20.46936883771665	0.0\\
20.492302361319872	0.0\\
20.515077649623976	0.0\\
20.537853085541826	0.0\\
20.560422404744237	0.0\\
20.58284095533739	0.0\\
20.605178116532734	0.0\\
20.627596868843597	0.0\\
20.64976983009619	0.0\\
20.67194833155957	0.0\\
20.694111763137528	0.0\\
20.71622996608155	0.0\\
20.738265891040243	0.0\\
20.760233392374502	0.0\\
20.782115146642454	0.0\\
20.80388238196553	0.0\\
20.82567076635044	0.0\\
20.84737029247563	0.0\\
20.869072635330113	0.0\\
20.89059654926421	0.0\\
20.912064500950976	0.0\\
20.93351555152151	0.0\\
20.954776795670078	0.0\\
20.97607628353856	0.0\\
20.997361859150878	0.0\\
21.01866993890804	0.0\\
21.039817634036446	0.0\\
21.0610523609963	0.0\\
21.081986978473672	0.0\\
21.10314803978379	0.0\\
21.12408988773179	0.0\\
21.145088040141268	0.0\\
21.166135993451512	0.0\\
21.186893992273646	0.0\\
21.20770609255004	0.0\\
21.22862217819086	0.0\\
21.249429622582518	0.0\\
21.27025407927559	0.0\\
21.29099350898567	0.0\\
21.31175065144356	0.0\\
21.332658727346526	0.0\\
21.353369281863174	0.0\\
21.373925611235506	0.0\\
21.394525501544237	0.0\\
21.415164706513423	0.0\\
21.43568370364202	0.0\\
21.45623415389079	0.0\\
21.476819146639023	0.0\\
21.4973687948321	0.0\\
21.517943897907806	0.0\\
21.53862737072297	0.0\\
21.559142857643508	0.0\\
21.579490988030138	0.0\\
21.600016683411532	0.0\\
21.62036838298959	0.0\\
21.640742526983644	0.0\\
21.661122070598104	0.0\\
21.681428373675452	0.0\\
21.70184047562224	0.0\\
21.72217101179654	0.0\\
21.742513600407975	0.0\\
21.762864390463683	0.0\\
21.78312404733957	0.0\\
21.803391143393092	0.0\\
21.82368148925427	0.0\\
21.843969337416652	0.0\\
21.864154986296008	0.0\\
21.884421532277614	0.0\\
21.90477763816795	0.0\\
21.92509817858454	0.0\\
21.945291278342005	0.0\\
21.965485321815315	0.0\\
21.98570147012289	0.0\\
22.005920843589422	0.0\\
22.026118825326797	0.0\\
22.046355514238016	0.0\\
22.06663410464541	0.0\\
22.086870711882085	0.0\\
22.10711254525183	0.0\\
22.12744569374196	0.0\\
22.147783987036163	0.0\\
22.16802038231728	0.0\\
22.18828884532602	0.0\\
22.208572731157957	0.0\\
22.228838796441586	0.0\\
22.249144801982403	0.0\\
22.269418317774296	0.0\\
22.289686203140803	0.0\\
22.310021059515876	0.0\\
22.330163579034938	0.0\\
22.350424316715568	0.0\\
22.370679341628588	0.0\\
22.391018512068882	0.0\\
22.41128428089209	0.0\\
22.431619272310378	0.0\\
22.451834484040845	0.0\\
22.472283618448152	0.0\\
22.492606369493963	0.0\\
22.51310979264099	0.0\\
22.53352672732393	0.0\\
22.553864938542127	0.0\\
22.57429504873489	0.0\\
22.594720176343444	0.0\\
22.615175588002067	0.0\\
22.63552723093335	0.0\\
22.65596381727802	0.0\\
22.67639602837803	0.0\\
22.696986860242312	0.0\\
22.717485977599942	0.0\\
22.737817295136452	0.0\\
22.758412484399237	0.0\\
22.778869785842133	0.0\\
22.79933842312618	0.0\\
22.819778759660046	0.0\\
22.8402174615888	0.0\\
22.86080429842236	0.0\\
22.881434982781066	0.0\\
22.90197683847383	0.0\\
22.922717658051965	0.0\\
22.943265965611474	0.0\\
22.96400139235876	0.0\\
22.984777864525675	0.0\\
23.00559383713984	0.0\\
23.026377602307086	0.0\\
23.04708464082188	0.0\\
23.06779463320781	0.0\\
23.088710366254958	0.0\\
23.109538761592603	0.0\\
23.130389076562352	0.0\\
23.151266473201645	0.0\\
23.172241945589718	0.0\\
23.193182649600622	0.0\\
23.214197273656794	0.0\\
23.23525298943636	0.0\\
23.256165384412313	0.0\\
23.277212433866524	0.0\\
23.298167061670355	0.0\\
23.31922378801862	0.0\\
23.340496620480643	0.0\\
23.36167713773363	0.0\\
23.382851333344725	0.0\\
23.40405317948634	0.0\\
23.42536074757573	0.0\\
23.446672463774647	0.0\\
23.46804722857739	0.0\\
23.48969038575678	0.0\\
23.511233190143535	0.0\\
23.532846970984117	0.0\\
23.554402061912207	0.0\\
23.575916895712574	0.0\\
23.597606976477294	0.0\\
23.619254721538674	0.0\\
23.640998572764957	0.0\\
23.66280539277229	0.0\\
23.684619736686642	0.0\\
23.706338143304315	0.0\\
23.728121850508806	0.0\\
23.75001182114658	0.0\\
23.77220086570378	0.0\\
23.79414975704522	0.0\\
23.816180851791984	0.0\\
23.838325667453958	0.0\\
23.860488389584937	0.0\\
23.88271964682852	0.0\\
23.905004833865462	0.0\\
23.927385454962597	0.0\\
23.949767684122975	0.0\\
23.972319011263025	0.0\\
23.994960365679255	0.0\\
24.017663858380814	0.0\\
24.04047919251667	0.0\\
24.063120241979377	0.0\\
24.086082402542694	0.0\\
24.109050909973284	0.0\\
24.13207395037564	0.0\\
24.155068372458665	0.0\\
24.178401407667998	0.0\\
24.20171961398028	0.0\\
24.225151124518526	0.0\\
24.248674952814696	0.0\\
24.27225234107074	0.0\\
24.29610512623384	0.0\\
24.31994604865649	0.0\\
24.34378166943111	0.0\\
24.367718055701737	0.0\\
24.391902320963773	0.0\\
24.4162686092222	0.0\\
24.44059067140107	0.0\\
24.465052290645673	0.0\\
24.48957947403376	0.0\\
24.514186863174025	0.0\\
24.538977361404157	0.0\\
24.563967411105835	0.0\\
24.588976899686223	0.0\\
24.61440272371076	0.0\\
24.639988718084084	0.0\\
24.665472817942685	0.0\\
24.691314619118607	0.0\\
24.717330509325848	0.0\\
24.743390996704818	0.0\\
24.76960496419789	0.0\\
24.79604818890465	0.0\\
24.822839850532432	0.0\\
24.849618802210898	0.0\\
24.87695582399966	0.0\\
24.90444411553497	0.0\\
24.932044656452135	0.0\\
24.960032529393928	0.0\\
24.987964524115405	0.0\\
25.016230218298418	0.0\\
25.044574528042155	0.0\\
25.07328295857036	0.0\\
25.102125516082687	0.0\\
25.130934155923683	0.0\\
25.159736340434947	0.0\\
25.18864541601294	0.0\\
25.217713307377153	0.0\\
25.246520407841786	0.0\\
25.275116547780335	0.0\\
25.30353486150792	0.0\\
25.3317279207404	0.0\\
25.359622483061074	0.0\\
25.387297411499553	0.0\\
25.414873383385498	0.0\\
25.441929174180764	0.0\\
25.468936236456422	0.0\\
25.49554358112099	0.0\\
25.522088377592638	0.0\\
25.548390864600698	0.0\\
25.574368347312003	0.0\\
25.600286371583998	0.0\\
25.62591725079359	0.0\\
25.651270506136804	0.0\\
25.6765497740936	0.0\\
25.701664989739427	0.0\\
25.72652576192155	0.0\\
25.751204559717195	0.0\\
25.775634656137136	0.0\\
25.79989066110131	0.0\\
25.824025943609854	0.0\\
25.84814138136342	0.0\\
25.871964253268523	0.0\\
25.895698510108197	0.0\\
25.919045636432358	0.0\\
25.94235953764165	0.0\\
25.96553442160119	0.0\\
25.988687027513286	0.0\\
26.011603616443665	0.0\\
26.034545855651828	0.0\\
26.057342905154535	0.0\\
26.07993429412531	0.0\\
26.1024612376343	0.0\\
26.12497943044935	0.0\\
26.147294250846677	0.0\\
26.1517660071378	0.0\\
26.15433903356452	0.0\\
26.155962145884395	0.0\\
26.157127832096016	0.0\\
26.158078288373105	0.0\\
26.15878289110949	0.0\\
26.15956661958598	0.0\\
26.160302006320897	0.0\\
26.160524385585006	0.0\\
26.16104271922655	0.0\\
26.16335099741753	0.0\\
26.171167752896885	0.0\\
26.190829482618057	0.0\\
26.211696037884437	0.0\\
26.232584774911636	0.0\\
26.253597720974376	0.0\\
26.27454994063453	0.0\\
26.295707514244192	0.0\\
26.317030948270904	0.0\\
26.338412590483884	0.0\\
26.359915931833036	0.0\\
26.381653073001388	0.0\\
26.403380788279648	0.0\\
26.425353380304415	0.0\\
26.447326010298994	0.0\\
26.46934882222053	0.0\\
26.491610615186183	0.0\\
26.51393630181169	0.0\\
26.536493119658864	0.0\\
26.559170177919015	0.0\\
26.58202225531585	0.0\\
26.60504581720751	0.0\\
26.628306737618935	0.0\\
26.651677245172557	0.0\\
26.67515832304459	0.0\\
26.698763006228603	0.0\\
26.722725271685427	0.0\\
26.74663201719379	0.0\\
26.771024522553915	0.0\\
26.795399575551713	0.0\\
26.820061659464777	0.0\\
26.8449770314962	0.0\\
26.870229628141182	0.0\\
26.895727067981234	0.0\\
26.921290389218093	0.0\\
26.947246835549578	0.0\\
26.97349466051731	0.0\\
26.99977623025334	0.0\\
27.026346816357872	0.0\\
27.05338873986379	0.0\\
27.080450038165218	0.0\\
27.107621431977797	0.0\\
27.135046581749428	0.0\\
27.162639599154865	0.0\\
27.19055443124666	0.0\\
27.218332761879736	0.0\\
27.246001902119367	0.0\\
27.27375795388393	0.0\\
27.30138372635659	0.0\\
27.328942369438067	0.0\\
27.356460115017093	0.0\\
27.383682856048225	0.0\\
27.4106372799029	0.0\\
27.43772626954859	0.0\\
27.464474922512906	0.0\\
27.491076775456342	0.0\\
27.517633786267716	0.0\\
27.544028343353908	0.0\\
27.570128949286996	0.0\\
27.595976300437357	0.0\\
27.621597199314778	0.0\\
27.64715770765438	0.0\\
27.672434060812854	0.0\\
27.697589562908227	0.0\\
27.722653585484053	0.0\\
27.747557225220227	0.0\\
27.772390382788302	0.0\\
27.79706464402613	0.0\\
27.82156160196947	0.0\\
27.84576020036198	0.0\\
27.870109811155558	0.0\\
27.894222725674332	0.0\\
27.91829254322011	0.0\\
27.942277101416806	0.0\\
27.966325985159806	0.0\\
27.990064329056572	0.0\\
28.01369924572751	0.0\\
28.037235162974596	0.0\\
28.060823726923168	0.0\\
28.08418393400587	0.0\\
28.107500579863036	0.0\\
28.130722400125535	0.0\\
28.153949122884505	0.0\\
28.177157714173795	0.0\\
28.200223566922936	0.0\\
28.22322660449501	0.0\\
28.24620141647293	0.0\\
28.26908967792172	0.0\\
28.292072027476372	0.0\\
28.314920969517495	0.0\\
28.337747673743863	0.0\\
28.360533608856734	0.0\\
28.383185499636284	0.0\\
28.405827302389056	0.0\\
28.428377636713293	0.0\\
28.450755621189003	0.0\\
28.473207155836462	0.0\\
28.495640007931456	0.0\\
28.518084431824015	0.0\\
28.540419623799963	0.0\\
28.562759736514806	0.0\\
28.585097404980374	0.0\\
28.60736019294464	0.0\\
28.629457557919913	0.0\\
28.651587868911307	0.0\\
28.673792356531195	0.0\\
28.695892372554965	0.0\\
28.71809014033093	0.0\\
28.740200509196747	0.0\\
28.762297239006855	0.0\\
28.784380705285123	0.0\\
28.806448826932765	0.0\\
28.828570813123996	0.0\\
28.850573903793084	0.0\\
28.872537724469353	0.0\\
28.894375342076437	0.0\\
28.91625425497343	0.0\\
28.938163094615092	0.0\\
28.960089488247476	0.0\\
28.982030169473084	0.0\\
29.003875762661693	0.0\\
29.025697187937332	0.0\\
29.047419632455544	0.0\\
29.069191925768337	0.0\\
29.090974727579727	0.0\\
29.112733785329084	0.0\\
29.134470548063234	0.0\\
29.15631850884133	0.0\\
29.17802977202694	0.0\\
29.19969985480263	0.0\\
29.221347104387945	0.0\\
29.243172592357055	0.0\\
29.26490662022794	0.0\\
29.286656730763873	0.0\\
29.308280269213284	0.0\\
29.32996384378407	0.0\\
29.351524051976313	0.0\\
29.373277254629805	0.0\\
29.395003672787837	0.0\\
29.41664648501134	0.0\\
29.4383680068481	0.0\\
29.459977661258456	0.0\\
29.481650372974073	0.0\\
29.50336309708628	0.0\\
29.524967391625275	0.0\\
29.546724307724766	0.0\\
29.568276505764743	0.0\\
29.58992155265984	0.0\\
29.61159556557668	0.0\\
29.633195049628064	0.0\\
29.65483616828905	0.0\\
29.676497884867118	0.0\\
29.698154135631313	0.0\\
29.71974304457948	0.0\\
29.741381659439483	0.0\\
29.763065465197393	0.0\\
29.784838991483674	0.0\\
29.806645610146077	0.0\\
29.828344597769394	0.0\\
29.84997459739963	0.0\\
29.871748402971527	0.0\\
29.893532722325368	0.0\\
29.91530422619001	0.0\\
29.936948097216998	0.0\\
29.958760875802575	0.0\\
29.980503324368023	0.0\\
30.00224857964337	0.0\\
30.02401332025235	0.0\\
30.045739731298035	0.0\\
30.067686928460688	0.0\\
30.089492786931167	0.0\\
30.111381337767448	0.0\\
30.13335516866406	0.0\\
30.155173253633215	0.0\\
30.17709503589571	0.0\\
30.199040724083822	0.0\\
30.221076944518977	0.0\\
30.243068651812912	0.0\\
30.26504769521459	0.0\\
30.287007850738313	0.0\\
30.30916335703015	0.0\\
30.331418237952697	0.0\\
30.353553919414132	0.0\\
30.37577828833183	0.0\\
30.397866007992015	0.0\\
30.419927101342836	0.0\\
30.442140040260973	0.0\\
30.464261253544848	0.0\\
30.48641543318159	0.0\\
30.508605799070907	0.0\\
30.53093796067853	0.0\\
30.553215547785825	0.0\\
30.57554439783808	0.0\\
30.59786787061278	0.0\\
30.62033716405071	0.0\\
30.642738965633093	0.0\\
30.66526266948558	0.0\\
30.687626310682504	0.0\\
30.710045627646274	0.0\\
30.732468722368893	0.0\\
30.755081366581656	0.0\\
30.77761993728187	0.0\\
30.800154313776908	0.0\\
30.8227377590254	0.0\\
30.845307822898597	0.0\\
30.868059756713556	0.0\\
30.890696935490794	0.0\\
30.91353216161655	0.0\\
30.936256456392186	0.0\\
30.95908307155102	0.0\\
30.981975753051515	0.0\\
31.004818529991496	0.0\\
31.027740507724005	0.0\\
31.050854715222677	0.0\\
31.073912975583603	0.0\\
31.09708468923813	0.0\\
31.12030968410818	0.0\\
31.143492871910475	0.0\\
31.166752114485682	0.0\\
31.18997651530431	0.0\\
31.21329743683136	0.0\\
31.236748581465918	0.0\\
31.26010564307832	0.0\\
31.283576684201115	0.0\\
31.307089844081382	0.0\\
31.330614469173277	0.0\\
31.35419173902816	0.0\\
31.377868212952173	0.0\\
31.401616407692316	0.0\\
31.425288887284992	0.0\\
31.44915181151584	0.0\\
31.473056386850047	0.0\\
31.49692259798116	0.0\\
31.5209864826949	0.0\\
31.545035348325065	0.0\\
31.569242510391746	0.0\\
31.593563130858918	0.0\\
31.618036367197163	0.0\\
31.642343259149108	0.0\\
31.666718088415408	0.0\\
31.691287583918132	0.0\\
31.71574489356663	0.0\\
31.740333029305056	0.0\\
31.7649973015957	0.0\\
31.789768021667925	0.0\\
31.814559652688956	0.0\\
31.83953689655025	0.0\\
31.8645574867981	0.0\\
31.88985673354329	0.0\\
31.915022729294748	0.0\\
31.940350222232205	0.0\\
31.965984453863577	0.0\\
31.99163543617415	0.0\\
32.01739309744596	0.0\\
32.04311909753959	0.0\\
32.06917606310307	0.0\\
32.09545328269418	0.0\\
32.12156952549529	0.0\\
32.14799810297518	0.0\\
32.1745144365767	0.0\\
32.20111010788703	0.0\\
32.22793764433969	0.0\\
32.25494045750429	0.0\\
32.28207151217518	0.0\\
32.30943028421757	0.0\\
32.336838268778635	0.0\\
32.36440302421046	0.0\\
32.39221072008338	0.0\\
32.42040637466653	0.0\\
32.44881853885849	0.0\\
32.47728233451839	0.0\\
32.50610840310193	0.0\\
32.53518897595103	0.0\\
32.56443204358398	0.0\\
32.59418904208415	0.0\\
32.62413611798668	0.0\\
32.65441785199464	0.0\\
32.685293686856426	0.0\\
32.71628264448745	0.0\\
32.74773077624246	0.0\\
32.779620238427455	0.0\\
32.81195934545927	0.0\\
32.844821122856914	0.0\\
32.878106648121545	0.0\\
32.91176676214238	0.0\\
32.94571439948774	0.0\\
32.97984475942616	0.0\\
33.013850421373206	0.0\\
33.04795318180868	0.0\\
33.08193370868686	0.0\\
33.11559827361394	0.0\\
33.148587968594995	0.0\\
33.181171529682274	0.0\\
33.21351681235254	0.0\\
33.24517063803185	0.0\\
33.27625299539213	0.0\\
33.30705425991867	0.0\\
33.337358675580816	0.0\\
33.367309414934255	0.0\\
33.397086502230394	0.0\\
33.42653771177187	0.0\\
33.45549575568302	0.0\\
33.484104730121985	0.0\\
33.5123222264765	0.0\\
33.54048419726807	0.0\\
33.568246661029065	0.0\\
33.59579845711443	0.0\\
33.62312466805153	0.0\\
33.65015771142896	0.0\\
33.6769035926815	0.0\\
33.70348287766335	0.0\\
33.72996886015923	0.0\\
33.75615561891175	0.0\\
33.78232042950897	0.0\\
33.80813098045418	0.0\\
33.8337883227495	0.0\\
33.859280018901444	0.0\\
33.88465583021704	0.0\\
33.90994652767654	0.0\\
33.93514636186845	0.0\\
33.96025087754488	0.0\\
33.98502335103743	0.0\\
34.00973882678622	0.0\\
34.03437041889599	0.0\\
34.05878955316376	0.0\\
34.08322207286754	0.0\\
34.107440721042835	0.0\\
34.13169881772447	0.0\\
34.136491478971166	0.0\\
34.140105034234836	0.0\\
34.14259461389295	0.0\\
34.14331872991403	0.0\\
34.14386419781786	0.0\\
34.14410307331596	0.0\\
34.144366759858556	0.0\\
34.145929252286436	0.0\\
34.153407367256136	0.0\\
34.17307581558741	0.0\\
34.19667959171974	0.0\\
34.22044991063491	0.0\\
34.24442068095877	0.0\\
34.268284674170886	0.0\\
34.292352639643795	0.0\\
34.31656894677167	0.0\\
34.34087808910584	0.0\\
34.36557736762457	0.0\\
34.390216559072854	0.0\\
34.41516200463323	0.0\\
34.4400763302623	0.0\\
34.46520834825402	0.0\\
34.49050752683412	0.0\\
34.516035081326564	0.0\\
34.54165051309994	0.0\\
34.56741888228633	0.0\\
34.593380358030245	0.0\\
34.61945851372495	0.0\\
34.6457252222594	0.0\\
34.67235545799825	0.0\\
34.69924759037289	0.0\\
34.726272770937655	0.0\\
34.75357442102812	0.0\\
34.78109556849063	0.0\\
34.80893375066667	0.0\\
34.83704252384244	0.0\\
34.865369037105836	0.0\\
34.894089889381945	0.0\\
34.92305183296891	0.0\\
34.9524972934358	0.0\\
34.98228604172047	0.0\\
35.01227959298885	0.0\\
35.04269284363106	0.0\\
35.07361071282698	0.0\\
35.104677122944906	0.0\\
35.136127467107755	0.0\\
35.16820463371437	0.0\\
35.200628360214054	0.0\\
35.233188568625806	0.0\\
35.266161361812024	0.0\\
35.2992316171034	0.0\\
35.33207424074055	0.0\\
35.36509180371854	0.0\\
35.397923451445735	0.0\\
35.430774499077145	0.0\\
35.463308106476546	0.0\\
35.495520608185814	0.0\\
35.52729557617859	0.0\\
35.55866681749295	0.0\\
35.58969603439981	0.0\\
35.62035748958856	0.0\\
35.650805165922364	0.0\\
35.680824797343845	0.0\\
35.710863524348326	0.0\\
35.740515956300456	0.0\\
35.77011375331139	0.0\\
35.79934913911828	0.0\\
35.82826106081197	0.0\\
35.85689207868707	0.0\\
35.8854623794486	0.0\\
35.913853805653005	0.0\\
35.94209588020479	0.0\\
35.97010509631362	0.0\\
35.99785766564398	0.0\\
36.025632400108705	0.0\\
36.053074792069026	0.0\\
36.080417861571675	0.0\\
36.107645892618336	0.0\\
36.13475197939748	0.0\\
36.16181770412912	0.0\\
36.188686970736455	0.0\\
36.21548570018109	0.0\\
36.242177703389686	0.0\\
36.268725947795446	0.0\\
36.295252932274494	0.0\\
36.32167592442836	0.0\\
36.348011462649694	0.0\\
36.374344131911926	0.0\\
36.40041780128146	0.0\\
36.4265640723802	0.0\\
36.45266231831003	0.0\\
36.47860739483886	0.0\\
36.5044143234536	0.0\\
36.530171800332255	0.0\\
36.55597026120091	0.0\\
36.58172052284294	0.0\\
36.607370303492914	0.0\\
36.6328019336016	0.0\\
36.65824793277723	0.0\\
36.683670664972354	0.0\\
36.70898035302686	0.0\\
36.73438248872817	0.0\\
36.759716621032155	0.0\\
36.785047469496575	0.0\\
36.81015975216806	0.0\\
36.83518970827136	0.0\\
36.860318237367494	0.0\\
36.885416409331825	0.0\\
36.910455775225344	0.0\\
36.935437303041155	0.0\\
36.96043914918792	0.0\\
36.98540516086307	0.0\\
37.01033165252612	0.0\\
37.03519689106639	0.0\\
37.06011566957501	0.0\\
37.08492743160437	0.0\\
37.10969847732986	0.0\\
37.13448757391431	0.0\\
37.15928392541623	0.0\\
37.18397477954156	0.0\\
37.20872509605006	0.0\\
37.233556947109705	0.0\\
37.2581931070372	0.0\\
37.28280170470188	0.0\\
37.30752252299324	0.0\\
37.3322029881238	0.0\\
37.35675007469818	0.0\\
37.38136765726969	0.0\\
37.40600592332656	0.0\\
37.43058878924619	0.0\\
37.455047140540046	0.0\\
37.479568984813994	0.0\\
37.50405745033933	0.0\\
37.52854289295003	0.0\\
37.55294103878309	0.0\\
37.577399776065974	0.0\\
37.60190765438658	0.0\\
37.62631655499608	0.0\\
37.65076922083354	0.0\\
37.675114097236445	0.0\\
37.69956262510689	0.0\\
37.72400578315087	0.0\\
37.748425200748784	0.0\\
37.772748182331725	0.0\\
37.79708863952095	0.0\\
37.82159692744861	0.0\\
37.846042010643686	0.0\\
37.87047060503998	0.0\\
37.89477756881652	0.0\\
37.91909471835393	0.0\\
37.94351154661226	0.0\\
37.96798401089478	0.0\\
37.99240621543939	0.0\\
38.01686003718139	0.0\\
38.04125913957162	0.0\\
38.065613539787535	0.0\\
38.08993342233386	0.0\\
38.11442468432165	0.0\\
38.13881182861299	0.0\\
38.16320642182981	0.0\\
38.18757638686502	0.0\\
38.21197657998387	0.0\\
38.23647531883866	0.0\\
38.260901393182124	0.0\\
38.285330074805216	0.0\\
38.309818287477356	0.0\\
38.33430592076067	0.0\\
38.35881470330884	0.0\\
38.38345380988996	0.0\\
38.40798666643944	0.0\\
38.43250429937879	0.0\\
38.456999101371736	0.0\\
38.48145326404975	0.0\\
38.50616173030838	0.0\\
38.530690428740485	0.0\\
38.55524072692015	0.0\\
38.579922638608366	0.0\\
38.60453839390871	0.0\\
38.629211597422895	0.0\\
38.653786904274	0.0\\
38.67847377916375	0.0\\
38.70316526138461	0.0\\
38.727898975452675	0.0\\
38.75267704941636	0.0\\
38.77732791497431	0.0\\
38.80206359258655	0.0\\
38.826708189782025	0.0\\
38.85148731125469	0.0\\
38.87633032158057	0.0\\
38.90119451905507	0.0\\
38.925987698999805	0.0\\
38.950789511139064	0.0\\
38.975793075379116	0.0\\
39.00070512918049	0.0\\
39.02568778959835	0.0\\
39.05076945168395	0.0\\
39.07578182443605	0.0\\
39.10079806505486	0.0\\
39.12585618710894	0.0\\
39.15091207264609	0.0\\
39.176031069595965	0.0\\
39.20115084293181	0.0\\
39.226207647025106	0.0\\
39.25141288007363	0.0\\
39.27668070371496	0.0\\
39.301929376938446	0.0\\
39.32715651287151	0.0\\
39.3524670312229	0.0\\
39.37783161980548	0.0\\
39.40319889805443	0.0\\
39.42864420232047	0.0\\
39.45412843070267	0.0\\
39.479651912719845	0.0\\
39.50516812162739	0.0\\
39.530761748136044	0.0\\
39.55638287306269	0.0\\
39.58202389122127	0.0\\
39.60766936890158	0.0\\
39.633336611626675	0.0\\
39.65908127740302	0.0\\
39.68488689673616	0.0\\
39.71070279575224	0.0\\
39.73656042473347	0.0\\
39.7624685610715	0.0\\
39.78843213531144	0.0\\
39.81442124080134	0.0\\
39.84047774685837	0.0\\
39.866679411535	0.0\\
39.89285989867618	0.0\\
39.91906400499616	0.0\\
39.945320964492325	0.0\\
39.97165670667572	0.0\\
39.99801540718255	0.0\\
40.02435657863256	0.0\\
40.05089294429132	0.0\\
40.07739869279668	0.0\\
40.10399722074327	0.0\\
40.13056118919181	0.0\\
40.157329622362866	0.0\\
40.18407698772957	0.0\\
40.21090865520013	0.0\\
40.2378147099778	0.0\\
40.26483540952364	0.0\\
40.29183259086261	0.0\\
40.31890352738233	0.0\\
40.346057473291964	0.0\\
40.37324396229468	0.0\\
40.40057621316642	0.0\\
40.42791964886038	0.0\\
40.45528342736672	0.0\\
40.48284980550599	0.0\\
40.51053721206762	0.0\\
40.53830311490384	0.0\\
40.56606705557448	0.0\\
40.59390951246698	0.0\\
40.621852477316565	0.0\\
40.64992312888779	0.0\\
40.678127736569294	0.0\\
40.70638924497467	0.0\\
40.734768232798075	0.0\\
40.76323758424839	0.0\\
40.79175379931584	0.0\\
40.82038216425319	0.0\\
40.84910439599284	0.0\\
40.87792328973798	0.0\\
40.906980407125744	0.0\\
40.93621087805238	0.0\\
40.96544800450596	0.0\\
40.99503211865574	0.0\\
41.0246955629887	0.0\\
41.054376430062746	0.0\\
41.08416370378153	0.0\\
41.114157714088435	0.0\\
41.14425469480132	0.0\\
41.174658066215	0.0\\
41.205355908932205	0.0\\
41.23600489732938	0.0\\
41.26696856222499	0.0\\
41.298152076211565	0.0\\
41.3293455429322	0.0\\
41.36084703027102	0.0\\
41.39258632214546	0.0\\
41.42460863646565	0.0\\
41.456943338081956	0.0\\
41.48953591392312	0.0\\
41.52231928443253	0.0\\
41.55550466704345	0.0\\
41.588854500629395	0.0\\
41.62272760807886	0.0\\
41.65704012935369	0.0\\
41.69164829471998	0.0\\
41.72658180346929	0.0\\
41.762194562596875	0.0\\
41.79838244602357	0.0\\
41.83508618566228	0.0\\
41.87222328032105	0.0\\
41.91021884502943	0.0\\
41.948928516829284	0.0\\
41.98843712875964	0.0\\
42.02864174472283	0.0\\
42.06966730965445	0.0\\
42.11145987436355	0.0\\
42.15337454531881	0.0\\
42.194920744776795	0.0\\
42.235924161749764	0.0\\
42.27640972560383	0.0\\
42.315927220437274	0.0\\
42.354790856376965	0.0\\
42.392634619390805	0.0\\
42.4298848545766	0.0\\
42.466464354954525	0.0\\
42.50234957844931	0.0\\
42.53765756608669	0.0\\
42.57230699048671	0.0\\
42.60659056431287	0.0\\
42.64048596333518	0.0\\
42.67395274652188	0.0\\
42.70707195213198	0.0\\
42.739775762688055	0.0\\
42.77204169735873	0.0\\
42.8041101780165	0.0\\
42.83582032484897	0.0\\
42.86713266396791	0.0\\
42.89830837172157	0.0\\
42.92918343282298	0.0\\
42.959868704406944	0.0\\
42.990141654056984	0.0\\
43.020321417607164	0.0\\
43.05032795812255	0.0\\
43.08010786280063	0.0\\
43.10971679666301	0.0\\
43.13916896718446	0.0\\
43.16840261737099	0.0\\
43.19751498671366	0.0\\
43.22647185702215	0.0\\
43.2552373309248	0.0\\
43.2839785787081	0.0\\
43.31239281114094	0.0\\
43.3407377625103	0.0\\
43.3689622667693	0.0\\
43.396970604042195	0.0\\
43.42484748263158	0.0\\
43.45262883408071	0.0\\
43.45816005408206	0.0\\
43.46180778832404	0.0\\
43.46481168936633	0.0\\
43.467107182084675	0.0\\
43.467380395535145	0.0\\
43.46765593171945	0.0\\
43.46928628901371	0.0\\
43.47916390137516	0.0\\
43.507644736870915	0.0\\
43.535878474671236	0.0\\
43.564379879848744	0.0\\
43.59299359262417	0.0\\
43.62170474657792	0.0\\
43.6505680213926	0.0\\
43.679633560234066	0.0\\
43.7088979615917	0.0\\
43.73835524003762	0.0\\
43.76799891312348	0.0\\
43.79792106441897	0.0\\
43.82797673563003	0.0\\
43.85821224504562	0.0\\
43.888658319144824	0.0\\
43.919438700780844	0.0\\
43.95040743669266	0.0\\
43.98152821443736	0.0\\
44.01296930987387	0.0\\
44.04468562699266	0.0\\
44.07672390008386	0.0\\
44.10899718689838	0.0\\
44.1416187301499	0.0\\
44.174603220700135	0.0\\
44.207929668498295	0.0\\
44.24171177929131	0.0\\
44.27576072725432	0.0\\
44.310189464256254	0.0\\
44.34511075697294	0.0\\
44.38042834748232	0.0\\
44.4165123333983	0.0\\
44.453148881956324	0.0\\
44.49012579032426	0.0\\
44.52749508692139	0.0\\
44.56577291814283	0.0\\
44.60469788016081	0.0\\
44.64387984528855	0.0\\
44.68365227250662	0.0\\
44.72374480849098	0.0\\
44.764226387145925	0.0\\
44.80436585340941	0.0\\
44.84463608941387	0.0\\
44.884489023033396	0.0\\
44.92388138210477	0.0\\
44.96303905036014	0.0\\
45.00149209730455	0.0\\
45.03914446721207	0.0\\
45.076536664292576	0.0\\
45.11334514792587	0.0\\
45.14973722884548	0.0\\
45.18589104350633	0.0\\
45.22149990438007	0.0\\
45.25672592266443	0.0\\
45.29197175875083	0.0\\
45.326813718382994	0.0\\
45.36122426930439	0.0\\
45.395211949802885	0.0\\
45.42905163069567	0.0\\
45.46256951906594	0.0\\
45.4958612829262	0.0\\
45.52900857766923	0.0\\
45.561781821697494	0.0\\
45.59449818657389	0.0\\
45.627142174491496	0.0\\
45.65952386783337	0.0\\
45.69161529054591	0.0\\
45.72385983727136	0.0\\
45.755675080691574	0.0\\
45.78738429026747	0.0\\
45.81903325364448	0.0\\
45.85062492448847	0.0\\
45.881989276051	0.0\\
45.913400497175715	0.0\\
45.944690831962276	0.0\\
45.97573281711669	0.0\\
46.00668267197244	0.0\\
46.03744594595338	0.0\\
46.068325069881766	0.0\\
46.099020945539095	0.0\\
46.1296603880356	0.0\\
46.16009657659312	0.0\\
46.19042448356571	0.0\\
46.22066510681651	0.0\\
46.25082865653182	0.0\\
46.281024868552976	0.0\\
46.31112969971602	0.0\\
46.34106467112787	0.0\\
46.371026825102575	0.0\\
46.40090230350005	0.0\\
46.43069547045941	0.0\\
46.46056617134144	0.0\\
46.49040853721945	0.0\\
46.52001936370935	0.0\\
46.54979189175367	0.0\\
46.57938491258018	0.0\\
46.608969734658544	0.0\\
46.638362980714675	0.0\\
46.66781787629199	0.0\\
46.69721247918402	0.0\\
46.72655865741814	0.0\\
46.7559164072522	0.0\\
46.785270793437704	0.0\\
46.814405169632636	0.0\\
46.843587536510896	0.0\\
46.87267325244379	0.0\\
46.90194587505448	0.0\\
46.93111569403189	0.0\\
46.96009534096845	0.0\\
46.989149263936824	0.0\\
47.01823425921485	0.0\\
47.04718761652113	0.0\\
47.07606151066065	0.0\\
47.10498088466596	0.0\\
47.13390467234869	0.0\\
47.16283051936921	0.0\\
47.191784445541046	0.0\\
47.220749885864024	0.0\\
47.24957406327195	0.0\\
47.27842994014422	0.0\\
47.30725530437502	0.0\\
47.336067775794334	0.0\\
47.36483160304171	0.0\\
47.39344549408099	0.0\\
47.42226262951168	0.0\\
47.451106424101155	0.0\\
47.479940580465524	0.0\\
47.50862501740268	0.0\\
47.537471246171734	0.0\\
47.566251963612885	0.0\\
47.59491302254182	0.0\\
47.62372704561611	0.0\\
47.65246128659831	0.0\\
47.68118247342137	0.0\\
47.71004000370901	0.0\\
47.73875308176798	0.0\\
47.76739598940628	0.0\\
47.79613704560346	0.0\\
47.82487532248882	0.0\\
47.85358297298502	0.0\\
47.8822329717909	0.0\\
47.91098261504922	0.0\\
47.93963286163937	0.0\\
47.968284107693734	0.0\\
47.99687541802305	0.0\\
48.025633085633615	0.0\\
48.05428409193837	0.0\\
48.0830269342825	0.0\\
48.11171542222095	0.0\\
48.14045768466231	0.0\\
48.16915917627546	0.0\\
48.19791600096812	0.0\\
48.226647735010715	0.0\\
48.25540342269994	0.0\\
48.284177806289804	0.0\\
48.31303225800798	0.0\\
48.341840001046066	0.0\\
48.370609593688556	0.0\\
48.39923766595163	0.0\\
48.428037531278704	0.0\\
48.45674894738967	0.0\\
48.48550933575464	0.0\\
48.51445245825566	0.0\\
48.54324713884982	0.0\\
48.57218838768375	0.0\\
48.60101819458643	0.0\\
48.62989500583052	0.0\\
48.658786233354604	0.0\\
48.68779584076073	0.0\\
48.71675696523552	0.0\\
48.74572571159723	0.0\\
48.77468799109592	0.0\\
48.803727196108056	0.0\\
48.83280030980592	0.0\\
48.86185476138765	0.0\\
48.89094771017422	0.0\\
48.91995228256066	0.0\\
48.94910504872887	0.0\\
48.97825068384833	0.0\\
49.007421912041366	0.0\\
49.03666804613043	0.0\\
49.06583873615726	0.0\\
49.095019633650324	0.0\\
49.12439705268466	0.0\\
49.1537075187877	0.0\\
49.18295195927121	0.0\\
49.212317882778365	0.0\\
49.24175424356736	0.0\\
49.27115934519975	0.0\\
49.30060148609974	0.0\\
49.33005814343353	0.0\\
49.35964341578189	0.0\\
49.38917466556951	0.0\\
49.41862873666405	0.0\\
49.4482566630891	0.0\\
49.47783466679893	0.0\\
49.50748777096538	0.0\\
49.53710771142933	0.0\\
49.56686030607716	0.0\\
49.59656825198459	0.0\\
49.62622380039015	0.0\\
49.656037861783034	0.0\\
49.68588498496166	0.0\\
49.71583742460548	0.0\\
49.745877400002016	0.0\\
49.77591908652337	0.0\\
49.80604774157139	0.0\\
49.83614496867692	0.0\\
49.86624447992688	0.0\\
49.896444927334414	0.0\\
49.926628607093804	0.0\\
49.95684886990763	0.0\\
49.98706231788853	0.0\\
50.01732830600828	0.0\\
50.047760594133706	0.0\\
50.078120139255034	0.0\\
50.10845382015525	0.0\\
50.13905197569322	0.0\\
50.16968179170142	0.0\\
50.20038624273772	0.0\\
50.231033868972375	0.0\\
50.26174804680112	0.0\\
50.292518987964186	0.0\\
50.32339244292359	0.0\\
50.35433194717808	0.0\\
50.3851769654828	0.0\\
50.41616125342729	0.0\\
50.4473352879602	0.0\\
50.47860020225251	0.0\\
50.5097677942051	0.0\\
50.541070761993055	0.0\\
50.572448148101245	0.0\\
50.60377606696672	0.0\\
50.635234110513736	0.0\\
50.66676573561665	0.0\\
50.69839667247521	0.0\\
50.730108120785175	0.0\\
50.76197140479677	0.0\\
50.793825717106245	0.0\\
50.82578599435601	0.0\\
50.857730219500255	0.0\\
50.8898892191591	0.0\\
50.92193056692655	0.0\\
50.954271904303894	0.0\\
50.986584568439326	0.0\\
51.019055731243554	0.0\\
51.05160801840849	0.0\\
51.08417023404502	0.0\\
51.11686511718608	0.0\\
51.14966914337346	0.0\\
51.182524247446324	0.0\\
51.21567694167294	0.0\\
51.248634859962124	0.0\\
51.28184718910818	0.0\\
51.31521905989534	0.0\\
51.34858253072285	0.0\\
51.382100288810534	0.0\\
51.41583417072553	0.0\\
51.44942151070998	0.0\\
51.48327375932371	0.0\\
51.51731784384167	0.0\\
51.55158119174567	0.0\\
51.585771145129144	0.0\\
51.62028546130098	0.0\\
51.65482353107096	0.0\\
51.689587129252416	0.0\\
51.72440651769891	0.0\\
51.75950378060503	0.0\\
51.79469848141251	0.0\\
51.830132262081676	0.0\\
51.865687201056446	0.0\\
51.90135131090179	0.0\\
51.93733279411178	0.0\\
51.97341050451497	0.0\\
52.009683644220985	0.0\\
52.04626840874366	0.0\\
52.08307525184193	0.0\\
52.1199815350989	0.0\\
52.15729993271786	0.0\\
52.19476773621305	0.0\\
52.232635321988994	0.0\\
52.27057760530647	0.0\\
52.30882962850853	0.0\\
52.347656712348154	0.0\\
52.38651581749316	0.0\\
52.42596788664481	0.0\\
52.46569333147576	0.0\\
52.50573906543342	0.0\\
52.54633188379192	0.0\\
52.58753962296696	0.0\\
52.629190365085094	0.0\\
52.67137652621898	0.0\\
52.714141090152154	0.0\\
52.75778410966795	0.0\\
52.802197463370135	0.0\\
52.84714898679499	0.0\\
52.89316699703858	0.0\\
52.94029839260028	0.0\\
52.988565252240335	0.0\\
53.03821094609913	0.0\\
53.089302730368345	0.0\\
53.14119531054034	0.0\\
53.19354413141863	0.0\\
53.245910743954255	0.0\\
53.297123918453394	0.0\\
53.34712586656663	0.0\\
53.395905475415816	0.0\\
53.44304637147815	0.0\\
53.489077374137665	0.0\\
53.53421171871335	0.0\\
53.578225863146315	0.0\\
53.62146691098434	0.0\\
53.66397261684895	0.0\\
53.705943860247444	0.0\\
53.74715311437588	0.0\\
53.78797534172877	0.0\\
53.82803905311704	0.0\\
53.867822065830296	0.0\\
53.907102111388625	0.0\\
53.94610674723101	0.0\\
53.98465913594936	0.0\\
54.02289754712422	0.0\\
54.06075865835649	0.0\\
54.0982488879245	0.0\\
54.13540548133966	0.0\\
54.17237326900029	0.0\\
54.20888777643509	0.0\\
54.24532246883523	0.0\\
54.28139524129327	0.0\\
54.31731727405054	0.0\\
54.35299636244564	0.0\\
54.38851642711306	0.0\\
54.42374271391442	0.0\\
54.458708585100894	0.0\\
54.49356201114922	0.0\\
54.528136152170674	0.0\\
54.56260653875013	0.0\\
54.596909068432765	0.0\\
54.63092315869433	0.0\\
54.66481142869567	0.0\\
54.6985306121382	0.0\\
54.70524701686308	0.0\\
54.709205074894726	0.0\\
54.712132765960064	0.0\\
54.714882155264675	0.0\\
54.71709090395164	0.0\\
54.71911839173909	0.0\\
54.720956147843864	0.0\\
54.72140805564234	0.0\\
54.72191806598431	0.0\\
54.72505074765664	0.0\\
54.73646267300661	0.0\\
54.766022234214844	0.0\\
54.80393067285843	0.0\\
54.84221849489987	0.0\\
54.88077655435012	0.0\\
54.91957188291293	0.0\\
54.95868686871698	0.0\\
54.998132313132345	0.0\\
55.037783624213645	0.0\\
55.07777633505928	0.0\\
55.11821043755961	0.0\\
55.15892793746259	0.0\\
55.19997512987193	0.0\\
55.24140137886579	0.0\\
55.28332487709987	0.0\\
55.32560426624086	0.0\\
55.36838727489514	0.0\\
55.411741318371554	0.0\\
55.45555072350649	0.0\\
55.49986637286399	0.0\\
55.54476246728787	0.0\\
55.59034044753098	0.0\\
55.636683019315896	0.0\\
55.68368699823138	0.0\\
55.73145844422464	0.0\\
55.78004924745697	0.0\\
55.829565544274985	0.0\\
55.87993216664749	0.0\\
55.93084595740491	0.0\\
55.98239408855568	0.0\\
56.0345131570172	0.0\\
56.08730376839658	0.0\\
56.139685125259945	0.0\\
56.19147929603116	0.0\\
56.24272439167353	0.0\\
56.293175171775076	0.0\\
56.342884104300964	0.0\\
56.39202703417756	0.0\\
56.440581710503	0.0\\
56.488435090602934	0.0\\
56.53577143564412	0.0\\
56.58221814005337	0.0\\
56.62823172701549	0.0\\
56.674008183521366	0.0\\
56.71903684668179	0.0\\
56.76355518359023	0.0\\
56.8077779898628	0.0\\
56.85161706111603	0.0\\
56.895169981120205	0.0\\
56.9383809871744	0.0\\
56.981329356561446	0.0\\
57.023828779602695	0.0\\
57.066196575338054	0.0\\
57.108138191744416	0.0\\
57.14983380459486	0.0\\
57.19138220948203	0.0\\
57.232859859517774	0.0\\
57.27413457115719	0.0\\
57.31501635724706	0.0\\
57.35579421747998	0.0\\
57.396449484860426	0.0\\
57.43678402570518	0.0\\
57.47686468981718	0.0\\
57.51711618877302	0.0\\
57.557081267253125	0.0\\
57.59678989525389	0.0\\
57.63646945000778	0.0\\
57.67594532388135	0.0\\
57.715306164659296	0.0\\
57.75456872913516	0.0\\
57.793685792940664	0.0\\
57.832728376416426	0.0\\
57.87167055941042	0.0\\
57.91062956745968	0.0\\
57.94949828487526	0.0\\
57.98825030449946	0.0\\
58.0266577857402	0.0\\
58.06503609650352	0.0\\
58.10339742698994	0.0\\
58.141771253245096	0.0\\
58.17996295788453	0.0\\
58.21804568986589	0.0\\
58.25615238649448	0.0\\
58.29410374110533	0.0\\
58.33207618325227	0.0\\
58.36985089965586	0.0\\
58.40769337855107	0.0\\
58.44558934594116	0.0\\
58.48329301445695	0.0\\
58.52102197684437	0.0\\
58.55863503119649	0.0\\
58.59618381493911	0.0\\
58.63375443270564	0.0\\
58.67122633412052	0.0\\
58.70866672628421	0.0\\
58.74596065881502	0.0\\
58.78334884228292	0.0\\
58.820510541409774	0.0\\
58.85761355978647	0.0\\
58.894704688099154	0.0\\
58.93204955560364	0.0\\
58.96926133937245	0.0\\
59.006249544452785	0.0\\
59.04326375212996	0.0\\
59.08021727404707	0.0\\
59.11731765185071	0.0\\
59.15430895877209	0.0\\
59.191192696515074	0.0\\
59.228270812555806	0.0\\
59.2653220007101	0.0\\
59.302276780920735	0.0\\
59.339196031362206	0.0\\
59.37602198770435	0.0\\
59.41287193205706	0.0\\
59.44972363383417	0.0\\
59.486441853365335	0.0\\
59.523304591761644	0.0\\
59.560127927948244	0.0\\
59.597158338758874	0.0\\
59.6339449466297	0.0\\
59.670751168402205	0.0\\
59.70743096426298	0.0\\
59.744217538667655	0.0\\
59.78105852479405	0.0\\
59.81763699124788	0.0\\
59.854448623561694	0.0\\
59.89118513729625	0.0\\
59.92802055559359	0.0\\
59.964664195702596	0.0\\
60.00131273382998	0.0\\
60.038029436854046	0.0\\
60.07469210310161	0.0\\
60.111460685041166	0.0\\
60.14806548534159	0.0\\
60.184653459819714	0.0\\
60.22142373073484	0.0\\
60.25809833419396	0.0\\
60.29501712090379	0.0\\
60.33201346761828	0.0\\
60.36868369245437	0.0\\
60.4054891215485	0.0\\
60.442290289278574	0.0\\
60.478946046397056	0.0\\
60.51585696030719	0.0\\
60.552848346857616	0.0\\
60.58964797296761	0.0\\
60.626414400982554	0.0\\
60.66331479322969	0.0\\
60.70024350359711	0.0\\
60.73708501179448	0.0\\
60.773989034795875	0.0\\
60.81093131044719	0.0\\
60.84786771054951	0.0\\
60.884830704329545	0.0\\
60.92174192296531	0.0\\
60.958819302041434	0.0\\
60.995946584912346	0.0\\
61.03294828224621	0.0\\
61.06997291602596	0.0\\
61.10707645083545	0.0\\
61.14423942924543	0.0\\
61.18139800827875	0.0\\
61.218746105386884	0.0\\
61.255986353344284	0.0\\
61.29332903593094	0.0\\
61.330442949085764	0.0\\
61.36753771450083	0.0\\
61.40488223735697	0.0\\
61.44222739849144	0.0\\
61.479640213617785	0.0\\
61.516878392455624	0.0\\
61.55418055978522	0.0\\
61.591558272949726	0.0\\
61.62908565783509	0.0\\
61.66657937623981	0.0\\
61.704162685518625	0.0\\
61.7417464299031	0.0\\
61.77938448473449	0.0\\
61.8169859787521	0.0\\
61.854729326123675	0.0\\
61.892488454730994	0.0\\
61.930297418668474	0.0\\
61.96809794606253	0.0\\
62.00592289474241	0.0\\
62.04378494352649	0.0\\
62.08169971242869	0.0\\
62.11956323197093	0.0\\
62.157564269584526	0.0\\
62.19545875004643	0.0\\
62.23344239299092	0.0\\
62.2713892872557	0.0\\
62.30951495540069	0.0\\
62.34781121579667	0.0\\
62.38610663438479	0.0\\
62.42431864089673	0.0\\
62.462642928704014	0.0\\
62.50101633054575	0.0\\
62.53949639670901	0.0\\
62.57812041826202	0.0\\
62.616634748911466	0.0\\
62.65523116215249	0.0\\
62.69395148537774	0.0\\
62.73275355907121	0.0\\
62.77154209690964	0.0\\
62.81023753063937	0.0\\
62.84927076705138	0.0\\
62.888177435098385	0.0\\
62.92715121035185	0.0\\
62.966219029706295	0.0\\
63.00533259970756	0.0\\
63.04449394944952	0.0\\
63.083817374461745	0.0\\
63.123039661412065	0.0\\
63.16244173002019	0.0\\
63.20183023099611	0.0\\
63.24131539620558	0.0\\
63.2808360535919	0.0\\
63.32043844320037	0.0\\
63.36021051878345	0.0\\
63.40020238132033	0.0\\
63.44028913502633	0.0\\
63.48026013278087	0.0\\
63.52020778113918	0.0\\
63.56027322756445	0.0\\
63.60049190943934	0.0\\
63.64080206873122	0.0\\
63.68112273079474	0.0\\
63.72168284130743	0.0\\
63.76238466139331	0.0\\
63.803280592229555	0.0\\
63.844053442085226	0.0\\
63.88512369571227	0.0\\
63.92607956625416	0.0\\
63.96719970446293	0.0\\
64.00828346346961	0.0\\
64.04973419518157	0.0\\
64.09121893253285	0.0\\
64.1327847130203	0.0\\
64.17423071341776	0.0\\
64.21605445470237	0.0\\
64.25774116987745	0.0\\
64.2995602864303	0.0\\
64.34165695932958	0.0\\
64.3839072899085	0.0\\
64.42614289056627	0.0\\
64.46855670454309	0.0\\
64.51107943478817	0.0\\
64.55386684525229	0.0\\
64.59687624601446	0.0\\
64.63995153806715	0.0\\
64.68315186692658	0.0\\
64.7265534347633	0.0\\
64.77002036516444	0.0\\
64.81379809034286	0.0\\
64.85766279022957	0.0\\
64.90168586912145	0.0\\
64.94568975132128	0.0\\
64.98999498254616	0.0\\
65.0344471624268	0.0\\
65.07904407448964	0.0\\
65.12399906813678	0.0\\
65.16913430287752	0.0\\
65.21459016690523	0.0\\
65.26011983250694	0.0\\
65.30600417808444	0.0\\
65.35194592312126	0.0\\
65.39826004448238	0.0\\
65.444714476749	0.0\\
65.49143313650185	0.0\\
65.53848737501261	0.0\\
65.58608673888648	0.0\\
65.63398215802928	0.0\\
65.68193502569588	0.0\\
65.73021600963702	0.0\\
65.77880110222631	0.0\\
65.8277811421114	0.0\\
65.87708272562924	0.0\\
65.92691679739548	0.0\\
65.97704112887243	0.0\\
66.02792493849188	0.0\\
66.07908916847126	0.0\\
66.13081438092647	0.0\\
66.18269860897604	0.0\\
66.23554157854937	0.0\\
66.28897861337813	0.0\\
66.3430552337378	0.0\\
66.39806631170424	0.0\\
66.45378660094298	0.0\\
66.51039010473207	0.0\\
66.56814854069745	0.0\\
66.62728370076212	0.0\\
66.68801215903693	0.0\\
66.7497106072714	0.0\\
66.81320274413974	0.0\\
66.87876916308022	0.0\\
66.94605843918512	0.0\\
67.01515816946687	0.0\\
67.08442452775333	0.0\\
67.15269203174765	0.0\\
67.2193803160211	0.0\\
67.28335816378254	0.0\\
67.34545179333324	0.0\\
67.40596602057028	0.0\\
67.46506753393282	0.0\\
67.52288480714131	0.0\\
67.5795335198001	0.0\\
67.63488208526016	0.0\\
67.68932525543562	0.0\\
67.74325745906103	0.0\\
67.79643950741547	0.0\\
67.84876819152632	0.0\\
67.90081506263311	0.0\\
67.95185261498531	0.0\\
68.00255689065258	0.0\\
68.05274918487206	0.0\\
68.1022257648238	0.0\\
68.15134314264418	0.0\\
68.20028561647769	0.0\\
68.24865520230745	0.0\\
68.29659002183607	0.0\\
68.34416942238272	0.0\\
68.39139355960234	0.0\\
68.4383029533158	0.0\\
68.48499510572384	0.0\\
68.53132177413804	0.0\\
68.57732699546764	0.0\\
68.62309256912758	0.0\\
68.6321709371164	0.0\\
68.6333508716622	0.0\\
68.63475481819103	0.0\\
68.63554605381503	0.0\\
68.63680614851245	0.0\\
68.64239904862077	0.0\\
68.6655878834496	0.0\\
68.71575308100466	0.0\\
68.7664328500573	0.0\\
68.81744388541125	0.0\\
68.86930301661386	0.0\\
68.92124230071133	0.0\\
68.97367274797784	0.0\\
69.0266777127643	0.0\\
69.08029944173853	0.0\\
69.13450614592955	0.0\\
69.18944336836327	0.0\\
69.2451561406398	0.0\\
69.30167485198342	0.0\\
69.35928613677126	0.0\\
69.41745171310046	0.0\\
69.47667111295726	0.0\\
69.5368763743783	0.0\\
69.59806855535149	0.0\\
69.66038938407016	0.0\\
69.72413959008861	0.0\\
69.78897231281593	0.0\\
69.85473914075783	0.0\\
69.92106624902695	0.0\\
69.98787807074066	0.0\\
70.05456512710276	0.0\\
70.12085772638315	0.0\\
70.18621461817509	0.0\\
70.25063217459979	0.0\\
70.31360762475106	0.0\\
70.37573377531615	0.0\\
70.43694607959412	0.0\\
70.49732371991959	0.0\\
70.55696655886598	0.0\\
70.61553604993216	0.0\\
70.67348942217708	0.0\\
70.73071047554731	0.0\\
70.78727954852931	0.0\\
70.84341362701818	0.0\\
70.89888728991482	0.0\\
70.95416755077716	0.0\\
71.00907348844706	0.0\\
71.06336662017335	0.0\\
71.11731821237825	0.0\\
71.17064854641902	0.0\\
71.22366816588496	0.0\\
71.27641661990316	0.0\\
71.32868668046507	0.0\\
71.38093477935874	0.0\\
71.43284475879074	0.0\\
71.48429549920908	0.0\\
71.53565760165483	0.0\\
71.58688784291772	0.0\\
71.63783650078281	0.0\\
71.68854545968313	0.0\\
71.7391127395124	0.0\\
71.7896747852923	0.0\\
71.83977375328524	0.0\\
71.88968459754909	0.0\\
71.93934485066208	0.0\\
71.98888650577649	0.0\\
72.03832074885725	0.0\\
72.08764751987417	0.0\\
72.13668318607839	0.0\\
72.1856865742862	0.0\\
72.23463923039054	0.0\\
72.28338159284797	0.0\\
72.33189509925802	0.0\\
72.38030097700408	0.0\\
72.42868639204721	0.0\\
72.4769001756062	0.0\\
72.52507605241891	0.0\\
72.57309344975832	0.0\\
72.62090928296482	0.0\\
72.66874737027962	0.0\\
72.71655211546442	0.0\\
72.76416313194551	0.0\\
72.81160240219157	0.0\\
72.85916774056173	0.0\\
72.90672330906494	0.0\\
72.95407280075946	0.0\\
73.00140318683438	0.0\\
73.04863629639195	0.0\\
73.0956471258022	0.0\\
73.14264298784127	0.0\\
73.18963352143251	0.0\\
73.2366625577319	0.0\\
73.28343647064426	0.0\\
73.33009982944571	0.0\\
73.37671374725736	0.0\\
73.42342692298607	0.0\\
73.47021191803654	0.0\\
73.51671633553133	0.0\\
73.56334472289802	0.0\\
73.60995827277839	0.0\\
73.65636561991946	0.0\\
73.702787137803	0.0\\
73.74917405828958	0.0\\
73.7955422082901	0.0\\
73.84182622656067	0.0\\
73.8881804899303	0.0\\
73.93449935152717	0.0\\
73.98070398316071	0.0\\
74.02682871121192	0.0\\
74.07295996622355	0.0\\
74.11892648491937	0.0\\
74.16507755106142	0.0\\
74.21122071217565	0.0\\
74.25750638471399	0.0\\
74.30365951611554	0.0\\
74.34974890264158	0.0\\
74.3958596702173	0.0\\
74.44194920235273	0.0\\
74.48794533151269	0.0\\
74.53400013725613	0.0\\
74.57998472519913	0.0\\
74.62598300518238	0.0\\
74.67211000821874	0.0\\
74.71818938558312	0.0\\
74.76423767672412	0.0\\
74.81012430829395	0.0\\
74.85605676953267	0.0\\
74.90198257820745	0.0\\
74.94803399032182	0.0\\
74.99399288752059	0.0\\
75.04012400525733	0.0\\
75.08607215915137	0.0\\
75.1321318827674	0.0\\
75.17812645672012	0.0\\
75.22393005948749	0.0\\
75.2698743443126	0.0\\
75.31596182111926	0.0\\
75.36202660566681	0.0\\
75.40794180002865	0.0\\
75.45404089106276	0.0\\
75.50021703379377	0.0\\
75.54628100182185	0.0\\
75.59226343022337	0.0\\
75.63817528805285	0.0\\
75.68431640898854	0.0\\
75.73046199395816	0.0\\
75.77657548455005	0.0\\
75.82274706767907	0.0\\
75.8689281602191	0.0\\
75.91500052051768	0.0\\
75.96104140790862	0.0\\
76.00717241319484	0.0\\
76.05334468479134	0.0\\
76.09958995938462	0.0\\
76.14571757089843	0.0\\
76.19195780915143	0.0\\
76.23818501164646	0.0\\
76.2845690505971	0.0\\
76.33082589363917	0.0\\
76.37726282365409	0.0\\
76.42361387942901	0.0\\
76.4700001354062	0.0\\
76.51639996273502	0.0\\
76.563071643754	0.0\\
76.60948696559402	0.0\\
76.65599583175555	0.0\\
76.70267794497846	0.0\\
76.74934775330073	0.0\\
76.7961260699035	0.0\\
76.84272327534205	0.0\\
76.88941652297993	0.0\\
76.93619336635243	0.0\\
76.98289688910077	0.0\\
77.02962182079511	0.0\\
77.0764583914289	0.0\\
77.12338593864445	0.0\\
77.17022111816092	0.0\\
77.21721437398008	0.0\\
77.26409015205795	0.0\\
77.31093780154458	0.0\\
77.3581802191737	0.0\\
77.40547978484642	0.0\\
77.45258022221299	0.0\\
77.4999346594742	0.0\\
77.54732266313175	0.0\\
77.59473900628021	0.0\\
77.6421141016549	0.0\\
77.68977078908458	0.0\\
77.73749582996129	0.0\\
77.78505547223008	0.0\\
77.83265009503486	0.0\\
77.8802820424454	0.0\\
77.92785885295788	0.0\\
77.97540627008138	0.0\\
78.0231398619579	0.0\\
78.07111784096233	0.0\\
78.11906115922258	0.0\\
78.16712102274172	0.0\\
78.21523600678898	0.0\\
78.26342493421427	0.0\\
78.31152170071425	0.0\\
78.35985843219154	0.0\\
78.40812887014857	0.0\\
78.45654573903983	0.0\\
78.5049342733218	0.0\\
78.55346887397872	0.0\\
78.60203326834423	0.0\\
78.65061373663303	0.0\\
78.6991799557571	0.0\\
78.74792677658951	0.0\\
78.79681768831963	0.0\\
78.8458731209985	0.0\\
78.89483844866166	0.0\\
78.94403833224379	0.0\\
78.99321911090999	0.0\\
79.04241922509098	0.0\\
79.09159118076533	0.0\\
79.14108683008908	0.0\\
79.19082339965718	0.0\\
79.24031965159813	0.0\\
79.28993316372402	0.0\\
79.33981896232535	0.0\\
79.38961383659168	0.0\\
79.4395015944151	0.0\\
79.48968692242781	0.0\\
79.53994988856297	0.0\\
79.59003945670844	0.0\\
79.640400025427	0.0\\
79.69088393829878	0.0\\
79.7413080456472	0.0\\
79.79195954876889	0.0\\
79.8427243386082	0.0\\
79.89347099329535	0.0\\
79.94461285805983	0.0\\
79.99551390960559	0.0\\
80.0467286869831	0.0\\
80.09786188148578	0.0\\
80.1494223686231	0.0\\
80.20092219148498	0.0\\
80.25263671356655	0.0\\
80.30441237134133	0.0\\
80.35641052027731	0.0\\
80.40839655352218	0.0\\
80.46062555415585	0.0\\
80.51295781160078	0.0\\
80.56519862811172	0.0\\
80.61787455485836	0.0\\
80.67039567396444	0.0\\
80.72325671355213	0.0\\
80.77612305587982	0.0\\
80.82888741298203	0.0\\
80.88210942701133	0.0\\
80.93550580631035	0.0\\
80.98896465687793	0.0\\
81.04253796866328	0.0\\
81.09629474781528	0.0\\
81.14999055807226	0.0\\
81.20415381571237	0.0\\
81.25852256757656	0.0\\
81.31301315148494	0.0\\
81.36775712968793	0.0\\
81.42272878620503	0.0\\
81.47769270041502	0.0\\
81.53266008569409	0.0\\
81.58807617046287	0.0\\
81.64389800366109	0.0\\
81.69966383808466	0.0\\
81.75566347091618	0.0\\
81.81209866194916	0.0\\
81.86871065888351	0.0\\
81.9254865714195	0.0\\
81.98246799203537	0.0\\
82.03959069976224	0.0\\
82.09688190151948	0.0\\
82.15459974199757	0.0\\
82.21266734255164	0.0\\
82.2708655786227	0.0\\
82.32927818651063	0.0\\
82.38832868890077	0.0\\
82.43737272596962	0.0\\
82.44732710063275	0.0\\
82.5068497378465	0.0\\
82.56693950746802	0.0\\
82.62730033610279	0.0\\
82.68812611320985	0.0\\
82.74935043669771	0.0\\
82.8111147855409	0.0\\
82.87333247634939	0.0\\
82.93592899332506	0.0\\
82.99916375200345	0.0\\
83.06326409894118	0.0\\
83.12770579521603	0.0\\
83.19293674248513	0.0\\
83.25854475444004	0.0\\
83.32482751759082	0.0\\
83.3919314431991	0.0\\
83.45972825496065	0.0\\
83.5286763389332	0.0\\
83.59802534422454	0.0\\
83.66848343152148	0.0\\
83.73986637883922	0.0\\
83.81182859641345	0.0\\
83.88478699032757	0.0\\
83.95890668141516	0.0\\
84.03437820318086	0.0\\
84.11109221937167	0.0\\
84.18928823865178	0.0\\
84.26865539623407	0.0\\
84.35007686011667	0.0\\
84.4328792866626	0.0\\
84.5172420723757	0.0\\
84.60360073681753	0.0\\
84.69216565627545	0.0\\
84.78328161050143	0.0\\
84.87758360799259	0.0\\
84.97553932715138	0.0\\
85.0763327596145	0.0\\
85.18231835237856	0.0\\
85.29282974428477	0.0\\
85.40732505604635	0.0\\
85.52398482059851	0.0\\
85.64002559995987	0.0\\
85.75313180431272	0.0\\
85.86328007582912	0.0\\
85.9709894617811	0.0\\
86.07693430025449	0.0\\
86.18141671569492	0.0\\
86.28523456351039	0.0\\
86.3871072620939	0.0\\
86.48773624618445	0.0\\
86.58873443794207	0.0\\
86.68906488065713	0.0\\
86.78905644336464	0.0\\
86.88881996990273	0.0\\
86.98848914952958	0.0\\
87.08856335694685	0.0\\
87.18873719289044	0.0\\
87.28947347116431	0.0\\
87.39009502773862	0.0\\
87.49088193389824	0.0\\
87.51124060496457	0.0\\
87.51274822079972	0.0\\
87.51554303771596	5.701631371364151E-4\\
87.51910808818397	0.0013046286816639006\\
87.52498024810816	0.002529651374166178\\
87.53117763214436	0.0038484846822752156\\
87.53741708943056	0.005203792107804481\\
87.5440509019032	0.006674252787379337\\
87.55078608181358	0.008198940894410728\\
87.55709152710028	0.00965642523517262\\
87.56401526049876	0.011287891917480732\\
87.57071216711222	0.012898730958482246\\
87.57759656673477	0.014587342057422278\\
87.58449495117355	0.01631298078368639\\
87.59142459943862	0.018080231390490968\\
87.59831268784589	0.019870581700588995\\
87.60530671474294	0.02172247364871189\\
87.61133054737226	0.02334703232701542\\
87.61803939246278	0.0251849021785645\\
87.62500945661995	0.027127281348227963\\
87.63198447229794	0.029105222247172484\\
87.63894580725605	0.03111338861242286\\
87.64595915254182	0.033170830747151936\\
87.65301878657957	0.035276575576213776\\
87.66008517264314	0.03741928149335934\\
87.6671130636168	0.03958506483284954\\
87.67418291373303	0.04179852672715857\\
87.68125957349403	0.044049071314187005\\
87.6883491575222	0.0463387425153691\\
87.69494040676395	0.04849997569028336\\
87.70155256296533	0.05069842662375444\\
87.70845361736195	0.05302473656820643\\
87.71523286990927	0.05534250064019358\\
87.7218845745098	0.057647965332585524\\
87.7289348263715	0.060124180164325844\\
87.73528974959848	0.06238714837902837\\
87.74217480712704	0.0648692923334395\\
87.7487090914631	0.06725606861033881\\
87.75592832873099	0.06992577268240935\\
87.76255394812918	0.07240891564472088\\
87.76938411487927	0.07499998838282798\\
87.77604074421956	0.07755655881270448\\
87.78245461318375	0.08004927680552443\\
87.78971458960723	0.08290302186642237\\
87.79702696512453	0.0858138854435316\\
87.80369392817983	0.08850122965497356\\
87.80990598755173	0.09103357607388335\\
87.81713451445094	0.09401124172640932\\
87.82366576851061	0.0967339277523328\\
87.8305246826844	0.09962391934387113\\
87.83736335388903	0.10253745763979857\\
87.84477560861004	0.10573009056718927\\
87.85214626663031	0.10894209264362867\\
87.85952699143871	0.11219557878654843\\
87.86647048226524	0.1152911735056785\\
87.87353527342188	0.11847424671751927\\
87.88089144558981	0.12182397918177973\\
87.88833362362772	0.12525007014835593\\
87.89550385488423	0.1285871301674794\\
87.90295585081739	0.13209158243282748\\
87.91019978600525	0.1355347073192572\\
87.91747884737941	0.1390301965347956\\
87.92443249954263	0.14240357273166515\\
87.93155612253318	0.14589286482455233\\
87.93812081533869	0.1491398395670111\\
87.94520531986359	0.15267532251815008\\
87.95208811823096	0.15614293205568508\\
87.95963662455176	0.1599809610955254\\
87.96730622429959	0.1639194614674393\\
87.97499060471219	0.1679050940215911\\
87.98227290222357	0.17171962291282666\\
87.98947210579314	0.17552570988448812\\
87.99721008688078	0.17965397284724766\\
88.00493720429131	0.18381637982840338\\
88.01231100046812	0.18782642956628037\\
88.02015449595876	0.1921305331515531\\
88.02801188445335	0.1964832945321781\\
88.03572309129066	0.200795347608353\\
88.04335167941684	0.20510026431833317\\
88.0505516314704	0.20919968083174773\\
88.05787698549389	0.21340547052087566\\
88.06575629316254	0.21796760352085925\\
88.07339049361829	0.22242756514476048\\
88.08120513515198	0.22703237686808114\\
88.088775104777	0.23153201321600542\\
88.096383497544	0.23609245258028666\\
88.10341611458875	0.24034292493697385\\
88.11163119838301	0.24534623966416658\\
88.11951090977436	0.25018777136439274\\
88.1266341226686	0.2546012144158749\\
88.13483204692	0.25971895581393434\\
88.14302601558225	0.2648781959059874\\
88.15136445989407	0.27017309126648525\\
88.15971179502912	0.2755190793590462\\
88.16725445349536	0.28039066975637905\\
88.17516121309981	0.28553631307741\\
88.18308844105317	0.2907360532725638\\
88.19031076265318	0.2955105338057291\\
88.19760259906013	0.3003651534750156\\
88.2048435096464	0.3052200885418961\\
88.21184794891562	0.3099492852367687\\
88.22002055053704	0.315504373445625\\
88.22792181277757	0.3209167091963826\\
88.23582038732408	0.32636747155928525\\
88.24353512381353	0.3317306144270983\\
88.25084651380826	0.3368496161437752\\
88.25887511645868	0.3425085960810944\\
88.26663463929432	0.34801788458817606\\
88.27536348106756	0.35425896262156253\\
88.28341564058832	0.36006115078355694\\
88.29261966542558	0.3667409128372445\\
88.30176606880889	0.37343262490417395\\
88.31075384323438	0.3800606953051209\\
88.31904260249098	0.3862206382614435\\
88.32670334466562	0.39195417527427046\\
88.33591002255795	0.3988897485171917\\
88.34451879999773	0.4054251179439238\\
88.35325932540607	0.4121081861839553\\
88.36251319764665	0.41923499643744566\\
88.37122620453042	0.42599612827363786\\
88.38005205907893	0.4328933457506239\\
88.38822087868323	0.43932244073500437\\
88.39612585748435	0.4455844717090236\\
88.40457477578417	0.4523194048589372\\
88.41324291647734	0.4592750543497116\\
88.42141596934732	0.4658777520498011\\
88.43027713887406	0.47308173577478174\\
88.43952398923301	0.48065050233497486\\
88.4487711183325	0.4882728321392217\\
88.457526226157	0.49553996024331204\\
88.46685273291573	0.503332217655964\\
88.47555745203869	0.510655317639384\\
88.48535120872029	0.5189475848354219\\
88.49461059204546	0.5268434821314314\\
88.50366939040163	0.5346201501536181\\
88.5121109086486	0.5419140318033133\\
88.52138427619221	0.5499749920849677\\
88.53081021305903	0.5582223689092844\\
88.54038285537897	0.5666535492725546\\
88.54916866296267	0.5744432219175859\\
88.55840900147876	0.5826856437984753\\
88.56778960623828	0.5911061898025727\\
88.57599997950248	0.5985231826591162\\
88.58426566154697	0.6060315024300351\\
88.59327189640882	0.6142578887141437\\
88.6023729519546	0.6226207001331869\\
88.61127541470356	0.6308501656921852\\
88.61945344903583	0.6384540106905652\\
88.62872475341092	0.6471203174683251\\
88.63750090375541	0.6553728786275859\\
88.64614902837161	0.6635508025822991\\
88.65548860068617	0.6724312598555726\\
88.66416493766584	0.6807297403614712\\
88.67226974841171	0.6885237425161026\\
88.68005831374481	0.6960514282509165\\
88.68934661590532	0.7050720128077346\\
88.69846972366983	0.7139827764457922\\
88.70703617526465	0.722396415487103\\
88.7161915198597	0.7314351848430205\\
88.72479148246597	0.7399724184938283\\
88.73521117625737	0.750369434449635\\
88.74474991660719	0.7599462508463686\\
88.75355014522603	0.7688312129265353\\
88.76282350025912	0.7782420720602969\\
88.7715073915185	0.7871021650340009\\
88.77943622526539	0.7952323629244138\\
88.78761053601596	0.8036523675361289\\
88.79554582612602	0.8118642139404484\\
88.8037840281257	0.8204278412296382\\
88.8134946051037	0.8305688805337716\\
88.82238215851041	0.8399007755569028\\
88.83113788976718	0.8491396180143693\\
88.83919678882313	0.8576842196167529\\
88.84660167429647	0.8655700439408931\\
88.85499965787866	0.8745495877572065\\
88.86317962741563	0.8833358127588353\\
88.87195143149964	0.8927992649126051\\
88.88011491235474	0.9016477651376325\\
88.88874015427373	0.9110373895319781\\
88.89728093889298	0.920377478223176\\
88.90528108189866	0.9291655839601969\\
88.91388715022674	0.9386588197632997\\
88.92150675288005	0.9471014439914032\\
88.92922642674125	0.9556885964797566\\
88.93690359831697	0.9642623194099902\\
88.9457188923493	0.9741456990742807\\
88.95407668981525	0.9835580934342489\\
88.96322726724333	0.9939067922943263\\
88.97165872864815	1.00348598964937\\
88.9805135257782	1.0135884508413477\\
88.98906303635991	1.023385419908494\\
88.99755091389136	1.0331527318437428\\
89.00601974795842	1.0429386441640855\\
89.01375809577024	1.0519173334666547\\
89.02153716724112	1.060977090390392\\
89.02922121053712	1.0699597010989228\\
89.03693129563072	1.0790059331342143\\
89.04528124692743	1.0888389193767578\\
89.0532863083173	1.0983030754912417\\
89.06046550523496	1.1068228666891988\\
89.06768821885873	1.1154231560441614\\
89.07536085235594	1.124589970344648\\
89.08381650845453	1.1347282872073028\\
89.09187965441629	1.1444337538880038\\
89.09992244620199	1.1541505819271185\\
89.10704665961364	1.1627892781307483\\
89.11507323901489	1.172553676971229\\
89.12213040549591	1.181169962243855\\
89.12945577307897	1.1901421042353357\\
89.13637640801548	1.1986463484818364\\
89.14454273179925	1.2087122668694676\\
89.15193559635782	1.2178578464777394\\
89.15924488673201	1.2269295494250727\\
89.16663682983798	1.236133293598967\\
89.17491554969152	1.2464744642047516\\
89.18331345405298	1.2570022981067481\\
89.19156650872742	1.2673861551003962\\
89.19918558331739	1.2770064242563413\\
89.20730137086323	1.287287291883497\\
89.21531400754773	1.2974725982994535\\
89.2227897478596	1.3070077225483265\\
89.23092778318471	1.3174202961392236\\
89.2390891914593	1.327898448452772\\
89.24700534360218	1.338096374576112\\
89.25469711304305	1.3480378404081073\\
89.26279999874177	1.3585439526662335\\
89.27015621766105	1.3681137702020623\\
89.27816486308203	1.3785636843303215\\
89.28662244427849	1.3896353724964028\\
89.2948903605114	1.4004958929749534\\
89.30303388082493	1.4112286834632242\\
89.31116248346814	1.421976816916915\\
89.31950082997736	1.4330380515160184\\
89.32764930061401	1.4438832156958181\\
89.33563999884126	1.4545526461599536\\
89.34300477643822	1.464417255754607\\
89.35071141725368	1.474769493677698\\
89.35870068668947	1.4855335801725431\\
89.3661757840282	1.4956361347808063\\
89.3740764283483	1.50634457906992\\
89.38194077074846	1.5170361622905029\\
89.38920932120661	1.526947501593722\\
89.39720343257244	1.5378782983446264\\
89.40486366672837	1.5483842962492993\\
89.4126406207103	1.559081158492332\\
89.42052647954895	1.5699594496439704\\
89.42800534826551	1.5803067154090615\\
89.43527601661145	1.5903939003425966\\
89.44312372711573	1.6013109039228\\
89.45119210014329	1.6125672978930465\\
89.45870603808598	1.6230812345242365\\
89.46651381779049	1.6340362583609895\\
89.47484188470776	1.6457543834961146\\
89.4828289635052	1.65702658144418\\
89.49012360984173	1.6673511829895373\\
89.49774532377069	1.678166853416347\\
89.5050294006397	1.6885315116659525\\
89.51277231823377	1.6995775052038233\\
89.52048699278183	1.710613324210601\\
89.52767858548103	1.7209288409753034\\
89.53516890869534	1.7316998839012911\\
89.54313124941044	1.7431795453013437\\
89.55099884852785	1.754553979378966\\
89.55867794140329	1.7656860867840036\\
89.56639568989195	1.7769037818030373\\
89.57431158215277	1.7884398654881033\\
89.58229192678499	1.800101255629042\\
89.58976409683709	1.8110496905161342\\
89.59735296943788	1.8221971746905834\\
89.60466619440282	1.8329672010482176\\
89.61267347904663	1.8447881512830056\\
89.62035184094486	1.8561538217081086\\
89.62781348988773	1.8672268790653423\\
89.63590623101018	1.8792660063371511\\
89.6433615149549	1.8903864249195776\\
89.65105358532503	1.9018880211345892\\
89.65873916522517	1.9134087364257284\\
89.66646339514361	1.9250162719414363\\
89.67426291357785	1.9367661978148822\\
89.68220059857916	1.948754263673914\\
89.69001584850525	1.9605874479004832\\
89.69776514722327	1.972350025524137\\
89.70588003861926	1.9846977851906624\\
89.71361489369173	1.9964975138727477\\
89.72191012768062	2.009182829274729\\
89.72940176531787	2.020669137497264\\
89.73682637468482	2.032079275376243\\
89.74475118616434	2.0442861240317765\\
89.75280566259207	2.0567230759366355\\
89.76049957850691	2.06863278694284\\
89.76823971263053	2.0806422769170414\\
89.77555907733293	2.0920257808976945\\
89.78323723688345	2.103993797488216\\
89.79118751807744	2.116414710046266\\
89.79910313263312	2.1288110780381952\\
89.8066917406046	2.1407235878593367\\
89.81422312694505	2.1525730620921193\\
89.8224294495295	2.1655132331933116\\
89.8299201603767	2.177353790868014\\
89.83733166918967	2.1890950228275106\\
89.84445299671407	2.2004011300842903\\
89.85269616723448	2.213515352850883\\
89.86051890173704	2.225990622929147\\
89.86856416952779	2.2388498128446033\\
89.87630665806202	2.2512538234220143\\
89.8844413934072	2.2643151428369057\\
89.8919536721227	2.2764051919893014\\
89.89981000028033	2.2890759175375965\\
89.90712125907802	2.3008939036633693\\
89.9154226908656	2.3143399080538565\\
89.92366042737541	2.3277138874973184\\
89.93128251978325	2.340117000334768\\
89.93939005656935	2.3533379676316146\\
89.94687641820946	2.3655735483750497\\
89.95483839594243	2.3786132721124824\\
89.96220070727097	2.3906974005840436\\
89.96986909308686	2.4033092141090524\\
89.97788913036308	2.4165268773220667\\
89.98547322394026	2.4290533720301895\\
89.99293037619378	2.441395475659424\\
90.00079912001468	2.4544448495319546\\
90.00856195954017	2.467345772215201\\
90.01633324598427	2.480287492163315\\
90.02365908071573	2.4925126781612095\\
90.03121675345585	2.5051491565087094\\
90.03896590345184	2.5181315579933043\\
90.04699729872974	2.531614122169228\\
90.05447201648269	2.544188633446237\\
90.06228532170954	2.5573582363010807\\
90.07024348903911	2.5707991409190614\\
90.07754513922	2.5831566911044845\\
90.08485085569347	2.59554432266607\\
90.092739330484	2.608944960783429\\
90.10034153716677	2.6218853319468227\\
90.1077103631427	2.634452701432558\\
90.11525662733354	2.6473466212168146\\
90.12264163916763	2.659989027413718\\
90.13019852997783	2.672949588670958\\
90.13746632192002	2.6854379144583334\\
90.14514971303302	2.698664133953531\\
90.15283236942741	2.711914259915635\\
90.16072253064857	2.7255480030629435\\
90.16861235642733	2.739207590266603\\
90.17616654736167	2.7523114161695696\\
90.18394713079627	2.765832727003823\\
90.19170552818241	2.7793409297023883\\
90.19965378008348	2.7932055686025237\\
90.20741565326261	2.8067710220482276\\
90.2155103986714	2.820944440000572\\
90.223044396874	2.8341616246294885\\
90.23060424478149	2.847447871650475\\
90.23859657654384	2.8615191846687793\\
90.24640393093568	2.875290740671054\\
90.25442701167094	2.8894686614324145\\
90.26253517458451	2.9038237430752805\\
90.2705480076144	2.918036806529938\\
90.27818215864454	2.9316033770040075\\
90.28580595253229	2.9451753728249273\\
90.29310621074728	2.958194222224887\\
90.30078450865173	2.971909979830963\\
90.30834041710725	2.985430731091327\\
90.31620308150889	2.999524403198648\\
90.32443453558875	3.0143051928506823\\
90.33250338505584	3.028820851146051\\
90.34017857650056	3.0426533665151974\\
90.34764615175999	3.056134775670097\\
90.35542145973258	3.0701949029821405\\
90.36288921012888	3.083722156309543\\
90.37053361345264	3.0975920989511225\\
90.37809984580056	3.11134322408632\\
90.38559481898787	3.124987348397111\\
90.39350624653571	3.139412926087644\\
90.40137868004754	3.153791989184402\\
90.40992293844607	3.169424386396008\\
90.41792180179036	3.184085940513979\\
90.41944987324169	3.1868920129295377\\
90.42114683079657	3.190009220827071\\
90.42215630084638	3.1918642533225086\\
90.42343507060662	3.194214648963249\\
90.42460557381204	3.196366638558785\\
90.42686570044026	3.2005228501790297\\
90.43064980518915	3.2074846467644322\\
90.43639726700621	3.218066530540347\\
90.44388556495656	3.23186973444726\\
90.45169028649772	3.2462787767116117\\
90.45980775002096	3.2612896144007584\\
90.46777848759825	3.276054149229201\\
90.47577805789766	3.2908966267607838\\
90.48369524400516	3.3056105896308905\\
90.49192006012373	3.3209210998795546\\
90.4998814201841	3.3357662785914384\\
90.5075479746871	3.3500850858710223\\
90.51551761956003	3.3649930702883273\\
90.5232477734414	3.379476477561842\\
90.53049938419892	3.393084601420262\\
90.5386424690711	3.408387555548682\\
90.54635162281733	3.4228987782406683\\
90.55412060904362	3.437545045318922\\
90.56201967332348	3.452459422934105\\
90.56987024181467	3.467305360853384\\
90.5775528956913	3.481856234326555\\
90.58552595502445	3.4969797262754376\\
90.59355156191506	3.5122265206984142\\
90.60169041657267	3.5277124883196285\\
90.609886593234	3.5433320144667944\\
90.61810911847405	3.55902643586493\\
90.62593281157433	3.573983253195835\\
90.63389611958397	3.589229618355862\\
90.64194333746849	3.6046598795800957\\
90.64988580139277	3.6199124681606936\\
90.6578341415522	3.635199137142213\\
90.66589764999262	3.6507303365267694\\
90.67402568226095	3.6664093210712245\\
90.68226488065858	3.6823266720446535\\
90.69058584995923	3.6984264302256946\\
90.69871860345884	3.7141861760415793\\
90.70681643542969	3.7299016257567565\\
90.71514470336766	3.746088034151085\\
90.72321086200026	3.7617888131060644\\
90.73094821542773	3.776871640860773\\
90.73922641357834	3.7930309782649196\\
90.74724329044861	3.808703503902188\\
90.75551770939407	3.824902501680607\\
90.76362257517209	3.840792920871775\\
90.77124286702434	3.855754858727133\\
90.77942551285369	3.8718422133306323\\
90.78786688326662	3.88846187637452\\
90.79603633215558	3.9045699403847918\\
90.80378591112276	3.91987194489859\\
90.81181895771007	3.935754760095837\\
90.81945662948405	3.9508768541452044\\
90.82784637620458	3.9675093577064056\\
90.83611355698739	3.9839223476265113\\
90.8440712775282	3.999743234131934\\
90.85180424299176	4.015138017946288\\
90.85999325683412	4.031461663523844\\
90.8682338998266	4.047910691172914\\
90.87643289878301	4.064299057623909\\
90.88493465362254	4.081315510847446\\
90.89288966070646	4.097260205041707\\
90.90057523026468	4.11268507748826\\
90.90883385889856	4.129280605945771\\
90.91658088671886	4.144869224022637\\
90.92528472282746	4.162404606550307\\
90.93344114343842	4.178860435519942\\
90.94129659053314	4.194729908213089\\
90.94973958179767	4.211807414560944\\
90.95767288873458	4.227875756356914\\
90.96593313011144	4.244627100180464\\
90.97393645377909	4.260878651087554\\
90.98193878532501	4.277148556797638\\
90.99008554328154	4.293732693868382\\
90.99807570002648	4.310018681712801\\
91.0060392546454	4.3262704916539665\\
91.01409580415046	4.342732164770496\\
91.0220163283482	4.358935921051609\\
91.02955175238685	4.374370622241845\\
91.0374314936468	4.390528850492222\\
91.0454183370685	4.4069261270265105\\
91.05307589440929	4.422666393527022\\
91.06118658186148	4.439356932945952\\
91.069388811468	4.456256182176942\\
91.07742769826217	4.4728391039082815\\
91.08512311405269	4.488732488459949\\
91.09326477766203	4.505566261535471\\
91.10148560032223	4.5225838757849175\\
91.10929469707202	4.538768722959324\\
91.1173147689588	4.555409495156955\\
91.12518971384043	4.571768090688726\\
91.1331408012293	4.588303456123782\\
91.14127151711989	4.605231461129831\\
91.14897574669246	4.621290265608067\\
91.15648462115479	4.6369590048097\\
91.16462976431185	4.653973035973507\\
91.17296953805075	4.671413372371585\\
91.18085940632125	4.6879322672116235\\
91.1887286258121	4.704425958005206\\
91.19690621080056	4.721584404414196\\
91.20503851798205	4.738667028419377\\
91.21320505397173	4.755840589230678\\
91.22137154768228	4.7730331236534855\\
91.22959668123721	4.790368200550617\\
91.23790666964359	4.807901450244914\\
91.24628949200957	4.825608007509141\\
91.25436090905302	4.842676019933139\\
91.26234285506212	4.859572942021291\\
91.27069856283373	4.877279469345783\\
91.27874901203768	4.894358009043346\\
91.28642900973935	4.9106679902911115\\
91.29468597157222	4.9282204116046024\\
91.30260345028148	4.945069333124694\\
91.31100638564183	4.962969245015788\\
91.31926171724953	4.980573732635989\\
91.32719480038494	4.997508996092309\\
91.33514727079438	5.014502692362813\\
91.34312083463516	5.031558526479138\\
91.35119682735444	5.0488506694597355\\
91.35932530916173	5.066272703866121\\
91.36705972551795	5.082867083544578\\
91.37541920563984	5.100819281007995\\
91.38373486787927	5.1186957481446225\\
91.39232163263361	5.137173592271958\\
91.4006734225647	5.155164705938393\\
91.40881224349823	5.172714887220838\\
91.41727488722356	5.190980989038692\\
91.42533047785727	5.20838635043693\\
91.43343582297476	5.225915965730474\\
91.44168479085889	5.24377321580822\\
91.45020262532944	5.262230223783403\\
91.45854542045933	5.280326084880812\\
91.46678148921163	5.298207870539761\\
91.47505409899298	5.3161860924372135\\
91.48351177079635	5.334583874271134\\
91.49201139930898	5.353090799023951\\
91.50006139176949	5.370635954497196\\
91.50841838251867	5.388866610668021\\
91.51642491223035	5.406349410433426\\
91.5248897593464	5.424849228591231\\
91.53318223711912	5.4429895413334695\\
91.54146438006688	5.461123892214937\\
91.54928898176692	5.478272351486398\\
91.55752970697239	5.496347978727396\\
91.56626964633855	5.515535447079788\\
91.5745831230465	5.533804247301944\\
91.58269239485216	5.551640401986383\\
91.59116936583573	5.570301223104771\\
91.59949272873294	5.58864054384857\\
91.60803414284115	5.607476727034218\\
91.61633822252995	5.625806152451789\\
91.62487904423844	5.644674333689199\\
91.63316897656765	5.663004704970641\\
91.6411045915035	5.680566909329192\\
91.64931671520478	5.698755676368641\\
91.65760276202286	5.717123523573669\\
91.66567371236385	5.735029780649116\\
91.6742698591303	5.754116388853598\\
91.68298070228573	5.773474273173129\\
91.69153636986877	5.792503964800757\\
91.69968208635044	5.81063751234055\\
91.707660448062	5.828412889234254\\
91.71625273145577	5.847570542345176\\
91.72492366342948	5.866919676020249\\
91.73349546427022	5.886063735939489\\
91.74183040908918	5.904694341284214\\
91.74996260210426	5.9228863866850325\\
91.7585053498112	5.9420113036721744\\
91.76667354695951	5.960312742648201\\
91.77468381559703	5.978274210315366\\
91.78319458551314	5.997371817311745\\
91.79143826320254	6.015884892621978\\
91.79973210673867	6.034524735455365\\
91.8080522893141	6.053237953688047\\
91.81640314553377	6.072034356266059\\
91.82487922729834	6.091126924620831\\
91.83297527613095	6.109377641754632\\
91.8417781680844	6.129235519456184\\
91.85028016020448	6.148429837047999\\
91.8586985283952	6.1674496659059574\\
91.86702035002318	6.186265294685857\\
91.87515020262657	6.204660333758612\\
91.88379610531223	6.224236316162621\\
91.8916121206965	6.241947043003364\\
91.8999190726152	6.260782349084701\\
91.90849588883478	6.280243004592322\\
91.91710857559531	6.299799121582629\\
91.92550500283383	6.318878098007476\\
91.9337051292251	6.337524170072761\\
91.94167315599609	6.355654909225384\\
91.94369711696083	6.360264521749455\\
};
\end{axis}
\end{tikzpicture}%
