%RateOfClimb_vs_GroundDistance
\begin{tikzpicture}

\begin{axis}[
width=\figurewidth,
height=\figureheight,
scaled ticks=false, tick label style={/pgf/number format/fixed},
xmin=0.0,
xmax=5879.065866034311,
xlabel={Ground distance (m)},
xmajorgrids,
ymin=0.0,
ymax=6.869085683489412,
ylabel={Rate of Climb (m/s)},
ymajorgrids,
legend style={at={(1.03,0.5)},anchor=west,draw=black,fill=white,legend cell align=left}
]

\addplot [
color=black,
solid
]
table[row sep=crcr]{
8.45705836904475E-9	0.0\\
1.7193607668376613E-7	0.0\\
1.4198428505904283E-6	0.0\\
7.623754568218167E-6	0.0\\
4.034217525126497E-5	0.0\\
1.5823226097120446E-4	0.0\\
5.070725397946254E-4	0.0\\
0.0010759980711192666	0.0\\
0.0018557945569342127	0.0\\
0.002813254164951917	0.0\\
0.003944942035658483	0.0\\
0.005298327610107125	0.0\\
0.0068933658457494325	0.0\\
0.008686788296228681	0.0\\
0.010674401906682337	0.0\\
0.01290323893511319	0.0\\
0.015333641376976844	0.0\\
0.017959090732747283	0.0\\
0.02079296630624418	0.0\\
0.023806635687514455	0.0\\
0.027031080164108927	0.0\\
0.03049786288450703	0.0\\
0.03413663839041453	0.0\\
0.03809650159566477	0.0\\
0.04224021604780527	0.0\\
0.04655085902651711	0.0\\
0.05098231812414078	0.0\\
0.05582385440505461	0.0\\
0.0608326371005001	0.0\\
0.06605551802341209	0.0\\
0.07156905452072801	0.0\\
0.07725819814193183	0.0\\
0.08308967190817867	0.0\\
0.08919868854550889	0.0\\
0.0956502329605228	0.0\\
0.1021702572404889	0.0\\
0.10874500080482769	0.0\\
0.11561986584806491	0.0\\
0.12283947514712698	0.0\\
0.13033162902091772	0.0\\
0.1381221009899346	0.0\\
0.14602238207571938	0.0\\
0.1540955905821209	0.0\\
0.16232623038015592	0.0\\
0.1708234046094061	0.0\\
0.17980013567471265	0.0\\
0.18896204789975146	0.0\\
0.19841710401907292	0.0\\
0.20814443415349337	0.0\\
0.21800382566076498	0.0\\
0.22801294890435891	0.0\\
0.23872464292535905	0.0\\
0.24932437485631304	0.0\\
0.26010225275212706	0.0\\
0.2716087693178396	0.0\\
0.2830132850120416	0.0\\
0.29483607394326317	0.0\\
0.30682432356373734	0.0\\
0.31866007983003064	0.0\\
0.3307022802559917	0.0\\
0.34356462044014746	0.0\\
0.35693117398831653	0.0\\
0.3702946485836943	0.0\\
0.3831782394032439	0.0\\
0.39704852797021917	0.0\\
0.41079394952643744	0.0\\
0.4250514810792486	0.0\\
0.43897514137879046	0.0\\
0.4541934188167398	0.0\\
0.46911410035886314	0.0\\
0.48404352662725403	0.0\\
0.49983111065586483	0.0\\
0.5159618345545243	0.0\\
0.5323574505680171	0.0\\
0.5485342848821826	0.0\\
0.5650309335451409	0.0\\
0.5813179373750033	0.0\\
0.5985793341644459	0.0\\
0.6161936709243199	0.0\\
0.6335855122303395	0.0\\
0.6516513624771458	0.0\\
0.6705955807416484	0.0\\
0.6894204755536242	0.0\\
0.7084010227974786	0.0\\
0.7275576039041061	0.0\\
0.7476880390817466	0.0\\
0.7672196625984782	0.0\\
0.7873860457739441	0.0\\
0.8082837557108618	0.0\\
0.8290539261990231	0.0\\
0.8504591508551085	0.0\\
0.8728218575858133	0.0\\
0.8951015317877873	0.0\\
0.9177766078863314	0.0\\
0.9408520758449774	0.0\\
0.9639577128660346	0.0\\
0.9868872869806655	0.0\\
1.0105649044200917	0.0\\
1.0341275493388946	0.0\\
1.0577480579683947	0.0\\
1.0814571639604669	0.0\\
1.1055810067469314	0.0\\
1.131344188657653	0.0\\
1.1565334452339022	0.0\\
1.1830075134739264	0.0\\
1.2087203975555894	0.0\\
1.2353257898625114	0.0\\
1.26231763408226	0.0\\
1.2910130180027637	0.0\\
1.31791871406669	0.0\\
1.3464768188667189	0.0\\
1.3750078534065047	0.0\\
1.4049660087833233	0.0\\
1.434276333728929	0.0\\
1.4636044798575738	0.0\\
1.4939223314844	0.0\\
1.5243816861851922	0.0\\
1.5556037846310713	0.0\\
1.587339856281495	0.0\\
1.6185712219105364	0.0\\
1.6521894326450215	0.0\\
1.6845174691281155	0.0\\
1.7160335279205103	0.0\\
1.748917586006344	0.0\\
1.7827261951579985	0.0\\
1.8156710046037459	0.0\\
1.8493924411039235	0.0\\
1.8834792222075856	0.0\\
1.917638766785763	0.0\\
1.9532508681025091	0.0\\
1.9885943058790123	0.0\\
2.0249801954880935	0.0\\
2.0615431472133006	0.0\\
2.0979420681409247	0.0\\
2.136110643570973	0.0\\
2.174258039713833	0.0\\
2.2126824212201655	0.0\\
2.2521974080446094	0.0\\
2.292596922160831	0.0\\
2.3312939888424102	0.0\\
2.369383832234213	0.0\\
2.408078606243528	0.0\\
2.4484718641053647	0.0\\
2.4890399097858937	0.0\\
2.5309128143984543	0.0\\
2.5721159478920317	0.0\\
2.6138215855219036	0.0\\
2.6574775937166972	0.0\\
2.700522582656469	0.0\\
2.743404847458261	0.0\\
2.788069793677166	0.0\\
2.832324103719796	0.0\\
2.8775181705925457	0.0\\
2.9237704476855226	0.0\\
2.970644409454734	0.0\\
3.017853174669444	0.0\\
3.064831195587134	0.0\\
3.114656299989379	0.0\\
3.1626494031606223	0.0\\
3.2121092175524364	0.0\\
3.2608967794489354	0.0\\
3.3092698631836512	0.0\\
3.3597059217578096	0.0\\
3.408572339802239	0.0\\
3.4579182943381843	0.0\\
3.5116984183874917	0.0\\
3.563309962302589	0.0\\
3.614822828898326	0.0\\
3.6682896571347197	0.0\\
3.721997038531012	0.0\\
3.774673271463624	0.0\\
3.8311935628369937	0.0\\
3.887651142876331	0.0\\
3.94415740095548	0.0\\
3.9996067092989502	0.0\\
4.057411836606645	0.0\\
4.113487586861595	0.0\\
4.169346400099251	0.0\\
4.227574954449942	0.0\\
4.289112627624142	0.0\\
4.347798779748082	0.0\\
4.408262000365662	0.0\\
4.468511536515763	0.0\\
4.528811208849229	0.0\\
4.589184163109762	0.0\\
4.651526312232447	0.0\\
4.7149939757730746	0.0\\
4.779986227331557	0.0\\
4.8442335990885805	0.0\\
4.907754844686826	0.0\\
4.972183567788793	0.0\\
5.040885098052719	0.0\\
5.109648952607175	0.0\\
5.175804535031391	0.0\\
5.242706636672281	0.0\\
5.311214878019264	0.0\\
5.382658214730604	0.0\\
5.450253433814254	0.0\\
5.52051919725786	0.0\\
5.588950387099651	0.0\\
5.662140618447474	0.0\\
5.736556251637015	0.0\\
5.8080876360351255	0.0\\
5.882454258976255	0.0\\
5.958982518861244	0.0\\
6.032649154890196	0.0\\
6.106810693137126	0.0\\
6.182476965992347	0.0\\
6.256589268499416	0.0\\
6.3368621402210525	0.0\\
6.4131788810758525	0.0\\
6.489456011527237	0.0\\
6.56848406341401	0.0\\
6.646937137968395	0.0\\
6.729767631631862	0.0\\
6.810269549020536	0.0\\
6.889317543556553	0.0\\
6.970141580110722	0.0\\
7.0541004893466255	0.0\\
7.136831432147995	0.0\\
7.221642059935151	0.0\\
7.305586752275067	0.0\\
7.390817763186739	0.0\\
7.474558230227416	0.0\\
7.563412843095186	0.0\\
7.651032368934564	0.0\\
7.738895611485043	0.0\\
7.825095340830501	0.0\\
7.9180964471591775	0.0\\
8.006149794396944	0.0\\
8.098652223259737	0.0\\
8.187919953736746	0.0\\
8.277448795241149	0.0\\
8.368764410134148	0.0\\
8.461043263990376	0.0\\
8.555508040778275	0.0\\
8.648786152670944	0.0\\
8.745058997342138	0.0\\
8.839780671596106	0.0\\
8.93834261248	0.0\\
9.034775488769569	0.0\\
9.131537194912017	0.0\\
9.231033299982222	0.0\\
9.333022164126145	0.0\\
9.434243751590504	0.0\\
9.539154958490702	0.0\\
9.6430873809953	0.0\\
9.74758741961002	0.0\\
9.853126799223663	0.0\\
9.958176221360826	0.0\\
10.06778980388377	0.0\\
10.173902916895187	0.0\\
10.278533709589883	0.0\\
10.384772154912039	0.0\\
10.496368375688249	0.0\\
10.606338515916008	0.0\\
10.721305741094543	0.0\\
10.829897099537341	0.0\\
10.94085658258074	0.0\\
11.05732685844989	0.0\\
11.168692013833667	0.0\\
11.28322379327922	0.0\\
11.39743080117297	0.0\\
11.51390679437117	0.0\\
11.629997423661862	0.0\\
11.747912657382074	0.0\\
11.869201598128491	0.0\\
11.988001630789558	0.0\\
12.10541336829252	0.0\\
12.225376815058347	0.0\\
12.350025079291694	0.0\\
12.471450118126892	0.0\\
12.594649249583664	0.0\\
12.718033532009354	0.0\\
12.84374291074225	0.0\\
12.968242146910129	0.0\\
13.09099694960031	0.0\\
13.220927084009894	0.0\\
13.348998718150945	0.0\\
13.472984759637718	0.0\\
13.60434195606032	0.0\\
13.736183547251283	0.0\\
13.865451082105622	0.0\\
13.995379946818147	0.0\\
14.127227501964278	0.0\\
14.261673142922746	0.0\\
14.39460128621575	0.0\\
14.535963072421595	0.0\\
14.670984599061562	0.0\\
14.811646414246312	0.0\\
14.94820321285248	0.0\\
15.08801370537564	0.0\\
15.223288896038738	0.0\\
15.365863741229571	0.0\\
15.506676402721695	0.0\\
15.650549109319169	0.0\\
15.793849369198973	0.0\\
15.942542715636527	0.0\\
16.088299895641306	0.0\\
16.23486805751564	0.0\\
16.381567362055243	0.0\\
16.532789031616602	0.0\\
16.683892274246666	0.0\\
16.8347833771328	0.0\\
16.986991156830868	0.0\\
17.139821559064274	0.0\\
17.29355806655704	0.0\\
17.446480189144168	0.0\\
17.6002080302894	0.0\\
17.759344024003013	0.0\\
17.91524814382106	0.0\\
18.069854215555367	0.0\\
18.22423488413557	0.0\\
18.379572076713565	0.0\\
18.53667867479566	0.0\\
18.70015215559532	0.0\\
18.86133630216211	0.0\\
19.02546890597138	0.0\\
19.187755622647693	0.0\\
19.356190171487647	0.0\\
19.52038958267795	0.0\\
19.692008693423375	0.0\\
19.86683701478239	0.0\\
20.03408975272807	0.0\\
20.20501439365085	0.0\\
20.382096607614407	0.0\\
20.55858223470254	0.0\\
20.73381645660028	0.0\\
20.910876188518202	0.0\\
21.089539099877953	0.0\\
21.266974784399444	0.0\\
21.445668042370407	0.0\\
21.62648631623417	0.0\\
21.8053708153871	0.0\\
21.98572357591582	0.0\\
22.165969608359326	0.0\\
22.35047195958071	0.0\\
22.53451512325489	0.0\\
22.71899499088852	0.0\\
22.905251478940407	0.0\\
23.090611573219377	0.0\\
23.275075328017437	0.0\\
23.461244487396236	0.0\\
23.656864505696348	0.0\\
23.848936377998996	0.0\\
24.044165575011455	0.0\\
24.23545645068036	0.0\\
24.4291928132551	0.0\\
24.62914833452021	0.0\\
24.82670686156088	0.0\\
25.024674711565773	0.0\\
25.22338772186204	0.0\\
25.42305269523832	0.0\\
25.6210534113494	0.0\\
25.822772855603887	0.0\\
26.027648474776683	0.0\\
26.230267685005956	0.0\\
26.43606018319953	0.0\\
26.64480890885949	0.0\\
26.85079021341513	0.0\\
27.062644042566674	0.0\\
27.277642013123554	0.0\\
27.48875298471544	0.0\\
27.701203347863448	0.0\\
27.91277519912464	0.0\\
28.123815446918442	0.0\\
28.341519945627127	0.0\\
28.555527318693514	0.0\\
28.7702217062917	0.0\\
28.989215233866126	0.0\\
29.210860281059738	0.0\\
29.43435256911038	0.0\\
29.659551552625445	0.0\\
29.88548427594054	0.0\\
30.10792163005572	0.0\\
30.32866478625639	0.0\\
30.556571382762748	0.0\\
30.784398919854382	0.0\\
31.016447421933655	0.0\\
31.24382582454288	0.0\\
31.475798071925993	0.0\\
31.70867382208597	0.0\\
31.941854156869077	0.0\\
32.17701563274329	0.0\\
32.4083007284941	0.0\\
32.45573730937056	0.0\\
32.54571357658459	0.0\\
32.55301662084362	0.0\\
32.555635311000856	0.0\\
32.559236925833986	0.0\\
32.57356173579167	0.0\\
32.61201491752904	0.0\\
32.72266357271896	0.0\\
32.92220301148248	0.0\\
33.131323184496125	0.0\\
33.345308516470155	0.0\\
33.55500963507404	0.0\\
33.765558375301964	0.0\\
33.97689067222802	0.0\\
34.18836921512674	0.0\\
34.40074698418516	0.0\\
34.61461026614428	0.0\\
34.83261707271015	0.0\\
35.04814065924596	0.0\\
35.26588108142775	0.0\\
35.485573547209526	0.0\\
35.70637113747409	0.0\\
35.9301379858108	0.0\\
36.149009425024786	0.0\\
36.37087020052692	0.0\\
36.5945933635804	0.0\\
36.81663038077751	0.0\\
37.03945965566693	0.0\\
37.26319483149038	0.0\\
37.48875288107831	0.0\\
37.72006013922659	0.0\\
37.9460642623487	0.0\\
38.17153280741405	0.0\\
38.40052011443997	0.0\\
38.630564637846575	0.0\\
38.86559316330178	0.0\\
39.09653370015273	0.0\\
39.33403513254696	0.0\\
39.571587157723584	0.0\\
39.809624773724366	0.0\\
40.04883298492507	0.0\\
40.288143339706835	0.0\\
40.527409176155246	0.0\\
40.767582991369835	0.0\\
41.00958564818043	0.0\\
41.25701067216593	0.0\\
41.50148191006622	0.0\\
41.74802378165225	0.0\\
41.995192370545325	0.0\\
42.24573078236506	0.0\\
42.49352739981484	0.0\\
42.742037559542254	0.0\\
42.988649643638325	0.0\\
43.23665307171355	0.0\\
43.48899945975748	0.0\\
43.742961785675604	0.0\\
43.99517520232736	0.0\\
44.25211595807889	0.0\\
44.50932571096938	0.0\\
44.76748408703999	0.0\\
45.0265411825051	0.0\\
45.28535714312717	0.0\\
45.5434436835633	0.0\\
45.80904203166085	0.0\\
46.070581054662924	0.0\\
46.33147378544815	0.0\\
46.592633638763985	0.0\\
46.857604015926555	0.0\\
47.1313722413048	0.0\\
47.40103458630932	0.0\\
47.672441975070555	0.0\\
47.93962323782213	0.0\\
48.214713073219784	0.0\\
48.48834822732009	0.0\\
48.76556986235744	0.0\\
49.040398429587086	0.0\\
49.315727344498185	0.0\\
49.591268418157654	0.0\\
49.872791041346474	0.0\\
50.15167148464805	0.0\\
50.426670280236436	0.0\\
50.70350450599841	0.0\\
50.98535163727628	0.0\\
51.265895039929674	0.0\\
51.54966491724261	0.0\\
51.83613931076921	0.0\\
52.12509130703799	0.0\\
52.41331468324063	0.0\\
52.70164051294863	0.0\\
52.99458363196467	0.0\\
53.28746266289201	0.0\\
53.578521359670646	0.0\\
53.87425601721594	0.0\\
54.1644092508825	0.0\\
54.45538009598651	0.0\\
54.750035900595634	0.0\\
55.0446304058499	0.0\\
55.34270092498684	0.0\\
55.645566888343	0.0\\
55.94429791610925	0.0\\
56.2480253594715	0.0\\
56.54514182493388	0.0\\
56.847616343933964	0.0\\
57.15382927450487	0.0\\
57.45602016373368	0.0\\
57.76338831710214	0.0\\
58.07209330669441	0.0\\
58.37927271478058	0.0\\
58.68820915496153	0.0\\
59.00101174507114	0.0\\
59.31236045968038	0.0\\
59.62804805279275	0.0\\
59.94576201707886	0.0\\
60.26314714165326	0.0\\
60.579929487361184	0.0\\
60.90421831095999	0.0\\
61.2192014911394	0.0\\
61.541066559063935	0.0\\
61.861680633298164	0.0\\
62.18123423310391	0.0\\
62.50570166220605	0.0\\
62.83400746806285	0.0\\
63.15730970230429	0.0\\
63.4817912793913	0.0\\
63.81291438046394	0.0\\
64.13990961124045	0.0\\
64.46818035630253	0.0\\
64.79549208019284	0.0\\
65.13222516403815	0.0\\
65.4659780608732	0.0\\
65.8014456899499	0.0\\
66.13641713192388	0.0\\
66.47421126187211	0.0\\
66.81230891161135	0.0\\
67.15664876327597	0.0\\
67.50020701001114	0.0\\
67.84247463859921	0.0\\
68.18744981807566	0.0\\
68.52829313460254	0.0\\
68.87589114589758	0.0\\
69.22791797754687	0.0\\
69.58070108797196	0.0\\
69.92962725047684	0.0\\
70.28600112690069	0.0\\
70.63830412554927	0.0\\
70.9904082273909	0.0\\
71.34707881680566	0.0\\
71.70012175751995	0.0\\
72.05533650560147	0.0\\
72.41649825254214	0.0\\
72.77577791725165	0.0\\
73.13846498562339	0.0\\
73.5032609307502	0.0\\
73.86735402237372	0.0\\
74.23581757848964	0.0\\
74.60033870537927	0.0\\
74.97028331995597	0.0\\
75.34309716528423	0.0\\
75.71635799967834	0.0\\
76.09156447669139	0.0\\
76.46868639962102	0.0\\
76.84520287001524	0.0\\
77.22207325870926	0.0\\
77.59172784818406	0.0\\
77.9650427177194	0.0\\
78.34617197773304	0.0\\
78.72916351454509	0.0\\
79.10686461280042	0.0\\
79.48552488823307	0.0\\
79.87311902268848	0.0\\
80.255284456071	0.0\\
80.6485855019443	0.0\\
81.03749476713705	0.0\\
81.4375543274794	0.0\\
81.82587303175671	0.0\\
82.22308641802687	0.0\\
82.61391100651227	0.0\\
83.00876180019878	0.0\\
83.40651383395507	0.0\\
83.80588516579809	0.0\\
84.21053650829433	0.0\\
84.61388027186828	0.0\\
85.01327529886578	0.0\\
85.42647415596673	0.0\\
85.82536138370295	0.0\\
86.23518101251713	0.0\\
86.64004861998174	0.0\\
87.04909693770409	0.0\\
87.46597952347085	0.0\\
87.88166263255633	0.0\\
88.30323226546997	0.0\\
88.72406718936048	0.0\\
89.14259573182187	0.0\\
89.56356481358591	0.0\\
89.99000963072402	0.0\\
90.40203934384323	0.0\\
90.82371799527209	0.0\\
91.25670080030395	0.0\\
91.69002092827853	0.0\\
92.1164193301332	0.0\\
92.54571444416243	0.0\\
92.97703346121187	0.0\\
93.40913073134635	0.0\\
93.83935348811204	0.0\\
94.27449533418874	0.0\\
94.71282810332005	0.0\\
95.1487264938153	0.0\\
95.59028988550978	0.0\\
96.02948961181136	0.0\\
96.47597457211518	0.0\\
96.92100908302709	0.0\\
97.37116725291506	0.0\\
97.82678464869363	0.0\\
98.27466666308976	0.0\\
98.72347166304107	0.0\\
99.17934378974581	0.0\\
99.63744567536472	0.0\\
100.09055409072201	0.0\\
100.54973210229292	0.0\\
101.00761845845551	0.0\\
101.47073655369641	0.0\\
101.93249991654301	0.0\\
102.3927551162187	0.0\\
102.8633059677195	0.0\\
103.32927826146158	0.0\\
103.80048475249623	0.0\\
104.2688647081981	0.0\\
104.74126560841827	0.0\\
105.21541011938257	0.0\\
105.6912848577563	0.0\\
106.16719538293475	0.0\\
106.64294470706935	0.0\\
107.12221261230496	0.0\\
107.60327966710858	0.0\\
108.08325839799036	0.0\\
108.5666757787892	0.0\\
109.05616893358359	0.0\\
109.55027670679758	0.0\\
110.03997658601088	0.0\\
110.53208211929802	0.0\\
111.02715947130011	0.0\\
111.51856019082086	0.0\\
112.01779993553515	0.0\\
112.52150886451133	0.0\\
113.0234620619469	0.0\\
113.5298379991167	0.0\\
114.03492208137067	0.0\\
114.5405348905181	0.0\\
115.05345121927826	0.0\\
115.56205499700968	0.0\\
116.06905001223524	0.0\\
116.57567549657296	0.0\\
117.09110786752612	0.0\\
117.60173320700835	0.0\\
118.12017333896063	0.0\\
118.63708720493852	0.0\\
119.1580747452667	0.0\\
119.68135609373738	0.0\\
120.20497274847807	0.0\\
120.7265568532786	0.0\\
121.25351838969178	0.0\\
121.78384353769391	0.0\\
122.31398227646199	0.0\\
122.8414598428306	0.0\\
123.37168814112334	0.0\\
123.90450356585146	0.0\\
124.43769536448067	0.0\\
124.97085173851701	0.0\\
125.50115262168873	0.0\\
126.04127820954778	0.0\\
126.5818266777047	0.0\\
127.12230939184025	0.0\\
127.67051385327741	0.0\\
128.22205759678866	0.0\\
128.77117266994463	0.0\\
129.30828223108546	0.0\\
129.85695100289382	0.0\\
130.40839285006308	0.0\\
130.9565831428659	0.0\\
131.51332129790302	0.0\\
131.62536326161347	0.0\\
131.69922976583848	0.0\\
131.9122768994095	0.0\\
131.91693542565014	0.0\\
131.92121924676968	0.0\\
131.9462984052954	0.0\\
132.02896794658608	0.0\\
132.25881928425622	0.0\\
132.71345442997205	0.0\\
133.1801513393521	0.0\\
133.65435382861324	0.0\\
134.12680214809967	0.0\\
134.60022221402573	0.0\\
135.07514092966278	0.0\\
135.55213386301955	0.0\\
136.03086242170048	0.0\\
136.51698073442748	0.0\\
136.99802127361124	0.0\\
137.481725062819	0.0\\
137.97100328784433	0.0\\
138.4616862366674	0.0\\
138.9538293796428	0.0\\
139.44947071768757	0.0\\
139.9488434549059	0.0\\
140.44354483680314	0.0\\
140.9432242775074	0.0\\
141.43809226188773	0.0\\
141.93883253024063	0.0\\
142.44836446414865	0.0\\
142.9516895637978	0.0\\
143.46279497792574	0.0\\
143.96675773005916	0.0\\
144.47456779076458	0.0\\
144.98973646799664	0.0\\
145.50420548499642	0.0\\
146.01321067043233	0.0\\
146.53033671810465	0.0\\
147.04819690953883	0.0\\
147.5665401671818	0.0\\
148.08804884318874	0.0\\
148.61652320681338	0.0\\
149.14880075565736	0.0\\
149.67221037145305	0.0\\
150.20233880045157	0.0\\
150.73584932936996	0.0\\
151.26640677947097	0.0\\
151.80339931140583	0.0\\
152.3395746667751	0.0\\
152.87893116406212	0.0\\
153.41360425689612	0.0\\
153.95289273291593	0.0\\
154.48963118933943	0.0\\
155.03238447071016	0.0\\
155.5782876818123	0.0\\
156.11767750734714	0.0\\
156.66242435430343	0.0\\
157.20212935712516	0.0\\
157.74800153611153	0.0\\
158.29149062632274	0.0\\
158.84528314951376	0.0\\
159.39466011144248	0.0\\
159.94291904926473	0.0\\
160.48914827479956	0.0\\
161.03849953447252	0.0\\
161.59409917955412	0.0\\
162.15488927829705	0.0\\
162.71350910564246	0.0\\
163.26434413413608	0.0\\
163.8218726446927	0.0\\
164.38121726552697	0.0\\
164.93820513532296	0.0\\
165.4970729362767	0.0\\
166.0517258391734	0.0\\
166.611506650333	0.0\\
167.17120444254527	0.0\\
167.72839831484038	0.0\\
168.2883607657908	0.0\\
168.85004652867872	0.0\\
169.41190038658584	0.0\\
169.98379659835666	0.0\\
170.55153898832634	0.0\\
171.11997749246024	0.0\\
171.690428243886	0.0\\
172.2564189859918	0.0\\
172.81998929694083	0.0\\
173.38791594243054	0.0\\
173.9557546313876	0.0\\
174.52951023562872	0.0\\
175.10215487583895	0.0\\
175.66894165562923	0.0\\
176.24532504751159	0.0\\
176.81842999664008	0.0\\
177.39702327415608	0.0\\
177.9755753269181	0.0\\
178.5506396536107	0.0\\
179.12845534224363	0.0\\
179.7146195478755	0.0\\
180.2903744785629	0.0\\
180.8725843343766	0.0\\
181.45006358774947	0.0\\
182.03397163954207	0.0\\
182.6205856176079	0.0\\
183.20128049654534	0.0\\
183.78180041636062	0.0\\
184.36535813040922	0.0\\
184.9494508745106	0.0\\
185.53312184706408	0.0\\
186.1171765744843	0.0\\
186.7002247740018	0.0\\
187.28778213579466	0.0\\
187.8826922479933	0.0\\
188.47411889007253	0.0\\
189.0628289864011	0.0\\
189.6543959745547	0.0\\
190.24764071212894	0.0\\
190.84231403682838	0.0\\
191.43467475499216	0.0\\
192.03077857783808	0.0\\
192.63176228264956	0.0\\
193.23404857421787	0.0\\
193.8374196099445	0.0\\
194.4403277138636	0.0\\
195.03905343351386	0.0\\
195.64144281810292	0.0\\
196.24389722599625	0.0\\
196.8479934050102	0.0\\
197.45906653736836	0.0\\
198.06384984370112	0.0\\
198.66791668092247	0.0\\
199.27383661421817	0.0\\
199.87959984425737	0.0\\
200.48579376837006	0.0\\
201.1039309713276	0.0\\
201.71965505727962	0.0\\
202.33614079037778	0.0\\
202.95730336473878	0.0\\
203.5756981555366	0.0\\
204.19341380589282	0.0\\
204.81383773612384	0.0\\
205.4369648276073	0.0\\
206.0585762560898	0.0\\
206.68147409865787	0.0\\
207.30415357988477	0.0\\
207.92713834000148	0.0\\
208.55890928157902	0.0\\
209.19190597708933	0.0\\
209.8199663296411	0.0\\
210.4483084884825	0.0\\
211.075941188782	0.0\\
211.7111006010233	0.0\\
212.3439899358442	0.0\\
212.98127968598413	0.0\\
213.61431326576127	0.0\\
214.24972120806763	0.0\\
214.8847249651496	0.0\\
215.52054672680572	0.0\\
216.17057117552503	0.0\\
216.81466263202088	0.0\\
217.4584085251642	0.0\\
218.10936026408433	0.0\\
218.7580772230392	0.0\\
219.40846100016853	0.0\\
220.05952172676314	0.0\\
220.70809320538388	0.0\\
221.36658639462598	0.0\\
222.024203776047	0.0\\
222.68017391154422	0.0\\
223.33976245895246	0.0\\
224.00384906559043	0.0\\
224.66515591353811	0.0\\
225.3275765331711	0.0\\
225.99590551270234	0.0\\
226.66152634201256	0.0\\
227.3326942539211	0.0\\
228.00635388368215	0.0\\
228.67747380083273	0.0\\
229.36115128027524	0.0\\
230.04336939059704	0.0\\
230.72480022693208	0.0\\
231.40639379747586	0.0\\
232.0875679757002	0.0\\
232.76491949659425	0.0\\
233.4500208876234	0.0\\
234.1412243179755	0.0\\
234.82873202732674	0.0\\
235.51891170713583	0.0\\
236.21174153808272	0.0\\
236.91124770563442	0.0\\
237.6189174606372	0.0\\
238.3209290589977	0.0\\
239.02364431083151	0.0\\
239.7274672763238	0.0\\
240.4441870627599	0.0\\
241.1559733992371	0.0\\
241.8771534061474	0.0\\
242.58781142013424	0.0\\
243.30207312289684	0.0\\
244.0259735149009	0.0\\
244.74754510797294	0.0\\
245.46886762552242	0.0\\
246.19522393447755	0.0\\
246.92644626617346	0.0\\
247.66177343526056	0.0\\
248.39709692446394	0.0\\
249.13275532231575	0.0\\
249.8779570209074	0.0\\
250.62225012562078	0.0\\
251.3650856942188	0.0\\
252.12000913413556	0.0\\
252.87085673239983	0.0\\
253.62698687537426	0.0\\
254.38880113837268	0.0\\
255.1465982884938	0.0\\
255.91261724995962	0.0\\
256.6764769222476	0.0\\
257.44194594690066	0.0\\
258.21033472184547	0.0\\
258.9767409805595	0.0\\
259.75967717398896	0.0\\
260.540256412468	0.0\\
261.3291352747417	0.0\\
262.11928679959624	0.0\\
262.9113891614726	0.0\\
263.6966252349123	0.0\\
264.5008314850429	0.0\\
265.30120715795874	0.0\\
266.1042925166039	0.0\\
266.9135374985008	0.0\\
267.72061660508564	0.0\\
268.53547963944254	0.0\\
269.34849020285367	0.0\\
270.1737713165704	0.0\\
270.99797551017855	0.0\\
271.8147806056396	0.0\\
272.64328009195697	0.0\\
273.47555841285873	0.0\\
274.3060900250049	0.0\\
275.14181587559744	0.0\\
275.98559111966426	0.0\\
276.82057008096876	0.0\\
277.65900786305303	0.0\\
278.51044245976516	0.0\\
279.3562269670937	0.0\\
280.21271619124093	0.0\\
281.0636999706454	0.0\\
281.92669666877225	0.0\\
282.7812422059242	0.0\\
283.63235860444775	0.0\\
284.4813192707189	0.0\\
285.3368337591031	0.0\\
286.1985807595871	0.0\\
287.0524972181853	0.0\\
287.91832309517645	0.0\\
288.7793471434061	0.0\\
289.64503171383933	0.0\\
290.4993607400869	0.0\\
291.3630701482249	0.0\\
292.2254015042387	0.0\\
293.0824667563186	0.0\\
293.946225007506	0.0\\
294.7944348389045	0.0\\
295.6466414588947	0.0\\
296.51029089167594	0.0\\
297.3622770482509	0.0\\
298.215591370635	0.0\\
299.07115042718647	0.0\\
299.91627196742786	0.0\\
300.76372044503546	0.0\\
301.6135159763845	0.0\\
302.4550358151355	0.0\\
303.29101010216425	0.0\\
303.46030552007835	0.0\\
303.4824048768987	0.0\\
303.50325473213593	0.0\\
303.5208129529393	0.0\\
303.52825617710005	0.0\\
303.5422627279878	0.0\\
303.60318051310526	0.0\\
303.84712394861003	0.0\\
304.3808298802129	0.0\\
304.98601187212466	0.0\\
305.59547870547567	0.0\\
306.20766917706453	0.0\\
306.82276990180344	0.0\\
307.44572128253003	0.0\\
308.0650480567589	0.0\\
308.68749836996255	0.0\\
309.31993284531825	0.0\\
309.95066697276104	0.0\\
310.58865538069654	0.0\\
311.2276868536836	0.0\\
311.8727919361952	0.0\\
312.52025415618107	0.0\\
313.16923274155374	0.0\\
313.82681133147673	0.0\\
314.4903222398849	0.0\\
315.1552726301775	0.0\\
315.8240661099312	0.0\\
316.50018398819054	0.0\\
317.1790094808201	0.0\\
317.8596442167351	0.0\\
318.543002703042	0.0\\
319.231411886194	0.0\\
319.93166918896713	0.0\\
320.6349245314017	0.0\\
321.3442657797874	0.0\\
322.0554345876951	0.0\\
322.7767236477281	0.0\\
323.5032100888418	0.0\\
324.2308049600016	0.0\\
324.96297298613104	0.0\\
325.6967506704631	0.0\\
326.4454901753122	0.0\\
327.1910544684423	0.0\\
327.94930162240394	0.0\\
328.7050409608372	0.0\\
329.46595846754906	0.0\\
330.23068067845884	0.0\\
330.99916324144885	0.0\\
331.77806185039753	0.0\\
332.55185916760297	0.0\\
333.34199274809635	0.0\\
334.1260720726027	0.0\\
334.91126078125194	0.0\\
335.69721856846354	0.0\\
336.4825938428884	0.0\\
337.2677730937851	0.0\\
338.0519414324915	0.0\\
338.8429557567059	0.0\\
339.6308570479747	0.0\\
340.42045537596437	0.0\\
341.19931815725477	0.0\\
341.9863943998722	0.0\\
342.7739072412719	0.0\\
343.5593912522295	0.0\\
344.33762875769605	0.0\\
345.1129084525112	0.0\\
345.8921233248925	0.0\\
346.66061841369526	0.0\\
347.42975042690296	0.0\\
348.1993751973846	0.0\\
348.9681499216507	0.0\\
349.7324212299038	0.0\\
350.49749539000277	0.0\\
351.2564325018109	0.0\\
352.01107489962976	0.0\\
352.76374572197665	0.0\\
353.51993649445103	0.0\\
354.26859582618454	0.0\\
355.0181972211292	0.0\\
355.7680433422845	0.0\\
356.51711050657946	0.0\\
357.2641372349291	0.0\\
358.009585296227	0.0\\
358.7528587907576	0.0\\
359.4929700780766	0.0\\
360.2345270909826	0.0\\
360.97378214424566	0.0\\
361.7138538518426	0.0\\
362.44855257587517	0.0\\
363.1820467500272	0.0\\
363.9156671296246	0.0\\
364.6434900074156	0.0\\
365.37331441765855	0.0\\
366.10335417656404	0.0\\
366.83485843699896	0.0\\
367.56154168612045	0.0\\
368.2919019023493	0.0\\
369.01261297231565	0.0\\
369.7417986122591	0.0\\
370.4641020894917	0.0\\
371.1890181837115	0.0\\
371.9163272099346	0.0\\
372.6342772396023	0.0\\
373.3547565357103	0.0\\
374.0794992568675	0.0\\
374.8011374152003	0.0\\
375.5240242855832	0.0\\
376.24461426810205	0.0\\
376.966473610178	0.0\\
377.6942429870862	0.0\\
378.41579090656694	0.0\\
379.1326089533767	0.0\\
379.8515886687645	0.0\\
380.57258548029336	0.0\\
381.29002269604564	0.0\\
382.00919867304435	0.0\\
382.73022435565065	0.0\\
383.4506515374353	0.0\\
384.1726110035818	0.0\\
384.8990181513301	0.0\\
385.62016428479103	0.0\\
386.33605568101143	0.0\\
387.05882764927026	0.0\\
387.77610058287235	0.0\\
388.4947905418617	0.0\\
389.2142973109344	0.0\\
389.9318410989591	0.0\\
390.65374969250774	0.0\\
391.37339748683564	0.0\\
392.09409487156086	0.0\\
392.8157060920472	0.0\\
393.53470482294927	0.0\\
394.25458523332577	0.0\\
394.9759100637002	0.0\\
395.6977646835611	0.0\\
396.41659661636356	0.0\\
397.13892489146974	0.0\\
397.8650657913164	0.0\\
398.590558070651	0.0\\
399.3121138680507	0.0\\
400.0343147055662	0.0\\
400.7579181647841	0.0\\
401.4822493772865	0.0\\
402.2064253996135	0.0\\
402.93260154352606	0.0\\
403.6608958418627	0.0\\
404.3882953649103	0.0\\
405.1164951139407	0.0\\
405.84859626997127	0.0\\
406.58150037576786	0.0\\
407.31134541381107	0.0\\
408.0429595591504	0.0\\
408.7757438911566	0.0\\
409.50849707964903	0.0\\
410.24330830772703	0.0\\
410.9775566385621	0.0\\
411.71221285405034	0.0\\
412.44991108171746	0.0\\
413.1812383512563	0.0\\
413.9174665756717	0.0\\
414.6540972103402	0.0\\
415.3944014920594	0.0\\
416.13264525377315	0.0\\
416.87402357790666	0.0\\
417.6116432309917	0.0\\
418.3584151324375	0.0\\
419.10118604687557	0.0\\
419.85118066592577	0.0\\
420.5986305354355	0.0\\
421.3438121675292	0.0\\
422.0929774151882	0.0\\
422.84257733798904	0.0\\
423.5939071011925	0.0\\
424.3420393406045	0.0\\
425.0939100538719	0.0\\
425.84623655134885	0.0\\
426.6050271807559	0.0\\
427.36105963567513	0.0\\
428.1115157725985	0.0\\
428.87233325375007	0.0\\
429.6286759112172	0.0\\
430.38605480633385	0.0\\
431.1430022800141	0.0\\
431.90050422028094	0.0\\
432.6641177686016	0.0\\
433.429983106329	0.0\\
434.1931726352291	0.0\\
434.9643834270728	0.0\\
435.72905916809566	0.0\\
436.50132677373745	0.0\\
437.27575601666945	0.0\\
438.05229272103213	0.0\\
438.8282618967389	0.0\\
439.6019961576279	0.0\\
440.37646919609176	0.0\\
441.1592737065306	0.0\\
441.9394459093993	0.0\\
442.72107500380696	0.0\\
443.50435647378447	0.0\\
444.29195935249425	0.0\\
445.0788981412105	0.0\\
445.8692588099693	0.0\\
446.661811702504	0.0\\
447.44961042005525	0.0\\
448.2431260023218	0.0\\
449.03379889504424	0.0\\
449.82896902602806	0.0\\
450.63295609014494	0.0\\
451.4341090386637	0.0\\
452.23567573044613	0.0\\
453.03894292092775	0.0\\
453.846874377948	0.0\\
454.65562348878245	0.0\\
455.4674282895004	0.0\\
456.2901028614292	0.0\\
457.1096384860647	0.0\\
457.93255123543076	0.0\\
458.7539045466656	0.0\\
459.57439587217345	0.0\\
460.402249746984	0.0\\
461.2291675712347	0.0\\
462.0604399072364	0.0\\
462.8948071297442	0.0\\
463.73015086876137	0.0\\
464.5625047855675	0.0\\
465.39804656061096	0.0\\
466.23835520248144	0.0\\
467.09085129170046	0.0\\
467.934820412824	0.0\\
468.78264984379746	0.0\\
469.6355615446047	0.0\\
470.4898712137161	0.0\\
471.3475342973002	0.0\\
472.2079929291633	0.0\\
473.07285654698035	0.0\\
473.93850378665695	0.0\\
474.8114204066824	0.0\\
475.68855804311477	0.0\\
476.5688433942853	0.0\\
477.454211831768	0.0\\
478.3335566293148	0.0\\
479.22612513961826	0.0\\
480.11969789998795	0.0\\
481.016152263197	0.0\\
481.9122515237176	0.0\\
482.82232191121386	0.0\\
483.7325938056763	0.0\\
484.6480737684502	0.0\\
485.5679518882947	0.0\\
486.4907196308851	0.0\\
487.425075604059	0.0\\
488.35978045858155	0.0\\
489.2950902283387	0.0\\
490.2351715564598	0.0\\
491.1858198107873	0.0\\
492.1444682271132	0.0\\
493.10222227944826	0.0\\
494.06632362760104	0.0\\
495.03386640410804	0.0\\
496.00543551025964	0.0\\
496.9851074087518	0.0\\
497.97355182609306	0.0\\
498.9636560082446	0.0\\
499.97115581796197	0.0\\
500.9859315560975	0.0\\
501.99759219139	0.0\\
503.02439627433387	0.0\\
504.05907700906107	0.0\\
505.09649611581665	0.0\\
506.14099868018013	0.0\\
507.19562510207993	0.0\\
508.2651608123815	0.0\\
509.3352073568211	0.0\\
510.4286031778098	0.0\\
511.5291182048327	0.0\\
512.6352052387315	0.0\\
513.7579171949665	0.0\\
514.8794942570912	0.0\\
516.0155956351794	0.0\\
517.1559928610488	0.0\\
518.3121992081542	0.0\\
519.4749817604154	0.0\\
520.6375715440959	0.0\\
521.801073950525	0.0\\
522.9700735063766	0.0\\
524.1466858009173	0.0\\
525.3139193290149	0.0\\
526.4737639860707	0.0\\
527.6275397709355	0.0\\
528.7732965269972	0.0\\
529.908026152174	0.0\\
531.034905811187	0.0\\
532.1588303182018	0.0\\
533.2625954558121	0.0\\
534.3654015487778	0.0\\
535.4528905681968	0.0\\
536.5388168750721	0.0\\
537.6158092892604	0.0\\
538.6804500472585	0.0\\
539.743600697816	0.0\\
540.7959024831671	0.0\\
541.8377155552437	0.0\\
542.8773886758975	0.0\\
543.9112048452635	0.0\\
544.9354209861049	0.0\\
545.9529996224394	0.0\\
546.9611668649402	0.0\\
547.9629797328664	0.0\\
548.9606272348583	0.0\\
549.9582719284847	0.0\\
550.9446155283208	0.0\\
551.9280829496788	0.0\\
552.896280924107	0.0\\
553.863864917517	0.0\\
554.8264357575265	0.0\\
555.7888342416181	0.0\\
556.7421631140353	0.0\\
557.6972974490186	0.0\\
558.6471189788983	0.0\\
559.589091339305	0.0\\
560.5290897075129	0.0\\
561.4694345650387	0.0\\
562.4019885556568	0.0\\
562.5889508129139	0.0\\
562.6965406848813	0.0\\
562.7644151293073	0.0\\
562.8131634532683	0.0\\
562.8529123965229	0.0\\
562.8823803397927	0.0\\
562.9151583033097	0.0\\
562.9459152483796	0.0\\
562.9552162275124	0.0\\
562.9768957230872	0.0\\
563.0734448856665	0.0\\
563.4004545768305	0.0\\
564.2233712394566	0.0\\
565.0973074761739	0.0\\
565.9727844292256	0.0\\
566.85408460243	0.0\\
567.7334543972565	0.0\\
568.6220676159269	0.0\\
569.5182819878603	0.0\\
570.417582904887	0.0\\
571.3226487920815	0.0\\
572.238213944267	0.0\\
573.1540438686015	0.0\\
574.0808682130369	0.0\\
575.0083706324453	0.0\\
575.93867001833	0.0\\
576.8797550470965	0.0\\
577.8242381809173	0.0\\
578.7792081305513	0.0\\
579.7399867072695	0.0\\
580.7089087214256	0.0\\
581.6858408043231	0.0\\
582.6735977586115	0.0\\
583.6667706397184	0.0\\
584.6654118802082	0.0\\
585.6700872393151	0.0\\
586.6907791151796	0.0\\
587.7099060128082	0.0\\
588.7505638410573	0.0\\
589.7913076459681	0.0\\
590.8451516095633	0.0\\
591.9106815599246	0.0\\
592.9915177599837	0.0\\
594.083736709073	0.0\\
595.1796886330872	0.0\\
596.2934275511639	0.0\\
597.4206245919281	0.0\\
598.5502333387583	0.0\\
599.6932431316075	0.0\\
600.8575390598617	0.0\\
602.0236890332667	0.0\\
603.1956094639927	0.0\\
604.3795168625402	0.0\\
605.5717273021039	0.0\\
606.7789202455117	0.0\\
607.9812858950272	0.0\\
609.1799917559179	0.0\\
610.383531832955	0.0\\
611.5824855318042	0.0\\
612.7795817681058	0.0\\
613.9759533933961	0.0\\
615.1605331626683	0.0\\
616.3344500297671	0.0\\
617.5152423770667	0.0\\
618.6821975720561	0.0\\
619.8437314257662	0.0\\
621.0042847842597	0.0\\
622.1587061509574	0.0\\
623.301218845927	0.0\\
624.4335742445987	0.0\\
625.5569204358526	0.0\\
626.6785227319717	0.0\\
627.7885437035586	0.0\\
628.8941332895688	0.0\\
629.996570941863	0.0\\
631.0928125360492	0.0\\
632.1868031644199	0.0\\
633.2746357333901	0.0\\
634.355481217151	0.0\\
635.4239740262806	0.0\\
636.4999484851487	0.0\\
637.5662676685733	0.0\\
638.631478597591	0.0\\
639.6937086574801	0.0\\
640.7595812892546	0.0\\
641.8124695657111	0.0\\
642.861539093876	0.0\\
643.906976216809	0.0\\
644.9555142830677	0.0\\
645.9946535393581	0.0\\
647.0326008736413	0.0\\
648.0670672767255	0.0\\
649.102490723001	0.0\\
650.1378434171463	0.0\\
651.1675585607697	0.0\\
652.1951940538322	0.0\\
653.2222905203878	0.0\\
654.2462347946093	0.0\\
655.2751080677053	0.0\\
656.2987236457509	0.0\\
657.3220542247645	0.0\\
658.3442657663336	0.0\\
659.3611653385724	0.0\\
660.3783106331939	0.0\\
661.392040752384	0.0\\
662.3987072855748	0.0\\
663.4093671147664	0.0\\
664.4198705552326	0.0\\
665.4315797852519	0.0\\
666.4390446492082	0.0\\
667.4474091078418	0.0\\
668.4563405170227	0.0\\
669.4625632936336	0.0\\
670.4619739513166	0.0\\
671.4635379524932	0.0\\
672.4691257956783	0.0\\
673.4706452487228	0.0\\
674.4772599605369	0.0\\
675.4805739420992	0.0\\
676.4839293730572	0.0\\
677.4873417767017	0.0\\
678.49071499001	0.0\\
679.4971971515172	0.0\\
680.4989249818059	0.0\\
681.4995161929016	0.0\\
682.4950027708774	0.0\\
683.4930161949594	0.0\\
684.4930407141082	0.0\\
685.4945133555395	0.0\\
686.4972860149867	0.0\\
687.4963559161945	0.0\\
688.4949608853271	0.0\\
689.4896715631969	0.0\\
690.4873006544162	0.0\\
691.4860478710252	0.0\\
692.4843418238556	0.0\\
693.4822466588985	0.0\\
694.4858944296063	0.0\\
695.4838959131712	0.0\\
696.4806336579234	0.0\\
697.476948458723	0.0\\
698.4821010853068	0.0\\
699.4836742842588	0.0\\
700.4866203547963	0.0\\
701.4843560428471	0.0\\
702.4854884613214	0.0\\
703.4815468422967	0.0\\
704.4871494111317	0.0\\
705.4921431532757	0.0\\
706.4938945807035	0.0\\
707.4999160361931	0.0\\
708.5013792833922	0.0\\
709.5063884825538	0.0\\
710.5138791221859	0.0\\
711.5169600791837	0.0\\
712.5277534639663	0.0\\
713.5296552519969	0.0\\
714.5364933582273	0.0\\
715.5453011336465	0.0\\
716.551259169122	0.0\\
717.5597758365761	0.0\\
718.5698731367252	0.0\\
719.580336029823	0.0\\
720.5882739838139	0.0\\
721.5991506157964	0.0\\
722.6127587456915	0.0\\
723.6311853792686	0.0\\
724.6517867723396	0.0\\
725.6679731973281	0.0\\
726.6815464382003	0.0\\
727.7024808163769	0.0\\
728.724532799326	0.0\\
729.7466074215108	0.0\\
730.7633081711585	0.0\\
731.788566199036	0.0\\
732.8111406042945	0.0\\
733.834467873085	0.0\\
734.8593335241465	0.0\\
735.8830140149469	0.0\\
736.9177255624681	0.0\\
737.946398690161	0.0\\
738.979599020219	0.0\\
740.0174555858841	0.0\\
741.0485810111379	0.0\\
742.0852340439119	0.0\\
743.1236465973197	0.0\\
744.1669758446662	0.0\\
745.2088295577039	0.0\\
746.2507137894572	0.0\\
747.292331808437	0.0\\
748.3438526846799	0.0\\
749.4007337038656	0.0\\
750.4525936116072	0.0\\
751.5093092664356	0.0\\
752.5601640314337	0.0\\
753.6103850197701	0.0\\
754.6684734660287	0.0\\
755.7228293820458	0.0\\
756.7793930435391	0.0\\
757.8383206541071	0.0\\
758.9046592653378	0.0\\
759.9690358259672	0.0\\
761.0365065391593	0.0\\
762.1043652612605	0.0\\
763.179850402159	0.0\\
764.2527548867374	0.0\\
765.3321515147948	0.0\\
766.4045257612252	0.0\\
767.4802177636186	0.0\\
768.556739658834	0.0\\
769.643018319932	0.0\\
770.7263943612636	0.0\\
771.8102229541755	0.0\\
772.8970674764139	0.0\\
773.9839236773778	0.0\\
775.0802008473722	0.0\\
776.1716090167156	0.0\\
777.2732326498501	0.0\\
778.3701693697378	0.0\\
779.4727124337162	0.0\\
780.5791177828664	0.0\\
781.6837808888056	0.0\\
782.7929461430506	0.0\\
783.9120944897215	0.0\\
785.0292153176545	0.0\\
786.1525178848929	0.0\\
787.2790922523443	0.0\\
788.4043261207962	0.0\\
789.5339412667706	0.0\\
790.6625533273304	0.0\\
791.7965483708608	0.0\\
792.9375749550393	0.0\\
794.0747206080159	0.0\\
795.2181154407085	0.0\\
796.3642653720235	0.0\\
797.511678229994	0.0\\
798.6623650571798	0.0\\
799.8186046402932	0.0\\
800.9790621760037	0.0\\
802.1365326419152	0.0\\
803.3040347904175	0.0\\
804.4742989904826	0.0\\
805.6434078145485	0.0\\
806.8229306719525	0.0\\
808.0024501042569	0.0\\
809.1904728591833	0.0\\
810.3848105037971	0.0\\
811.5873978813065	0.0\\
812.7825606210995	0.0\\
813.9818133505044	0.0\\
815.1914029518116	0.0\\
816.396226115678	0.0\\
817.6082546456166	0.0\\
818.8248019499008	0.0\\
820.0473712357416	0.0\\
821.2717463608867	0.0\\
822.5060706949798	0.0\\
823.7433241010403	0.0\\
824.995157373121	0.0\\
826.2411953954625	0.0\\
827.4960329063904	0.0\\
828.7668877995745	0.0\\
830.0393986355941	0.0\\
831.3180321858995	0.0\\
832.5959243353516	0.0\\
833.891102028324	0.0\\
835.198088813981	0.0\\
836.4979253679378	0.0\\
837.8141760022625	0.0\\
839.1356751466537	0.0\\
840.462011125574	0.0\\
841.8008056456781	0.0\\
843.1492547412734	0.0\\
844.5050244911438	0.0\\
845.8731034646523	0.0\\
847.2445791925318	0.0\\
848.6248439296451	0.0\\
850.0182326442734	0.0\\
851.4320442768214	0.0\\
852.8577131538063	0.0\\
854.2869797057233	0.0\\
855.7354638891345	0.0\\
857.1977830356795	0.0\\
858.6693325096603	0.0\\
860.1678335113447	0.0\\
861.6770157852427	0.0\\
863.2041942242108	0.0\\
864.7625050400354	0.0\\
866.3277129750322	0.0\\
867.9173290876822	0.0\\
869.5305034278092	0.0\\
871.1677087370813	0.0\\
872.8326997832255	0.0\\
874.5205214920475	0.0\\
876.2287297122032	0.0\\
877.9529465737903	0.0\\
879.6878780576342	0.0\\
881.4179001934285	0.0\\
883.1542943722593	0.0\\
884.8858907408248	0.0\\
886.602789092334	0.0\\
888.2866230496068	0.0\\
889.9510426190413	0.0\\
891.6045827625401	0.0\\
893.2240205653018	0.0\\
894.8154204482064	0.0\\
896.3936000255321	0.0\\
897.9474600247836	0.0\\
899.484293668052	0.0\\
901.0133088518235	0.0\\
902.5266612919438	0.0\\
904.0157102388512	0.0\\
905.4878199792072	0.0\\
906.9407690774988	0.0\\
908.3918325237603	0.0\\
909.82326272822	0.0\\
911.2447647724312	0.0\\
912.6555466878842	0.0\\
914.0520931222793	0.0\\
915.434685290001	0.0\\
916.8095331593513	0.0\\
918.1804150624635	0.0\\
919.5366535528069	0.0\\
920.8925933487758	0.0\\
922.2309949128448	0.0\\
923.5622594613328	0.0\\
924.885726509337	0.0\\
926.2039662345778	0.0\\
927.5185676610786	0.0\\
928.8292236525733	0.0\\
930.1356937703265	0.0\\
931.4256389055759	0.0\\
932.713363259767	0.0\\
933.9974595484034	0.0\\
935.2712114856697	0.0\\
936.5463904970134	0.0\\
937.8111265878279	0.0\\
939.0786406885734	0.0\\
939.3291478761175	0.0\\
939.518043020357	0.0\\
939.6481926903316	0.0\\
939.6860492808598	0.0\\
939.7145666186752	0.0\\
939.7270552648679	0.0\\
939.7408411377853	0.0\\
939.8225320011848	0.0\\
940.2135471122626	0.0\\
941.2422953637515	0.0\\
942.4775023552174	0.0\\
943.7221119318185	0.0\\
944.9779154460216	0.0\\
946.2288215306496	0.0\\
947.4911232677966	0.0\\
948.7619183946167	0.0\\
950.0383046920103	0.0\\
951.3359138395676	0.0\\
952.6311074796818	0.0\\
953.9431538839112	0.0\\
955.2543206888029	0.0\\
956.5777105451662	0.0\\
957.9106801119731	0.0\\
959.256472882134	0.0\\
960.6076964555066	0.0\\
961.9677939026019	0.0\\
963.338901552177	0.0\\
964.7169975766028	0.0\\
966.1058944559854	0.0\\
967.5148706008101	0.0\\
968.9385790109384	0.0\\
970.3702174012767	0.0\\
971.8174034112892	0.0\\
973.2771415482136	0.0\\
974.75463196038	0.0\\
976.2474392261859	0.0\\
977.7527812524345	0.0\\
979.2800743134203	0.0\\
980.8212020089663	0.0\\
982.3891023216586	0.0\\
983.9763522898047	0.0\\
985.575602250851	0.0\\
987.1983442057626	0.0\\
988.8491598953744	0.0\\
990.5090731985238	0.0\\
992.1906911162255	0.0\\
993.9070580517855	0.0\\
995.6432338896288	0.0\\
997.3879975245941	0.0\\
999.1561761014664	0.0\\
1000.9309008637465	0.0\\
1002.6947171901047	0.0\\
1004.4692414406138	0.0\\
1006.2350782712658	0.0\\
1008.0032599372532	0.0\\
1009.7556380120438	0.0\\
1011.4919768808543	0.0\\
1013.20595604701	0.0\\
1014.8993502051819	0.0\\
1016.5754471472108	0.0\\
1018.2328163277457	0.0\\
1019.8797483385019	0.0\\
1021.5046177147665	0.0\\
1023.1316040104275	0.0\\
1024.7387297621822	0.0\\
1026.3439463903906	0.0\\
1027.9305392034094	0.0\\
1029.5005852550307	0.0\\
1031.0563638343706	0.0\\
1032.6098215372622	0.0\\
1034.1545210048848	0.0\\
1035.6920512788952	0.0\\
1037.2178463293108	0.0\\
1038.7305852418772	0.0\\
1040.2454533427176	0.0\\
1041.743099520264	0.0\\
1043.2362189246692	0.0\\
1044.7239424124991	0.0\\
1046.2058806615119	0.0\\
1047.6864855928866	0.0\\
1049.1572062392006	0.0\\
1050.6249217532709	0.0\\
1052.0876412095186	0.0\\
1053.5433228639213	0.0\\
1054.9986752578766	0.0\\
1056.4491530833093	0.0\\
1057.8956547588477	0.0\\
1059.3428215096342	0.0\\
1060.7765644646333	0.0\\
1062.215108673036	0.0\\
1063.6518180605012	0.0\\
1065.0808946875904	0.0\\
1066.503152101719	0.0\\
1067.923469453478	0.0\\
1069.3468327324772	0.0\\
1070.7683207303335	0.0\\
1072.1850401409351	0.0\\
1073.5904768297137	0.0\\
1074.9974709882572	0.0\\
1076.4039407767805	0.0\\
1077.8049128906491	0.0\\
1079.2117606154684	0.0\\
1080.6155983593285	0.0\\
1082.0200088108454	0.0\\
1083.4130458593509	0.0\\
1084.8022532568475	0.0\\
1086.1976715591127	0.0\\
1087.5921437169459	0.0\\
1088.9840847362475	0.0\\
1090.3735428775726	0.0\\
1091.764863092475	0.0\\
1093.1549194560848	0.0\\
1094.543503048233	0.0\\
1095.929398360057	0.0\\
1097.3190027782302	0.0\\
1098.7033600730024	0.0\\
1100.0861625834991	0.0\\
1101.4706894938245	0.0\\
1102.856338511474	0.0\\
1104.236804241485	0.0\\
1105.621307180892	0.0\\
1107.0110877032912	0.0\\
1108.3906247928367	0.0\\
1109.7693230359105	0.0\\
1111.1550170050314	0.0\\
1112.5391570471456	0.0\\
1113.9165182020447	0.0\\
1115.2985369642188	0.0\\
1116.6824203734718	0.0\\
1118.0638930612981	0.0\\
1119.4390629409854	0.0\\
1120.8184977233686	0.0\\
1122.1967489232547	0.0\\
1123.5755230587552	0.0\\
1124.9500704335564	0.0\\
1126.3287212612277	0.0\\
1127.7108343580953	0.0\\
1129.0880540989183	0.0\\
1130.4684316993475	0.0\\
1131.8434086358734	0.0\\
1133.2249263159147	0.0\\
1134.6068279818792	0.0\\
1135.9880734040594	0.0\\
1137.3645452069536	0.0\\
1138.7426860843698	0.0\\
1140.1310164162505	0.0\\
1141.5164526322746	0.0\\
1142.9016386092917	0.0\\
1144.2806062363798	0.0\\
1145.660828564577	0.0\\
1147.047389323715	0.0\\
1148.4377935441798	0.0\\
1149.8260245610304	0.0\\
1151.2167353039918	0.0\\
1152.6050143524358	0.0\\
1153.9914271024704	0.0\\
1155.3765496080123	0.0\\
1156.772113889478	0.0\\
1158.1624239202151	0.0\\
1159.5538356587476	0.0\\
1160.9445183691769	0.0\\
1162.337602264311	0.0\\
1163.736992755169	0.0\\
1165.1329108129594	0.0\\
1166.529654785711	0.0\\
1167.9304815333976	0.0\\
1169.3319545222107	0.0\\
1170.7353177571235	0.0\\
1172.146828429739	0.0\\
1173.5529344018023	0.0\\
1174.958847386648	0.0\\
1176.3641291531121	0.0\\
1177.7677549700575	0.0\\
1179.186662493536	0.0\\
1180.5959274263173	0.0\\
1182.0071120808475	0.0\\
1183.426546136077	0.0\\
1184.8428583203245	0.0\\
1186.2631596570368	0.0\\
1187.6785056852714	0.0\\
1189.100960077708	0.0\\
1190.5243641679158	0.0\\
1191.950888434876	0.0\\
1193.3806587850681	0.0\\
1194.803771331612	0.0\\
1196.232463979737	0.0\\
1197.6565767782672	0.0\\
1199.0891478929907	0.0\\
1200.5261014381567	0.0\\
1201.9649705943739	0.0\\
1203.4004170521416	0.0\\
1204.8370492535596	0.0\\
1206.2860618844102	0.0\\
1207.7304638761561	0.0\\
1209.179653472073	0.0\\
1210.6352844435523	0.0\\
1212.0875907101886	0.0\\
1213.540816864525	0.0\\
1214.9971726327026	0.0\\
1216.454095132162	0.0\\
1217.9153862430448	0.0\\
1219.3774218669491	0.0\\
1220.8364888092688	0.0\\
1222.3048999901798	0.0\\
1223.7776629979862	0.0\\
1225.2500148410559	0.0\\
1226.721814183214	0.0\\
1228.1991843841706	0.0\\
1229.6804198089412	0.0\\
1231.1625218801137	0.0\\
1232.6498951199142	0.0\\
1234.1402583409817	0.0\\
1235.6336336525146	0.0\\
1237.1272996755447	0.0\\
1238.6262165311073	0.0\\
1240.1274646209563	0.0\\
1241.6305998708808	0.0\\
1243.1347180945982	0.0\\
1244.640834920866	0.0\\
1246.152220015324	0.0\\
1247.667911903835	0.0\\
1249.184936817458	0.0\\
1250.7051446211308	0.0\\
1252.2290548034025	0.0\\
1253.756961416418	0.0\\
1255.2871074917339	0.0\\
1256.8219616387873	0.0\\
1258.3661127869468	0.0\\
1259.9097630265733	0.0\\
1261.4555532909935	0.0\\
1263.0052109100297	0.0\\
1264.560271388404	0.0\\
1266.1174423315788	0.0\\
1267.6743316630582	0.0\\
1269.2435195167031	0.0\\
1270.8116594949884	0.0\\
1272.3860542273942	0.0\\
1273.9591684274856	0.0\\
1275.5451639504163	0.0\\
1277.1306857522904	0.0\\
1278.7219821833387	0.0\\
1280.3184716523065	0.0\\
1281.9225506257694	0.0\\
1283.5260205790382	0.0\\
1285.1346606761817	0.0\\
1286.749027210025	0.0\\
1288.3661244205068	0.0\\
1289.9926940989417	0.0\\
1291.6207338534173	0.0\\
1293.2507898524345	0.0\\
1294.893728471326	0.0\\
1296.5447019837525	0.0\\
1298.201182628563	0.0\\
1299.8583732637426	0.0\\
1301.521080448441	0.0\\
1303.1906250043703	0.0\\
1304.868640556846	0.0\\
1306.5555131616889	0.0\\
1308.24664237481	0.0\\
1309.945660532187	0.0\\
1311.650953173165	0.0\\
1313.3599204132179	0.0\\
1315.0764815770763	0.0\\
1316.7995493189442	0.0\\
1318.5292995486384	0.0\\
1320.2742439097601	0.0\\
1322.0305053574734	0.0\\
1323.788075975437	0.0\\
1325.5674306170704	0.0\\
1327.3524903520452	0.0\\
1329.1395337826907	0.0\\
1330.9339238057782	0.0\\
1332.7417186140437	0.0\\
1334.5566782209876	0.0\\
1336.391088682381	0.0\\
1338.2442592702582	0.0\\
1340.09547540819	0.0\\
1341.9667069479292	0.0\\
1343.8522487947816	0.0\\
1345.7394200888516	0.0\\
1347.6462687702347	0.0\\
1349.5685711034535	0.0\\
1351.5090912702194	0.0\\
1353.4696382729858	0.0\\
1355.4469353024247	0.0\\
1357.4369352609356	0.0\\
1359.4524894399797	0.0\\
1361.4791981880608	0.0\\
1363.5389031946697	0.0\\
1365.6265558576065	0.0\\
1367.7334478339185	0.0\\
1369.8614202654135	0.0\\
1372.0320860008937	0.0\\
1374.2391677279516	0.0\\
1376.4791118933072	0.0\\
1378.7469374657321	0.0\\
1381.0686793550049	0.0\\
1383.435608859916	0.0\\
1385.8530040735104	0.0\\
1388.3146581420478	0.0\\
1390.8283157564974	0.0\\
1393.3907722288118	0.0\\
1395.9625434619857	0.0\\
1398.5135117709565	0.0\\
1401.0329142438104	0.0\\
1403.5222137530495	0.0\\
1405.9536338628486	0.0\\
1408.346406145804	0.0\\
1410.6778938724187	0.0\\
1412.9742672352663	0.0\\
1415.2306927059471	0.0\\
1417.4456397784475	0.0\\
1419.6262609633877	0.0\\
1421.7674651611328	0.0\\
1423.8872850945381	0.0\\
1425.9842997919013	0.0\\
1428.0559638576365	0.0\\
1430.1072529522148	0.0\\
1432.1339271135348	0.0\\
1434.1345495399155	0.0\\
1436.1239951668235	0.0\\
1438.0922555069988	0.0\\
1440.0368429411583	0.0\\
1441.9739509803217	0.0\\
1443.8933671417112	0.0\\
1445.8019593548947	0.0\\
1447.6858575436813	0.0\\
1449.5648976504026	0.0\\
1451.4340837838963	0.0\\
1453.2900699477736	0.0\\
1455.136306841317	0.0\\
1456.973665148309	0.0\\
1458.798274923568	0.0\\
1460.6161897877032	0.0\\
1462.4252603723103	0.0\\
1464.223228322623	0.0\\
1466.0205327537178	0.0\\
1467.798223366342	0.0\\
1469.572407308865	0.0\\
1471.3398735324881	0.0\\
1473.0946131209048	0.0\\
1474.8419179400007	0.0\\
1476.5840302733372	0.0\\
1476.9309766242204	0.0\\
1477.159798348584	0.0\\
1477.348242802474	0.0\\
1477.4922527587883	0.0\\
1477.5093934297029	0.0\\
1477.5266799003716	0.0\\
1477.628966152788	0.0\\
1478.2487316652064	0.0\\
1480.03630806914	0.0\\
1481.8091986285972	0.0\\
1483.599727937944	0.0\\
1485.398152446207	0.0\\
1487.203546885739	0.0\\
1489.0193604929855	0.0\\
1490.8487634383882	0.0\\
1492.691559431701	0.0\\
1494.5473890571152	0.0\\
1496.4158609439978	0.0\\
1498.3028002706615	0.0\\
1500.1990844835077	0.0\\
1502.1076502111991	0.0\\
1504.0304549648654	0.0\\
1505.975338982727	0.0\\
1507.9331045513004	0.0\\
1509.9014720410596	0.0\\
1511.8911071575503	0.0\\
1513.8991846496665	0.0\\
1515.9286922602532	0.0\\
1517.9741495915828	0.0\\
1520.042762498676	0.0\\
1522.1354978433965	0.0\\
1524.251059202014	0.0\\
1526.3967050525684	0.0\\
1528.5604792198938	0.0\\
1530.7495930388814	0.0\\
1532.971262282559	0.0\\
1535.2194101170721	0.0\\
1537.5176577656484	0.0\\
1539.8524580334524	0.0\\
1542.210336882401	0.0\\
1544.594652815245	0.0\\
1547.038412115197	0.0\\
1549.5250161415188	0.0\\
1552.0295955852985	0.0\\
1554.5735157671716	0.0\\
1557.139538676347	0.0\\
1559.732118767156	0.0\\
1562.304432333286	0.0\\
1564.8867698591248	0.0\\
1567.443967706618	0.0\\
1569.973195160746	0.0\\
1572.488912698661	0.0\\
1574.9608726861734	0.0\\
1577.3828114694325	0.0\\
1579.7894345152454	0.0\\
1582.1598696861383	0.0\\
1584.5048349661865	0.0\\
1586.8357718531602	0.0\\
1589.132863836673	0.0\\
1591.4065177298512	0.0\\
1593.6827029986202	0.0\\
1595.9340362612356	0.0\\
1598.158693835168	0.0\\
1600.3571826401253	0.0\\
1602.5472526236485	0.0\\
1604.7176314836242	0.0\\
1606.8744856303001	0.0\\
1609.02308597487	0.0\\
1611.1485246310463	0.0\\
1613.271349128709	0.0\\
1615.3905468982816	0.0\\
1617.4937717659213	0.0\\
1619.5791791683819	0.0\\
1621.6755751142455	0.0\\
1623.7450789023364	0.0\\
1625.8086921879258	0.0\\
1627.8693862982554	0.0\\
1629.927347383074	0.0\\
1631.971485443547	0.0\\
1634.019661360825	0.0\\
1636.0609325146888	0.0\\
1638.0869658210127	0.0\\
1640.1079409352405	0.0\\
1642.1176769524104	0.0\\
1644.1359275655805	0.0\\
1646.1431401373593	0.0\\
1648.1475955960886	0.0\\
1650.13967641948	0.0\\
1652.1255839600985	0.0\\
1654.1066838013212	0.0\\
1656.0836368801306	0.0\\
1658.0636328583555	0.0\\
1660.038534916096	0.0\\
1662.0031825601209	0.0\\
1663.970500879709	0.0\\
1665.9330107480832	0.0\\
1667.890990816968	0.0\\
1669.8549452167822	0.0\\
1671.8179148403888	0.0\\
1673.7665213324422	0.0\\
1675.7266391698258	0.0\\
1677.6758030466926	0.0\\
1679.6252875472774	0.0\\
1681.562999830869	0.0\\
1683.5056272805145	0.0\\
1685.4451270041768	0.0\\
1687.3822768248097	0.0\\
1689.3210349772717	0.0\\
1691.260414960765	0.0\\
1693.1860932776867	0.0\\
1695.1157758968156	0.0\\
1697.0398957804769	0.0\\
1698.9772145561574	0.0\\
1700.9085616868151	0.0\\
1702.8281394300384	0.0\\
1704.7534590467217	0.0\\
1706.6816614836239	0.0\\
1708.6019549861635	0.0\\
1710.5177905123942	0.0\\
1712.4374562897624	0.0\\
1714.3582279134512	0.0\\
1716.279948769707	0.0\\
1718.2043482422769	0.0\\
1720.1303264763715	0.0\\
1722.0477189784501	0.0\\
1723.968026114881	0.0\\
1725.8871072907532	0.0\\
1727.806133209152	0.0\\
1729.7227195760488	0.0\\
1731.6301083124868	0.0\\
1733.5518439535817	0.0\\
1735.4761595443088	0.0\\
1737.4006336668972	0.0\\
1739.3159097268199	0.0\\
1741.242787463852	0.0\\
1743.1660868780737	0.0\\
1745.0821813044622	0.0\\
1747.009297379247	0.0\\
1748.93187124296	0.0\\
1750.8543631930224	0.0\\
1752.7867779184876	0.0\\
1754.7103113429876	0.0\\
1756.6299303125434	0.0\\
1758.5569160036694	0.0\\
1760.4845049426376	0.0\\
1762.410827393156	0.0\\
1764.3340657449312	0.0\\
1766.2647802679103	0.0\\
1768.1896035964387	0.0\\
1770.1152761104977	0.0\\
1772.0376993539926	0.0\\
1773.9720926298378	0.0\\
1775.9000931542887	0.0\\
1777.8350571712322	0.0\\
1779.767144144234	0.0\\
1781.7036356687759	0.0\\
1783.6381617946104	0.0\\
1785.577200120586	0.0\\
1787.515328453314	0.0\\
1789.4558545262844	0.0\\
1791.398424716158	0.0\\
1793.3471857620302	0.0\\
1795.2935762646212	0.0\\
1797.238170445582	0.0\\
1799.1739734663306	0.0\\
1801.1221719607038	0.0\\
1803.0651643836327	0.0\\
1805.0122483249415	0.0\\
1806.972488347919	0.0\\
1808.923455624335	0.0\\
1810.8851377618957	0.0\\
1812.840047304731	0.0\\
1814.798925098764	0.0\\
1816.7595624441315	0.0\\
1818.729019426477	0.0\\
1820.6959700368238	0.0\\
1822.6642225167175	0.0\\
1824.6328191036996	0.0\\
1826.6074303611058	0.0\\
1828.585135161357	0.0\\
1830.5623574163747	0.0\\
1832.5429871869705	0.0\\
1834.5183844078329	0.0\\
1836.5046628834211	0.0\\
1838.4912449533217	0.0\\
1840.4803612900778	0.0\\
1842.4753779289636	0.0\\
1844.4660381968424	0.0\\
1846.4581838874024	0.0\\
1848.464542269197	0.0\\
1850.4671237992652	0.0\\
1852.4659858505765	0.0\\
1854.4739463453266	0.0\\
1856.4875221428383	0.0\\
1858.4997577771155	0.0\\
1860.5153266675275	0.0\\
1862.5326884492265	0.0\\
1864.5596624994287	0.0\\
1866.5837382370064	0.0\\
1868.6033226123245	0.0\\
1870.635631688468	0.0\\
1872.6653200126398	0.0\\
1874.7009673087482	0.0\\
1876.7351425060865	0.0\\
1878.779236762714	0.0\\
1880.8210718275277	0.0\\
1882.8601105836697	0.0\\
1884.910858429167	0.0\\
1886.964693482787	0.0\\
1889.0265927879932	0.0\\
1891.0953396424716	0.0\\
1893.16502667122	0.0\\
1895.241530625929	0.0\\
1897.316693157352	0.0\\
1899.3928368697698	0.0\\
1901.4767700232396	0.0\\
1903.5603735140726	0.0\\
1905.6473303963662	0.0\\
1907.7346443126203	0.0\\
1909.8264171142241	0.0\\
1911.9305194895937	0.0\\
1914.0304271451091	0.0\\
1916.1293779226653	0.0\\
1918.2474711664963	0.0\\
1920.3686024350745	0.0\\
1922.4957515321953	0.0\\
1924.6198112809288	0.0\\
1926.7493321750612	0.0\\
1928.8836400602104	0.0\\
1931.0259142409664	0.0\\
1933.1736308819582	0.0\\
1935.3156443617695	0.0\\
1937.4681889391713	0.0\\
1939.6347844579168	0.0\\
1941.8085707950204	0.0\\
1943.976461738138	0.0\\
1946.1546437908319	0.0\\
1948.3388834670222	0.0\\
1950.5205572726	0.0\\
1952.7121747334313	0.0\\
1954.909804546257	0.0\\
1957.115246662148	0.0\\
1959.3271972070415	0.0\\
1961.5506404264743	0.0\\
1963.774360482621	0.0\\
1966.0063844731367	0.0\\
1968.2381942173638	0.0\\
1970.4859244326312	0.0\\
1972.7263439067015	0.0\\
1974.98866243446	0.0\\
1977.2499005912941	0.0\\
1979.5231615756725	0.0\\
1981.8030381759404	0.0\\
1984.0845472819074	0.0\\
1986.376294239631	0.0\\
1988.6766399025914	0.0\\
1990.9815187965528	0.0\\
1993.3082389682686	0.0\\
1995.622249018856	0.0\\
1997.955088749272	0.0\\
2000.300111974827	0.0\\
2002.6455234837972	0.0\\
2005.0027657244914	0.0\\
2007.3762032160053	0.0\\
2009.7403220220262	0.0\\
2012.1240875458952	0.0\\
2014.52237384927	0.0\\
2016.9371307771416	0.0\\
2019.3477386851446	0.0\\
2021.7822525556799	0.0\\
2024.219483494689	0.0\\
2026.6736806149938	0.0\\
2029.1328730032078	0.0\\
2031.6127603109667	0.0\\
2034.1006097745044	0.0\\
2036.606448545735	0.0\\
2039.121953226248	0.0\\
2041.6462856276435	0.0\\
2044.194201577871	0.0\\
2046.7500598762595	0.0\\
2049.3209012404186	0.0\\
2051.914984133252	0.0\\
2054.5259837423528	0.0\\
2057.145214908207	0.0\\
2059.79489181416	0.0\\
2062.456387956514	0.0\\
2065.1475145228123	0.0\\
2067.8451911595794	0.0\\
2070.566147322319	0.0\\
2073.3292989140127	0.0\\
2076.0960296798794	0.0\\
2078.906308822724	0.0\\
2081.73741428169	0.0\\
2084.5927189341155	0.0\\
2087.4884374466274	0.0\\
2090.4294688078435	0.0\\
2093.4035981381185	0.0\\
2096.417475973786	0.0\\
2099.47423255023	0.0\\
2102.5953943928216	0.0\\
2105.7733202916634	0.0\\
2108.9914713415765	0.0\\
2112.2877622120714	0.0\\
2115.6656795355793	0.0\\
2119.1269400530336	0.0\\
2122.6891501235214	0.0\\
2126.3573133768105	0.0\\
2130.085244928201	0.0\\
2133.8482735317775	0.0\\
2137.614911696831	0.0\\
2141.300838053975	0.0\\
2144.9017377107266	0.0\\
2148.4166540865344	0.0\\
2151.815406225781	0.0\\
2155.135954327505	0.0\\
2158.393562020008	0.0\\
2161.5719786236414	0.0\\
2164.6961627957635	0.0\\
2167.7687587517376	0.0\\
2170.8042181061774	0.0\\
2173.786016046829	0.0\\
2176.7412230925147	0.0\\
2179.6428867098766	0.0\\
2182.5255599159163	0.0\\
2185.3730972381527	0.0\\
2188.201955784668	0.0\\
2190.999273885852	0.0\\
2193.775046381632	0.0\\
2196.5246428012815	0.0\\
2199.248493063523	0.0\\
2201.949269482633	0.0\\
2204.6374743331726	0.0\\
2207.293845456813	0.0\\
2209.945526856176	0.0\\
2212.5719666375544	0.0\\
2215.1885170509568	0.0\\
2217.7884438252695	0.0\\
2220.3778438637164	0.0\\
2222.946873130313	0.0\\
2225.4979398622327	0.0\\
2228.041823115469	0.0\\
2230.566328179142	0.0\\
2233.0842548756164	0.0\\
2235.590908781206	0.0\\
2238.0774584733254	0.0\\
2240.5557740437653	0.0\\
2243.0226785970517	0.0\\
2243.51416628664	0.0\\
2243.8038235777585	0.0\\
2244.018085334629	0.0\\
2244.21930469145	0.0\\
2244.3809608069078	0.0\\
2244.5293542132913	0.0\\
2244.663863984031	0.0\\
2244.696940631272	0.0\\
2244.734270203887	0.0\\
2244.9635677193164	0.0\\
2245.798936282682	0.0\\
2247.9632435672656	0.0\\
2250.739913655657	0.0\\
2253.54559302939	0.0\\
2256.372314524683	0.0\\
2259.2176854598447	0.0\\
2262.087775249406	0.0\\
2264.983408018292	0.0\\
2267.8954638054183	0.0\\
2270.8339232478456	0.0\\
2273.806172119941	0.0\\
2276.8006327721077	0.0\\
2279.8207407095406	0.0\\
2282.8701639633664	0.0\\
2285.9576478139506	0.0\\
2289.072826042945	0.0\\
2292.2266283954923	0.0\\
2295.424081442864	0.0\\
2298.656709030728	0.0\\
2301.928317744487	0.0\\
2305.2444450002686	0.0\\
2308.612653558278	0.0\\
2312.039136948866	0.0\\
2315.51634749362	0.0\\
2319.0522141450137	0.0\\
2322.6506712286255	0.0\\
2326.3196835360222	0.0\\
2330.053789722215	0.0\\
2333.830600474601	0.0\\
2337.6566559434177	0.0\\
2341.527326126851	0.0\\
2345.4501617904125	0.0\\
2349.3448653183996	0.0\\
2353.1981409395157	0.0\\
2357.012749614816	0.0\\
2360.7703495197657	0.0\\
2364.4747511935366	0.0\\
2368.1389771144322	0.0\\
2371.7612968241874	0.0\\
2375.3331984787983	0.0\\
2378.868362533316	0.0\\
2382.3388790053077	0.0\\
2385.77878233736	0.0\\
2389.2026850563034	0.0\\
2392.572335138986	0.0\\
2395.9054321415597	0.0\\
2399.218012626611	0.0\\
2402.503431594131	0.0\\
2405.76896513699	0.0\\
2409.0103977012805	0.0\\
2412.2336431569283	0.0\\
2415.424680712903	0.0\\
2418.6073047790533	0.0\\
2421.759359116749	0.0\\
2424.894349067883	0.0\\
2428.0196818606946	0.0\\
2431.141096448603	0.0\\
2434.2486305744715	0.0\\
2437.327949410951	0.0\\
2440.400795418688	0.0\\
2443.465749810697	0.0\\
2446.5078527225423	0.0\\
2449.5321169839162	0.0\\
2452.57058406966	0.0\\
2455.5887306516697	0.0\\
2458.5887928228885	0.0\\
2461.5879347332884	0.0\\
2464.5729468094996	0.0\\
2467.5505161515484	0.0\\
2470.521899380089	0.0\\
2473.483510157249	0.0\\
2476.440714301044	0.0\\
2479.391539473285	0.0\\
2482.3448636392404	0.0\\
2485.2925625347316	0.0\\
2488.2326229889877	0.0\\
2491.147736719973	0.0\\
2494.061821874867	0.0\\
2496.9758011435733	0.0\\
2499.891912575429	0.0\\
2502.7953581552256	0.0\\
2505.691684706495	0.0\\
2508.590997903236	0.0\\
2511.479648575013	0.0\\
2514.3710586702146	0.0\\
2517.248557848533	0.0\\
2520.1323630681845	0.0\\
2523.0213912984173	0.0\\
2525.8968976837878	0.0\\
2528.7754688111836	0.0\\
2531.6463266720903	0.0\\
2534.5134036685813	0.0\\
2537.3832717328532	0.0\\
2540.2467182903347	0.0\\
2543.108872428651	0.0\\
2545.9609379876565	0.0\\
2548.8213202915967	0.0\\
2551.665474858074	0.0\\
2554.506231067692	0.0\\
2557.347167528932	0.0\\
2560.2086396172044	0.0\\
2563.061012402364	0.0\\
2565.8973327211515	0.0\\
2568.7367294527085	0.0\\
2571.572550366687	0.0\\
2574.4207252658807	0.0\\
2577.261607688306	0.0\\
2580.095302719751	0.0\\
2582.9450113363964	0.0\\
2585.79373118248	0.0\\
2588.6361140486133	0.0\\
2591.476835865913	0.0\\
2594.311445636021	0.0\\
2597.1489671569516	0.0\\
2599.98768897794	0.0\\
2602.817186991835	0.0\\
2605.6588836141145	0.0\\
2608.498604403436	0.0\\
2611.355363503464	0.0\\
2614.1943750176297	0.0\\
2617.035957715567	0.0\\
2619.8688313936136	0.0\\
2622.711005408434	0.0\\
2625.558439995404	0.0\\
2628.386629871541	0.0\\
2631.2338986363284	0.0\\
2634.0764074161307	0.0\\
2636.9276215947484	0.0\\
2639.7650363741304	0.0\\
2642.6038721599743	0.0\\
2645.449032019229	0.0\\
2648.2910464332344	0.0\\
2651.142316025259	0.0\\
2653.981923514257	0.0\\
2656.821260509292	0.0\\
2659.675785752789	0.0\\
2662.5239234417913	0.0\\
2665.39207181016	0.0\\
2668.2672991498303	0.0\\
2671.1182213377215	0.0\\
2673.980695216589	0.0\\
2676.843878878374	0.0\\
2679.6967835872447	0.0\\
2682.570589229902	0.0\\
2685.451708716665	0.0\\
2688.318933326982	0.0\\
2691.184607051806	0.0\\
2694.0617624445167	0.0\\
2696.9421682629536	0.0\\
2699.8168107486435	0.0\\
2702.6973700748877	0.0\\
2705.5819559147476	0.0\\
2708.4671231549037	0.0\\
2711.3554081050934	0.0\\
2714.240685177594	0.0\\
2717.139993999129	0.0\\
2720.0442520743363	0.0\\
2722.9397278644365	0.0\\
2725.8380384573347	0.0\\
2728.743568288427	0.0\\
2731.6547987055437	0.0\\
2734.5667299703637	0.0\\
2737.4945654335625	0.0\\
2740.4149961792655	0.0\\
2743.344511903875	0.0\\
2746.257123671221	0.0\\
2749.1692708563423	0.0\\
2752.102072918022	0.0\\
2755.0359753524717	0.0\\
2757.9762451009574	0.0\\
2760.903835275618	0.0\\
2763.837500608335	0.0\\
2766.77815509399	0.0\\
2769.731639181943	0.0\\
2772.683527842767	0.0\\
2775.6435266939225	0.0\\
2778.6046169521387	0.0\\
2781.5710447523343	0.0\\
2784.5356480402434	0.0\\
2787.5124970887127	0.0\\
2790.491654313254	0.0\\
2793.4758084907153	0.0\\
2796.4603613069667	0.0\\
2799.447906907839	0.0\\
2802.4394484781496	0.0\\
2805.436223142575	0.0\\
2808.4300124092124	0.0\\
2811.4357445345286	0.0\\
2814.434114607857	0.0\\
2817.4406072207985	0.0\\
2820.445257596032	0.0\\
2823.465136057389	0.0\\
2826.4996084845952	0.0\\
2829.5350973448494	0.0\\
2832.5650532858836	0.0\\
2835.604993859377	0.0\\
2838.6499145346834	0.0\\
2841.7043876740836	0.0\\
2844.7713831678957	0.0\\
2847.830760474243	0.0\\
2850.897751049626	0.0\\
2853.9756865334166	0.0\\
2857.0612235052877	0.0\\
2860.1467868537593	0.0\\
2863.2260416569306	0.0\\
2866.33328762616	0.0\\
2869.4315665910417	0.0\\
2872.536298232477	0.0\\
2875.6496344158113	0.0\\
2878.7677317172283	0.0\\
2881.890755026391	0.0\\
2885.0278272537707	0.0\\
2888.1579519870083	0.0\\
2891.303550451651	0.0\\
2894.4491931844104	0.0\\
2897.603686209204	0.0\\
2900.762147254708	0.0\\
2903.928275951951	0.0\\
2907.109113967018	0.0\\
2910.3086841480954	0.0\\
2913.5170068853777	0.0\\
2916.717221339275	0.0\\
2919.91671896796	0.0\\
2923.126807787735	0.0\\
2926.3503379371496	0.0\\
2929.5823692387703	0.0\\
2932.816412754707	0.0\\
2936.0708417718715	0.0\\
2939.3378297450254	0.0\\
2942.6215965406054	0.0\\
2945.8966752275273	0.0\\
2949.196847982833	0.0\\
2952.4890330778253	0.0\\
2955.7956307640525	0.0\\
2959.100511114253	0.0\\
2962.4361344459667	0.0\\
2965.7757230617162	0.0\\
2969.1230677235044	0.0\\
2972.4619932217292	0.0\\
2975.8325908071793	0.0\\
2979.193384903747	0.0\\
2982.5660956718784	0.0\\
2985.962447218375	0.0\\
2989.372461797705	0.0\\
2992.782554166065	0.0\\
2996.2083089092994	0.0\\
2999.6441408982255	0.0\\
3003.1026517728724	0.0\\
3006.580412026473	0.0\\
3010.064811552551	0.0\\
3013.5606424143634	0.0\\
3017.0740849420536	0.0\\
3020.594150907198	0.0\\
3024.1407323733756	0.0\\
3027.695714282687	0.0\\
3031.2648938947796	0.0\\
3034.833879661918	0.0\\
3038.4286819154595	0.0\\
3042.036792922353	0.0\\
3045.6580453921024	0.0\\
3049.309785805932	0.0\\
3052.9775923584584	0.0\\
3056.672896070634	0.0\\
3060.375648967236	0.0\\
3064.108713234785	0.0\\
3067.847921379689	0.0\\
3071.618929065261	0.0\\
3075.4028646743573	0.0\\
3079.2098403631553	0.0\\
3083.0456985320325	0.0\\
3086.9275636121292	0.0\\
3090.8351637763526	0.0\\
3094.7490484826712	0.0\\
3098.6913275908664	0.0\\
3102.6600714015613	0.0\\
3106.662734360495	0.0\\
3110.693353152252	0.0\\
3114.7692159883954	0.0\\
3118.8705525619143	0.0\\
3123.035809335176	0.0\\
3127.22582488479	0.0\\
3131.4636187544156	0.0\\
3135.7162953110283	0.0\\
3140.0494627926337	0.0\\
3144.433300662671	0.0\\
3148.8716099489357	0.0\\
3153.388678640763	0.0\\
3157.9661029089702	0.0\\
3162.618267081033	0.0\\
3167.3676206069395	0.0\\
3172.2325499103617	0.0\\
3177.231051102345	0.0\\
3182.311977752972	0.0\\
3187.5433360491234	0.0\\
3192.9484953074016	0.0\\
3198.498737223077	0.0\\
3204.2015282253697	0.0\\
3209.9213396860596	0.0\\
3215.5618682868444	0.0\\
3221.074980144437	0.0\\
3226.3668650056734	0.0\\
3231.505559715416	0.0\\
3236.5160685371375	0.0\\
3241.4120067887798	0.0\\
3246.2038532492525	0.0\\
3250.901049561481	0.0\\
3255.4925414429263	0.0\\
3260.0109503612202	0.0\\
3264.4889315770615	0.0\\
3268.906555312781	0.0\\
3273.255160948369	0.0\\
3277.582184008749	0.0\\
3281.8270731426273	0.0\\
3286.0459854732044	0.0\\
3290.2240075169284	0.0\\
3294.344117450625	0.0\\
3298.4359487953207	0.0\\
3302.514827680109	0.0\\
3306.547548466807	0.0\\
3310.545576862399	0.0\\
3314.515491999715	0.0\\
3318.457272161336	0.0\\
3322.374267037596	0.0\\
3326.274592478466	0.0\\
3330.145837452039	0.0\\
3333.9916492887423	0.0\\
3337.818839533883	0.0\\
3338.5781941414125	0.0\\
3338.67689312122	0.0\\
3338.7943314392032	0.0\\
3338.860517863185	0.0\\
3338.965924958875	0.0\\
3339.4337847050183	0.0\\
3341.373811586075	0.0\\
3345.571974100454	0.0\\
3349.8149158535325	0.0\\
3354.0873329695023	0.0\\
3358.432572555501	0.0\\
3362.7863367953414	0.0\\
3367.1831075210166	0.0\\
3371.629930281214	0.0\\
3376.130412100746	0.0\\
3380.681948894575	0.0\\
3385.296832248354	0.0\\
3389.978927177549	0.0\\
3394.730875112835	0.0\\
3399.5768823761846	0.0\\
3404.4717648561427	0.0\\
3409.457653198573	0.0\\
3414.528945204738	0.0\\
3419.6858476258076	0.0\\
3424.940432713591	0.0\\
3430.318214711914	0.0\\
3435.7900916385443	0.0\\
3441.3436663542298	0.0\\
3446.94746791363	0.0\\
3452.595179073648	0.0\\
3458.2353015285125	0.0\\
3463.8449893670477	0.0\\
3469.3783523460143	0.0\\
3474.834959412672	0.0\\
3480.1720684001248	0.0\\
3485.439773441157	0.0\\
3490.6324911027023	0.0\\
3495.756830564471	0.0\\
3500.82117163404	0.0\\
3505.7966596762362	0.0\\
3510.7220365746116	0.0\\
3515.5873478560015	0.0\\
3520.399344584448	0.0\\
3525.17642218115	0.0\\
3529.8993349839857	0.0\\
3534.6077952916667	0.0\\
3539.286360969538	0.0\\
3543.91465607361	0.0\\
3548.5157526431713	0.0\\
3553.065743386086	0.0\\
3557.591072721493	0.0\\
3562.0950846463566	0.0\\
3566.560044626992	0.0\\
3571.0249145253074	0.0\\
3575.4626573756877	0.0\\
3579.8628770043906	0.0\\
3584.257239422166	0.0\\
3588.642034316308	0.0\\
3593.004425071046	0.0\\
3597.34797081151	0.0\\
3601.681047481744	0.0\\
3606.015338524913	0.0\\
3610.311572358868	0.0\\
3614.5932946303637	0.0\\
3618.855123952113	0.0\\
3623.1083689353327	0.0\\
3627.353977884918	0.0\\
3631.591934182252	0.0\\
3635.8064406433286	0.0\\
3640.0197263121054	0.0\\
3644.23019944322	0.0\\
3648.424122475056	0.0\\
3652.5998764060605	0.0\\
3656.767878847775	0.0\\
3660.9356281434048	0.0\\
3665.0900930690714	0.0\\
3669.242785492248	0.0\\
3673.383301992272	0.0\\
3677.5079096410445	0.0\\
3681.6359056977853	0.0\\
3685.762491103421	0.0\\
3689.8738094984556	0.0\\
3693.971741302884	0.0\\
3698.08200934913	0.0\\
3702.192879670377	0.0\\
3706.2873718841893	0.0\\
3710.3816427859947	0.0\\
3714.4689239178233	0.0\\
3718.5383826756433	0.0\\
3722.60795318463	0.0\\
3726.6784681333	0.0\\
3730.75372476766	0.0\\
3734.808268422543	0.0\\
3738.8546135296338	0.0\\
3742.8980512441694	0.0\\
3746.9514813208325	0.0\\
3751.012529362134	0.0\\
3755.05059615708	0.0\\
3759.100801316209	0.0\\
3763.1510915934496	0.0\\
3767.1848282750443	0.0\\
3771.221156745418	0.0\\
3775.255834672851	0.0\\
3779.2902352512347	0.0\\
3783.318665952799	0.0\\
3787.354561623716	0.0\\
3791.388724429504	0.0\\
3795.4142811900892	0.0\\
3799.4342130547284	0.0\\
3803.456048494131	0.0\\
3807.4648484395393	0.0\\
3811.491074174359	0.0\\
3815.5179426935674	0.0\\
3819.558585450378	0.0\\
3823.588990283063	0.0\\
3827.6151553790496	0.0\\
3831.6445140575215	0.0\\
3835.67334123453	0.0\\
3839.695322514235	0.0\\
3843.7237534274054	0.0\\
3847.747357964172	0.0\\
3851.7734746487813	0.0\\
3855.81217689031	0.0\\
3859.8480266694214	0.0\\
3863.8824681306924	0.0\\
3867.9040519966848	0.0\\
3871.930956963154	0.0\\
3875.9585824974347	0.0\\
3879.9985312412437	0.0\\
3884.031668667959	0.0\\
3888.0812290263975	0.0\\
3892.1160313722985	0.0\\
3896.1619351785876	0.0\\
3900.2034182293446	0.0\\
3904.2294128132517	0.0\\
3908.269067009668	0.0\\
3912.32261242451	0.0\\
3916.375463001593	0.0\\
3920.4164456861135	0.0\\
3924.4749109132454	0.0\\
3928.541462212116	0.0\\
3932.5994325724014	0.0\\
3936.6515114940466	0.0\\
3940.6986581013416	0.0\\
3944.767308421172	0.0\\
3948.837648769141	0.0\\
3952.9064521884147	0.0\\
3956.981676270686	0.0\\
3961.0590346805966	0.0\\
3965.12808251322	0.0\\
3969.195636225455	0.0\\
3973.272439301353	0.0\\
3977.3541789078245	0.0\\
3981.4436643251192	0.0\\
3985.524031910114	0.0\\
3989.615651376057	0.0\\
3993.707406391929	0.0\\
3997.814337932684	0.0\\
4001.9112973555766	0.0\\
4006.0255017386244	0.0\\
4010.1333903561645	0.0\\
4014.245690260309	0.0\\
4018.360484897493	0.0\\
4022.5006898777765	0.0\\
4026.6194474108797	0.0\\
4030.7477989595072	0.0\\
4034.892829335604	0.0\\
4039.038068475067	0.0\\
4043.1942499596234	0.0\\
4047.335637378327	0.0\\
4051.4868584100304	0.0\\
4055.646812870774	0.0\\
4059.8015451797746	0.0\\
4063.959479152817	0.0\\
4068.128648535351	0.0\\
4072.3072213679716	0.0\\
4076.4788709126715	0.0\\
4080.6659060248085	0.0\\
4084.843775762317	0.0\\
4089.0204362928334	0.0\\
4093.2336047204444	0.0\\
4097.453189150137	0.0\\
4101.656320130503	0.0\\
4105.8834348730215	0.0\\
4110.114867130231	0.0\\
4114.350151593779	0.0\\
4118.583070938579	0.0\\
4122.842479472605	0.0\\
4127.109332060096	0.0\\
4131.362724874101	0.0\\
4135.6205717500125	0.0\\
4139.883084235893	0.0\\
4144.141986171935	0.0\\
4148.399577328108	0.0\\
4152.675165926343	0.0\\
4156.973982964233	0.0\\
4161.271033400042	0.0\\
4165.579871721842	0.0\\
4169.894996855532	0.0\\
4174.2181011172415	0.0\\
4178.534281069724	0.0\\
4182.873346525201	0.0\\
4187.207811519918	0.0\\
4191.556779897799	0.0\\
4195.904557373164	0.0\\
4200.266817854601	0.0\\
4204.633117003299	0.0\\
4209.0022220249975	0.0\\
4213.371404667145	0.0\\
4217.758200155089	0.0\\
4222.1593352697855	0.0\\
4226.57666090054	0.0\\
4230.987250493477	0.0\\
4235.420353000007	0.0\\
4239.853120451327	0.0\\
4244.289016338087	0.0\\
4248.72375698133	0.0\\
4253.18908662433	0.0\\
4257.677560418011	0.0\\
4262.145747853199	0.0\\
4266.62592216508	0.0\\
4271.132097741243	0.0\\
4275.6314722627885	0.0\\
4280.140653100594	0.0\\
4284.678156528402	0.0\\
4289.224112142045	0.0\\
4293.75581001052	0.0\\
4298.313458604718	0.0\\
4302.883710543498	0.0\\
4307.4499869310675	0.0\\
4312.038301865827	0.0\\
4316.638331989039	0.0\\
4321.238171357079	0.0\\
4325.8753018297175	0.0\\
4330.49205930716	0.0\\
4335.13874266805	0.0\\
4339.77949451128	0.0\\
4344.460513042784	0.0\\
4349.137512698757	0.0\\
4353.835506203268	0.0\\
4358.54055376247	0.0\\
4363.26732935753	0.0\\
4367.99451440243	0.0\\
4372.745312798337	0.0\\
4377.507030122861	0.0\\
4382.2619499777975	0.0\\
4387.058012356438	0.0\\
4391.8415170726985	0.0\\
4396.65752961717	0.0\\
4401.475577778023	0.0\\
4406.285878098275	0.0\\
4411.139465058492	0.0\\
4416.010530390669	0.0\\
4420.888875716282	0.0\\
4425.779251800066	0.0\\
4430.687969634422	0.0\\
4435.592712952379	0.0\\
4440.541765674307	0.0\\
4445.511221073042	0.0\\
4450.493445465967	0.0\\
4455.500483413673	0.0\\
4460.530003139675	0.0\\
4465.560473817581	0.0\\
4470.592920091922	0.0\\
4475.668123153548	0.0\\
4480.782186839524	0.0\\
4485.892823136688	0.0\\
4491.026597049533	0.0\\
4496.202034209777	0.0\\
4501.395432277193	0.0\\
4506.605623004361	0.0\\
4511.8364388645	0.0\\
4517.081999070342	0.0\\
4522.344814937333	0.0\\
4527.648626149688	0.0\\
4532.986403111581	0.0\\
4538.338024235956	0.0\\
4543.711204254858	0.0\\
4549.144940560869	0.0\\
4553.659331917894	0.0\\
4554.5757681544	0.0\\
4560.056757556866	0.0\\
4565.591906107704	0.0\\
4571.153971749642	0.0\\
4576.760846011126	0.0\\
4582.406439190803	0.0\\
4588.103832044682	0.0\\
4593.8450656200275	0.0\\
4599.623292547491	0.0\\
4605.462496693548	0.0\\
4611.383732894121	0.0\\
4617.338621224628	0.0\\
4623.368593120722	0.0\\
4629.435589434304	0.0\\
4635.567175881963	0.0\\
4641.776955736501	0.0\\
4648.053117949403	0.0\\
4654.43817266529	0.0\\
4660.862693508396	0.0\\
4667.3923432075935	0.0\\
4674.0101335380605	0.0\\
4680.684082466232	0.0\\
4687.452915190235	0.0\\
4694.332040649426	0.0\\
4701.339249807845	0.0\\
4708.464502756289	0.0\\
4715.730163625951	0.0\\
4723.107462011478	0.0\\
4730.678633506743	0.0\\
4738.381220955043	0.0\\
4746.232040654515	0.0\\
4754.2717830861075	0.0\\
4762.520230081969	0.0\\
4771.009720940305	0.0\\
4779.799706201877	0.0\\
4788.934130234804	0.0\\
4798.337233725331	0.0\\
4808.229095941268	0.0\\
4818.548065523506	0.0\\
4829.244014652681	0.0\\
4840.147287486712	0.0\\
4850.997745967918	0.0\\
4861.578549600425	0.0\\
4871.887062533704	0.0\\
4881.971460777086	0.0\\
4891.894565179533	0.0\\
4901.684425434738	0.0\\
4911.415616992486	0.0\\
4920.967905652924	0.0\\
4930.406840079402	0.0\\
4939.883606531923	0.0\\
4949.30083048204	0.0\\
4958.6892725223715	0.0\\
4968.059254686248	0.0\\
4977.423259563291	0.0\\
4986.828157131185	0.0\\
4996.245207695867	0.0\\
5005.717886639492	0.0\\
5015.182475351949	0.0\\
5024.665258693449	0.0\\
5026.581070208518	0.0\\
5026.722945487003	0.0\\
5026.985955201802	5.701631371364151E-4\\
5027.321451370559	0.0013046286816639006\\
5027.874069180269	0.002529651374166178\\
5028.4573019881045	0.0038484846822752156\\
5029.044503368243	0.005203792107804481\\
5029.66882786104	0.006674252787379337\\
5030.302702768731	0.008198940894410728\\
5030.896143157208	0.00965642523517262\\
5031.547784655979	0.011287891917480732\\
5032.178088397815	0.012898730958482246\\
5032.826049470705	0.014587342057422278\\
5033.475337688267	0.01631298078368639\\
5034.127579453325	0.018080231390490968\\
5034.775920296215	0.019870581700588995\\
5035.434243604426	0.02172247364871189\\
5036.001254782706	0.02334703232701542\\
5036.632754423681	0.0251849021785645\\
5037.288853171871	0.027127281348227963\\
5037.945428901114	0.029105222247172484\\
5038.600727653868	0.03111338861242286\\
5039.260933246856	0.033170830747151936\\
5039.925507267006	0.035276575576213776\\
5040.590727923089	0.03741928149335934\\
5041.252335594687	0.03958506483284954\\
5041.917904233791	0.04179852672715857\\
5042.584124874624	0.044049071314187005\\
5043.25157317284	0.0463387425153691\\
5043.872115555023	0.04849997569028336\\
5044.494635676754	0.05069842662375444\\
5045.144364965647	0.05302473656820643\\
5045.782636637154	0.05534250064019358\\
5046.408909112568	0.057647965332585524\\
5047.072715954886	0.060124180164325844\\
5047.671064105334	0.06238714837902837\\
5048.319336702018	0.0648692923334395\\
5048.9345909600415	0.06725606861033881\\
5049.61434932313	0.06992577268240935\\
5050.23822261149	0.07240891564472088\\
5050.881365782016	0.07499998838282798\\
5051.508177589958	0.07755655881270448\\
5052.112138863718	0.08004927680552443\\
5052.795783948008	0.08290302186642237\\
5053.484374158283	0.0858138854435316\\
5054.112196796663	0.08850122965497356\\
5054.697189627534	0.09103357607388335\\
5055.3779135399	0.09401124172640932\\
5055.992983002412	0.0967339277523328\\
5056.638918481867	0.09962391934387113\\
5057.282956929132	0.10253745763979857\\
5057.981023643662	0.10573009056718927\\
5058.675183658977	0.10894209264362867\\
5059.370302462363	0.11219557878654843\\
5060.024252180116	0.1152911735056785\\
5060.689635811756	0.11847424671751927\\
5061.38247288692	0.12182397918177973\\
5062.083421008843	0.12525007014835593\\
5062.758765646706	0.1285871301674794\\
5063.460659349777	0.13209158243282748\\
5064.142966209405	0.1355347073192572\\
5064.828591610758	0.1390301965347956\\
5065.483575562957	0.14240357273166515\\
5066.154578937945	0.14589286482455233\\
5066.772942755966	0.1491398395670111\\
5067.440279413888	0.15267532251815008\\
5068.088624901287	0.15614293205568508\\
5068.79968871784	0.1599809610955254\\
5069.52217011159	0.1639194614674393\\
5070.246054574038	0.1679050940215911\\
5070.93207184683	0.17171962291282666\\
5071.610270754112	0.17552570988448812\\
5072.339235370409	0.17965397284724766\\
5073.067187179933	0.18381637982840338\\
5073.761863342472	0.18782642956628037\\
5074.500799772868	0.1921305331515531\\
5075.241055832612	0.1964832945321781\\
5075.967550319154	0.200795347608353\\
5076.686271153425	0.20510026431833317\\
5077.364617559731	0.20919968083174773\\
5078.054787826422	0.21340547052087566\\
5078.797159888496	0.21796760352085925\\
5079.516448420825	0.22242756514476048\\
5080.252748065148	0.22703237686808114\\
5080.966004265752	0.23153201321600542\\
5081.682890292652	0.23609245258028666\\
5082.345533412434	0.24034292493697385\\
5083.119603785017	0.24534623966416658\\
5083.862083785771	0.25018777136439274\\
5084.5332899382975	0.2546012144158749\\
5085.305774018732	0.25971895581393434\\
5086.077896006684	0.2648781959059874\\
5086.863642848522	0.27017309126648525\\
5087.6502383541465	0.2755190793590462\\
5088.361015938075	0.28039066975637905\\
5089.106113743055	0.28553631307741\\
5089.85314996482	0.2907360532725638\\
5090.533766381086	0.2955105338057291\\
5091.220941676134	0.3003651534750156\\
5091.903325620549	0.3052200885418961\\
5092.5634318779175	0.3099492852367687\\
5093.333636186579	0.315504373445625\\
5094.078278123783	0.3209167091963826\\
5094.822675787336	0.32636747155928525\\
5095.549756352875	0.3317306144270983\\
5096.238831069593	0.3368496161437752\\
5096.995509433604	0.3425085960810944\\
5097.726836181138	0.34801788458817606\\
5098.549530184409	0.35425896262156253\\
5099.308456120665	0.36006115078355694\\
5100.175957588624	0.3667409128372445\\
5101.038039407718	0.37343262490417395\\
5101.8851807394185	0.3800606953051209\\
5102.666445952591	0.3862206382614435\\
5103.388524777431	0.39195417527427046\\
5104.2563289603695	0.3988897485171917\\
5105.067785990179	0.4054251179439238\\
5105.891671090818	0.4121081861839553\\
5106.763954881057	0.41923499643744566\\
5107.585265593501	0.42599612827363786\\
5108.417223098248	0.4328933457506239\\
5109.187254478375	0.43932244073500437\\
5109.93242259028	0.4455844717090236\\
5110.728873704811	0.4523194048589372\\
5111.545998865373	0.4592750543497116\\
5112.316461232544	0.4658777520498011\\
5113.15180003493	0.47308173577478174\\
5114.023506269017	0.48065050233497486\\
5114.895248315053	0.4882728321392217\\
5115.720615378355	0.49553996024331204\\
5116.599858874621	0.503332217655964\\
5117.42049260714	0.510655317639384\\
5118.343804458353	0.5189475848354219\\
5119.2167471432695	0.5268434821314314\\
5120.070787873583	0.5346201501536181\\
5120.866640447912	0.5419140318033133\\
5121.740926590717	0.5499749920849677\\
5122.629605493932	0.5582223689092844\\
5123.532124582975	0.5666535492725546\\
5124.360467694507	0.5744432219175859\\
5125.231672644355	0.5826856437984753\\
5126.1161103066315	0.5911061898025727\\
5126.890220792437	0.5985231826591162\\
5127.669552082678	0.6060315024300351\\
5128.518713320309	0.6142578887141437\\
5129.376821889504	0.6226207001331869\\
5130.2162125542545	0.6308501656921852\\
5130.987304480814	0.6384540106905652\\
5131.861485416173	0.6471203174683251\\
5132.688985147586	0.6553728786275859\\
5133.504419275252	0.6635508025822991\\
5134.3850566400015	0.6724312598555726\\
5135.20316276835	0.6807297403614712\\
5135.967383746032	0.6885237425161026\\
5136.701789687771	0.6960514282509165\\
5137.577615672199	0.7050720128077346\\
5138.43787071085	0.7139827764457922\\
5139.245641482246	0.722396415487103\\
5140.108947072287	0.7314351848430205\\
5140.919887685155	0.7399724184938283\\
5141.902427568213	0.750369434449635\\
5142.801902495667	0.7599462508463686\\
5143.631742736565	0.7688312129265353\\
5144.506202475135	0.7782420720602969\\
5145.325081263669	0.7871021650340009\\
5146.072762766316	0.7952323629244138\\
5146.8435959954895	0.8036523675361289\\
5147.591892987974	0.8118642139404484\\
5148.36875786328	0.8204278412296382\\
5149.2844723460785	0.8305688805337716\\
5150.122578970029	0.8399007755569028\\
5150.94825809125	0.8491396180143693\\
5151.708227793133	0.8576842196167529\\
5152.406525156157	0.8655700439408931\\
5153.1984765904635	0.8745495877572065\\
5153.96987138493	0.8833358127588353\\
5154.79708067291	0.8927992649126051\\
5155.566925608444	0.9016477651376325\\
5156.380318717769	0.9110373895319781\\
5157.185749581402	0.920377478223176\\
5157.940197794131	0.9291655839601969\\
5158.751789507287	0.9386588197632997\\
5159.470354717347	0.9471014439914032\\
5160.198358694197	0.9556885964797566\\
5160.922355974173	0.9642623194099902\\
5161.753685843909	0.9741456990742807\\
5162.5418728946115	0.9835580934342489\\
5163.404825159279	0.9939067922943263\\
5164.199962019309	1.00348598964937\\
5165.035023252874	1.0135884508413477\\
5165.841295251534	1.023385419908494\\
5166.641755861585	1.0331527318437428\\
5167.440421419231	1.0429386441640855\\
5168.17019807912	1.0519173334666547\\
5168.903815784039	1.060977090390392\\
5169.628472147067	1.0699597010989228\\
5170.355584776606	1.0790059331342143\\
5171.14304136684	1.0888389193767578\\
5171.8979727053265	1.0983030754912417\\
5172.575019519658	1.1068228666891988\\
5173.256170245013	1.1154231560441614\\
5173.979751364837	1.124589970344648\\
5174.777176588777	1.1347282872073028\\
5175.537585156591	1.1444337538880038\\
5176.29607378115	1.1541505819271185\\
5176.967933946818	1.1627892781307483\\
5177.7248925862095	1.172553676971229\\
5178.390428704435	1.181169962243855\\
5179.081257256677	1.1901421042353357\\
5179.733916277282	1.1986463484818364\\
5180.504050580177	1.2087122668694676\\
5181.201241981096	1.2178578464777394\\
5181.890550851527	1.2269295494250727\\
5182.587653282288	1.236133293598967\\
5183.368382438097	1.2464744642047516\\
5184.1603497474935	1.2570022981067481\\
5184.938655265361	1.2673861551003962\\
5185.657171611661	1.2770064242563413\\
5186.422528660451	1.287287291883497\\
5187.178156190657	1.2974725982994535\\
5187.883150187363	1.3070077225483265\\
5188.650599331999	1.3174202961392236\\
5189.420250355995	1.327898448452772\\
5190.1667705292	1.338096374576112\\
5190.892128390033	1.3480378404081073\\
5191.6562532860935	1.3585439526662335\\
5192.349963085389	1.3681137702020623\\
5193.105195720129	1.3785636843303215\\
5193.902760903975	1.3896353724964028\\
5194.682437175383	1.4004958929749534\\
5195.45037956166	1.4112286834632242\\
5196.216911943562	1.421976816916915\\
5197.00321981146	1.4330380515160184\\
5197.771618811277	1.4438832156958181\\
5198.525136406182	1.4545526461599536\\
5199.219626933493	1.464417255754607\\
5199.9463514477375	1.474769493677698\\
5200.699723701566	1.4855335801725431\\
5201.404607033855	1.4956361347808063\\
5202.149614609987	1.50634457906992\\
5202.891195051065	1.5170361622905029\\
5203.576590749224	1.526947501593722\\
5204.330399878501	1.5378782983446264\\
5205.052721740785	1.5483842962492993\\
5205.7860454638885	1.559081158492332\\
5206.529633852164	1.5699594496439704\\
5207.234841310828	1.5803067154090615\\
5207.920412815569	1.5903939003425966\\
5208.66039065469	1.6013109039228\\
5209.421170192965	1.6125672978930465\\
5210.129666472401	1.6230812345242365\\
5210.865864459396	1.6340362583609895\\
5211.651114863453	1.6457543834961146\\
5212.404208053635	1.65702658144418\\
5213.09200766315	1.6673511829895373\\
5213.810640862133	1.678166853416347\\
5214.497434161016	1.6885315116659525\\
5215.227484791405	1.6995775052038233\\
5215.954866905535	1.710613324210601\\
5216.6329248657985	1.7209288409753034\\
5217.3391432455155	1.7316998839012911\\
5218.0898593059555	1.7431795453013437\\
5218.8316365694045	1.754553979378966\\
5219.555634898308	1.7656860867840036\\
5220.283271587274	1.7769037818030373\\
5221.029582941059	1.7884398654881033\\
5221.781964081527	1.800101255629042\\
5222.486428608956	1.8110496905161342\\
5223.201889357042	1.8221971746905834\\
5223.891356596596	1.8329672010482176\\
5224.646250562078	1.8447881512830056\\
5225.370128086273	1.8561538217081086\\
5226.07356837845	1.8672268790653423\\
5226.836496838094	1.8792660063371511\\
5227.5393231908565	1.8903864249195776\\
5228.264464803495	1.9018880211345892\\
5228.988987220688	1.9134087364257284\\
5229.717145704137	1.9250162719414363\\
5230.452393871763	1.9367661978148822\\
5231.200658708614	1.948754263673914\\
5231.937373846147	1.9605874479004832\\
5232.667863996294	1.972350025524137\\
5233.432808197653	1.9846977851906624\\
5234.161920201766	1.9964975138727477\\
5234.94384611772	2.009182829274729\\
5235.650015106177	2.020669137497264\\
5236.349858100091	2.032079275376243\\
5237.096841377266	2.0442861240317765\\
5237.856037376669	2.0567230759366355\\
5238.581238887831	2.06863278694284\\
5239.310787880893	2.0806422769170414\\
5240.000668815368	2.0920257808976945\\
5240.7243589111695	2.103993797488216\\
5241.473687743226	2.116414710046266\\
5242.219739401236	2.1288110780381952\\
5242.934961216206	2.1407235878593367\\
5243.644780856814	2.1525730620921193\\
5244.418201625607	2.1655132331933116\\
5245.1241686068115	2.177353790868014\\
5245.822662048706	2.1890950228275106\\
5246.493798913143	2.2004011300842903\\
5247.270651234809	2.213515352850883\\
5248.007870181547	2.225990622929147\\
5248.766049832193	2.2388498128446033\\
5249.495685201124	2.2512538234220143\\
5250.262273735856	2.2643151428369057\\
5250.970193758365	2.2764051919893014\\
5251.710524493465	2.2890759175375965\\
5252.399481312999	2.3008939036633693\\
5253.181732590214	2.3143399080538565\\
5253.957969242179	2.3277138874973184\\
5254.676182883139	2.340117000334768\\
5255.440126921609	2.3533379676316146\\
5256.145528770403	2.3655735483750497\\
5256.895733711173	2.3786132721124824\\
5257.589425098167	2.3906974005840436\\
5258.311944160316	2.4033092141090524\\
5259.067583587963	2.4165268773220667\\
5259.782137084281	2.4290533720301895\\
5260.484719235867	2.441395475659424\\
5261.2260676286205	2.4544448495319546\\
5261.957425914037	2.467345772215201\\
5262.689567553594	2.480287492163315\\
5263.37973117726	2.4925126781612095\\
5264.091724350019	2.5051491565087094\\
5264.821743655157	2.5181315579933043\\
5265.578338732224	2.531614122169228\\
5266.282479695847	2.544188633446237\\
5267.01850364633	2.5573582363010807\\
5267.768160055037	2.5707991409190614\\
5268.455960484953	2.5831566911044845\\
5269.144132067042	2.59554432266607\\
5269.88718388121	2.608944960783429\\
5270.603257456529	2.6218853319468227\\
5271.297335651476	2.634452701432558\\
5272.008114014978	2.6473466212168146\\
5272.703691333698	2.659989027413718\\
5273.415444353917	2.672949588670958\\
5274.09995564284	2.6854379144583334\\
5274.823596193986	2.698664133953531\\
5275.547153444311	2.711914259915635\\
5276.290238831536	2.7255480030629435\\
5277.0332775200095	2.739207590266603\\
5277.744692920394	2.7523114161695696\\
5278.477414116394	2.765832727003823\\
5279.208031016929	2.7793409297023883\\
5279.956511109294	2.7932055686025237\\
5280.687424704502	2.8067710220482276\\
5281.449667628454	2.820944440000572\\
5282.159092637165	2.8341616246294885\\
5282.870937022537	2.847447871650475\\
5283.62348846454	2.8615191846687793\\
5284.358606449512	2.875290740671054\\
5285.114019864137	2.8894686614324145\\
5285.877426825924	2.9038237430752805\\
5286.631840923044	2.918036806529938\\
5287.350585735821	2.9316033770040075\\
5288.068339650699	2.9451753728249273\\
5288.755618909565	2.958194222224887\\
5289.478472707826	2.971909979830963\\
5290.189788519923	2.985430731091327\\
5290.929965534988	2.999524403198648\\
5291.704841139581	3.0143051928506823\\
5292.464391206209	3.028820851146051\\
5293.186867605225	3.0426533665151974\\
5293.889784590663	3.056134775670097\\
5294.621651107082	3.0701949029821405\\
5295.324551609769	3.083722156309543\\
5296.044062639887	3.0975920989511225\\
5296.756199077088	3.11134322408632\\
5297.461611856375	3.124987348397111\\
5298.206202365764	3.139412926087644\\
5298.947104275005	3.153791989184402\\
5299.751212755811	3.169424386396008\\
5300.503973453588	3.184085940513979\\
5300.647775677409	3.1868920129295377\\
5300.807470426609	3.190009220827071\\
5300.902467708014	3.1918642533225086\\
5301.022807282816	3.194214648963249\\
5301.132957912112	3.196366638558785\\
5301.345646754555	3.2005228501790297\\
5301.701745774913	3.2074846467644322\\
5302.242595872334	3.218066530540347\\
5302.947247456956	3.23186973444726\\
5303.681655950952	3.2462787767116117\\
5304.445472492529	3.2612896144007584\\
5305.195462478794	3.276054149229201\\
5305.94814505781	3.2908966267607838\\
5306.693055865495	3.3056105896308905\\
5307.466889482035	3.3209210998795546\\
5308.2159148477895	3.3357662785914384\\
5308.937184562381	3.3500850858710223\\
5309.686948538907	3.3649930702883273\\
5310.414161735176	3.379476477561842\\
5311.096337973751	3.393084601420262\\
5311.862356316438	3.408387555548682\\
5312.5875342733325	3.4228987782406683\\
5313.318320135473	3.437545045318922\\
5314.061320643601	3.452459422934105\\
5314.799738363639	3.467305360853384\\
5315.522341613358	3.481856234326555\\
5316.27223773629	3.4969797262754376\\
5317.027053768474	3.5122265206984142\\
5317.792497789955	3.5277124883196285\\
5318.563309219933	3.5433320144667944\\
5319.3365746512045	3.55902643586493\\
5320.072310570655	3.573983253195835\\
5320.821153232295	3.589229618355862\\
5321.577863234723	3.6046598795800957\\
5322.32469977168	3.6199124681606936\\
5323.072065793091	3.635199137142213\\
5323.830237142391	3.6507303365267694\\
5324.594451042383	3.6664093210712245\\
5325.369091961809	3.6823266720446535\\
5326.151395161234	3.6984264302256946\\
5326.915977953542	3.7141861760415793\\
5327.677252849586	3.7299016257567565\\
5328.460164980828	3.746088034151085\\
5329.218411850061	3.7617888131060644\\
5329.945726407263	3.776871640860773\\
5330.723855001546	3.7930309782649196\\
5331.477394731472	3.808703503902188\\
5332.255115604561	3.824902501680607\\
5333.016873954975	3.840792920871775\\
5333.733064636384	3.855754858727133\\
5334.502082329793	3.8718422133306323\\
5335.295387381257	3.88846187637452\\
5336.063110528041	3.9045699403847918\\
5336.791351580476	3.91987194489859\\
5337.546204882778	3.935754760095837\\
5338.263881041334	3.9508768541452044\\
5339.052198633521	3.9675093577064056\\
5339.828971355446	3.9839223476265113\\
5340.5766409279495	3.999743234131934\\
5341.303168363838	4.015138017946288\\
5342.072515212571	4.031461663523844\\
5342.846684125545	4.047910691172914\\
5343.6169123364125	4.064299057623909\\
5344.415551841952	4.081315510847446\\
5345.1628029378535	4.097260205041707\\
5345.884718745976	4.11268507748826\\
5346.6604344027855	4.129280605945771\\
5347.388069638644	4.144869224022637\\
5348.205541416355	4.162404606550307\\
5348.971569404563	4.178860435519942\\
5349.709303182337	4.194729908213089\\
5350.502185007888	4.211807414560944\\
5351.247173530954	4.227875756356914\\
5352.022833484092	4.244627100180464\\
5352.77433898766	4.260878651087554\\
5353.525722506993	4.277148556797638\\
5354.290637278113	4.293732693868382\\
5355.040819167078	4.310018681712801\\
5355.788474428173	4.3262704916539665\\
5356.544830879142	4.342732164770496\\
5357.288387990193	4.358935921051609\\
5357.995765997444	4.374370622241845\\
5358.73543809028	4.390528850492222\\
5359.485134279876	4.4069261270265105\\
5360.203893470556	4.422666393527022\\
5360.9651545512625	4.439356932945952\\
5361.734976015963	4.456256182176942\\
5362.489435870557	4.4728391039082815\\
5363.211631607661	4.488732488459949\\
5363.975675661055	4.505566261535471\\
5364.747115875842	4.5225838757849175\\
5365.479889515631	4.538768722959324\\
5366.232429326463	4.555409495156955\\
5366.971321000912	4.571768090688726\\
5367.717326119535	4.588303456123782\\
5368.48015253861	4.605231461129831\\
5369.202935684394	4.621290265608067\\
5369.907362928061	4.6369590048097\\
5370.671448390589	4.653973035973507\\
5371.453757442963	4.671413372371585\\
5372.193831064691	4.6879322672116235\\
5372.931936468742	4.704425958005206\\
5373.698932166788	4.721584404414196\\
5374.461647329139	4.738667028419377\\
5375.227538666977	4.755840589230678\\
5375.993391735346	4.7730331236534855\\
5376.76470921906	4.790368200550617\\
5377.543948379436	4.807901450244914\\
5378.329980823988	4.825608007509141\\
5379.086778962885	4.842676019933139\\
5379.835154382912	4.859572942021291\\
5380.618537129803	4.877279469345783\\
5381.3732656054635	4.894358009043346\\
5382.093232161498	4.9106679902911115\\
5382.867251452841	4.9282204116046024\\
5383.60941276521	4.945069333124694\\
5384.397042426139	4.962969245015788\\
5385.170799597501	4.980573732635989\\
5385.914318129522	4.997508996092309\\
5386.659619261933	5.014502692362813\\
5387.4068624937245	5.031558526479138\\
5388.163669230271	5.0488506694597355\\
5388.925358405724	5.066272703866121\\
5389.650087212021	5.082867083544578\\
5390.4333482015245	5.100819281007995\\
5391.212464848208	5.1186957481446225\\
5392.01694111615	5.137173592271958\\
5392.799363245544	5.155164705938393\\
5393.561795820613	5.172714887220838\\
5394.354523751112	5.190980989038692\\
5395.109083554376	5.20838635043693\\
5395.868266337115	5.225915965730474\\
5396.640862720458	5.24377321580822\\
5397.438599901796	5.262230223783403\\
5398.219903061863	5.280326084880812\\
5398.991171602129	5.298207870539761\\
5399.765822182215	5.3161860924372135\\
5400.557760591879	5.334583874271134\\
5401.353585247043	5.353090799023951\\
5402.10727090577	5.370635954497196\\
5402.889658829807	5.388866610668021\\
5403.639197336983	5.406349410433426\\
5404.43159999427	5.424849228591231\\
5405.20782532211	5.4429895413334695\\
5405.983041929529	5.461123892214937\\
5406.715394155828	5.478272351486398\\
5407.486653772257	5.496347978727396\\
5408.304590280737	5.515535447079788\\
5409.0825725076975	5.533804247301944\\
5409.841404216353	5.551640401986383\\
5410.634600385449	5.570301223104771\\
5411.413380122982	5.58864054384857\\
5412.2125172485885	5.607476727034218\\
5412.989405741275	5.625806152451789\\
5413.788397675446	5.644674333689199\\
5414.563875193129	5.663004704970641\\
5415.306167726991	5.680566909329192\\
5416.074282815247	5.698755676368641\\
5416.849268894481	5.717123523573669\\
5417.604095186349	5.735029780649116\\
5418.407994098858	5.754116388853598\\
5419.222570912387	5.773474273173129\\
5420.022589256543	5.792503964800757\\
5420.784230191137	5.81063751234055\\
5421.5301814164995	5.828412889234254\\
5422.333486032903	5.847570542345176\\
5423.144094746269	5.866919676020249\\
5423.9453876791085	5.886063735939489\\
5424.724492940724	5.904694341284214\\
5425.48460187099	5.9228863866850325\\
5426.28303780727	5.9420113036721744\\
5427.046421534365	5.960312742648201\\
5427.79500235008	5.978274210315366\\
5428.590309278912	5.997371817311745\\
5429.360610825901	6.015884892621978\\
5430.135553722863	6.034524735455365\\
5430.912910888923	6.053237953688047\\
5431.693086663978	6.072034356266059\\
5432.484913028022	6.091126924620831\\
5433.241191288371	6.109377641754632\\
5434.063447062925	6.129235519456184\\
5434.857545933617	6.148429837047999\\
5435.643785028064	6.1674496659059574\\
5436.42095883374	6.186265294685857\\
5437.180158189511	6.204660333758612\\
5437.98749785859	6.224236316162621\\
5438.717299044234	6.241947043003364\\
5439.49289319994	6.260782349084701\\
5440.293632737974	6.280243004592322\\
5441.097668861357	6.299799121582629\\
5441.881465464527	6.318878098007476\\
5442.646889193125	6.337524170072761\\
5443.390602080659	6.355654909225384\\
5443.579505587324	6.360264521749455\\
};
\end{axis}
\end{tikzpicture}%
