%RateOfClimb_evolution
\begin{tikzpicture}

\begin{axis}[
width=\figurewidth,
height=\figureheight,
scaled ticks=false, tick label style={/pgf/number format/fixed},
xmin=0.0,
xmax=36.19713128358251,
xlabel={Time (s)},
xmajorgrids,
ymin=0.0,
ymax=3.9156574568831304,
ylabel={Rate of Climb (m/s)},
ymajorgrids,
legend style={at={(1.03,0.5)},anchor=west,draw=black,fill=white,legend cell align=left}
]

\addplot [
color=black,
solid
]
table[row sep=crcr]{
9.999999999999999E-5	0.0\\
4.0547702617548074E-4	0.0\\
0.001196196967808376	0.0\\
0.0026958808139129764	0.0\\
0.0050498318402017826	0.0\\
0.008346026110849714	0.0\\
0.01351752110456549	0.0\\
0.019087548778946015	0.0\\
0.02492589881970618	0.0\\
0.03079449088510841	0.0\\
0.0366945502645773	0.0\\
0.04254864061183096	0.0\\
0.04846424891367422	0.0\\
0.05439247269538339	0.0\\
0.06025582016582863	0.0\\
0.0661595091405967	0.0\\
0.07207599598046407	0.0\\
0.0779372716883329	0.0\\
0.08362560263579366	0.0\\
0.08936262275480425	0.0\\
0.09529662225307367	0.0\\
0.10118363851227594	0.0\\
0.10697635402918232	0.0\\
0.11291393693360971	0.0\\
0.11876299082523295	0.0\\
0.12464857538741272	0.0\\
0.13059308446065004	0.0\\
0.1364596944671448	0.0\\
0.14240338747782189	0.0\\
0.14836067058947716	0.0\\
0.15432346851716316	0.0\\
0.16008960462681382	0.0\\
0.16599105972938605	0.0\\
0.17184304370275538	0.0\\
0.17775874867677788	0.0\\
0.18363387927537522	0.0\\
0.18965943713391414	0.0\\
0.19565044930051417	0.0\\
0.20156433422803932	0.0\\
0.20743550933230764	0.0\\
0.21331999254137418	0.0\\
0.21920725520778656	0.0\\
0.22504914079759714	0.0\\
0.2310431123652395	0.0\\
0.23696613562853247	0.0\\
0.2429105662110479	0.0\\
0.24885679105740016	0.0\\
0.2547696471968015	0.0\\
0.26080130958015946	0.0\\
0.26681030725126686	0.0\\
0.2727932385157229	0.0\\
0.27878600417022703	0.0\\
0.2847606661391243	0.0\\
0.2907985209614272	0.0\\
0.29682605815512464	0.0\\
0.3027621532876251	0.0\\
0.3087555753087391	0.0\\
0.314788539650662	0.0\\
0.32080374181820226	0.0\\
0.32678515068908975	0.0\\
0.3327758966132278	0.0\\
0.33871352390937937	0.0\\
0.3447980068492985	0.0\\
0.350835476437522	0.0\\
0.35680265631199404	0.0\\
0.36278679553551274	0.0\\
0.36882365055353694	0.0\\
0.3749424220715054	0.0\\
0.3809516117778061	0.0\\
0.38702859081536	0.0\\
0.39319446410027004	0.0\\
0.39931954830573246	0.0\\
0.40539251303719404	0.0\\
0.4114943953635234	0.0\\
0.4176101392013625	0.0\\
0.42370997981758973	0.0\\
0.4298945190846628	0.0\\
0.4360920097583978	0.0\\
0.44226529373739165	0.0\\
0.44852046279226354	0.0\\
0.4547229060757423	0.0\\
0.46100550927525785	0.0\\
0.46707700321774925	0.0\\
0.47324309173595214	0.0\\
0.4795225244331909	0.0\\
0.485649399081477	0.0\\
0.49195160709741015	0.0\\
0.49826776491186386	0.0\\
0.5044437535789883	0.0\\
0.5107641433743382	0.0\\
0.5169461924364238	0.0\\
0.523239722009458	0.0\\
0.5293945294616309	0.0\\
0.5356108186408004	0.0\\
0.5417639152143858	0.0\\
0.548154556714135	0.0\\
0.5545462247192741	0.0\\
0.5608458001221222	0.0\\
0.5671474959087845	0.0\\
0.5735426942555504	0.0\\
0.5799856720361938	0.0\\
0.5863873003207367	0.0\\
0.5927516015611922	0.0\\
0.5991605590771147	0.0\\
0.6054653833088299	0.0\\
0.6117874437057309	0.0\\
0.6182820451610449	0.0\\
0.6247050735142101	0.0\\
0.631115953157942	0.0\\
0.6375779695282531	0.0\\
0.6439447854000866	0.0\\
0.6503388250474857	0.0\\
0.6567360519430736	0.0\\
0.6632378060923863	0.0\\
0.6698092559463902	0.0\\
0.6763162459993386	0.0\\
0.6829232338103424	0.0\\
0.6894413566454458	0.0\\
0.6959468530668422	0.0\\
0.702474292592804	0.0\\
0.709063086372508	0.0\\
0.715756050889377	0.0\\
0.7223285929985699	0.0\\
0.7289549793911274	0.0\\
0.7356355755627579	0.0\\
0.7421743890212742	0.0\\
0.7487439256807782	0.0\\
0.7553487488937218	0.0\\
0.7619687237490347	0.0\\
0.7687972605347875	0.0\\
0.7754678258250336	0.0\\
0.7821025872314755	0.0\\
0.788733685771229	0.0\\
0.7955121239005505	0.0\\
0.80219559471791	0.0\\
0.8089602267230807	0.0\\
0.815668325286067	0.0\\
0.8222971443190825	0.0\\
0.8289844562724609	0.0\\
0.8357637419527064	0.0\\
0.8426052414176959	0.0\\
0.8493357955687988	0.0\\
0.8558656439620691	0.0\\
0.8628166307736735	0.0\\
0.8697121265423227	0.0\\
0.8765852601521791	0.0\\
0.8834550126370755	0.0\\
0.8900828948028865	0.0\\
0.8969197792477539	0.0\\
0.9038222550496873	0.0\\
0.9106884529436272	0.0\\
0.9175870057543603	0.0\\
0.9244021256924329	0.0\\
0.931352815788753	0.0\\
0.9380031151235124	0.0\\
0.9448668607908959	0.0\\
0.9516750271981869	0.0\\
0.9585483928523635	0.0\\
0.9655092112134946	0.0\\
0.972338654143944	0.0\\
0.9791094621470875	0.0\\
0.9859788981598718	0.0\\
0.9930464850855358	0.0\\
1.0000793834874915	0.0\\
1.0072592509613614	0.0\\
1.014416738256838	0.0\\
1.0213829683377202	0.0\\
1.0284448958020995	0.0\\
1.035428628289207	0.0\\
1.0424783263868966	0.0\\
1.049520422659994	0.0\\
1.05658170206171	0.0\\
1.063714009090778	0.0\\
1.0707145987880806	0.0\\
1.0780071169724175	0.0\\
1.0851648355649819	0.0\\
1.0922371820684464	0.0\\
1.0995170098825335	0.0\\
1.1067076848412523	0.0\\
1.113707881557271	0.0\\
1.1208568196215274	0.0\\
1.1283367204803283	0.0\\
1.1355443153823699	0.0\\
1.1426704612921061	0.0\\
1.1498743905869584	0.0\\
1.1569720385165074	0.0\\
1.1642253177432624	0.0\\
1.1714978661753173	0.0\\
1.1788383096111947	0.0\\
1.1860059415682018	0.0\\
1.1932148461062981	0.0\\
1.2005572573615733	0.0\\
1.207895295935009	0.0\\
1.2152918887094266	0.0\\
1.2225683351980163	0.0\\
1.229959519141401	0.0\\
1.23765087849626	0.0\\
1.2450897669115557	0.0\\
1.2527200543590649	0.0\\
1.2600471509283224	0.0\\
1.2675912758105894	0.0\\
1.274962900275205	0.0\\
1.2824117607088659	0.0\\
1.2898921400646546	0.0\\
1.2974205251804936	0.0\\
1.3050768075183128	0.0\\
1.3125234823226815	0.0\\
1.3199472756245676	0.0\\
1.327495212537099	0.0\\
1.3351578963951325	0.0\\
1.342740811454497	0.0\\
1.3504009135067996	0.0\\
1.3580588347835234	0.0\\
1.3657862505461953	0.0\\
1.3732924322509144	0.0\\
1.3812281989648096	0.0\\
1.3888072353839926	0.0\\
1.3966276958347188	0.0\\
1.4044102052472884	0.0\\
1.4121694616331566	0.0\\
1.4199725270159873	0.0\\
1.427730824554366	0.0\\
1.4355123135364707	0.0\\
1.4432200714429264	0.0\\
1.450899846390667	0.0\\
1.4587377760522156	0.0\\
1.466479772216016	0.0\\
1.474521864844311	0.0\\
1.4824128388788465	0.0\\
1.4905397106209866	0.0\\
1.498373032111342	0.0\\
1.5060372898223595	0.0\\
1.5140493896939438	0.0\\
1.521987433222538	0.0\\
1.5299859311519	0.0\\
1.537962779058251	0.0\\
1.545840353840637	0.0\\
1.553790993118589	0.0\\
1.561701251119655	0.0\\
1.5696564218605218	0.0\\
1.5774171461461908	0.0\\
1.585631490504404	0.0\\
1.5936074414572552	0.0\\
1.6014886389459053	0.0\\
1.6096254599921513	0.0\\
1.617937356565649	0.0\\
1.62589120599737	0.0\\
1.6340853265943553	0.0\\
1.642042804239352	0.0\\
1.6499773593840454	0.0\\
1.658043909444379	0.0\\
1.666225137897197	0.0\\
1.6741392795694252	0.0\\
1.6825795711088225	0.0\\
1.6907305842566567	0.0\\
1.698954668056511	0.0\\
1.7070947943988508	0.0\\
1.7152151741330273	0.0\\
1.723395409065382	0.0\\
1.7314533777429792	0.0\\
1.739653005547937	0.0\\
1.7478466953613738	0.0\\
1.7561584846186498	0.0\\
1.764362712113655	0.0\\
1.7725653001031798	0.0\\
1.7805689958742517	0.0\\
1.7889885389044453	0.0\\
1.7971846440511752	0.0\\
1.8053338004079937	0.0\\
1.8137068110859107	0.0\\
1.8219753989593643	0.0\\
1.8301558560838984	0.0\\
1.8384496317858625	0.0\\
1.847162774974839	0.0\\
1.8554014745510612	0.0\\
1.863711147604918	0.0\\
1.8721141462382307	0.0\\
1.8805240495598072	0.0\\
1.8891013121523246	0.0\\
1.8974128401521408	0.0\\
1.9059245208389926	0.0\\
1.914358259005399	0.0\\
1.923145996776599	0.0\\
1.9316047239722698	0.0\\
1.9400124525510138	0.0\\
1.9485931838678439	0.0\\
1.9570578222289368	0.0\\
1.9657310540328345	0.0\\
1.9741041387299068	0.0\\
1.982529754035523	0.0\\
1.9911711851183673	0.0\\
1.999830671187408	0.0\\
2.008323064650659	0.0\\
2.01681262002874	0.0\\
2.025515133262295	0.0\\
2.0343546038700264	0.0\\
2.043126061154906	0.0\\
2.0520332980257336	0.0\\
2.0609004533151296	0.0\\
2.0696597649135517	0.0\\
2.078450779612667	0.0\\
2.0871172726831357	0.0\\
2.0961200474104045	0.0\\
2.1048733905852606	0.0\\
2.1137239082281614	0.0\\
2.122489431264725	0.0\\
2.1315204412413005	0.0\\
2.1403500165339784	0.0\\
2.149335903162835	0.0\\
2.158269177799504	0.0\\
2.167164205130165	0.0\\
2.1759469057837606	0.0\\
2.184563102046149	0.0\\
2.1937064572938043	0.0\\
2.2026350121964526	0.0\\
2.2117048406011497	0.0\\
2.220520830755003	0.0\\
2.229617474427907	0.0\\
2.23864863654852	0.0\\
2.2476199799186842	0.0\\
2.2567973179409	0.0\\
2.2657913631141176	0.0\\
2.2748875882529784	0.0\\
2.284147736416905	0.0\\
2.2933444254462803	0.0\\
2.302647397168162	0.0\\
2.311834330802313	0.0\\
2.320958083852368	0.0\\
2.3301870417988173	0.0\\
2.339204753764877	0.0\\
2.3486226921118103	0.0\\
2.3576785291415625	0.0\\
2.366854627567596	0.0\\
2.3760873792673225	0.0\\
2.385309630414808	0.0\\
2.3946680684888966	0.0\\
2.4040050910542865	0.0\\
2.413387137327317	0.0\\
2.422671106707159	0.0\\
2.4318187883618636	0.0\\
2.4414838619923644	0.0\\
2.4509785782210107	0.0\\
2.4602307663724554	0.0\\
2.469547102319254	0.0\\
2.47908573728874	0.0\\
2.4884197052887345	0.0\\
2.497917255903345	0.0\\
2.5075023040368123	0.0\\
2.5169986011141905	0.0\\
2.5267314634399805	0.0\\
2.5363086828626136	0.0\\
2.5458039127519276	0.0\\
2.5553908309993814	0.0\\
2.564854842096623	0.0\\
2.574297035645036	0.0\\
2.5836890181567256	0.0\\
2.5930763004866817	0.0\\
2.602565694416869	0.0\\
2.612119222219472	0.0\\
2.621753134500997	0.0\\
2.631288513337629	0.0\\
2.6408069417224267	0.0\\
2.6506845410455595	0.0\\
2.660445573391205	0.0\\
2.6701547692071648	0.0\\
2.6799341375755565	0.0\\
2.6897678517916965	0.0\\
2.6993836484922733	0.0\\
2.7093084805720373	0.0\\
2.718904384680176	0.0\\
2.728993869154797	0.0\\
2.7388950218513557	0.0\\
2.748906154361517	0.0\\
2.758731790400839	0.0\\
2.768578071448676	0.0\\
2.7783538402650025	0.0\\
2.7883547431269893	0.0\\
2.7982814474899804	0.0\\
2.808106513789208	0.0\\
2.8181343426645435	0.0\\
2.8280140315833133	0.0\\
2.8380454523628442	0.0\\
2.8482429138818155	0.0\\
2.8583097916270708	0.0\\
2.8684563201272333	0.0\\
2.878380327306168	0.0\\
2.8883559384552395	0.0\\
2.8982647179357715	0.0\\
2.908425142505699	0.0\\
2.9184278705877444	0.0\\
2.928533529946429	0.0\\
2.9385832166491896	0.0\\
2.948785676080865	0.0\\
2.9588657970525505	0.0\\
2.9689494050557688	0.0\\
2.9793273535425486	0.0\\
2.9896186662981092	0.0\\
2.999908894639229	0.0\\
3.010141717570594	0.0\\
3.0204345088301965	0.0\\
3.030612733923234	0.0\\
3.0407875400531363	0.0\\
3.0511532244880675	0.0\\
3.061515271244465	0.0\\
3.0719992790986455	0.0\\
3.082193217790868	0.0\\
3.0926044018975354	0.0\\
3.102872084338034	0.0\\
3.1132694634825473	0.0\\
3.1239540998336315	0.0\\
3.134349901425346	0.0\\
3.1447351902935257	0.0\\
3.155297602934228	0.0\\
3.1656837612367896	0.0\\
3.1760535131087346	0.0\\
3.18656057249041	0.0\\
3.1971403613563734	0.0\\
3.2077712675048247	0.0\\
3.218157703512106	0.0\\
3.228838310637679	0.0\\
3.239397986683846	0.0\\
3.250012696413572	0.0\\
3.2604640110378167	0.0\\
3.271019544362103	0.0\\
3.2817455338397368	0.0\\
3.292559819560312	0.0\\
3.3030931106291783	0.0\\
3.313663237933153	0.0\\
3.324205002810232	0.0\\
3.3350072944493165	0.0\\
3.3457866036326847	0.0\\
3.3564931491418415	0.0\\
3.3670701971608548	0.0\\
3.37790548649951	0.0\\
3.3887067358203593	0.0\\
3.3996391932218817	0.0\\
3.4104732551878447	0.0\\
3.4212489648741977	0.0\\
3.4319054479508484	0.0\\
3.4425353592704555	0.0\\
3.4532203468879876	0.0\\
3.463999112166822	0.0\\
3.4747588009567565	0.0\\
3.4857765732824904	0.0\\
3.4967017612281666	0.0\\
3.507468858564465	0.0\\
3.518416165326906	0.0\\
3.5296106109255048	0.0\\
3.5405701338408413	0.0\\
3.551404832903895	0.0\\
3.5622758714786524	0.0\\
3.5730788651750514	0.0\\
3.5840876886619624	0.0\\
3.595095197128116	0.0\\
3.606150700435955	0.0\\
3.617437179832761	0.0\\
3.6284914655242275	0.0\\
3.6397178693755396	0.0\\
3.6508680588839697	0.0\\
3.662237523603098	0.0\\
3.673429659855133	0.0\\
3.684472258147692	0.0\\
3.69569933741328	0.0\\
3.706939382754519	0.0\\
3.7181548647978726	0.0\\
3.7294446437840882	0.0\\
3.7408477343303828	0.0\\
3.7522083034783584	0.0\\
3.763454698463665	0.0\\
3.77476075383378	0.0\\
3.786246578262986	0.0\\
3.7974303124749547	0.0\\
3.808837727876986	0.0\\
3.8201802166948164	0.0\\
3.8316060120821405	0.0\\
3.842946500016759	0.0\\
3.854202132275603	0.0\\
3.8654760227998484	0.0\\
3.8768002752049533	0.0\\
3.8882594111195976	0.0\\
3.8995259709900756	0.0\\
3.9110242815959824	0.0\\
3.9223970949164917	0.0\\
3.933681585886764	0.0\\
3.945219661598152	0.0\\
3.956728754261806	0.0\\
3.9680745190681757	0.0\\
3.979522253792581	0.0\\
3.9909235394485023	0.0\\
4.002357467107501	0.0\\
4.013991167721445	0.0\\
4.025615150134927	0.0\\
4.03703848290608	0.0\\
4.048525935040896	0.0\\
4.060097192365841	0.0\\
4.071490832892094	0.0\\
4.082971648599212	0.0\\
4.09446820230062	0.0\\
4.106116280361155	0.0\\
4.117692004290809	0.0\\
4.129176646572198	0.0\\
4.140829662317788	0.0\\
4.152305629068099	0.0\\
4.164103673181714	0.0\\
4.175776939843214	0.0\\
4.187350483601534	0.0\\
4.198992915568345	0.0\\
4.210669268563015	0.0\\
4.222206943980982	0.0\\
4.233754284516136	0.0\\
4.245249527607971	0.0\\
4.256738275424288	0.0\\
4.268313001899783	0.0\\
4.27993679780918	0.0\\
4.291446332512825	0.0\\
4.302889971953711	0.0\\
4.314629643336817	0.0\\
4.316980179178396	0.0\\
4.322817233807111	0.0\\
4.324976747798649	0.0\\
4.325133923898225	0.0\\
4.325233024346929	0.0\\
4.325339600420401	0.0\\
4.325955088541832	0.0\\
4.327805217662343	0.0\\
4.333346612941886	0.0\\
4.344595373312735	0.0\\
4.355418527330176	0.0\\
4.36625804095225	0.0\\
4.377001236468878	0.0\\
4.3878024097088275	0.0\\
4.398543607286124	0.0\\
4.409427314059975	0.0\\
4.4203425738094815	0.0\\
4.431335475475073	0.0\\
4.442252608745841	0.0\\
4.453147039979315	0.0\\
4.464155528328753	0.0\\
4.475324300871348	0.0\\
4.486353445439958	0.0\\
4.497249580105345	0.0\\
4.508174475025985	0.0\\
4.519293478223847	0.0\\
4.530421347842696	0.0\\
4.541443023729327	0.0\\
4.552431036712701	0.0\\
4.563546333427134	0.0\\
4.5746114883066955	0.0\\
4.585772091777059	0.0\\
4.596725427297091	0.0\\
4.607919764237749	0.0\\
4.619140836744506	0.0\\
4.630310741577695	0.0\\
4.641475488016706	0.0\\
4.652669853583367	0.0\\
4.663947688751401	0.0\\
4.675390293992521	0.0\\
4.68678454426062	0.0\\
4.697998029448897	0.0\\
4.709286661831484	0.0\\
4.720584830290482	0.0\\
4.731727091823053	0.0\\
4.743025128752626	0.0\\
4.7544970327849185	0.0\\
4.765897063655762	0.0\\
4.777371981917513	0.0\\
4.7887211669906815	0.0\\
4.800046324807166	0.0\\
4.811434968404669	0.0\\
4.822869733364465	0.0\\
4.8343948128582355	0.0\\
4.845931778937842	0.0\\
4.857361316962759	0.0\\
4.86902060139723	0.0\\
4.880548706109357	0.0\\
4.892048876768394	0.0\\
4.903602263648091	0.0\\
4.91520531657074	0.0\\
4.926732140226873	0.0\\
4.938281557091015	0.0\\
4.949874485081654	0.0\\
4.961368036391031	0.0\\
4.9730107497036915	0.0\\
4.9847061416614675	0.0\\
4.996443050329129	0.0\\
5.008135609761444	0.0\\
5.019846592751598	0.0\\
5.031489067392847	0.0\\
5.043235750575203	0.0\\
5.054992299088358	0.0\\
5.06666234107664	0.0\\
5.07833961390036	0.0\\
5.089919201492359	0.0\\
5.101618883836052	0.0\\
5.113362392583971	0.0\\
5.124975023455473	0.0\\
5.1367279344521375	0.0\\
5.148542121321743	0.0\\
5.1601604915162245	0.0\\
5.172005526751089	0.0\\
5.183780543489599	0.0\\
5.195466141206815	0.0\\
5.207382926633148	0.0\\
5.2191547216069445	0.0\\
5.2310503934086	0.0\\
5.242758474155311	0.0\\
5.254488877199604	0.0\\
5.26628510474136	0.0\\
5.278201085229526	0.0\\
5.290107813067989	0.0\\
5.302026470340035	0.0\\
5.313759659534206	0.0\\
5.325685798679318	0.0\\
5.337342056901999	0.0\\
5.3490985067336165	0.0\\
5.36078953746839	0.0\\
5.372695181401873	0.0\\
5.38464159168033	0.0\\
5.396475528039106	0.0\\
5.40835516364479	0.0\\
5.420225989392652	0.0\\
5.431995088864774	0.0\\
5.443961088030404	0.0\\
5.455878640497588	0.0\\
5.467976782748934	0.0\\
5.479781279552078	0.0\\
5.491654339616614	0.0\\
5.503508742651215	0.0\\
5.515497398747751	0.0\\
5.527504553066764	0.0\\
5.539327354299656	0.0\\
5.551446215826855	0.0\\
5.5633799899858225	0.0\\
5.575407308276045	0.0\\
5.587562510126128	0.0\\
5.599488898217073	0.0\\
5.611514149483705	0.0\\
5.623411858841605	0.0\\
5.635374622221505	0.0\\
5.64732861629815	0.0\\
5.659296979586216	0.0\\
5.671383857796631	0.0\\
5.683345189461736	0.0\\
5.695223584458574	0.0\\
5.7071641346436515	0.0\\
5.719078347869905	0.0\\
5.731043812592398	0.0\\
5.743081605224663	0.0\\
5.754964805167301	0.0\\
5.766924225204251	0.0\\
5.778909908339552	0.0\\
5.790787575837337	0.0\\
5.802787056709809	0.0\\
5.814863610726444	0.0\\
5.826876299323905	0.0\\
5.8389118753685505	0.0\\
5.851011652640265	0.0\\
5.862992073523678	0.0\\
5.875025467669014	0.0\\
5.887149532529971	0.0\\
5.899003373824639	0.0\\
5.910988095368955	0.0\\
5.922953928516089	0.0\\
5.934972291971702	0.0\\
5.947133928305675	0.0\\
5.959076622218806	0.0\\
5.9712504312970385	0.0\\
5.983314263777336	0.0\\
5.995408826996401	0.0\\
6.007341595534246	0.0\\
6.019454386509938	0.0\\
6.031505166551105	0.0\\
6.0436840431553165	0.0\\
6.055938019340132	0.0\\
6.067998541252134	0.0\\
6.080009904245738	0.0\\
6.092049530647094	0.0\\
6.104112834131524	0.0\\
6.116189908296162	0.0\\
6.128320016641004	0.0\\
6.1403681849165395	0.0\\
6.152358991427652	0.0\\
6.164351311331648	0.0\\
6.176484802094816	0.0\\
6.188754512339759	0.0\\
6.2008839288010655	0.0\\
6.2131634355656615	0.0\\
6.225393633955292	0.0\\
6.237429645658155	0.0\\
6.2496288345311655	0.0\\
6.261715489527642	0.0\\
6.273921766515617	0.0\\
6.286173201630259	0.0\\
6.29852987438222	0.0\\
6.310515258317141	0.0\\
6.322781858752929	0.0\\
6.335060408276394	0.0\\
6.347251055127137	0.0\\
6.359495727918789	0.0\\
6.371709213965888	0.0\\
6.383940239860095	0.0\\
6.396173464334822	0.0\\
6.4083819062506	0.0\\
6.420603385157197	0.0\\
6.432781107009934	0.0\\
6.445067031542569	0.0\\
6.457459128326711	0.0\\
6.469659583894057	0.0\\
6.48199295276685	0.0\\
6.494234715099994	0.0\\
6.506561497962412	0.0\\
6.518878280632645	0.0\\
6.531342003773387	0.0\\
6.54385895491324	0.0\\
6.556384752534042	0.0\\
6.568808329083934	0.0\\
6.581253627342772	0.0\\
6.593807758340757	0.0\\
6.606138354224019	0.0\\
6.618661432326423	0.0\\
6.631131155600475	0.0\\
6.643494992961928	0.0\\
6.656156734272768	0.0\\
6.66873452738947	0.0\\
6.681173989064115	0.0\\
6.693690454189426	0.0\\
6.706056263225673	0.0\\
6.718476606483515	0.0\\
6.730996963341369	0.0\\
6.743626880942797	0.0\\
6.756078395715859	0.0\\
6.7686585222456745	0.0\\
6.781171227484531	0.0\\
6.793789193197625	0.0\\
6.806287119315895	0.0\\
6.818866873713034	0.0\\
6.831492009989086	0.0\\
6.844264614060961	0.0\\
6.8569021534165735	0.0\\
6.8695121091510725	0.0\\
6.882264796162843	0.0\\
6.89491983111199	0.0\\
6.907591085353928	0.0\\
6.920208227907873	0.0\\
6.932799630927594	0.0\\
6.945502665944698	0.0\\
6.958218269898991	0.0\\
6.971010739585726	0.0\\
6.983757905872528	0.0\\
6.996452115087864	0.0\\
7.009129298377058	0.0\\
7.022006381067559	0.0\\
7.035082386445389	0.0\\
7.047827212455836	0.0\\
7.060592557499026	0.0\\
7.073482702165391	0.0\\
7.086425223806881	0.0\\
7.099317396383393	0.0\\
7.112205166693663	0.0\\
7.125078486780193	0.0\\
7.138085146857954	0.0\\
7.151120016190838	0.0\\
7.164229407448973	0.0\\
7.177278376294659	0.0\\
7.190321758273756	0.0\\
7.2033650619669505	0.0\\
7.216391937412833	0.0\\
7.229587191408179	0.0\\
7.242746501405955	0.0\\
7.255866219064181	0.0\\
7.269045193997574	0.0\\
7.28214977701389	0.0\\
7.295352597947929	0.0\\
7.3084974113430885	0.0\\
7.321705579555299	0.0\\
7.334943596131838	0.0\\
7.348186871421504	0.0\\
7.361460786958824	0.0\\
7.374649427933992	0.0\\
7.388035211755698	0.0\\
7.401406209073773	0.0\\
7.414577357493309	0.0\\
7.427947894998889	0.0\\
7.441329505535812	0.0\\
7.454854566757275	0.0\\
7.468324757618776	0.0\\
7.481880538649383	0.0\\
7.4954724563010835	0.0\\
7.508966228017586	0.0\\
7.522648622332177	0.0\\
7.5361702304924805	0.0\\
7.549881583397356	0.0\\
7.563633647487189	0.0\\
7.577353653380412	0.0\\
7.59098740422589	0.0\\
7.604686424762338	0.0\\
7.618660883923752	0.0\\
7.632410070127563	0.0\\
7.646050142894017	0.0\\
7.6598093086302	0.0\\
7.673615836159648	0.0\\
7.687363177648589	0.0\\
7.70142577281919	0.0\\
7.715380751883265	0.0\\
7.729261007883055	0.0\\
7.743168092408009	0.0\\
7.757286269704538	0.0\\
7.771406250306324	0.0\\
7.785300858379967	0.0\\
7.799479263188649	0.0\\
7.813618976131368	0.0\\
7.82768611553303	0.0\\
7.8416569195749535	0.0\\
7.855791527354258	0.0\\
7.8700743591572735	0.0\\
7.884483963978383	0.0\\
7.898833824402651	0.0\\
7.913127286990047	0.0\\
7.927492049905506	0.0\\
7.941852264395854	0.0\\
7.956550558029839	0.0\\
7.97089234937107	0.0\\
7.98552073496314	0.0\\
8.000169215658389	0.0\\
8.014640426459135	0.0\\
8.029208786617684	0.0\\
8.043805743218133	0.0\\
8.05854494842879	0.0\\
8.073327519250235	0.0\\
8.088026315956785	0.0\\
8.102774849763627	0.0\\
8.117591739726041	0.0\\
8.132461417912221	0.0\\
8.147276406965648	0.0\\
8.162179292137438	0.0\\
8.177140245120448	0.0\\
8.192106166478819	0.0\\
8.207228929942929	0.0\\
8.222319456207654	0.0\\
8.237361699220163	0.0\\
8.252659071274298	0.0\\
8.26773276681098	0.0\\
8.283010005300024	0.0\\
8.298185482011874	0.0\\
8.313229762527591	0.0\\
8.328281657761895	0.0\\
8.343471091938664	0.0\\
8.358498065000276	0.0\\
8.373810206516836	0.0\\
8.389098704104725	0.0\\
8.404528189736016	0.0\\
8.419749743044612	0.0\\
8.434990530290612	0.0\\
8.450149368407565	0.0\\
8.465277946135814	0.0\\
8.480635642891617	0.0\\
8.496061186357121	0.0\\
8.511229635987831	0.0\\
8.526264582896001	0.0\\
8.541457569300832	0.0\\
8.556631014450321	0.0\\
8.57189658321451	0.0\\
8.587024434333344	0.0\\
8.602183832394136	0.0\\
8.617448568542258	0.0\\
8.632605740416796	0.0\\
8.647915435286844	0.0\\
8.66316637797124	0.0\\
8.678222223257325	0.0\\
8.693179349360477	0.0\\
8.708156384327314	0.0\\
8.723207263255762	0.0\\
8.738083603252438	0.0\\
8.752912069742198	0.0\\
8.767789885287211	0.0\\
8.782658512859317	0.0\\
8.797482961111307	0.0\\
8.812227163509437	0.0\\
8.826928689042855	0.0\\
8.841628035004895	0.0\\
8.856101548436307	0.0\\
8.87063118014958	0.0\\
8.885207282874262	0.0\\
8.899696483505664	0.0\\
8.91421148347549	0.0\\
8.917118632614198	0.0\\
8.918680905034716	0.0\\
8.918936205290223	0.0\\
8.919182532663314	0.0\\
8.91978537879432	0.0\\
8.920328523571168	0.0\\
8.922126728915124	0.0\\
8.92705682036356	0.0\\
8.93907576649666	0.0\\
8.951938311234962	0.0\\
8.964803411291111	0.0\\
8.977606812173232	0.0\\
8.990667713916594	0.0\\
9.003676371759308	0.0\\
9.016808784653843	0.0\\
9.029951738797656	0.0\\
9.043085451646636	0.0\\
9.0563369824844	0.0\\
9.069663820974824	0.0\\
9.082953262124278	0.0\\
9.096344611734509	0.0\\
9.109799113583296	0.0\\
9.123387351611733	0.0\\
9.136885980708424	0.0\\
9.150547067566794	0.0\\
9.164194919560284	0.0\\
9.17786508088135	0.0\\
9.191589429726665	0.0\\
9.205294743473974	0.0\\
9.219231743600261	0.0\\
9.233196527811451	0.0\\
9.24718998192451	0.0\\
9.26116353140134	0.0\\
9.275228752773405	0.0\\
9.289345322666591	0.0\\
9.303625769696232	0.0\\
9.317845134456032	0.0\\
9.332057529599322	0.0\\
9.34647966602805	0.0\\
9.36091199528201	0.0\\
9.375379807818618	0.0\\
9.38986020532558	0.0\\
9.404295212337882	0.0\\
9.418870628743932	0.0\\
9.43349982683969	0.0\\
9.448092994827896	0.0\\
9.462712270181314	0.0\\
9.4772666661069	0.0\\
9.492001238108973	0.0\\
9.506671310307027	0.0\\
9.521390497984314	0.0\\
9.536121841736378	0.0\\
9.550928234401272	0.0\\
9.565750394709475	0.0\\
9.580539139176313	0.0\\
9.59543816846536	0.0\\
9.610374515624159	0.0\\
9.625128578314218	0.0\\
9.639910996148718	0.0\\
9.654619381027821	0.0\\
9.669274070084047	0.0\\
9.684012394146897	0.0\\
9.698863531677468	0.0\\
9.713631579805263	0.0\\
9.728396311392423	0.0\\
9.742925958044072	0.0\\
9.757557199652208	0.0\\
9.772136303185675	0.0\\
9.786671625869207	0.0\\
9.801380266375357	0.0\\
9.81591713065141	0.0\\
9.830507324764167	0.0\\
9.844973556167336	0.0\\
9.85952901971276	0.0\\
9.874094726574118	0.0\\
9.888649851746102	0.0\\
9.903078008919358	0.0\\
9.917523826035811	0.0\\
9.932053833630043	0.0\\
9.946360111454997	0.0\\
9.960593708720559	0.0\\
9.97487410906816	0.0\\
9.98917640582285	0.0\\
10.00342511151462	0.0\\
10.01767415525876	0.0\\
10.031952699507755	0.0\\
10.04617091788909	0.0\\
10.060281761829128	0.0\\
10.074480340834157	0.0\\
10.08860602176005	0.0\\
10.10268475090686	0.0\\
10.116661500196432	0.0\\
10.130662303229922	0.0\\
10.144767627656027	0.0\\
10.158842050833915	0.0\\
10.172873000914397	0.0\\
10.186853649243684	0.0\\
10.20093562775013	0.0\\
10.214965442710795	0.0\\
10.228940996449545	0.0\\
10.24276857458256	0.0\\
10.25677172352636	0.0\\
10.270574673428921	0.0\\
10.284492381080195	0.0\\
10.298287164596996	0.0\\
10.31218382736224	0.0\\
10.325926002377884	0.0\\
10.339768116092031	0.0\\
10.353554940138324	0.0\\
10.367198824531386	0.0\\
10.381027599845293	0.0\\
10.39485818148324	0.0\\
10.40866991299173	0.0\\
10.422275760798808	0.0\\
10.436035248296577	0.0\\
10.449743604748438	0.0\\
10.463388959646501	0.0\\
10.477061685124884	0.0\\
10.490804754111444	0.0\\
10.504485347739681	0.0\\
10.518085270730637	0.0\\
10.531755106850305	0.0\\
10.545456967900908	0.0\\
10.559144023506871	0.0\\
10.57272884450462	0.0\\
10.586325321786337	0.0\\
10.599868549246068	0.0\\
10.613495004555972	0.0\\
10.627079082436982	0.0\\
10.640675190681016	0.0\\
10.654244229490473	0.0\\
10.667806112262266	0.0\\
10.681439316095968	0.0\\
10.694918328081098	0.0\\
10.708414258852788	0.0\\
10.722058433472725	0.0\\
10.735588132869747	0.0\\
10.74910164079931	0.0\\
10.762668257150004	0.0\\
10.776137759002065	0.0\\
10.78966459236321	0.0\\
10.803212498786674	0.0\\
10.81670645012585	0.0\\
10.830134008958314	0.0\\
10.843605552910265	0.0\\
10.857028797677561	0.0\\
10.870464645699684	0.0\\
10.883951685976797	0.0\\
10.897406156753839	0.0\\
10.910864633955402	0.0\\
10.92428434031941	0.0\\
10.937680364791891	0.0\\
10.951146704552073	0.0\\
10.964599199391579	0.0\\
10.978102569773778	0.0\\
10.99152518190676	0.0\\
11.005010353955768	0.0\\
11.018501661725104	0.0\\
11.031957722183872	0.0\\
11.045430985342716	0.0\\
11.058998048090945	0.0\\
11.072466703366821	0.0\\
11.085880100834718	0.0\\
11.099398804139025	0.0\\
11.112858490350355	0.0\\
11.126398090875878	0.0\\
11.139928277847371	0.0\\
11.15342083976703	0.0\\
11.166907150940244	0.0\\
11.18043628406026	0.0\\
11.193941297046681	0.0\\
11.207444566796163	0.0\\
11.22086598852314	0.0\\
11.234418647888859	0.0\\
11.247945161237727	0.0\\
11.261490010644238	0.0\\
11.275010230274674	0.0\\
11.288607839621989	0.0\\
11.302172975607345	0.0\\
11.315714970229351	0.0\\
11.329250260077885	0.0\\
11.34278558823464	0.0\\
11.356305274103871	0.0\\
11.369839981928187	0.0\\
11.383508730353043	0.0\\
11.39711249289828	0.0\\
11.410719182162751	0.0\\
11.424413599520413	0.0\\
11.438127049989415	0.0\\
11.451875055238204	0.0\\
11.465452531915023	0.0\\
11.47907483111446	0.0\\
11.492746587362365	0.0\\
11.50643411765828	0.0\\
11.520112602795496	0.0\\
11.533702638297171	0.0\\
11.547478658043179	0.0\\
11.561205411249741	0.0\\
11.57490618493794	0.0\\
11.588592267312457	0.0\\
11.602372787271548	0.0\\
11.616136404296835	0.0\\
11.629817551818068	0.0\\
11.643681689362491	0.0\\
11.657482205305751	0.0\\
11.671285244299437	0.0\\
11.685157434571156	0.0\\
11.699044308721877	0.0\\
11.71290263398042	0.0\\
11.726787148222133	0.0\\
11.7406820592848	0.0\\
11.754578588547016	0.0\\
11.768484542727592	0.0\\
11.782423946488361	0.0\\
11.796420365667736	0.0\\
11.810326856561762	0.0\\
11.824307398603324	0.0\\
11.838200221895672	0.0\\
11.852276426330931	0.0\\
11.86625504767045	0.0\\
11.880329010132495	0.0\\
11.894379898540208	0.0\\
11.908366904980571	0.0\\
11.922452000251866	0.0\\
11.936577533615708	0.0\\
11.950737092310408	0.0\\
11.964903217428272	0.0\\
11.97913453758639	0.0\\
11.993268776415082	0.0\\
12.00748051820906	0.0\\
12.021778438797533	0.0\\
12.03605809034908	0.0\\
12.050326060681545	0.0\\
12.064627908499887	0.0\\
12.078932092364816	0.0\\
12.09326678307017	0.0\\
12.107580727509628	0.0\\
12.12193500146578	0.0\\
12.13630451906376	0.0\\
12.150830025253708	0.0\\
12.165232624797586	0.0\\
12.179816958843688	0.0\\
12.194343700415736	0.0\\
12.20895937364536	0.0\\
12.2234973897144	0.0\\
12.238138888077025	0.0\\
12.252811028537401	0.0\\
12.267426500072375	0.0\\
12.282067049090337	0.0\\
12.296768860813089	0.0\\
12.311526181042314	0.0\\
12.326200513755644	0.0\\
12.340931006426047	0.0\\
12.355776564048966	0.0\\
12.370659041129208	0.0\\
12.3855888736324	0.0\\
12.400492917935562	0.0\\
12.415427421545207	0.0\\
12.430369206648813	0.0\\
12.445398446782217	0.0\\
12.46041005799977	0.0\\
12.475488843418677	0.0\\
12.490682964362318	0.0\\
12.50581100958022	0.0\\
12.520980968712038	0.0\\
12.536220719431718	0.0\\
12.55152384341444	0.0\\
12.566881875189722	0.0\\
12.58218070909971	0.0\\
12.597579944669526	0.0\\
12.613195145283218	0.0\\
12.62864785566265	0.0\\
12.644275505926664	0.0\\
12.659958574353531	0.0\\
12.675652408403966	0.0\\
12.691481899364899	0.0\\
12.707245007648549	0.0\\
12.723133489562695	0.0\\
12.73900002276433	0.0\\
12.754951567022445	0.0\\
12.77094787358411	0.0\\
12.787120687629919	0.0\\
12.80324608641163	0.0\\
12.819422277458909	0.0\\
12.835563292769713	0.0\\
12.851995041052646	0.0\\
12.868284855937691	0.0\\
12.884864948018368	0.0\\
12.901529431766672	0.0\\
12.918103154174783	0.0\\
12.934829773067136	0.0\\
12.951597899996198	0.0\\
12.968417110558192	0.0\\
12.985343960535303	0.0\\
13.002221728313152	0.0\\
13.019273578968868	0.0\\
13.036431024629394	0.0\\
13.05372853682196	0.0\\
13.071181418049704	0.0\\
13.088632320522532	0.0\\
13.10621621741986	0.0\\
13.123884048629822	0.0\\
13.14186384694803	0.0\\
13.159683297804722	0.0\\
13.17751726223893	0.0\\
13.195563182953485	0.0\\
13.213675740677566	0.0\\
13.23175186095619	0.0\\
13.24993547265693	0.0\\
13.268361379487352	0.0\\
13.286831664408144	0.0\\
13.305492144132149	0.0\\
13.324161014964126	0.0\\
13.342725594373103	0.0\\
13.361602843226834	0.0\\
13.380215787649092	0.0\\
13.398891307177717	0.0\\
13.417616876825964	0.0\\
13.436418560612715	0.0\\
13.455179620043907	0.0\\
13.473879423150287	0.0\\
13.4924400853523	0.0\\
13.510937883884385	0.0\\
13.529301808977849	0.0\\
13.547774558538126	0.0\\
13.566177428819852	0.0\\
13.584257539252363	0.0\\
13.60234070595192	0.0\\
13.620336496074103	0.0\\
13.63832846337883	0.0\\
13.656182707896026	0.0\\
13.673780807319496	0.0\\
13.691367209141557	0.0\\
13.708910892895162	0.0\\
13.726245700862112	0.0\\
13.743603889667188	0.0\\
13.760754107368157	0.0\\
13.777642694258883	0.0\\
13.794574796696132	0.0\\
13.81137080070545	0.0\\
13.82801747441923	0.0\\
13.844530621257107	0.0\\
13.8609520202663	0.0\\
13.877321946628943	0.0\\
13.893634449527816	0.0\\
13.90985014138123	0.0\\
13.925989900368098	0.0\\
13.942051025820206	0.0\\
13.95805019644169	0.0\\
13.961233898662456	0.0\\
13.963138247233513	0.0\\
13.964283386829049	0.0\\
13.964544526640744	0.0\\
13.965780788681517	0.0\\
13.9669040451578	0.0\\
13.971254757173565	0.0\\
13.982797625380567	0.0\\
13.99655902625117	0.0\\
14.01037235613093	0.0\\
14.024323469607229	0.0\\
14.038256599047813	0.0\\
14.052253026931169	0.0\\
14.066268816033556	0.0\\
14.080459221687807	0.0\\
14.094690801733773	0.0\\
14.108975260458372	0.0\\
14.123397303621005	0.0\\
14.137868142044617	0.0\\
14.152368014996952	0.0\\
14.167067414803988	0.0\\
14.1817838022884	0.0\\
14.196534674566433	0.0\\
14.211458274492522	0.0\\
14.226398004408125	0.0\\
14.241486950428811	0.0\\
14.256668075431932	0.0\\
14.271936342912106	0.0\\
14.287322962641454	0.0\\
14.30274477427474	0.0\\
14.318344468449212	0.0\\
14.333997035142794	0.0\\
14.34968570326205	0.0\\
14.365542851994618	0.0\\
14.381543132797958	0.0\\
14.397666004106533	0.0\\
14.41392904077939	0.0\\
14.430276157469798	0.0\\
14.446700942453965	0.0\\
14.463346151004188	0.0\\
14.480085377612134	0.0\\
14.49686487665722	0.0\\
14.513724640811244	0.0\\
14.530741496135146	0.0\\
14.547910425076086	0.0\\
14.565240146431147	0.0\\
14.582361055045332	0.0\\
14.599633525108938	0.0\\
14.617057364028643	0.0\\
14.634563836634811	0.0\\
14.651895042021934	0.0\\
14.6692608785484	0.0\\
14.686700716819338	0.0\\
14.704202715164023	0.0\\
14.721565712003503	0.0\\
14.738924980989044	0.0\\
14.75608459833174	0.0\\
14.773263819216027	0.0\\
14.790402817425797	0.0\\
14.807376183035025	0.0\\
14.824389211938552	0.0\\
14.841328413349107	0.0\\
14.858217627277078	0.0\\
14.874954851773126	0.0\\
14.891466356320581	0.0\\
14.90799748630285	0.0\\
14.924500921061288	0.0\\
14.94081502260795	0.0\\
14.957050414305137	0.0\\
14.97322531861574	0.0\\
14.989405245041418	0.0\\
15.00548865850826	0.0\\
15.021388800039887	0.0\\
15.037292086485241	0.0\\
15.053141347905342	0.0\\
15.068974972998863	0.0\\
15.084776396353153	0.0\\
15.100609503124733	0.0\\
15.116310874542705	0.0\\
15.131988730949825	0.0\\
15.147503327962461	0.0\\
15.162975208360425	0.0\\
15.17848528844311	0.0\\
15.19378814827353	0.0\\
15.209124301292942	0.0\\
15.224402761971032	0.0\\
15.23962289641685	0.0\\
15.254835270656276	0.0\\
15.269983716597391	0.0\\
15.28502202556567	0.0\\
15.300111146996365	0.0\\
15.315173331243948	0.0\\
15.330113556790778	0.0\\
15.34527739228847	0.0\\
15.360213142035686	0.0\\
15.375136469211217	0.0\\
15.390053699829505	0.0\\
15.404873199233709	0.0\\
15.419627062256826	0.0\\
15.434376826964378	0.0\\
15.449145371305843	0.0\\
15.463867559014794	0.0\\
15.478551460677103	0.0\\
15.493296174621275	0.0\\
15.507924190464422	0.0\\
15.522533792003262	0.0\\
15.537159654019344	0.0\\
15.551681813230445	0.0\\
15.56619345459023	0.0\\
15.58076738231972	0.0\\
15.595266475318908	0.0\\
15.60973020635329	0.0\\
15.62421797246753	0.0\\
15.638704001460876	0.0\\
15.65311928283089	0.0\\
15.66758783881794	0.0\\
15.681940891467892	0.0\\
15.696365856343466	0.0\\
15.710711879827162	0.0\\
15.72507685696235	0.0\\
15.73943799046841	0.0\\
15.753771979680202	0.0\\
15.768086790935378	0.0\\
15.782407183555048	0.0\\
15.796767403102528	0.0\\
15.81101501584645	0.0\\
15.82530755769356	0.0\\
15.839609961152984	0.0\\
15.85387446362692	0.0\\
15.868136953671225	0.0\\
15.882358131539036	0.0\\
15.896630688546605	0.0\\
15.910841220564201	0.0\\
15.92515169221221	0.0\\
15.939349831380667	0.0\\
15.95349969057187	0.0\\
15.96767962056552	0.0\\
15.981808120406559	0.0\\
15.995971001823918	0.0\\
16.010142772401956	0.0\\
16.02429692138662	0.0\\
16.038477709388673	0.0\\
16.05268771593144	0.0\\
16.066770099158063	0.0\\
16.080902354847588	0.0\\
16.095001798718073	0.0\\
16.109141650628835	0.0\\
16.123286017320396	0.0\\
16.13746658064668	0.0\\
16.15164675014818	0.0\\
16.165726864258538	0.0\\
16.179784767775637	0.0\\
16.193910034269663	0.0\\
16.208035814658892	0.0\\
16.222245354617407	0.0\\
16.236322669401503	0.0\\
16.250496748567194	0.0\\
16.26463416576083	0.0\\
16.2787508225138	0.0\\
16.292953253396377	0.0\\
16.307116060452067	0.0\\
16.321222622416116	0.0\\
16.33533540957857	0.0\\
16.3494311833514	0.0\\
16.36360030609749	0.0\\
16.37774917598604	0.0\\
16.391856018752136	0.0\\
16.405960057631816	0.0\\
16.420036954268937	0.0\\
16.43417854033823	0.0\\
16.44828659375461	0.0\\
16.462380382654004	0.0\\
16.476458374404345	0.0\\
16.490555744902693	0.0\\
16.504668730680628	0.0\\
16.51888629319003	0.0\\
16.533042006618203	0.0\\
16.547170037185765	0.0\\
16.561321538036538	0.0\\
16.57553454738092	0.0\\
16.589640438348603	0.0\\
16.603862908489866	0.0\\
16.617987749541882	0.0\\
16.63223692352142	0.0\\
16.646432964583703	0.0\\
16.660576306353676	0.0\\
16.674754614508835	0.0\\
16.689029122745183	0.0\\
16.703243930340534	0.0\\
16.717382096828743	0.0\\
16.731660908138977	0.0\\
16.74592803882259	0.0\\
16.760216487742156	0.0\\
16.774424560710315	0.0\\
16.78876113778253	0.0\\
16.80305886482045	0.0\\
16.81737442551273	0.0\\
16.831680062881823	0.0\\
16.845968082012327	0.0\\
16.860301033624218	0.0\\
16.874602279615488	0.0\\
16.889016753445453	0.0\\
16.903377722288468	0.0\\
16.917777153336367	0.0\\
16.932191244807214	0.0\\
16.94662306815883	0.0\\
16.961017333529483	0.0\\
16.975434102566076	0.0\\
16.989821428968263	0.0\\
17.004326777461863	0.0\\
17.01874590819515	0.0\\
17.03323245801694	0.0\\
17.04770848569367	0.0\\
17.06212034692308	0.0\\
17.076646368106495	0.0\\
17.09120217310705	0.0\\
17.105760926037114	0.0\\
17.120337607623156	0.0\\
17.134897773850064	0.0\\
17.149393526729952	0.0\\
17.16392884069858	0.0\\
17.17858028952149	0.0\\
17.193225591231794	0.0\\
17.20779322093395	0.0\\
17.222437346172484	0.0\\
17.237098891788534	0.0\\
17.251786089526327	0.0\\
17.266506329238013	0.0\\
17.28123185428325	0.0\\
17.295963722122117	0.0\\
17.31075000257487	0.0\\
17.325524884777245	0.0\\
17.340344189093223	0.0\\
17.355178635400684	0.0\\
17.37002346363056	0.0\\
17.384930333929887	0.0\\
17.399853073459674	0.0\\
17.41477425887313	0.0\\
17.429685256269394	0.0\\
17.44464962084541	0.0\\
17.45955558964379	0.0\\
17.47447140172804	0.0\\
17.489506811883167	0.0\\
17.504563315332064	0.0\\
17.519627589169552	0.0\\
17.53479183136446	0.0\\
17.549905231575003	0.0\\
17.56502983930556	0.0\\
17.580146771610828	0.0\\
17.595420053416795	0.0\\
17.610654855842412	0.0\\
17.625897148800085	0.0\\
17.641199605916704	0.0\\
17.65646538864651	0.0\\
17.67182056445096	0.0\\
17.68714305361572	0.0\\
17.70253591253725	0.0\\
17.717938028179134	0.0\\
17.733387041604253	0.0\\
17.74882672664218	0.0\\
17.764364105821798	0.0\\
17.779926428397914	0.0\\
17.795489140621086	0.0\\
17.811078140428222	0.0\\
17.8267536373111	0.0\\
17.842435787178232	0.0\\
17.85818298194063	0.0\\
17.873904806808135	0.0\\
17.88966516606677	0.0\\
17.905492644987746	0.0\\
17.921341146112447	0.0\\
17.93717097288991	0.0\\
17.953102126585414	0.0\\
17.969025582531565	0.0\\
17.984952587736842	0.0\\
18.00102378015616	0.0\\
18.017126707495855	0.0\\
18.033302540988068	0.0\\
18.049491458515895	0.0\\
18.065751709768627	0.0\\
18.081995175871953	0.0\\
18.09832224616838	0.0\\
18.114658848218063	0.0\\
18.131108758882128	0.0\\
18.14760632243226	0.0\\
18.16412390674278	0.0\\
18.18070575323557	0.0\\
18.19736241940668	0.0\\
18.21411856609189	0.0\\
18.230857792721878	0.0\\
18.247679795286167	0.0\\
18.264563036196144	0.0\\
18.281503921993682	0.0\\
18.298555191307813	0.0\\
18.315606853461865	0.0\\
18.332794992375	0.0\\
18.34998241610728	0.0\\
18.367273899849813	0.0\\
18.384581280923207	0.0\\
18.40199890389188	0.0\\
18.41957159502978	0.0\\
18.437182523981065	0.0\\
18.45484283878114	0.0\\
18.472584255360097	0.0\\
18.490576964381795	0.0\\
18.508586332157186	0.0\\
18.52666967655857	0.0\\
18.544800135939795	0.0\\
18.56292754244076	0.0\\
18.58113178638017	0.0\\
18.599523694847115	0.0\\
18.618216632979042	0.0\\
18.637136785649517	0.0\\
18.656135444669133	0.0\\
18.675067336022778	0.0\\
18.694107816441935	0.0\\
18.713468805508164	0.0\\
18.73299335657149	0.0\\
18.752696481274818	0.0\\
18.772412805088614	0.0\\
18.79242304083637	0.0\\
18.81264494974426	0.0\\
18.833146470950176	0.0\\
18.853857610572874	0.0\\
18.874816493417143	0.0\\
18.89605782141826	0.0\\
18.917481704088814	0.0\\
18.939462787938318	0.0\\
18.961577258418117	0.0\\
18.983694146939463	0.0\\
19.006054699848832	0.0\\
19.028789506424424	0.0\\
19.051390640164165	0.0\\
19.07430086056798	0.0\\
19.097252420674728	0.0\\
19.12008880550553	0.0\\
19.14282853458075	0.0\\
19.165280287141513	0.0\\
19.18763038965951	0.0\\
19.20967225199235	0.0\\
19.231391178460477	0.0\\
19.252834888102377	0.0\\
19.273980107356742	0.0\\
19.29489363819261	0.0\\
19.315450935689412	0.0\\
19.33599859528544	0.0\\
19.35610365170667	0.0\\
19.376032735228343	0.0\\
19.395805938527452	0.0\\
19.415322712502785	0.0\\
19.434668069957816	0.0\\
19.453847633016125	0.0\\
19.472891998636882	0.0\\
19.49175075723106	0.0\\
19.510446147875847	0.0\\
19.529006428040233	0.0\\
19.547440041493523	0.0\\
19.565744134342644	0.0\\
19.58398772211534	0.0\\
19.601928128761053	0.0\\
19.619887309471437	0.0\\
19.637668909678943	0.0\\
19.655341276307233	0.0\\
19.67286983414005	0.0\\
19.690386364175602	0.0\\
19.707717421503517	0.0\\
19.72502498040948	0.0\\
19.742175475045677	0.0\\
19.759351630929913	0.0\\
19.77640027128937	0.0\\
19.77979639344351	0.0\\
19.7899579508926	0.0\\
19.790625962535692	0.0\\
19.79119579678811	0.0\\
19.79147972085798	0.0\\
19.79166410860224	0.0\\
19.791876158004186	0.0\\
19.7929497896343	0.0\\
19.797138839418096	0.0\\
19.809848626659033	0.0\\
19.826236314842028	0.0\\
19.842810508857845	0.0\\
19.859428169955727	0.0\\
19.87615524586822	0.0\\
19.89298365821446	0.0\\
19.90997457677544	0.0\\
19.927000737013174	0.0\\
19.944099147628286	0.0\\
19.961294097288842	0.0\\
19.97866156624498	0.0\\
19.996099174397827	0.0\\
20.013738748314083	0.0\\
20.031333187981616	0.0\\
20.049133250858475	0.0\\
20.067115358790083	0.0\\
20.08512016545756	0.0\\
20.103326754027414	0.0\\
20.12166803635987	0.0\\
20.14017892875465	0.0\\
20.15885448995887	0.0\\
20.177692339000217	0.0\\
20.19665004516576	0.0\\
20.21593751799756	0.0\\
20.23520550957101	0.0\\
20.254717722838762	0.0\\
20.27443107845051	0.0\\
20.29439408559871	0.0\\
20.314601193496763	0.0\\
20.335038463106436	0.0\\
20.35571258206422	0.0\\
20.37642755043089	0.0\\
20.397461792422796	0.0\\
20.418634787318837	0.0\\
20.44007648795847	0.0\\
20.4616586549989	0.0\\
20.48327867211013	0.0\\
20.504905614576224	0.0\\
20.52664324149997	0.0\\
20.548329237972233	0.0\\
20.569867815354414	0.0\\
20.591430231224727	0.0\\
20.61291219742163	0.0\\
20.6342308367973	0.0\\
20.655465979256945	0.0\\
20.676476756853916	0.0\\
20.69731517061762	0.0\\
20.717987625972107	0.0\\
20.738536717092188	0.0\\
20.758918049017005	0.0\\
20.77916477132353	0.0\\
20.79917706475387	0.0\\
20.81917384810457	0.0\\
20.83887576151573	0.0\\
20.858536962953494	0.0\\
20.877973407916947	0.0\\
20.897433399870316	0.0\\
20.91673747662734	0.0\\
20.935833076746633	0.0\\
20.954791117623735	0.0\\
20.973644213315858	0.0\\
20.992450748150993	0.0\\
21.011097069153628	0.0\\
21.02971847140727	0.0\\
21.04818328693657	0.0\\
21.066654135762803	0.0\\
21.08495634002408	0.0\\
21.103311887591154	0.0\\
21.121578827611216	0.0\\
21.139655517605938	0.0\\
21.157771653188547	0.0\\
21.175846883933545	0.0\\
21.19377057746106	0.0\\
21.211623167398308	0.0\\
21.229536357699182	0.0\\
21.247303944555043	0.0\\
21.26506952633101	0.0\\
21.282746748350277	0.0\\
21.300342795023788	0.0\\
21.317989025957708	0.0\\
21.335600554202777	0.0\\
21.353051417203325	0.0\\
21.37055616867501	0.0\\
21.387952164890045	0.0\\
21.40524859691073	0.0\\
21.422501694886755	0.0\\
21.439760393320093	0.0\\
21.456990359089104	0.0\\
21.474212778159277	0.0\\
21.491373882437507	0.0\\
21.508563847903723	0.0\\
21.525635314621752	0.0\\
21.542702723684023	0.0\\
21.559798683699007	0.0\\
21.576762765211186	0.0\\
21.593705424434965	0.0\\
21.610700381027158	0.0\\
21.627659042143016	0.0\\
21.644583469773103	0.0\\
21.66144315091052	0.0\\
21.678330814700693	0.0\\
21.69514460089445	0.0\\
21.711945709226697	0.0\\
21.728748190971103	0.0\\
21.745472768138228	0.0\\
21.76219599560452	0.0\\
21.778915413075033	0.0\\
21.795617271551258	0.0\\
21.81228345090335	0.0\\
21.828940547239746	0.0\\
21.845610423734016	0.0\\
21.86222051425206	0.0\\
21.878982274411158	0.0\\
21.895642419721725	0.0\\
21.912259988297798	0.0\\
21.928891928241725	0.0\\
21.945395105069196	0.0\\
21.961965538201284	0.0\\
21.978570076548714	0.0\\
21.995102185819626	0.0\\
22.011606562501633	0.0\\
22.028172415007717	0.0\\
22.044666662033627	0.0\\
22.061203407560967	0.0\\
22.07772726430767	0.0\\
22.09420096472507	0.0\\
22.110711195316007	0.0\\
22.127141812435895	0.0\\
22.1436066717527	0.0\\
22.160057294789	0.0\\
22.17652734237361	0.0\\
22.19301818453146	0.0\\
22.209473821582115	0.0\\
22.225884348309656	0.0\\
22.24227974454714	0.0\\
22.25870366700174	0.0\\
22.27515761422027	0.0\\
22.291592988826388	0.0\\
22.308016771480688	0.0\\
22.32447396614363	0.0\\
22.3408688712694	0.0\\
22.357230697811346	0.0\\
22.373681452362057	0.0\\
22.39015445799337	0.0\\
22.4065711655306	0.0\\
22.423013009588978	0.0\\
22.439437427525462	0.0\\
22.455919743802134	0.0\\
22.472325859234836	0.0\\
22.48868440389782	0.0\\
22.505184494784764	0.0\\
22.521614299206668	0.0\\
22.538046937254407	0.0\\
22.55448142386888	0.0\\
22.570860969008592	0.0\\
22.587346771606185	0.0\\
22.603807839895104	0.0\\
22.62019840574083	0.0\\
22.63661010646826	0.0\\
22.65307980279632	0.0\\
22.669517434737223	0.0\\
22.685976369134515	0.0\\
22.70238744936527	0.0\\
22.718880593288738	0.0\\
22.73533163428136	0.0\\
22.751813758730144	0.0\\
22.768340961579156	0.0\\
22.78480386304073	0.0\\
22.801321935121123	0.0\\
22.8178337901275	0.0\\
22.834358869809066	0.0\\
22.85085201914149	0.0\\
22.867395115208126	0.0\\
22.883841235544146	0.0\\
22.900317194264915	0.0\\
22.91684996031909	0.0\\
22.933407992086273	0.0\\
22.949971227018438	0.0\\
22.966462695974336	0.0\\
22.983066110292505	0.0\\
22.999630287064285	0.0\\
23.016157220501093	0.0\\
23.032763556981138	0.0\\
23.049352108875716	0.0\\
23.065924069872757	0.0\\
23.082503518011023	0.0\\
23.099189021083376	0.0\\
23.11580262497587	0.0\\
23.132393656410123	0.0\\
23.149096096757383	0.0\\
23.16571489901999	0.0\\
23.182391021590604	0.0\\
23.199129262150876	0.0\\
23.215805686358422	0.0\\
23.232473530122952	0.0\\
23.249130920442106	0.0\\
23.26586334352927	0.0\\
23.28263346853896	0.0\\
23.299363505387745	0.0\\
23.316163060757212	0.0\\
23.332886186082	0.0\\
23.349640381771806	0.0\\
23.366441718807053	0.0\\
23.383291659356814	0.0\\
23.400194961544486	0.0\\
23.417038954973314	0.0\\
23.433902081079026	0.0\\
23.450848396648944	0.0\\
23.4677392497775	0.0\\
23.484620325713912	0.0\\
23.501577168822372	0.0\\
23.518541907460722	0.0\\
23.53556024624526	0.0\\
23.55250153457171	0.0\\
23.569432464488088	0.0\\
23.58646948986228	0.0\\
23.60354700128731	0.0\\
23.620564771991646	0.0\\
23.6376473805851	0.0\\
23.654797335252162	0.0\\
23.671884679890724	0.0\\
23.689092729412614	0.0\\
23.70620822880184	0.0\\
23.72343290495813	0.0\\
23.74062777536843	0.0\\
23.757898854580766	0.0\\
23.77519349352491	0.0\\
23.792525564951262	0.0\\
23.809824579941804	0.0\\
23.827112501172373	0.0\\
23.844500652024706	0.0\\
23.8617969412988	0.0\\
23.879175481425186	0.0\\
23.89661589411555	0.0\\
23.91408627380612	0.0\\
23.93160606330362	0.0\\
23.94910878431081	0.0\\
23.966614203265593	0.0\\
23.984140143833436	0.0\\
24.00169301414521	0.0\\
24.01926033622741	0.0\\
24.03682212461802	0.0\\
24.05444131808681	0.0\\
24.07210532320827	0.0\\
24.08979406969187	0.0\\
24.107486495059824	0.0\\
24.125229743387884	0.0\\
24.142997019647787	0.0\\
24.160839920822887	0.0\\
24.178644055268315	0.0\\
24.1964036602604	0.0\\
24.214338207089938	0.0\\
24.232312168255525	0.0\\
24.250263622714854	0.0\\
24.26824924329226	0.0\\
24.286296309902028	0.0\\
24.30433709084415	0.0\\
24.32249385967947	0.0\\
24.340589681097924	0.0\\
24.358752281662014	0.0\\
24.376968823486905	0.0\\
24.395177103459837	0.0\\
24.413412187530064	0.0\\
24.43174820577798	0.0\\
24.450129293946198	0.0\\
24.468570689364206	0.0\\
24.48698731393246	0.0\\
24.505510522219048	0.0\\
24.52396999643654	0.0\\
24.54255661925726	0.0\\
24.561150247440388	0.0\\
24.579779396074613	0.0\\
24.598515947494533	0.0\\
24.617331262279215	0.0\\
24.636054079134027	0.0\\
24.654896338530378	0.0\\
24.673757249796402	0.0\\
24.692689456329887	0.0\\
24.711608237105395	0.0\\
24.73063497509029	0.0\\
24.749684553920922	0.0\\
24.76880180126024	0.0\\
24.78792540502065	0.0\\
24.80715676504694	0.0\\
24.826439280188744	0.0\\
24.845741105825333	0.0\\
24.865185863006758	0.0\\
24.884617444819384	0.0\\
24.90409238630062	0.0\\
24.92371661663595	0.0\\
24.94341072356827	0.0\\
24.963072437607202	0.0\\
24.98285172735921	0.0\\
25.002691624982177	0.0\\
25.022464372154552	0.0\\
25.042367344890557	0.0\\
25.062390486918247	0.0\\
25.082615110561207	0.0\\
25.1027850539134	0.0\\
25.123061398844214	0.0\\
25.143424421370185	0.0\\
25.163942003165708	0.0\\
25.18449490676013	0.0\\
25.20513278165506	0.0\\
25.225811135680694	0.0\\
25.246577057374473	0.0\\
25.267522284632975	0.0\\
25.28856341245838	0.0\\
25.30969146116555	0.0\\
25.33090436394057	0.0\\
25.35212789440955	0.0\\
25.373602176334025	0.0\\
25.378179902184932	0.0\\
25.395087662237025	0.0\\
25.41666979010555	0.0\\
25.43853460494202	0.0\\
25.46058081789328	0.0\\
25.48276538653935	0.0\\
25.50511496224003	0.0\\
25.52755654277248	0.0\\
25.550211229223677	0.0\\
25.572974142298307	0.0\\
25.595859542598426	0.0\\
25.618922518151635	0.0\\
25.64224021061989	0.0\\
25.665828548824507	0.0\\
25.689664163863526	0.0\\
25.713575335518804	0.0\\
25.737887839287907	0.0\\
25.762415774519468	0.0\\
25.78740866334676	0.0\\
25.812632850434547	0.0\\
25.838134236983336	0.0\\
25.863811976967817	0.0\\
25.889932967245784	0.0\\
25.916419349737915	0.0\\
25.9435880245668	0.0\\
25.971130367520885	0.0\\
25.999262393197625	0.0\\
26.02803586451688	0.0\\
26.057168773211615	0.0\\
26.086629587479578	0.0\\
26.11696270333116	0.0\\
26.147571474741923	0.0\\
26.178358263884057	0.0\\
26.208886487831798	0.0\\
26.238968180585772	0.0\\
26.26856760200574	0.0\\
26.297703613687382	0.0\\
26.326235717240635	0.0\\
26.35426388676811	0.0\\
26.381760212929272	0.0\\
26.408761678111986	0.0\\
26.435347772987342	0.0\\
26.461636751603336	0.0\\
26.487554107268735	0.0\\
26.513128524221287	0.0\\
26.538421719923804	0.0\\
26.56340919541786	0.0\\
26.588165088606587	0.0\\
26.61268161549622	0.0\\
26.636994615100278	0.0\\
26.661054472478114	0.0\\
26.68493948832905	0.0\\
26.7085837469225	0.0\\
26.732079553270296	0.0\\
26.755456251352193	0.0\\
26.77860292629059	0.0\\
26.801576816151403	0.0\\
26.8244437714893	0.0\\
26.8472323088262	0.0\\
26.86981190748407	0.0\\
26.892344461967397	0.0\\
26.914727621027374	0.0\\
26.937020837793654	0.0\\
26.959209682305698	0.0\\
26.981226058177263	0.0\\
26.985620576496885	0.0\\
26.98856424761032	0.0\\
26.990277879815906	0.0\\
26.991496561200982	0.0\\
26.99237223810934	0.0\\
26.992782766114857	0.0\\
26.993021665696403	0.0\\
26.993319472310105	0.0\\
26.995108329058652	0.0\\
27.00206133067551	0.0\\
27.021118506502916	0.0\\
27.043868949554074	0.0\\
27.066738018088756	0.0\\
27.089832979672813	0.0\\
27.11299684800656	0.0\\
27.13646926944353	0.0\\
27.16016780019529	0.0\\
27.184202226016737	0.0\\
27.20839783501085	0.0\\
27.232912441761783	0.0\\
27.257642473655117	0.0\\
27.2826816440382	0.0\\
27.30820492202198	0.0\\
27.333908003987474	0.0\\
27.35990940768378	0.0\\
27.386338932357674	0.0\\
27.413077979582248	0.0\\
27.440354714123508	0.0\\
27.46794226823112	0.0\\
27.49594558967418	0.0\\
27.524298177345386	0.0\\
27.552917424609056	0.0\\
27.581796255787147	0.0\\
27.61104262145672	0.0\\
27.640252311712352	0.0\\
27.669473676866204	0.0\\
27.69846231658549	0.0\\
27.72725475887995	0.0\\
27.755818818175648	0.0\\
27.783999967524387	0.0\\
27.81199736802185	0.0\\
27.839568886294593	0.0\\
27.866825679622806	0.0\\
27.894003829447634	0.0\\
27.920897493455854	0.0\\
27.947372482710655	0.0\\
27.973583585672344	0.0\\
27.999711772224714	0.0\\
28.02540075818819	0.0\\
28.050998970767786	0.0\\
28.07641855693179	0.0\\
28.101648051613026	0.0\\
28.1267722305423	0.0\\
28.151688873103446	0.0\\
28.176456469557223	0.0\\
28.201121722247073	0.0\\
28.22563342621506	0.0\\
28.250024794451356	0.0\\
28.27427864137151	0.0\\
28.298436507903006	0.0\\
28.322540257582055	0.0\\
28.346559760544103	0.0\\
28.370364530033534	0.0\\
28.39412203927312	0.0\\
28.41781704190717	0.0\\
28.441379647876133	0.0\\
28.464943582766033	0.0\\
28.488330263167597	0.0\\
28.511740708266622	0.0\\
28.535112294531096	0.0\\
28.558459245459105	0.0\\
28.58175745033475	0.0\\
28.604809352568324	0.0\\
28.627929053039892	0.0\\
28.650962003458027	0.0\\
28.673987394909062	0.0\\
28.696961988850816	0.0\\
28.71990755612208	0.0\\
28.74276753834333	0.0\\
28.765549110083363	0.0\\
28.788350948011903	0.0\\
28.811158013289905	0.0\\
28.833876820008463	0.0\\
28.856633041241658	0.0\\
28.87925064476503	0.0\\
28.901861894848125	0.0\\
28.924389717946397	0.0\\
28.947055618959958	0.0\\
28.951000647948533	0.0012618908883701295\\
28.954926285631032	0.0025374279386527364\\
28.958876304423896	0.003840787811953325\\
28.962751710362426	0.005139098101107142\\
28.96665388473228	0.006465776248921275\\
28.970623840861535	0.007835397485718397\\
28.97440815593464	0.009160087060460547\\
28.978378803903603	0.010569381267550016\\
28.982318463544885	0.011987681304430321\\
28.986244845109923	0.013420989992824383\\
28.990223095442445	0.014893258447541784\\
28.994109490590667	0.016351245355603845\\
28.997862392989866	0.01777771234679599\\
29.001820611550812	0.019301362275054086\\
29.005663141723105	0.020799838656371285\\
29.00944972052404	0.022295049296665606\\
29.01311107153831	0.023758437738655346\\
29.017082463163092	0.025364543597127864\\
29.020900419091447	0.0269278490914215\\
29.024893999667185	0.02858265869771067\\
29.028868453402602	0.03024978387086237\\
29.032837401636627	0.031934720096949656\\
29.036841357906994	0.033654812157673256\\
29.04055394675627	0.035268486826176185\\
29.044367754371038	0.03694427546217298\\
29.048283732201305	0.038684063157873205\\
29.052267283276436	0.04047379494536864\\
29.056250249896962	0.04228347081499345\\
29.060121758277504	0.04406205849159643\\
29.06399508795611	0.04586057099764239\\
29.067862448365602	0.04767536834652858\\
29.071820737163875	0.04955237436546077\\
29.07581754201827	0.0514677920749307\\
29.07962311090474	0.053310765277642544\\
29.08360685311569	0.05525942365062737\\
29.08754157182375	0.05720398256615036\\
29.091528129990117	0.05919412292265247\\
29.095456202563433	0.06117490853842977\\
29.0994759540855	0.06322203608331353\\
29.103437933027273	0.06525991030178988\\
29.107259670530475	0.06724476048514363\\
29.11128880981829	0.06935700859591326\\
29.115155854300234	0.0714039182598519\\
29.11854339106104	0.07321331847389345\\
29.122534300833713	0.07536257325748605\\
29.12656369508578	0.07755295149350433\\
29.13061983837173	0.07977858635987842\\
29.134614562229054	0.08199098605304944\\
29.138682268278693	0.08426442290145633\\
29.142740632792943	0.08655351548955698\\
29.146759073516186	0.08884068378047894\\
29.150807348814332	0.0911654208731423\\
29.15455827426382	0.09333838946428269\\
29.158596455371118	0.09569711837113029\\
29.16241846269427	0.09794891986173568\\
29.166502101686895	0.10037476728103173\\
29.170563585854175	0.1028083706749856\\
29.174568944709904	0.10522882813598008\\
29.178656401920023	0.1077196085948964\\
29.18272782472404	0.11022158878602611\\
29.18681759664903	0.1127558457991116\\
29.19075099271153	0.11521335950711539\\
29.19482934417615	0.11778175163215926\\
29.198735512656953	0.12026164473450981\\
29.20273955360502	0.1228234310808321\\
29.206794631341317	0.1254383378290626\\
29.210794802401395	0.12803820044117092\\
29.214706481885344	0.1306001597854099\\
29.21876369197294	0.13327748964614616\\
29.222869020410087	0.13600753616854866\\
29.226833750737	0.13866442651371086\\
29.230556326831213	0.1411774080187439\\
29.234038517472932	0.14354423072561523\\
29.237675897439246	0.1460325291551457\\
29.2418007819416	0.14887350972062058\\
29.24576988123649	0.15162761036411354\\
29.24981107851316	0.154451896010538\\
29.253960074245924	0.1573726082677948\\
29.258049971766525	0.16027292720445085\\
29.262089361673077	0.1631580758261797\\
29.266212909139085	0.16612424334371628\\
29.27031394542132	0.16909535756441924\\
29.274336770022174	0.17203038363741985\\
29.278439918700407	0.17504470765169605\\
29.28246259379631	0.17802047992654801\\
29.286546124937324	0.18106183461521896\\
29.29026220117069	0.18384821524360945\\
29.294452199124628	0.18700974456937147\\
29.298642490928394	0.1901934026156108\\
29.302772314202265	0.19335265687370407\\
29.306917826432574	0.19654526895638935\\
29.310818643845813	0.199569412922612\\
29.315006755450383	0.20283685295607967\\
29.319220269703024	0.20614610527528493\\
29.32342611569249	0.2094713878183843\\
29.327637674090496	0.21282323037804396\\
29.33163131831813	0.21602240413073154\\
29.335804759635614	0.21938646299519365\\
29.33982736314885	0.22264969058777906\\
29.343912912497807	0.22598444234711101\\
29.347900031596566	0.22925900842900576\\
29.352061781982442	0.23269772267832572\\
29.35631075150458	0.23623050877758955\\
29.360426846523062	0.23967440822604524\\
29.364367713820158	0.24299168042935398\\
29.368396186963487	0.2464024307863757\\
29.37257393823007	0.2499605263803889\\
29.376773168952575	0.2535586518949715\\
29.380979291383575	0.2571845460696871\\
29.385202986791136	0.26084757839139094\\
29.38918527565884	0.264321874844895\\
29.393423780490288	0.26804075841422426\\
29.39767596765531	0.27179392270221725\\
29.40194338352	0.2755829472727722\\
29.406227027283506	0.27940895565070234\\
29.410347303917312	0.2831107049981614\\
29.414287570537915	0.2866706234179335\\
29.418465265517497	0.2904655181812771\\
29.422718223888566	0.29435072789526895\\
29.426800778129405	0.2981015274748099\\
29.43100805751005	0.3019881533323884\\
29.435324575049485	0.30599812050632647\\
29.439532749794232	0.30992969787615066\\
29.44375773662002	0.3138988502778878\\
29.448057943638084	0.3179610482749168\\
29.45217289348743	0.32186983942465164\\
29.456323270785568	0.32583327333715206\\
29.460627162008528	0.32996533984917775\\
29.464585432215415	0.33378623485262393\\
29.46891483217223	0.33798666866085314\\
29.473314017514447	0.34227819862380093\\
29.477403351388297	0.34628926747892164\\
29.48176883090194	0.3505932599469038\\
29.486078724000976	0.3548654255757955\\
29.489968736743528	0.3587416010845771\\
29.49432600758891	0.36310444647044104\\
29.498649225326922	0.3674561825380209\\
29.50299958386931	0.37185822418015846\\
29.507077240267982	0.37600577908194865\\
29.51099134817739	0.38000633903608494\\
29.515111733796815	0.3842375449936425\\
29.519096257010176	0.3883491480250234\\
29.523267612825926	0.3926739241381436\\
29.527677403398656	0.3972684836774135\\
29.53198478956238	0.4017793858779778\\
29.53622773641193	0.4062449849894615\\
29.540475511809298	0.41073757914229425\\
29.544918138095163	0.41545933360593434\\
29.54911974428328	0.41994741698848903\\
29.553302266833207	0.42443643120684227\\
29.557487575340268	0.4289496734692232\\
29.561823427155545	0.4336473707866466\\
29.565827254280705	0.43800614282102457\\
29.569999119110136	0.4425682024274208\\
29.574400527015626	0.4474036785562411\\
29.578825427184483	0.4522885474658179\\
29.583338335817032	0.4572947912879112\\
29.587583186374864	0.4620266320445955\\
29.591911633358876	0.46687391737777806\\
29.59599482070152	0.47146771103186047\\
29.600260467176156	0.4762879318262162\\
29.604789793730703	0.48142962035320236\\
29.609334350714654	0.48661342213532954\\
29.613798437083958	0.49172981300876784\\
29.61831992851289	0.49693634372099404\\
29.62274586359954	0.5020568490318418\\
29.627157976214	0.5071848368232501\\
29.631483628473497	0.5122352114410473\\
29.636058428296977	0.51760044164882\\
29.64035545037779	0.522663297586079\\
29.64487812264648	0.5280155116122829\\
29.649284329351865	0.5332537079473483\\
29.65383296147631	0.538685352522573\\
29.658394604971782	0.5441573969731468\\
29.662981810495943	0.5496851731052517\\
29.667494666215283	0.5551480631256172\\
29.6720701781057	0.5607115349764102\\
29.676651351612918	0.5663069408298427\\
29.681315071466905	0.5720287455560369\\
29.685902966444395	0.5776829982166258\\
29.69056775553439	0.5834576015984647\\
29.695128085131977	0.5891281679217646\\
29.69952613756054	0.5946207199466882\\
29.70421539592627	0.6005017260898164\\
29.708824298301188	0.606307603309955\\
29.713555045993104	0.6122929882961767\\
29.71825732905276	0.6182687671780727\\
29.722921956643162	0.6242227067034101\\
29.727626140568738	0.6302532038675488\\
29.732258463933803	0.6362173641568454\\
29.73699564389633	0.6423426145012012\\
29.741736414410518	0.6484991052545608\\
29.74645232067777	0.6546497449534328\\
29.75109468024965	0.6607302972591951\\
29.755350084486977	0.6663270916136037\\
29.7595055955164	0.6718133212578197\\
29.764406598296667	0.6783084126149661\\
29.768992267568365	0.6844118786298938\\
29.773308359513862	0.690179680203399\\
29.777774897957627	0.6961713507150797\\
29.782361487319385	0.7023482716385632\\
29.78711052450486	0.7087697181991646\\
29.791971026455883	0.7153691080730313\\
29.796739703356486	0.7218709798848433\\
29.801145887774254	0.72790301632305\\
29.80591336866585	0.7344545890825269\\
29.810384854517608	0.7406241758120593\\
29.815290686332567	0.7474191014468023\\
29.82000090961361	0.7539699980879562\\
29.82460569296942	0.7603995455596768\\
29.82905122161867	0.7666305456805687\\
29.833759660790882	0.7732547019289633\\
29.838671624902446	0.7801923511332687\\
29.843439312351627	0.7869534321519147\\
29.848113767198264	0.7936082077296318\\
29.852647348343098	0.8000870108836753\\
29.857583706286164	0.8071677773961701\\
29.862404608426523	0.8141105231857366\\
29.86736745346731	0.8212856048442541\\
29.872309003462078	0.8284583628166813\\
29.876789884265804	0.8349878164811182\\
29.88165035507096	0.8420959486905037\\
29.886192278474716	0.8487635751262699\\
29.891136454364613	0.8560480307427356\\
29.89610925087922	0.863403121993388\\
29.901057676141	0.8707505945201293\\
29.906162862374913	0.8783601344293375\\
29.91094368676132	0.8855141223048468\\
29.915938022948787	0.8930153109308849\\
29.921018950013845	0.9006758638830445\\
29.925748643522724	0.907834268221819\\
29.93062739072422	0.9152449258012387\\
29.935727677440575	0.9230208747301689\\
29.94040973343124	0.9301863080712613\\
29.94529543912656	0.937689814909084\\
29.95038963851369	0.9455422337397141\\
29.955289485162552	0.9531235210939502\\
29.96008051754012	0.9605632400774984\\
29.964840787789313	0.9679812559395864\\
29.970002469956164	0.9760532022185926\\
29.97514491361796	0.9841253607228837\\
29.980310568379352	0.9922642821165926\\
29.985148986040095	0.9999158643433914\\
29.989874034001076	1.0074141193432795\\
29.99440944546363	1.0146356950854791\\
29.99985317742128	1.0233323868579784\\
30.004936079790617	1.03148379121247\\
30.009610226877946	1.0390063578851811\\
30.014458011944043	1.0468342045507786\\
30.019161724037012	1.0544551511871756\\
30.024442509502308	1.063039655987121\\
30.029447657273423	1.0712057747344126\\
30.034607546279766	1.0796536706954254\\
30.039664273782307	1.0879620543102648\\
30.04459007112613	1.0960833205636917\\
30.049623763828627	1.1044105062586804\\
30.0548991595166	1.1131676344815395\\
30.059809337934183	1.1213473824615736\\
30.065281091351295	1.1304933023487198\\
30.070223468148896	1.1387843646185476\\
30.075588759694597	1.1478149728287668\\
30.08090205431717	1.15678997637657\\
30.08595208973079	1.1653501453915744\\
30.09093330883598	1.1738217584975308\\
30.096288450149693	1.1829594136851362\\
30.101638126687625	1.1921197300826396\\
30.107012761717726	1.2013548773888614\\
30.112547718274065	1.2108987837026999\\
30.117647246195183	1.2197229831818666\\
30.12287532282673	1.228799371096783\\
30.128022152555864	1.2377645440710943\\
30.133675657245078	1.247644995526767\\
30.13938265752033	1.2576282622293493\\
30.144531902525024	1.2666438664186535\\
30.149665563083737	1.2756397409767115\\
30.155443185730476	1.2857730544897392\\
30.160711107625936	1.2950207009550194\\
30.165973449708112	1.304266430958526\\
30.17145393286983	1.3139037784605723\\
30.1764211029785	1.3226458182305278\\
30.181571390684162	1.3317174977760686\\
30.186555936853857	1.3405043609518024\\
30.19180712272606	1.3497688207725882\\
30.197345393929446	1.3595481580673114\\
30.20286277346836	1.3692991440778712\\
30.20823299368	1.3787982175330211\\
30.213931974830423	1.3888876060660138\\
30.219247504954417	1.3983062764723688\\
30.22445891508729	1.4075480622684582\\
30.229289901863254	1.416121927032009\\
30.235198132132616	1.426616403860999\\
30.24068585140568	1.4363725612870564\\
30.24571217605397	1.445315703812926\\
30.251161688325013	1.455019631815277\\
30.256464275596898	1.4644697269662021\\
30.261994722623555	1.4743340787293673\\
30.26727879852733	1.4837667684782758\\
30.2721801366337	1.4925230045264333\\
30.277367786233135	1.5017978252913968\\
30.283028917475825	1.511927467263256\\
30.288246421475215	1.5212709647289175\\
30.293779666695272	1.5311878907355432\\
30.29898086096032	1.540517190542292\\
30.30406020818866	1.5496349238869151\\
30.309530410589012	1.559461970641392\\
30.31571148287481	1.5705756637254256\\
30.321463000397365	1.5809261242367247\\
30.32666472535287	1.5902947229464028\\
30.331681024342956	1.599336132524786\\
30.337181480697964	1.6092578162668834\\
30.342300810093235	1.6184991755581306\\
30.347906998744968	1.6286272956579593\\
30.353178469872937	1.6381582194761068\\
30.35899221983776	1.6486780051061682\\
30.364374067418076	1.6584241212322657\\
30.369368623113104	1.6674756104336885\\
30.374421848675198	1.6766400019314003\\
30.37935723408257	1.6855970520313321\\
30.384858241793843	1.6955880297613426\\
30.390849490769902	1.7064782401253082\\
30.396440192907725	1.7166486842290936\\
30.40242086673657	1.7275374018332288\\
30.408189159341518	1.7380480883097746\\
30.41373752400736	1.7481660166890571\\
30.4192571823135	1.758239342867756\\
30.42442378568105	1.7676753293369707\\
30.429924353629744	1.7777286503062637\\
30.43536029188138	1.7876713272100049\\
30.44056372994512	1.797195692535328\\
30.445949208561863	1.8070604007471225\\
30.451859727387358	1.8178951695885974\\
30.457772574662464	1.8287429064838503\\
30.463447517251396	1.8391623418778922\\
30.46936950615204	1.8500438613930603\\
30.47473529675036	1.8599108513442313\\
30.480123912092203	1.8698269423687757\\
30.48555675355201	1.8798316309477032\\
30.490962435332357	1.8897934729629298\\
30.49704583091846	1.9010127645005133\\
30.5030175455744	1.9120348454376597\\
30.5088565216601	1.922820291771632\\
30.514319513663843	1.9329187055383246\\
30.52048795548371	1.9443298016667065\\
30.526205088335587	1.9549141811418331\\
30.531841482846275	1.965356753912416\\
30.537499078048583	1.975846238901656\\
30.54309974373036	1.9862376842172664\\
30.548742032645784	1.9967138909734734\\
30.55448802059977	2.007390387223632\\
30.56037821532322	2.018342922019734\\
30.56588506626229	2.0285900339974434\\
30.5712817245891	2.038639004967182\\
30.576674633877253	2.0486878029324176\\
30.58245206244262	2.0594606176653745\\
30.588575779904616	2.0708876113517674\\
30.5943533280023	2.0816766162196627\\
30.600557667708706	2.093271202187652\\
30.60625166407918	2.1039198684563294\\
30.612285053858315	2.1152113763746234\\
30.61825465506191	2.126391702938311\\
30.623902307729452	2.136976543020407\\
30.629751988525044	2.1479476710049212\\
30.633675657245078	2.1553108937190713\\
30.635695662214232	2.1591030271767666\\
30.642161703068084	2.1712234700363844\\
30.648252840872075	2.182576261177755\\
30.65398976928848	2.193211261338213\\
30.660036618274297	2.2043640128521753\\
30.665954448486048	2.215219915763977\\
30.67160130994928	2.225523639517717\\
30.67740008875522	2.2360508161588486\\
30.683323399472314	2.2467476494080687\\
30.68911440344933	2.257149019805187\\
30.69504899238691	2.2677518073028944\\
30.70148569638235	2.2791891306345473\\
30.707647582450527	2.2900726068306607\\
30.71381537929914	2.300903895320616\\
30.720062907725257	2.311811730348177\\
30.726000828161972	2.322117626066743\\
30.732011749061392	2.3324913874111948\\
30.738534478218433	2.3436840976871967\\
30.745163514924087	2.354987919352019\\
30.751335928343558	2.365445225652108\\
30.757058161323727	2.3750812048525534\\
30.763329871206402	2.3855835426703846\\
30.769831356415388	2.3964034049110614\\
30.775957947181375	2.4065332419917684\\
30.781778020980433	2.4160970971842195\\
30.787553552563466	2.425532105529742\\
30.793491542874193	2.4351758433974124\\
30.79948618902906	2.444852689194268\\
30.805541369502876	2.454567159011744\\
30.811859234747473	2.4646398412895048\\
30.818031501328633	2.474415653387254\\
30.823705085132715	2.483343265947598\\
30.829565695638692	2.4925101346056238\\
30.835423045525744	2.5016149428557375\\
30.841103064208177	2.510388776667889\\
30.84725818814293	2.519838763221312\\
30.853415922857998	2.5292298141856575\\
30.859125759706835	2.537879104710858\\
30.865389726749378	2.5473087252234503\\
30.871557929771427	2.556529896975186\\
30.877614220739353	2.565521579026875\\
30.884033625171078	2.5749879498221597\\
30.89007879958261	2.5838376603494044\\
30.896567022355292	2.5932709856446685\\
30.903067226537168	2.6026515266644354\\
30.909359205501346	2.61166332891747\\
30.91564468194428	2.6205999345171698\\
30.921845319989465	2.6293509218004214\\
30.928118480831344	2.6381394749051035\\
30.934111906468907	2.6464732677356313\\
30.940345584348123	2.6550789764327964\\
30.946321513759507	2.663266557331494\\
30.9531659619648	2.6725764522275792\\
30.959376160269265	2.6809522817273415\\
30.96592847079016	2.6897218183046583\\
30.972286516113165	2.698161651521646\\
30.97824240456771	2.706004147515153\\
30.985163318528194	2.7150491591750123\\
30.991410391802795	2.7231408141538243\\
30.99745938003948	2.7309125839750736\\
31.003472809165835	2.7385778037112827\\
31.00966692900318	2.7464111428926534\\
31.01593435975785	2.7542722734086507\\
31.022241579982115	2.762117165423076\\
31.028619015747772	2.769982086005279\\
31.035217982047925	2.7780498702830014\\
31.04174146310924	2.7859531992896684\\
31.048146557515636	2.7936430055475707\\
31.054377800794178	2.801057082001022\\
31.06053704738529	2.808321103060454\\
31.06692303753909	2.815786721833917\\
31.073227777193445	2.8230897651918943\\
31.07946515062848	2.830248751575148\\
31.085288954739895	2.8368718568038673\\
31.091792315599804	2.844204650098458\\
31.098270159405807	2.851437919939163\\
31.104668630952148	2.8585128989371054\\
31.11053483617416	2.8649359703114907\\
31.117004871160326	2.8719568067428414\\
31.12324281976128	2.8786578238938523\\
31.129495138824737	2.8853087233476122\\
31.13574330136725	2.8918895124514323\\
31.141998811927884	2.8984123105418806\\
31.148117380784107	2.9047278468996627\\
31.154461458929212	2.911210981658636\\
31.160756571594042	2.917576835732942\\
31.167190024907754	2.9240144992988464\\
31.17358812640871	2.9303474514787533\\
31.179721971343497	2.9363525743139816\\
31.185861024434686	2.9422993576434155\\
31.191873999405637	2.9480617321580054\\
31.198185748450562	2.9540466455165735\\
31.20454650869045	2.9600103794584163\\
31.210803858260924	2.965809979345888\\
31.21737939738128	2.9718353007236677\\
31.22368750980992	2.9775454332234785\\
31.230007427569234	2.983198990549859\\
31.236163801067974	2.988640484708575\\
31.24218885400837	2.9939032165585573\\
31.248400280752932	2.9992656678504606\\
31.254792187567226	3.0047169963500897\\
31.261192924544098	3.010106756079658\\
31.267233108290725	3.015127383426144\\
31.273253918822277	3.0200704455751426\\
31.27934389254193	3.0250083620842263\\
31.285686959451816	3.030086350373308\\
31.29198803659616	3.0350631221503983\\
31.298418426186288	3.0400735896654743\\
31.304676976703853	3.0448819881636258\\
31.31107724727333	3.0497315921682384\\
31.317489604427927	3.0545209183795716\\
31.323847394617715	3.059200459668415\\
31.3302994788951	3.0638800265608426\\
31.33642671433322	3.0682568639703733\\
31.342782916890123	3.0727314498769873\\
31.349186305998032	3.0771703490986537\\
31.355561452411592	3.0815204951509934\\
31.36190456444489	3.085780235655072\\
31.36836399907729	3.090048718974967\\
31.374604732938955	3.094104212405661\\
31.380980247258165	3.0981799113844932\\
31.387434434301674	3.102236169041439\\
31.393970907164864	3.1062726337371798\\
31.40040970278158	3.110177318289862\\
31.406730470314045	3.1139412978550425\\
31.413115693565594	3.117675204377508\\
31.419396121668186	3.121279696153956\\
31.4257137823544	3.124838217101904\\
31.43188568667587	3.128248343055029\\
31.438116312741293	3.1316256406067673\\
31.444365161302976	3.1349466925398684\\
31.45056210816748	3.138174342216165\\
31.456796598578357	3.1413559211952\\
31.463161752712544	3.1445368190332967\\
31.469541045923826	3.147655772672856\\
31.47588331299238	3.150687819229609\\
31.48221907937546	3.1536484301007537\\
31.4885722813042	3.1565487458355266\\
31.49494123384489	3.159387438586502\\
31.50139017213339	3.1621919592653285\\
31.507729723875244	3.1648792837433737\\
31.513979324321042	3.167461003814201\\
31.520152938255983	3.1699456228509586\\
31.526314701332524	3.1723607121265003\\
31.532665354325978	3.174783329710447\\
31.53901778908211	3.1771379309885894\\
31.54541195780849	3.17943883881499\\
31.551676766482515	3.18162487571583\\
31.557872120979233	3.1837205034588623\\
31.56421039458862	3.1857976414388167\\
31.570515153335165	3.1877956645839403\\
31.576901677574625	3.1897510084190683\\
31.58329536474489	3.1916389297192493\\
31.589702029519955	3.1934608404991636\\
31.596088324864155	3.195207165873123\\
31.60246954730607	3.1968825869093402\\
31.608767768989452	3.1984676003831547\\
31.615030840131453	3.1999764405864433\\
31.621290803096976	3.201417622625298\\
31.6276277517955	3.2028088678152082\\
31.633781945452995	3.204093311250361\\
31.640129530936562	3.205527721116959\\
31.649326868341475	3.207605965653979\\
31.66276249617973	3.2106415933380896\\
31.682450832316363	3.215089289004289\\
31.70266033384246	3.2196539002854045\\
31.721661435567853	3.2239448190149735\\
31.74059221055367	3.228219124281712\\
31.75887315255268	3.2323460114798674\\
31.778717131964086	3.236824976986834\\
31.79782987341953	3.2411381318142887\\
31.816860029199518	3.2454319035895036\\
31.83536573494858	3.249606628426048\\
31.854857398254524	3.2540030123994974\\
31.874120729793113	3.258347123813195\\
31.89387759303616	3.2628017338644435\\
31.914310172154828	3.2674078461658436\\
31.93365451149088	3.271767836439423\\
31.952970651450876	3.2761206926277264\\
31.973716461962333	3.2807948545482493\\
31.994364779423364	3.2854461563993453\\
32.01373614750672	3.289808996114921\\
32.03309564036145	3.294168373756955\\
32.0532047305566	3.2986957108618906\\
32.07215319997971	3.302960967001516\\
32.09247515729791	3.3075345492453287\\
32.111858802374186	3.311896144257945\\
32.13260150965121	3.3165626653535956\\
32.15210204112846	3.320948898858642\\
32.1722400214592	3.325477663977744\\
32.19197902455173	3.329915865693402\\
32.21092809541476	3.334175673209992\\
32.23096530251895	3.338679261817088\\
32.25127029012471	3.343242159876584\\
32.27166501358781	3.347824332770495\\
32.2922921924563	3.35245782319502\\
32.312391248761685	3.3569718002013786\\
32.33232441907063	3.3614476611395494\\
32.35119596496041	3.36568435060701\\
32.371956544142165	3.3703442409251103\\
32.392221662508206	3.374892020221843\\
32.41249154609686	3.3794399774644424\\
32.43216257911797	3.3838527167651025\\
32.45279751841686	3.388480780901941\\
32.472995341569245	3.393009908446424\\
32.492266819846535	3.3973304836160443\\
32.513207012115515	3.402024256139832\\
32.53378162161306	3.4066351476658827\\
32.55380705407545	3.4111220739523915\\
32.57373967911306	3.415587331163901\\
32.57807471716865	3.416558340004597\\
32.57960826932775	3.416901831751897\\
32.58298078425956	3.4176572042561055\\
32.58329488287724	3.4177275544748014\\
32.5833266726429	3.4177346745735218\\
32.58334306713854	3.417738346522574\\
32.58336412237131	3.4177430623570393\\
32.58348228389137	3.4177695275017443\\
32.583900684954784	3.4178632383395486\\
32.58501477033737	3.4181127622661576\\
32.58773521010821	3.4187220529315807\\
32.59177279265755	3.419626310545495\\
32.6003323880265	3.4215431982700704\\
32.61133808450664	3.4240076397907204\\
32.62697711124382	3.427509129369594\\
32.64685248399	3.4319583216279668\\
32.66713770820617	3.4364983466959815\\
32.68799084924153	3.4411645128625663\\
32.70945902969768	3.4459672798298113\\
32.73014191238609	3.4505933810746514\\
32.75257841035234	3.4556106185248305\\
32.773658511748124	3.460323502873269\\
32.795150406892645	3.465127416943071\\
32.8169324762937	3.469995123590568\\
32.837735721217044	3.4746430844327696\\
32.8592256101479	3.479443426364657\\
32.88024773077974	3.4841382635046596\\
32.90174415901592	3.4889379864255723\\
32.92303038848486	3.493689738087536\\
32.94424422823165	3.498424301155225\\
32.96564496648104	3.503199534702712\\
32.987589102861094	3.5080949307823266\\
33.008555547571305	3.512771188632459\\
33.03028176240596	3.5176158385183403\\
33.050449083064834	3.5221119064169164\\
33.07199214676551	3.5269136475163085\\
33.092976521442154	3.5315898355970035\\
33.11429800072412	3.5363401057437294\\
33.135333825734705	3.5410257069758693\\
33.15692653432768	3.5458342883221583\\
33.17788736066581	3.550501122388308\\
33.19984883033766	3.555389655063692\\
33.22165204726113	3.560241856661266\\
33.243305713260696	3.5650596859218835\\
33.265387501432386	3.5699716498423326\\
33.28756294399008	3.574903306988328\\
33.309089149302196	3.5796894850201175\\
33.33124791911702	3.5846151823858365\\
33.35443371158556	3.589767953299088\\
33.37722505607091	3.594831841152997\\
33.39857747130138	3.5995749210486636\\
33.41902073356523	3.6041150499407895\\
33.440527942950084	3.6088904101362704\\
33.46294840265095	3.613867391823354\\
33.485553920056006	3.6188842613782235\\
33.50782994111623	3.6238268335399377\\
33.51586229961343	3.6256087563732686\\
};
\end{axis}
\end{tikzpicture}%
