%RateOfClimb_vs_GroundDistance
\begin{tikzpicture}

\begin{axis}[
width=\figurewidth,
height=\figureheight,
scaled ticks=false, tick label style={/pgf/number format/fixed},
xmin=0.0,
xmax=1312.5701903971549,
xlabel={Ground distance (m)},
xmajorgrids,
ymin=0.0,
ymax=4.9632473628465,
ylabel={Rate of Climb (m/s)},
ymajorgrids,
legend style={at={(1.03,0.5)},anchor=west,draw=black,fill=white,legend cell align=left}
]

\addplot [
color=black,
solid
]
table[row sep=crcr]{
1.3869093119904958E-8	0.0\\
1.6781602652052382E-6	0.0\\
1.647353542553254E-5	0.0\\
6.439931843204793E-5	0.0\\
1.9065297784454734E-4	0.0\\
4.3047238193074354E-4	0.0\\
7.655732019409523E-4	0.0\\
0.0011859140074752068	0.0\\
0.0017125440148558512	0.0\\
0.002325773289020553	0.0\\
0.003048160223602098	0.0\\
0.0038534230156502492	0.0\\
0.0047613423065209805	0.0\\
0.005745362525174262	0.0\\
0.006850362334786895	0.0\\
0.008045979951874255	0.0\\
0.009335229969848511	0.0\\
0.010714092062249835	0.0\\
0.012211839023396752	0.0\\
0.013806134132442	0.0\\
0.015491733619538515	0.0\\
0.017286021718634886	0.0\\
0.01917170370083953	0.0\\
0.021153325972783472	0.0\\
0.023197908476303188	0.0\\
0.025372110745651856	0.0\\
0.027650919608325122	0.0\\
0.03002640709782567	0.0\\
0.03250602794886426	0.0\\
0.035064153728616584	0.0\\
0.037739587901381225	0.0\\
0.04050627233588411	0.0\\
0.04339296545513019	0.0\\
0.04631485534154671	0.0\\
0.049370246086126626	0.0\\
0.052506104134768944	0.0\\
0.05576582072261431	0.0\\
0.05912657968021526	0.0\\
0.06261242875808509	0.0\\
0.06619469567640685	0.0\\
0.06985128555014214	0.0\\
0.0736020022920034	0.0\\
0.07747276990571292	0.0\\
0.08143666552108483	0.0\\
0.08555657348076778	0.0\\
0.08965026933349979	0.0\\
0.0938667719793066	0.0\\
0.09825220225265535	0.0\\
0.10273224426630076	0.0\\
0.10735322574215084	0.0\\
0.112069260754049	0.0\\
0.11689628210681491	0.0\\
0.1218415428471844	0.0\\
0.12687191809557297	0.0\\
0.1319619208160973	0.0\\
0.13718738019241578	0.0\\
0.14259661331750534	0.0\\
0.14809029506440063	0.0\\
0.15357369830174794	0.0\\
0.15919819638502208	0.0\\
0.16499087615582547	0.0\\
0.17085798999819946	0.0\\
0.1767488836171578	0.0\\
0.18282417565258646	0.0\\
0.18901001188117672	0.0\\
0.19541955137153394	0.0\\
0.20194211148581165	0.0\\
0.2083979414026551	0.0\\
0.21505060334870085	0.0\\
0.22184856138038173	0.0\\
0.22872836417933162	0.0\\
0.23574011358716662	0.0\\
0.2429311919259305	0.0\\
0.2501747585817372	0.0\\
0.25754265036543367	0.0\\
0.264908342817759	0.0\\
0.2724992266078814	0.0\\
0.2801550350754869	0.0\\
0.2879703443199304	0.0\\
0.29595569844966996	0.0\\
0.3041777677368186	0.0\\
0.3122504838515201	0.0\\
0.32045351605106465	0.0\\
0.32877567798681406	0.0\\
0.33732345559612786	0.0\\
0.3457968785732404	0.0\\
0.35455004879480934	0.0\\
0.36322843010821737	0.0\\
0.37224776347106225	0.0\\
0.3814675422578342	0.0\\
0.39069394939808333	0.0\\
0.40021984944961075	0.0\\
0.40970638086144073	0.0\\
0.4193138042850624	0.0\\
0.4290893215883308	0.0\\
0.4388805223818275	0.0\\
0.4489093157118843	0.0\\
0.4591350017105895	0.0\\
0.46933643762109933	0.0\\
0.47978785615739383	0.0\\
0.49015856505001654	0.0\\
0.5008453841776759	0.0\\
0.5117123055272812	0.0\\
0.5226460162980606	0.0\\
0.533572747316372	0.0\\
0.5447745348549675	0.0\\
0.5562298797559428	0.0\\
0.567600366819037	0.0\\
0.578894288599904	0.0\\
0.5903104906593495	0.0\\
0.6019807485559185	0.0\\
0.6136659013944394	0.0\\
0.6254808586354892	0.0\\
0.6378084600455878	0.0\\
0.650221596751215	0.0\\
0.6623845470068528	0.0\\
0.6750947014695341	0.0\\
0.6881234944141856	0.0\\
0.7008394740602484	0.0\\
0.7137452297605933	0.0\\
0.7269750316735368	0.0\\
0.7402994320441199	0.0\\
0.7534357647498278	0.0\\
0.7671170049846847	0.0\\
0.7807939104989849	0.0\\
0.7945569619485264	0.0\\
0.8082734465770611	0.0\\
0.8222036351021433	0.0\\
0.8360767896229833	0.0\\
0.8500982100225709	0.0\\
0.8646731983422744	0.0\\
0.8793607873553657	0.0\\
0.894065382079672	0.0\\
0.9089011139339038	0.0\\
0.9239919736344921	0.0\\
0.9394340412729152	0.0\\
0.9547423489749303	0.0\\
0.970675174294443	0.0\\
0.9863792848718844	0.0\\
1.002208661846851	0.0\\
1.0179215544763207	0.0\\
1.0337609107096482	0.0\\
1.0503014712301177	0.0\\
1.066804783640285	0.0\\
1.0831296322942476	0.0\\
1.0994408533815623	0.0\\
1.116418346440463	0.0\\
1.1336682352845933	0.0\\
1.150731246592069	0.0\\
1.1680961354711568	0.0\\
1.185820430454851	0.0\\
1.2034309729936048	0.0\\
1.2210819921068579	0.0\\
1.2391921685259857	0.0\\
1.2578394128071744	0.0\\
1.2758663224890419	0.0\\
1.2939250533341191	0.0\\
1.3123645253841323	0.0\\
1.3313585397842993	0.0\\
1.3501558231949402	0.0\\
1.3689269948012535	0.0\\
1.3884661875180258	0.0\\
1.4079955186177986	0.0\\
1.4277413080765053	0.0\\
1.4474753085187868	0.0\\
1.467471474524118	0.0\\
1.4874730038714024	0.0\\
1.5076485746094725	0.0\\
1.528779072707001	0.0\\
1.549856729170581	0.0\\
1.5705391890214968	0.0\\
1.591502974875028	0.0\\
1.6124327343357	0.0\\
1.6340860465704603	0.0\\
1.655632584097523	0.0\\
1.6772651820367055	0.0\\
1.6994980512063207	0.0\\
1.721597950057515	0.0\\
1.7440842836185761	0.0\\
1.7665148624763156	0.0\\
1.7894019268757413	0.0\\
1.8118513142513648	0.0\\
1.8350799651972478	0.0\\
1.8589544657105512	0.0\\
1.8824641715463515	0.0\\
1.9063286050768564	0.0\\
1.9303889869756765	0.0\\
1.954675897933921	0.0\\
1.9792675008541973	0.0\\
2.0035730438398724	0.0\\
2.028489396329875	0.0\\
2.0527088363919512	0.0\\
2.0778342385147397	0.0\\
2.1026566595076703	0.0\\
2.128062810070972	0.0\\
2.153823736621862	0.0\\
2.180467341008873	0.0\\
2.2064974833486524	0.0\\
2.232410286985835	0.0\\
2.258124290236183	0.0\\
2.284198358897303	0.0\\
2.3109907545635844	0.0\\
2.338507592131256	0.0\\
2.365858627797544	0.0\\
2.3928349543589578	0.0\\
2.420181218100314	0.0\\
2.4474885549694756	0.0\\
2.4755345553349413	0.0\\
2.5035521109052974	0.0\\
2.5318582520347146	0.0\\
2.5601654147156543	0.0\\
2.5893803207167227	0.0\\
2.618052895252129	0.0\\
2.6469831691506576	0.0\\
2.6762887530321082	0.0\\
2.706492091133014	0.0\\
2.7366919356807857	0.0\\
2.766406065169848	0.0\\
2.795586340488235	0.0\\
2.82634455478047	0.0\\
2.857819561913467	0.0\\
2.888649095672255	0.0\\
2.9195647508814746	0.0\\
2.9499278887128817	0.0\\
2.9807127613820956	0.0\\
3.0126969188116073	0.0\\
3.043847060235108	0.0\\
3.076334856582169	0.0\\
3.1086015272875143	0.0\\
3.140964801898045	0.0\\
3.174188884488247	0.0\\
3.207092578614164	0.0\\
3.239991883613249	0.0\\
3.272907436279824	0.0\\
3.3064913831472174	0.0\\
3.340495156793697	0.0\\
3.374570177552002	0.0\\
3.4085233373546657	0.0\\
3.4431165891888	0.0\\
3.4779810908677407	0.0\\
3.51357856529118	0.0\\
3.5493632570290323	0.0\\
3.584600538576524	0.0\\
3.6191347389445756	0.0\\
3.655447285266705	0.0\\
3.6916721187231216	0.0\\
3.727886000248427	0.0\\
3.7645089513334593	0.0\\
3.8019144243484035	0.0\\
3.8384332556175487	0.0\\
3.8760586370089953	0.0\\
3.913951103120721	0.0\\
3.9508541174182126	0.0\\
3.990068504343009	0.0\\
4.029200010708983	0.0\\
4.068093121762725	0.0\\
4.1071219657086875	0.0\\
4.146396414792356	0.0\\
4.185816498640818	0.0\\
4.224844990909782	0.0\\
4.26420603458326	0.0\\
4.305376002828089	0.0\\
4.34658025371532	0.0\\
4.38735130541415	0.0\\
4.428594226092558	0.0\\
4.469562014000886	0.0\\
4.511015746058332	0.0\\
4.552797086705496	0.0\\
4.595031459793169	0.0\\
4.638699308354287	0.0\\
4.682207241331252	0.0\\
4.7252173116443394	0.0\\
4.768618055967824	0.0\\
4.812010584227675	0.0\\
4.855940569181	0.0\\
4.899642374160813	0.0\\
4.9433626607637855	0.0\\
4.988109023744494	0.0\\
5.033526709121988	0.0\\
5.078648137242995	0.0\\
5.122987590154207	0.0\\
5.168844677132833	0.0\\
5.214484660301688	0.0\\
5.259310474278417	0.0\\
5.305777826910848	0.0\\
5.351406434373011	0.0\\
5.398094081321537	0.0\\
5.446888200321448	0.0\\
5.494714444093429	0.0\\
5.541807048552167	0.0\\
5.589227685908444	0.0\\
5.638198553988488	0.0\\
5.685090463779236	0.0\\
5.733269165403026	0.0\\
5.782181510572503	0.0\\
5.83242326565826	0.0\\
5.88152931463666	0.0\\
5.931528981494198	0.0\\
5.98198270843927	0.0\\
6.033125094179418	0.0\\
6.084375535972967	0.0\\
6.135973945945917	0.0\\
6.187907328495919	0.0\\
6.240385864152662	0.0\\
6.291258754428256	0.0\\
6.343645944929829	0.0\\
6.395944061254735	0.0\\
6.45010592291494	0.0\\
6.5034019806422005	0.0\\
6.557222553529764	0.0\\
6.611914519487845	0.0\\
6.666262792946119	0.0\\
6.721130022513055	0.0\\
6.776611308278962	0.0\\
6.830253383581329	0.0\\
6.886334845837908	0.0\\
6.941659394737563	0.0\\
6.997352302356317	0.0\\
7.054420058545775	0.0\\
7.110930763843873	0.0\\
7.167900896664538	0.0\\
7.225911381601177	0.0\\
7.282807108769738	0.0\\
7.340371040476326	0.0\\
7.3988915374885345	0.0\\
7.458574772874121	0.0\\
7.516552151345696	0.0\\
7.5775866281113515	0.0\\
7.637147897643995	0.0\\
7.697324697913386	0.0\\
7.757729406844822	0.0\\
7.817590447566081	0.0\\
7.879326117406196	0.0\\
7.9415318697231	0.0\\
8.003477574378273	0.0\\
8.065945557956294	0.0\\
8.12886380803361	0.0\\
8.190877255917385	0.0\\
8.25438450473002	0.0\\
8.316892853931492	0.0\\
8.379196417797669	0.0\\
8.44277422293986	0.0\\
8.508282170370755	0.0\\
8.572413265126183	0.0\\
8.636549661237726	0.0\\
8.702302446472519	0.0\\
8.7686368668423	0.0\\
8.833503540477455	0.0\\
8.899728313389012	0.0\\
8.96526583631698	0.0\\
9.032087210166736	0.0\\
9.098267291220708	0.0\\
9.165552728118161	0.0\\
9.233109586221008	0.0\\
9.301374261044419	0.0\\
9.370927371226973	0.0\\
9.440221785138014	0.0\\
9.510251236066548	0.0\\
9.578926399070099	0.0\\
9.648683368676586	0.0\\
9.719694069154592	0.0\\
9.79143055970954	0.0\\
9.861993801919944	0.0\\
9.932891380397528	0.0\\
10.004615160870873	0.0\\
10.07632339997635	0.0\\
10.149587788360982	0.0\\
10.2229521415215	0.0\\
10.295386772412222	0.0\\
10.368128892335267	0.0\\
10.44265781948009	0.0\\
10.518193191318808	0.0\\
10.5933837124742	0.0\\
10.668912206559273	0.0\\
10.745456035585427	0.0\\
10.821596006859231	0.0\\
10.896513279475869	0.0\\
10.97461621039525	0.0\\
11.050262979984193	0.0\\
11.126720276839343	0.0\\
11.205678217165648	0.0\\
11.283068305392277	0.0\\
11.361574299345556	0.0\\
11.442234489651238	0.0\\
11.520725886475706	0.0\\
11.599720478431518	0.0\\
11.679105694164441	0.0\\
11.760861412016528	0.0\\
11.84140976521903	0.0\\
11.922743637450814	0.0\\
12.003764517153495	0.0\\
12.08532817832063	0.0\\
12.16758216038535	0.0\\
12.248972239747367	0.0\\
12.332158014002438	0.0\\
12.41614155330591	0.0\\
12.497487128281943	0.0\\
12.580769125858549	0.0\\
12.664465528620653	0.0\\
12.750279420338941	0.0\\
12.837017108906164	0.0\\
12.921917420043762	0.0\\
13.010509666581672	0.0\\
13.097198826708176	0.0\\
13.183980144969741	0.0\\
13.26992679861213	0.0\\
13.35848221707279	0.0\\
13.445104847913008	0.0\\
13.534576381547087	0.0\\
13.622875897105779	0.0\\
13.715271886287411	0.0\\
13.806040699621455	0.0\\
13.895428664804395	0.0\\
13.987346601643246	0.0\\
14.080007563742996	0.0\\
14.1716964042215	0.0\\
14.263562183911276	0.0\\
14.355213777099816	0.0\\
14.446250666513638	0.0\\
14.538528550482052	0.0\\
14.633387866849468	0.0\\
14.72907157606587	0.0\\
14.822982400900749	0.0\\
14.91752733255468	0.0\\
15.011563044137553	0.0\\
15.108085488375032	0.0\\
15.206509347405934	0.0\\
15.304295382315455	0.0\\
15.403982517605268	0.0\\
15.501738701494357	0.0\\
15.599671344317596	0.0\\
15.697390427017886	0.0\\
15.795559180758193	0.0\\
15.89581865303121	0.0\\
15.996173839731139	0.0\\
16.097833200549516	0.0\\
16.199554828122068	0.0\\
16.301416610335714	0.0\\
16.404420929832455	0.0\\
16.50642142625287	0.0\\
16.607869795832386	0.0\\
16.710761618277942	0.0\\
16.81465979808744	0.0\\
16.917802071845095	0.0\\
17.01970025046225	0.0\\
17.12483288476978	0.0\\
17.231076313902896	0.0\\
17.33744422376796	0.0\\
17.44223740361111	0.0\\
17.55095777873052	0.0\\
17.65865140689337	0.0\\
17.765797658012644	0.0\\
17.87344296809473	0.0\\
17.983495493179213	0.0\\
18.09140735527133	0.0\\
18.199491081482613	0.0\\
18.310376261622665	0.0\\
18.422542616989787	0.0\\
18.53415740116597	0.0\\
18.64470180930506	0.0\\
18.757477656659844	0.0\\
18.86887976211652	0.0\\
18.98301450239927	0.0\\
19.096811037831856	0.0\\
19.2117424472939	0.0\\
19.325147148388474	0.0\\
19.438470047950076	0.0\\
19.552818758923863	0.0\\
19.668984237786454	0.0\\
19.787059157809132	0.0\\
19.90414757336596	0.0\\
20.020218310708742	0.0\\
20.13745161763952	0.0\\
20.255922514365892	0.0\\
20.374377224617717	0.0\\
20.4945239956107	0.0\\
20.61398168239743	0.0\\
20.733946965927494	0.0\\
20.855390349575742	0.0\\
20.976634810018417	0.0\\
21.09851007263704	0.0\\
21.218217144578766	0.0\\
21.340471044379377	0.0\\
21.46339058897565	0.0\\
21.585993691554975	0.0\\
21.70980792673773	0.0\\
21.834432793880026	0.0\\
21.956203774721352	0.0\\
22.081567057815953	0.0\\
22.208772633267763	0.0\\
22.335186984345825	0.0\\
22.461326543763384	0.0\\
22.588230222424933	0.0\\
22.715345111452983	0.0\\
22.843938098342257	0.0\\
22.969732289268705	0.0\\
23.099610218432673	0.0\\
23.226954625823772	0.0\\
23.355382933009487	0.0\\
23.484117532875878	0.0\\
23.61311589418532	0.0\\
23.742262325909238	0.0\\
23.871396626987107	0.0\\
24.003277614400886	0.0\\
24.13589524582158	0.0\\
24.26894633419417	0.0\\
24.402560013414252	0.0\\
24.533653589547036	0.0\\
24.668073888129854	0.0\\
24.802433017106623	0.0\\
24.93655909342982	0.0\\
25.07143808091306	0.0\\
25.207561694960198	0.0\\
25.341290039366285	0.0\\
25.474552806626917	0.0\\
25.50144311925164	0.0\\
25.5759340011818	0.0\\
25.58102499911392	0.0\\
25.58470813422234	0.0\\
25.588215911238073	0.0\\
25.600785241672277	0.0\\
25.635792796431325	0.0\\
25.71640041756517	0.0\\
25.8523493658925	0.0\\
25.97882639610753	0.0\\
26.10538678614398	0.0\\
26.231165610165377	0.0\\
26.35674703707931	0.0\\
26.486177669683556	0.0\\
26.617776205297957	0.0\\
26.74670315120111	0.0\\
26.876704264294062	0.0\\
27.01123246113204	0.0\\
27.143253171856088	0.0\\
27.273772762045027	0.0\\
27.40522526452999	0.0\\
27.537121391030745	0.0\\
27.66916022545795	0.0\\
27.803313173578225	0.0\\
27.938501887496017	0.0\\
28.072389035300134	0.0\\
28.20995128294375	0.0\\
28.346506859872363	0.0\\
28.483086682623195	0.0\\
28.619344455567038	0.0\\
28.755286323728214	0.0\\
28.894927557222047	0.0\\
29.03420811154306	0.0\\
29.173563857085064	0.0\\
29.314326407129343	0.0\\
29.455067480416908	0.0\\
29.594157188267722	0.0\\
29.736681433860582	0.0\\
29.879071521032678	0.0\\
30.021121069713743	0.0\\
30.1660798468097	0.0\\
30.310687985626082	0.0\\
30.45580142937633	0.0\\
30.6005146210506	0.0\\
30.745731216708776	0.0\\
30.89323379886239	0.0\\
31.041022821133346	0.0\\
31.188115160515387	0.0\\
31.335405333171046	0.0\\
31.48435304764147	0.0\\
31.634813411188908	0.0\\
31.787124024571177	0.0\\
31.936229510087855	0.0\\
32.086897532438456	0.0\\
32.236529347962374	0.0\\
32.38735933572569	0.0\\
32.54006710051492	0.0\\
32.69099178757553	0.0\\
32.84515114593202	0.0\\
32.996385464852594	0.0\\
33.14937141728001	0.0\\
33.305665998386004	0.0\\
33.460418800026616	0.0\\
33.616109625880654	0.0\\
33.77327312102862	0.0\\
33.9326920972627	0.0\\
34.09105052586206	0.0\\
34.249402416493055	0.0\\
34.40936121493536	0.0\\
34.56862214115888	0.0\\
34.727531363420326	0.0\\
34.8871600740184	0.0\\
35.04529964637692	0.0\\
35.20594539286675	0.0\\
35.363788119544054	0.0\\
35.52268191011321	0.0\\
35.68471983935868	0.0\\
35.84778784222708	0.0\\
36.01092969953069	0.0\\
36.17327001899076	0.0\\
36.336427651383346	0.0\\
36.500190310651604	0.0\\
36.66606116492454	0.0\\
36.83184460304567	0.0\\
36.99602926883226	0.0\\
37.16054594987418	0.0\\
37.32545808149992	0.0\\
37.493350288646795	0.0\\
37.662611807846105	0.0\\
37.831801448665615	0.0\\
37.99869229765014	0.0\\
38.1674980088668	0.0\\
38.33624863401006	0.0\\
38.506278652509266	0.0\\
38.674990840576555	0.0\\
38.846113613014666	0.0\\
39.01907155568843	0.0\\
39.189673460094625	0.0\\
39.35895544734126	0.0\\
39.53389933885826	0.0\\
39.70812065214345	0.0\\
39.8799759194046	0.0\\
40.05357595865209	0.0\\
40.22826105019891	0.0\\
40.405670025835704	0.0\\
40.581159826414265	0.0\\
40.758661193854635	0.0\\
40.93536878201198	0.0\\
41.112390148125826	0.0\\
41.2905202294626	0.0\\
41.465773395976214	0.0\\
41.64457669406332	0.0\\
41.82233046236415	0.0\\
42.00116108700712	0.0\\
42.18038549494476	0.0\\
42.36069264988308	0.0\\
42.5403197842906	0.0\\
42.72171083303407	0.0\\
42.90231175882896	0.0\\
43.0816339508179	0.0\\
43.26124009525664	0.0\\
43.44376978470652	0.0\\
43.62703136154356	0.0\\
43.811498568242314	0.0\\
43.994653970673255	0.0\\
44.17955294494796	0.0\\
44.36199645788939	0.0\\
44.546315067333296	0.0\\
44.730896770849384	0.0\\
44.917564466011015	0.0\\
45.10291894910149	0.0\\
45.28903472343241	0.0\\
45.4737724641365	0.0\\
45.66185871924168	0.0\\
45.847781026448246	0.0\\
46.03584546535953	0.0\\
46.22439581401848	0.0\\
46.412894376700976	0.0\\
46.605209657630425	0.0\\
46.79569826226867	0.0\\
46.986754218288695	0.0\\
47.17854451210614	0.0\\
47.36788659495666	0.0\\
47.55795997499989	0.0\\
47.75023926134655	0.0\\
47.94367037556847	0.0\\
48.13733489784886	0.0\\
48.33198682489876	0.0\\
48.527111606732575	0.0\\
48.72214685244572	0.0\\
48.91831256878446	0.0\\
49.11391546665595	0.0\\
49.31130002698025	0.0\\
49.50612043713984	0.0\\
49.70259265251657	0.0\\
49.901122990734336	0.0\\
50.099709619255506	0.0\\
50.2985717393795	0.0\\
50.497123798684314	0.0\\
50.696934663181494	0.0\\
50.89716583792078	0.0\\
51.099731397413024	0.0\\
51.29870439195726	0.0\\
51.49905541915088	0.0\\
51.70194442710381	0.0\\
51.904815092872994	0.0\\
52.10896136733682	0.0\\
52.31301594265632	0.0\\
52.51628248614311	0.0\\
52.7194716176805	0.0\\
52.926935935005204	0.0\\
53.13251088882413	0.0\\
53.33958171986313	0.0\\
53.54342987388597	0.0\\
53.74994692029041	0.0\\
53.95601821807068	0.0\\
54.16404650522179	0.0\\
54.37239843615944	0.0\\
54.58120460807784	0.0\\
54.79204685545993	0.0\\
54.999618844521464	0.0\\
55.21297590032157	0.0\\
55.42532423896495	0.0\\
55.63798122139113	0.0\\
55.84929577470656	0.0\\
56.06112933665578	0.0\\
56.273339332526035	0.0\\
56.487981657774	0.0\\
56.70163161171321	0.0\\
56.91533004593228	0.0\\
57.128542021537044	0.0\\
57.341815304042996	0.0\\
57.556524306424734	0.0\\
57.77121349665933	0.0\\
57.99045226278008	0.0\\
58.21163159877143	0.0\\
58.42755485439312	0.0\\
58.64762055049445	0.0\\
58.86549786092007	0.0\\
59.08110534562667	0.0\\
59.30150836647064	0.0\\
59.523369545733104	0.0\\
59.74545669991576	0.0\\
59.96819458863561	0.0\\
60.192610901318446	0.0\\
60.41685303697733	0.0\\
60.63943340808673	0.0\\
60.86243725858105	0.0\\
61.087387386501504	0.0\\
61.312967674501934	0.0\\
61.539922453545245	0.0\\
61.766220404137556	0.0\\
61.99252341885473	0.0\\
62.22290458368424	0.0\\
62.45401905554074	0.0\\
62.681934693190925	0.0\\
62.911036206319935	0.0\\
63.14325260562316	0.0\\
63.37427787627517	0.0\\
63.60547590884926	0.0\\
63.840017219249205	0.0\\
64.07293021489374	0.0\\
64.3084604827086	0.0\\
64.5437051757381	0.0\\
64.77872206928058	0.0\\
65.01308910472795	0.0\\
65.24911349494474	0.0\\
65.48765804826411	0.0\\
65.72448269887195	0.0\\
65.96301079794586	0.0\\
66.20226545665247	0.0\\
66.44108856569267	0.0\\
66.68211892097898	0.0\\
66.92366663289425	0.0\\
67.16771935204801	0.0\\
67.41223707471289	0.0\\
67.65753102817487	0.0\\
67.90011693249966	0.0\\
68.14481889550859	0.0\\
68.38914646634316	0.0\\
68.63585299266461	0.0\\
68.88504081079034	0.0\\
69.13292178160535	0.0\\
69.3818129543071	0.0\\
69.63293396520476	0.0\\
69.88286336730076	0.0\\
70.13554072594164	0.0\\
70.38774244009971	0.0\\
70.6391676300718	0.0\\
70.8946718668015	0.0\\
71.14833146108984	0.0\\
71.4025074522346	0.0\\
71.66156242815126	0.0\\
71.92027918509496	0.0\\
72.17889679626529	0.0\\
72.4378954145077	0.0\\
72.69970560710271	0.0\\
72.9613038866527	0.0\\
73.22092141715785	0.0\\
73.4833396613837	0.0\\
73.74600266105335	0.0\\
74.01092424130167	0.0\\
74.27923230983217	0.0\\
74.54697155873473	0.0\\
74.81368154472509	0.0\\
75.08550254995646	0.0\\
75.35337454991506	0.0\\
75.62060297082033	0.0\\
75.8930595288426	0.0\\
76.1621793572684	0.0\\
76.43458035155084	0.0\\
76.70919040487942	0.0\\
76.98186118377441	0.0\\
77.25581109285994	0.0\\
77.53074782922127	0.0\\
77.81278401159003	0.0\\
78.09183058782281	0.0\\
78.37252440765238	0.0\\
78.65413996894222	0.0\\
78.93779488994258	0.0\\
79.22020126675059	0.0\\
79.5043054178764	0.0\\
79.78799282928725	0.0\\
80.07426795518103	0.0\\
80.36206173670419	0.0\\
80.65011154965475	0.0\\
80.94124014043979	0.0\\
81.23331233189455	0.0\\
81.52747377253729	0.0\\
81.82050926692614	0.0\\
82.11174296440501	0.0\\
82.40762115154999	0.0\\
82.70105581419463	0.0\\
82.9965566307761	0.0\\
83.2955249098714	0.0\\
83.59334983049942	0.0\\
83.89281438122714	0.0\\
84.19366490892668	0.0\\
84.49386870537981	0.0\\
84.79818321919399	0.0\\
85.10096005557006	0.0\\
85.40841855323376	0.0\\
85.71631172169683	0.0\\
86.02830181264164	0.0\\
86.3402878478731	0.0\\
86.6527218498947	0.0\\
86.96825567567058	0.0\\
87.28456067908527	0.0\\
87.60139886641238	0.0\\
87.91377033498361	0.0\\
88.2329169731471	0.0\\
88.55451237842581	0.0\\
88.87632982710792	0.0\\
89.19792550891984	0.0\\
89.51859560630265	0.0\\
89.83813724038836	0.0\\
90.16355195474026	0.0\\
90.48984374320287	0.0\\
90.81192832428755	0.0\\
91.13735761592585	0.0\\
91.46327718731001	0.0\\
91.79195914660676	0.0\\
92.12387334395521	0.0\\
92.45366340909627	0.0\\
92.784886328608	0.0\\
93.11881968308526	0.0\\
93.44933352739164	0.0\\
93.78537164416255	0.0\\
94.11961938108595	0.0\\
94.45324270153796	0.0\\
94.78977749407156	0.0\\
95.12728954751313	0.0\\
95.46615723951368	0.0\\
95.80540032110511	0.0\\
96.14328198239659	0.0\\
96.4795485136406	0.0\\
96.8168988241965	0.0\\
97.15864997346614	0.0\\
97.49691124094184	0.0\\
97.83374870893218	0.0\\
98.17336239322904	0.0\\
98.51580285288532	0.0\\
98.85417498138676	0.0\\
99.18977627639384	0.0\\
99.53065866757436	0.0\\
99.87029432574985	0.0\\
100.21207149250372	0.0\\
100.55236039969625	0.0\\
100.89186594403472	0.0\\
101.22905684407482	0.0\\
101.57044475881924	0.0\\
101.90979249921537	0.0\\
102.24748997900616	0.0\\
102.58472642518802	0.0\\
102.92057876652896	0.0\\
103.2539339678928	0.0\\
103.58701757133184	0.0\\
103.92472971670688	0.0\\
104.25963220507478	0.0\\
104.59275772586338	0.0\\
104.93184553834382	0.0\\
105.26631625571227	0.0\\
105.60031900916655	0.0\\
105.93620242240948	0.0\\
106.26689680011313	0.0\\
106.33348729140508	0.0\\
106.37499685919838	0.0\\
106.40860778816568	0.0\\
106.43119180298976	0.0\\
106.44722805732232	0.0\\
106.457473105046	0.0\\
106.46217936883986	0.0\\
106.46496572051919	0.0\\
106.46785653824449	0.0\\
106.48210214130123	0.0\\
106.53998173566913	0.0\\
106.70432341177266	0.0\\
106.99054502225638	0.0\\
107.29125073895685	0.0\\
107.59459612453853	0.0\\
107.89929565864878	0.0\\
108.20487300220603	0.0\\
108.5126435430112	0.0\\
108.82100397517766	0.0\\
109.1321122011673	0.0\\
109.44193877829423	0.0\\
109.7543949369443	0.0\\
110.06688928039253	0.0\\
110.38296748749715	0.0\\
110.70025806796775	0.0\\
111.01722727004375	0.0\\
111.33938486876073	0.0\\
111.66055740176711	0.0\\
111.98114449024666	0.0\\
112.30560099418918	0.0\\
112.63198717749958	0.0\\
112.9612774487307	0.0\\
113.29265657024527	0.0\\
113.62335019234911	0.0\\
113.95462607162068	0.0\\
114.29176220163578	0.0\\
114.6308128558367	0.0\\
114.97120148272779	0.0\\
115.31440897720563	0.0\\
115.65591545111863	0.0\\
116.00064440928003	0.0\\
116.34486354580082	0.0\\
116.69362040064019	0.0\\
117.04285013406039	0.0\\
117.39512533345899	0.0\\
117.74741414421646	0.0\\
118.10303832840356	0.0\\
118.45571948012099	0.0\\
118.81003327709115	0.0\\
119.16681257999718	0.0\\
119.52663762223156	0.0\\
119.88876725107156	0.0\\
120.24995601324466	0.0\\
120.61084602258657	0.0\\
120.97616520751293	0.0\\
121.34334758477473	0.0\\
121.71025331175056	0.0\\
122.07747259012984	0.0\\
122.44578715685458	0.0\\
122.81744023446649	0.0\\
123.19009918236398	0.0\\
123.56123351878759	0.0\\
123.93715313997072	0.0\\
124.31146469402427	0.0\\
124.68526660327976	0.0\\
125.06081596392403	0.0\\
125.4364241959469	0.0\\
125.80802499570223	0.0\\
126.1848497266096	0.0\\
126.5609710338282	0.0\\
126.93305383109873	0.0\\
127.31114129795554	0.0\\
127.68521821979309	0.0\\
128.06046301290115	0.0\\
128.43801165468585	0.0\\
128.81521487015914	0.0\\
129.19219413500986	0.0\\
129.56612845520198	0.0\\
129.94267519490052	0.0\\
130.3181878313651	0.0\\
130.69228806236066	0.0\\
131.0676335246473	0.0\\
131.44069256509738	0.0\\
131.8164990241899	0.0\\
132.1931977854564	0.0\\
132.56788559077893	0.0\\
132.9441588403875	0.0\\
133.32075630072865	0.0\\
133.69358561268064	0.0\\
134.06729434800218	0.0\\
134.44034471502948	0.0\\
134.8140531244187	0.0\\
135.18651705910264	0.0\\
135.55938125316158	0.0\\
135.93264478721085	0.0\\
136.30740026366334	0.0\\
136.6784269209433	0.0\\
137.0521063827307	0.0\\
137.42630805162537	0.0\\
137.79824015832446	0.0\\
138.17197880496752	0.0\\
138.54398262673232	0.0\\
138.9181701073686	0.0\\
139.2918177914372	0.0\\
139.66395608322267	0.0\\
140.03771877141975	0.0\\
140.41191567198234	0.0\\
140.785214435772	0.0\\
141.1569699646381	0.0\\
141.52828555088394	0.0\\
141.9041014462735	0.0\\
142.27843281827558	0.0\\
142.6531859827976	0.0\\
143.02636833273493	0.0\\
143.40115329183038	0.0\\
143.7755577578822	0.0\\
144.14846071828862	0.0\\
144.52420405339825	0.0\\
144.89820769561425	0.0\\
145.27269214017286	0.0\\
145.64715502381193	0.0\\
146.0246576647304	0.0\\
146.3980003741944	0.0\\
146.77188540290956	0.0\\
147.14699849483344	0.0\\
147.52131776226065	0.0\\
147.89602893943328	0.0\\
148.27204034411415	0.0\\
148.64608729848084	0.0\\
149.0208593455847	0.0\\
149.39764195764786	0.0\\
149.77339461409542	0.0\\
150.1534148831098	0.0\\
150.5291076514028	0.0\\
150.90903965895268	0.0\\
151.28543144418177	0.0\\
151.6633602951634	0.0\\
152.04249724748917	0.0\\
152.42107498922724	0.0\\
152.80096884172895	0.0\\
153.18008210542433	0.0\\
153.56021362675494	0.0\\
153.93998936888823	0.0\\
154.31952056284706	0.0\\
154.70033899148706	0.0\\
155.0808456605577	0.0\\
155.46260683652747	0.0\\
155.8451500717461	0.0\\
156.22658081777672	0.0\\
156.60827055160593	0.0\\
156.9909464565656	0.0\\
157.37447262340498	0.0\\
157.75928833119883	0.0\\
158.14175289248914	0.0\\
158.52848710229284	0.0\\
158.91177799657294	0.0\\
159.2956497528856	0.0\\
159.68037959094522	0.0\\
160.06564096408647	0.0\\
160.45096257460483	0.0\\
160.83715950875825	0.0\\
161.2258713073063	0.0\\
161.6123323162809	0.0\\
162.0020733751664	0.0\\
162.38979962136716	0.0\\
162.78005749517496	0.0\\
163.16926884367706	0.0\\
163.55903424207065	0.0\\
163.94986558386933	0.0\\
164.34027010332778	0.0\\
164.72897674527087	0.0\\
165.1219618404894	0.0\\
165.51648116340715	0.0\\
165.91121110303834	0.0\\
166.305125129374	0.0\\
166.70055814189493	0.0\\
167.09355837361738	0.0\\
167.4867487070524	0.0\\
167.88152655658757	0.0\\
168.27797625652778	0.0\\
168.67417091820505	0.0\\
169.0744241223909	0.0\\
169.4696289626308	0.0\\
169.86942142380093	0.0\\
170.26823373269303	0.0\\
170.66825541214263	0.0\\
171.06882877564112	0.0\\
171.47052101522314	0.0\\
171.87117220207847	0.0\\
172.27408818569603	0.0\\
172.67888262744867	0.0\\
173.08278584620598	0.0\\
173.48711221007846	0.0\\
173.89286364513737	0.0\\
174.30044396299678	0.0\\
174.70785810564865	0.0\\
175.1148217729209	0.0\\
175.52417397745887	0.0\\
175.9353018887096	0.0\\
176.3445277394477	0.0\\
176.75679769119074	0.0\\
177.1675329613106	0.0\\
177.58147861087787	0.0\\
177.99464686026658	0.0\\
178.40846172066875	0.0\\
178.8221588369641	0.0\\
179.23788859262316	0.0\\
179.65594628198625	0.0\\
180.07393730685396	0.0\\
180.49154769314794	0.0\\
180.91067637722034	0.0\\
181.32733049951304	0.0\\
181.74511868140502	0.0\\
182.16838055329725	0.0\\
182.5935731219521	0.0\\
183.01849763465827	0.0\\
183.44789807780944	0.0\\
183.87296697220467	0.0\\
184.3005805343215	0.0\\
184.7275357140556	0.0\\
185.15540561964053	0.0\\
185.58828973829708	0.0\\
186.0209685893201	0.0\\
186.45209324401605	0.0\\
186.88635114466473	0.0\\
187.3202530286718	0.0\\
187.75627482837768	0.0\\
188.19290135663692	0.0\\
188.63474465174716	0.0\\
189.07311754437853	0.0\\
189.51196080445675	0.0\\
189.95324255860208	0.0\\
190.39726596022723	0.0\\
190.84057804609728	0.0\\
191.28574213849475	0.0\\
191.73164607656958	0.0\\
192.18211492962195	0.0\\
192.632212918464	0.0\\
193.08574784107805	0.0\\
193.53718076485956	0.0\\
193.9889309324463	0.0\\
194.44192149972122	0.0\\
194.89579355743757	0.0\\
195.34994743186104	0.0\\
195.8058879641373	0.0\\
196.26245662347003	0.0\\
196.72016737285458	0.0\\
197.18359847535754	0.0\\
197.64589060843696	0.0\\
198.11087782386443	0.0\\
198.57502374365885	0.0\\
199.04300438502406	0.0\\
199.51338163613372	0.0\\
199.98393648855864	0.0\\
200.45516506696913	0.0\\
200.92864741549454	0.0\\
201.40444982665974	0.0\\
201.88275447800072	0.0\\
202.35951076264297	0.0\\
202.8411124640724	0.0\\
203.32141288234197	0.0\\
203.80789076149057	0.0\\
204.29622653061597	0.0\\
204.78464735065688	0.0\\
205.2720699180345	0.0\\
205.76371166647334	0.0\\
206.25812404621178	0.0\\
206.7538852744985	0.0\\
207.25226803960481	0.0\\
207.75369831762367	0.0\\
208.2576130451625	0.0\\
208.76384232452614	0.0\\
209.26687195306613	0.0\\
209.7753918597067	0.0\\
210.2846893697261	0.0\\
210.7963991052548	0.0\\
211.31379007685774	0.0\\
211.83462216092812	0.0\\
212.35583345573502	0.0\\
212.88092061723842	0.0\\
213.4053181133067	0.0\\
213.93048265793448	0.0\\
214.46080198276206	0.0\\
214.99280682831574	0.0\\
215.5294770958094	0.0\\
216.07284281333642	0.0\\
216.61517032692353	0.0\\
217.1649754620828	0.0\\
217.71148410367374	0.0\\
218.26737841805794	0.0\\
218.82240503157732	0.0\\
219.38168577081672	0.0\\
219.94757377678263	0.0\\
220.5157757014327	0.0\\
221.08753515993334	0.0\\
221.66450025786634	0.0\\
222.24385220045775	0.0\\
222.82885466274382	0.0\\
223.4112244925018	0.0\\
224.0015354336785	0.0\\
224.60005104881571	0.0\\
225.20097165321243	0.0\\
225.80679778963525	0.0\\
226.4142763690901	0.0\\
227.02575673380335	0.0\\
227.63461372304909	0.0\\
228.24974742285855	0.0\\
228.86673693726647	0.0\\
229.48436427341443	0.0\\
230.0989457634348	0.0\\
230.722114636328	0.0\\
231.34244873087368	0.0\\
231.97325724844399	0.0\\
232.59474255779588	0.0\\
233.22159326059818	0.0\\
233.8431015560668	0.0\\
234.46367634501973	0.0\\
235.08641879225445	0.0\\
235.70278557911195	0.0\\
236.31864509320485	0.0\\
236.93937737772637	0.0\\
237.55407410514982	0.0\\
238.16547554548157	0.0\\
238.77939087141692	0.0\\
239.3813168273977	0.0\\
239.98100147277364	0.0\\
240.57543920085465	0.0\\
241.16836030089274	0.0\\
241.7571167129284	0.0\\
242.34201365077286	0.0\\
242.93055448890203	0.0\\
243.51170262633934	0.0\\
244.09257059533718	0.0\\
244.67179294361154	0.0\\
245.24482151044447	0.0\\
245.8173160071512	0.0\\
246.38351716417617	0.0\\
246.95362849999805	0.0\\
247.5202096844256	0.0\\
248.08325741316798	0.0\\
248.64446305128456	0.0\\
249.20075824534877	0.0\\
249.75469846513056	0.0\\
250.30945619721592	0.0\\
250.8614556493837	0.0\\
251.408510583341	0.0\\
251.95355357370266	0.0\\
252.4996012707087	0.0\\
253.04126098987143	0.0\\
253.1488138397171	0.0\\
253.16819209411136	0.0\\
253.1837823680185	0.0\\
253.19662431846268	0.0\\
253.2071936664194	0.0\\
253.21275590301065	0.0\\
253.22117114680987	0.0\\
253.26352439711104	0.0\\
253.41432990884306	0.0\\
253.82930310711612	0.0\\
254.30306641551323	0.0\\
254.78159567442054	0.0\\
255.25932726785965	0.0\\
255.7437876764298	0.0\\
256.23033824242543	0.0\\
256.72149575104197	0.0\\
257.2130748498888	0.0\\
257.70796578879254	0.0\\
258.206669200321	0.0\\
258.70610515962187	0.0\\
259.2079502656683	0.0\\
259.71188112252	0.0\\
260.2189424756507	0.0\\
260.7262302511605	0.0\\
261.24022815529725	0.0\\
261.75685841556344	0.0\\
262.27381092857786	0.0\\
262.79851097873814	0.0\\
263.3270605395941	0.0\\
263.85902142499447	0.0\\
264.3957196258134	0.0\\
264.9350026981771	0.0\\
265.4771865976642	0.0\\
266.02438826793184	0.0\\
266.57502465504126	0.0\\
267.12985589644336	0.0\\
267.69508687819234	0.0\\
268.2574473439623	0.0\\
268.82260791852957	0.0\\
269.39444721478594	0.0\\
269.97137562145883	0.0\\
270.55380970007513	0.0\\
271.14197731531294	0.0\\
271.73437146929496	0.0\\
272.33148825752005	0.0\\
272.9364726389575	0.0\\
273.5439946102076	0.0\\
274.1524582923545	0.0\\
274.7654429342565	0.0\\
275.3786325850501	0.0\\
275.99829889928617	0.0\\
276.625244334335	0.0\\
277.25199692051126	0.0\\
277.8805156104013	0.0\\
278.51241528731794	0.0\\
279.1472993194542	0.0\\
279.7798163586458	0.0\\
280.415774521491	0.0\\
281.0491750679978	0.0\\
281.6859483568941	0.0\\
282.32015512620876	0.0\\
282.9553797230003	0.0\\
283.58792414238735	0.0\\
284.2169522637232	0.0\\
284.84572396143164	0.0\\
285.47678441782114	0.0\\
286.10864649330836	0.0\\
286.7287745354	0.0\\
287.34611027100766	0.0\\
287.9675615727342	0.0\\
288.5858120101028	0.0\\
289.2040505432649	0.0\\
289.81305758687665	0.0\\
290.4204868585308	0.0\\
291.03235102704366	0.0\\
291.6389287296397	0.0\\
292.24256191587233	0.0\\
292.84553447424435	0.0\\
293.4438226071644	0.0\\
294.0409792947876	0.0\\
294.63063723150856	0.0\\
295.224486883787	0.0\\
295.81621351620277	0.0\\
296.40631441129733	0.0\\
296.99593820771656	0.0\\
297.5837872894514	0.0\\
298.1710572547879	0.0\\
298.75194642054066	0.0\\
299.3365399263279	0.0\\
299.92021707211177	0.0\\
300.5048038985856	0.0\\
301.07972254917684	0.0\\
301.65871501792253	0.0\\
302.23544339879004	0.0\\
302.8098166673582	0.0\\
303.382790903624	0.0\\
303.95411688302784	0.0\\
304.52572928756194	0.0\\
305.09702326798686	0.0\\
305.66909170428767	0.0\\
306.2389054217898	0.0\\
306.8075228050035	0.0\\
307.37625354138174	0.0\\
307.94253431645916	0.0\\
308.5093283037037	0.0\\
309.0741525852028	0.0\\
309.63790685611514	0.0\\
310.20182157857266	0.0\\
310.7628361601812	0.0\\
311.3282164355909	0.0\\
311.89268611617024	0.0\\
312.4584080165224	0.0\\
313.02159660049847	0.0\\
313.5840055190747	0.0\\
314.14555836603915	0.0\\
314.70744289948163	0.0\\
315.268337889587	0.0\\
315.8303704538257	0.0\\
316.39286263622955	0.0\\
316.9544987760597	0.0\\
317.51667588976545	0.0\\
318.0790129222488	0.0\\
318.6366322619465	0.0\\
319.19814757516315	0.0\\
319.75676359471856	0.0\\
320.3187177488146	0.0\\
320.8782448269069	0.0\\
321.43751154778784	0.0\\
321.99768440814876	0.0\\
322.5600371677781	0.0\\
323.11959052824477	0.0\\
323.67937097972344	0.0\\
324.2414708866254	0.0\\
324.8019271123844	0.0\\
325.36119738589264	0.0\\
325.9242540504797	0.0\\
326.4835412969944	0.0\\
327.0433627497323	0.0\\
327.6030477703922	0.0\\
328.1635910293122	0.0\\
328.72721834449067	0.0\\
329.28913308860956	0.0\\
329.84898169301687	0.0\\
330.41024941985984	0.0\\
330.9701687068524	0.0\\
331.5325210682887	0.0\\
332.09615480258867	0.0\\
332.6582728849294	0.0\\
333.2212641275107	0.0\\
333.78453649946596	0.0\\
334.34704722103925	0.0\\
334.9085363225354	0.0\\
335.47219158948656	0.0\\
336.03770868904985	0.0\\
336.60021491247426	0.0\\
337.164763535622	0.0\\
337.7300631146451	0.0\\
338.29569272794674	0.0\\
338.8620957725997	0.0\\
339.4283215708232	0.0\\
339.99415456232873	0.0\\
340.56464247726854	0.0\\
341.1345764539367	0.0\\
341.70271740632006	0.0\\
342.27245215221524	0.0\\
342.8434610976533	0.0\\
343.4144649347172	0.0\\
343.984884458447	0.0\\
344.55562013709914	0.0\\
345.1274307304152	0.0\\
345.6991236865042	0.0\\
346.2724608976106	0.0\\
346.845782037636	0.0\\
347.4175902060348	0.0\\
347.98929436482194	0.0\\
348.56420147749884	0.0\\
349.1410262205544	0.0\\
349.71588047656485	0.0\\
350.29209849271047	0.0\\
350.86868202225514	0.0\\
351.4510291101999	0.0\\
352.0306324127814	0.0\\
352.6092432498283	0.0\\
353.18876518286606	0.0\\
353.7694192783765	0.0\\
354.34843441171336	0.0\\
354.927716852344	0.0\\
355.5088980570638	0.0\\
356.09015458630836	0.0\\
356.6750178675279	0.0\\
357.2592942703857	0.0\\
357.8430227771056	0.0\\
358.42763932122045	0.0\\
359.015072217451	0.0\\
359.60104357058685	0.0\\
360.19078598942485	0.0\\
360.778582778148	0.0\\
361.3674359646898	0.0\\
361.9532913471419	0.0\\
362.54324641173696	0.0\\
363.13475408750946	0.0\\
363.72670023032936	0.0\\
364.3216988728641	0.0\\
364.91629231369564	0.0\\
365.51445534509253	0.0\\
366.1107290539038	0.0\\
366.7083704523294	0.0\\
367.3083188412687	0.0\\
367.90810715165117	0.0\\
368.5107196791125	0.0\\
369.11310622225324	0.0\\
369.71838879276936	0.0\\
370.3224805552321	0.0\\
370.92691039937665	0.0\\
371.531080400072	0.0\\
372.1351582088249	0.0\\
372.7425785137583	0.0\\
373.35070517362203	0.0\\
373.96050140264254	0.0\\
374.57426164671494	0.0\\
375.18775632483266	0.0\\
375.8025054899716	0.0\\
376.4183941555432	0.0\\
377.036157180591	0.0\\
377.65505813652214	0.0\\
378.2719293378151	0.0\\
378.8909778407759	0.0\\
379.5119717214518	0.0\\
380.1304093985665	0.0\\
380.7539319375877	0.0\\
381.377488569079	0.0\\
382.00412815402626	0.0\\
382.6328450687505	0.0\\
383.2631286425798	0.0\\
383.89165251718316	0.0\\
384.52173464362284	0.0\\
385.1531705630896	0.0\\
385.78936789488205	0.0\\
386.42309610358836	0.0\\
387.05764400489113	0.0\\
387.6954920751797	0.0\\
388.33483486853834	0.0\\
388.9761975281216	0.0\\
389.61933106250365	0.0\\
390.2654861091645	0.0\\
390.9102611975036	0.0\\
391.5589683237554	0.0\\
392.2085621207834	0.0\\
392.8559582459146	0.0\\
393.50855051623853	0.0\\
394.1619436525448	0.0\\
394.81718949105573	0.0\\
395.47582040435145	0.0\\
396.1350086783008	0.0\\
396.7992690747477	0.0\\
397.4598193356777	0.0\\
398.1245377356655	0.0\\
398.7932461547799	0.0\\
399.46339584754935	0.0\\
400.1361397462392	0.0\\
400.80782433846264	0.0\\
401.48331569845334	0.0\\
402.1558870975806	0.0\\
402.83373598120465	0.0\\
403.51858080091154	0.0\\
404.20495686213815	0.0\\
404.89138919151276	0.0\\
405.5782836115194	0.0\\
406.26899787518096	0.0\\
406.96495731692255	0.0\\
407.66223596240025	0.0\\
408.3581158233353	0.0\\
409.05987330460584	0.0\\
409.76189908353115	0.0\\
410.46798508148345	0.0\\
411.1781460426254	0.0\\
411.89252629574776	0.0\\
412.6099219905526	0.0\\
413.3267356835721	0.0\\
414.04289122142313	0.0\\
414.76467386265483	0.0\\
415.4902413711201	0.0\\
416.22310191950976	0.0\\
416.95605722569394	0.0\\
417.69179594913396	0.0\\
418.4317733358945	0.0\\
419.17431922313483	0.0\\
419.9254721628341	0.0\\
420.6719856542569	0.0\\
421.4230492978952	0.0\\
422.18501759372384	0.0\\
422.94576021989985	0.0\\
423.7140720273537	0.0\\
424.4856937255338	0.0\\
425.26187416748394	0.0\\
426.0447565561203	0.0\\
426.83056854233257	0.0\\
427.61945747313587	0.0\\
428.41784437459535	0.0\\
429.21803771724467	0.0\\
430.02397061246324	0.0\\
430.83478213389435	0.0\\
431.65136324029356	0.0\\
432.4790081599091	0.0\\
433.3141423067307	0.0\\
434.1542265250947	0.0\\
435.003161392734	0.0\\
435.85507079556146	0.0\\
436.70826637660014	0.0\\
437.58150845605326	0.0\\
438.457839681004	0.0\\
439.34707410675526	0.0\\
440.24123226094844	0.0\\
441.1523579576651	0.0\\
442.0673464703625	0.0\\
442.9942342836961	0.0\\
443.937399764033	0.0\\
444.8899544765534	0.0\\
445.85594700403635	0.0\\
446.8286295818426	0.0\\
447.80722953063264	0.0\\
448.8017517154209	0.0\\
449.7983304796701	0.0\\
450.805662499493	0.0\\
451.8119995298704	0.0\\
452.81588165598055	0.0\\
453.8135695821211	0.0\\
454.8064448773897	0.0\\
455.7903482522986	0.0\\
456.7671747104671	0.0\\
457.73220747263997	0.0\\
458.68865644649486	0.0\\
459.6333953524967	0.0\\
460.5665689820096	0.0\\
461.49336214642267	0.0\\
462.4101560111558	0.0\\
463.3102512158566	0.0\\
464.20619088989747	0.0\\
465.09274596013813	0.0\\
465.9726160332484	0.0\\
466.8455207893327	0.0\\
467.7101068913622	0.0\\
468.5654894786844	0.0\\
469.4174978092028	0.0\\
470.26317688639165	0.0\\
471.1012961241112	0.0\\
471.93318993555954	0.0\\
472.7575203744044	0.0\\
473.5832537614157	0.0\\
474.3998367198741	0.0\\
475.21332504982206	0.0\\
476.0247288711747	0.0\\
476.8295419991306	0.0\\
477.6288291922816	0.0\\
478.4255304532103	0.0\\
479.22100896978145	0.0\\
480.00851471011936	0.0\\
480.794535008141	0.0\\
481.57720489509757	0.0\\
482.35329570542444	0.0\\
483.1278241708404	0.0\\
483.89939420051314	0.0\\
484.6689365163576	0.0\\
485.4329009855759	0.0\\
486.1954443871997	0.0\\
486.3468643949451	0.0\\
486.7618524024307	0.0\\
486.9094347080062	0.0\\
486.91744904023597	0.0\\
486.92667141784887	0.0\\
486.97291146387215	0.0\\
487.1343625066205	0.0\\
487.6665767834313	0.0\\
488.4081581246535	0.0\\
489.1548350887846	0.0\\
489.90797031891395	0.0\\
490.66254775179027	0.0\\
491.4221365553293	0.0\\
492.18625608793207	0.0\\
492.95469842922785	0.0\\
493.72827052945286	0.0\\
494.5030744208201	0.0\\
495.2841489009794	0.0\\
496.0694717313663	0.0\\
496.8616472229803	0.0\\
497.6584497164645	0.0\\
498.4645107775325	0.0\\
499.2704783140715	0.0\\
500.0893509578748	0.0\\
500.9076236346813	0.0\\
501.7330021505518	0.0\\
502.5668270370386	0.0\\
503.4067823468481	0.0\\
504.2551084803504	0.0\\
505.1106888127799	0.0\\
505.9726115789439	0.0\\
506.84109106123356	0.0\\
507.7188428603879	0.0\\
508.6051431501455	0.0\\
509.5005291010972	0.0\\
510.4030705468955	0.0\\
511.3175083018144	0.0\\
512.2408899995571	0.0\\
513.1742154613398	0.0\\
514.1219390238991	0.0\\
515.0724564359525	0.0\\
516.0355756919005	0.0\\
517.0140687849528	0.0\\
518.0006871431597	0.0\\
518.9950504746023	0.0\\
519.9961965058226	0.0\\
521.012462048478	0.0\\
522.0392120273541	0.0\\
523.0694223761463	0.0\\
524.1008724108824	0.0\\
525.1335444850342	0.0\\
526.1737522994356	0.0\\
527.1997477425691	0.0\\
528.2301104500334	0.0\\
529.2594760103086	0.0\\
530.2748695837729	0.0\\
531.2863083414538	0.0\\
532.2909025646666	0.0\\
533.2907535300981	0.0\\
534.2803080932056	0.0\\
535.2655949327752	0.0\\
536.2446557023616	0.0\\
537.2083716118686	0.0\\
538.1729640865587	0.0\\
539.1314447194998	0.0\\
540.0838502659926	0.0\\
541.0291656373479	0.0\\
541.9644733864184	0.0\\
542.8976861397853	0.0\\
543.8271221908808	0.0\\
544.7520156855264	0.0\\
545.6728665853082	0.0\\
546.5869730488234	0.0\\
547.4982793693655	0.0\\
548.4049730831398	0.0\\
549.3070188492297	0.0\\
550.2042655527584	0.0\\
551.0965439619756	0.0\\
551.9901898679532	0.0\\
552.8814201335783	0.0\\
553.7666256997375	0.0\\
554.6483275083147	0.0\\
555.525896088627	0.0\\
556.4029124034878	0.0\\
557.2835507207992	0.0\\
558.1561284401853	0.0\\
559.0310821381238	0.0\\
559.9010071878142	0.0\\
560.7675445393661	0.0\\
561.6260389967929	0.0\\
562.4949335613719	0.0\\
563.3572637323246	0.0\\
564.2179669616914	0.0\\
565.0793124456375	0.0\\
565.935223126342	0.0\\
566.7930715069897	0.0\\
567.6505763921853	0.0\\
568.5016680747312	0.0\\
569.3498587737133	0.0\\
570.1996566716971	0.0\\
571.0533709175827	0.0\\
571.902711071169	0.0\\
572.7499158044309	0.0\\
573.5929169404451	0.0\\
574.4370395364938	0.0\\
575.2799275184843	0.0\\
576.1247275669607	0.0\\
576.970897161706	0.0\\
577.8120316910556	0.0\\
578.6569696899169	0.0\\
579.4939538592339	0.0\\
580.3346575763746	0.0\\
581.1716025514143	0.0\\
582.0084324604668	0.0\\
582.8471642199879	0.0\\
583.6893697122518	0.0\\
584.5259333364688	0.0\\
585.3637130124812	0.0\\
586.2052405112784	0.0\\
587.0404943457916	0.0\\
587.8776331056342	0.0\\
588.714411403334	0.0\\
589.5510634561113	0.0\\
590.3870372003607	0.0\\
591.2208341355947	0.0\\
592.0547039927965	0.0\\
592.8895291328427	0.0\\
593.7266174369222	0.0\\
594.5598143056632	0.0\\
595.3922880298232	0.0\\
596.2318707595243	0.0\\
597.0678235034709	0.0\\
597.9017664417227	0.0\\
598.7385912067914	0.0\\
599.5715611452567	0.0\\
600.405972402345	0.0\\
601.2398465494205	0.0\\
602.0767771255069	0.0\\
602.9102460757808	0.0\\
603.7438800625428	0.0\\
604.5809527851065	0.0\\
605.4183722970606	0.0\\
606.2554815235283	0.0\\
607.096909128574	0.0\\
607.9316600886439	0.0\\
608.770898634287	0.0\\
609.6089753958554	0.0\\
610.4414063997469	0.0\\
611.2794029006836	0.0\\
612.1121430988353	0.0\\
612.9514528120008	0.0\\
613.7915532250936	0.0\\
614.6311654386509	0.0\\
615.4699087426964	0.0\\
616.3093466367197	0.0\\
617.1468624394256	0.0\\
617.9862950239942	0.0\\
618.8275592116472	0.0\\
619.6690496642195	0.0\\
620.5132187241095	0.0\\
621.359373173012	0.0\\
622.2026234043203	0.0\\
623.0444549717708	0.0\\
623.8864285973766	0.0\\
624.7335013743159	0.0\\
625.5821670111884	0.0\\
626.4250460804415	0.0\\
627.2740846136364	0.0\\
628.1209925532255	0.0\\
628.9718338373859	0.0\\
629.8192251366443	0.0\\
630.6730302886374	0.0\\
631.5241044345235	0.0\\
632.3724283379472	0.0\\
633.2225294380346	0.0\\
634.074446944001	0.0\\
634.9265365542199	0.0\\
635.7842728366222	0.0\\
636.6410565112171	0.0\\
637.4960157599571	0.0\\
638.3527523676917	0.0\\
639.2113407928603	0.0\\
640.0690354130898	0.0\\
640.9287349132601	0.0\\
641.7886210032254	0.0\\
642.651054133521	0.0\\
643.5106116133793	0.0\\
644.3722204380554	0.0\\
645.233416654296	0.0\\
646.1004676270404	0.0\\
646.9652645350259	0.0\\
647.8317456579009	0.0\\
648.7009296075569	0.0\\
649.5677256425231	0.0\\
650.4363264062863	0.0\\
651.3031532103541	0.0\\
652.1766259869312	0.0\\
653.0501082072981	0.0\\
653.9215710724013	0.0\\
654.7980759923246	0.0\\
655.6773808690862	0.0\\
656.5563111862562	0.0\\
657.4322896161318	0.0\\
658.3135493524148	0.0\\
659.1931834744362	0.0\\
660.0731575342697	0.0\\
660.9593162718318	0.0\\
661.8507000981131	0.0\\
662.7366251175522	0.0\\
663.624841581762	0.0\\
664.5112140202268	0.0\\
665.4027516115905	0.0\\
666.2946744952274	0.0\\
667.1864918211306	0.0\\
668.0829360081555	0.0\\
668.982491107116	0.0\\
669.879701172269	0.0\\
670.7772852009964	0.0\\
671.6785675307792	0.0\\
672.5792073919633	0.0\\
673.482381974515	0.0\\
674.3896032514294	0.0\\
675.2982021132941	0.0\\
676.2040655113551	0.0\\
677.1129386555308	0.0\\
678.025591389561	0.0\\
678.9399304422304	0.0\\
679.8541530717516	0.0\\
680.7712112315996	0.0\\
681.6894840860055	0.0\\
682.6092541677001	0.0\\
683.5272609537842	0.0\\
684.4488743932984	0.0\\
685.3775800265878	0.0\\
686.3025527545947	0.0\\
687.2306555170044	0.0\\
688.1565443203638	0.0\\
689.0894922855637	0.0\\
690.0240523631844	0.0\\
690.9598381666153	0.0\\
691.9009986401907	0.0\\
692.8461755771525	0.0\\
693.7908829285077	0.0\\
694.7299502974756	0.0\\
695.6753622371589	0.0\\
696.6237297365233	0.0\\
697.5751868160869	0.0\\
698.5276956872949	0.0\\
699.4842469187531	0.0\\
700.4410228121335	0.0\\
701.4040768840773	0.0\\
702.3709042907053	0.0\\
703.3361645062716	0.0\\
704.3024555800198	0.0\\
705.2703789207435	0.0\\
706.243699919786	0.0\\
707.2180444667376	0.0\\
708.192456605891	0.0\\
709.165274235198	0.0\\
710.1451634888758	0.0\\
711.1267508984045	0.0\\
712.1170881903986	0.0\\
713.1073787767452	0.0\\
714.1015439619086	0.0\\
715.1026856687495	0.0\\
716.1018334268533	0.0\\
717.1045068560625	0.0\\
718.1124893141298	0.0\\
719.1159179287213	0.0\\
720.1289168774344	0.0\\
721.1451062556787	0.0\\
722.1628199997076	0.0\\
723.1832342515397	0.0\\
724.2102861491608	0.0\\
725.2361413172428	0.0\\
726.2633501406599	0.0\\
727.294483430831	0.0\\
728.331088717847	0.0\\
729.3690391724101	0.0\\
730.4120088704428	0.0\\
731.4599929657147	0.0\\
732.5143743638255	0.0\\
733.5735745866434	0.0\\
734.6348026096289	0.0\\
735.7028849579629	0.0\\
736.777861816028	0.0\\
737.8559710197073	0.0\\
738.9381928657783	0.0\\
740.0263655176273	0.0\\
741.1170111079907	0.0\\
742.2151415183407	0.0\\
743.3125477306871	0.0\\
744.4211126544437	0.0\\
745.533882035289	0.0\\
746.6500374104135	0.0\\
747.7719315348104	0.0\\
748.8986975270043	0.0\\
750.0324458954603	0.0\\
751.1699269505498	0.0\\
752.3185821598267	0.0\\
753.4708793271147	0.0\\
754.6325786229143	0.0\\
755.8081558433728	0.0\\
756.9851544768517	0.0\\
758.1670199275645	0.0\\
759.3618140727338	0.0\\
760.5565294301823	0.0\\
761.6604242678779	0.0\\
761.7678588135082	0.0\\
762.987882706158	0.0\\
764.214461009715	0.0\\
765.4568983778809	0.0\\
766.7045149693042	0.0\\
767.9687192469412	0.0\\
769.235381342141	0.0\\
770.5161842464395	0.0\\
771.8171769313165	0.0\\
773.1245905902938	0.0\\
774.4528171430891	0.0\\
775.7998694250603	0.0\\
777.1631026706443	0.0\\
778.5475270360478	0.0\\
779.9465342529186	0.0\\
781.3689533763334	0.0\\
782.8174529102821	0.0\\
784.2853638751565	0.0\\
785.7839160226981	0.0\\
787.3166230160559	0.0\\
788.8694177083539	0.0\\
790.445368837472	0.0\\
792.0554040067857	0.0\\
793.6669858001396	0.0\\
795.29064171204	0.0\\
796.8876231305601	0.0\\
798.4584112043144	0.0\\
800.0163373585076	0.0\\
801.5424134548705	0.0\\
803.0369936482819	0.0\\
804.5121413089328	0.0\\
805.9627694591468	0.0\\
807.3891094346895	0.0\\
808.7887547422254	0.0\\
810.175858202268	0.0\\
811.5390842669638	0.0\\
812.8892435546454	0.0\\
814.2262822617113	0.0\\
815.5455008227439	0.0\\
816.8517894643032	0.0\\
818.1550008857048	0.0\\
819.439684122462	0.0\\
820.7178699980323	0.0\\
821.9777064119933	0.0\\
823.2362474444535	0.0\\
824.4820308138185	0.0\\
825.7156026752261	0.0\\
826.9427015118342	0.0\\
828.1659159030451	0.0\\
829.3752783549542	0.0\\
830.5837365947682	0.0\\
831.7837078856855	0.0\\
832.979074966881	0.0\\
834.1666475288632	0.0\\
835.3492689059235	0.0\\
836.5256588727543	0.0\\
837.6950146857	0.0\\
838.8529147113559	0.0\\
840.0156034736649	0.0\\
841.1694861702363	0.0\\
842.3179602676048	0.0\\
843.4618054039834	0.0\\
844.5972011447427	0.0\\
845.7307565213584	0.0\\
845.775816578802	0.0\\
845.800696383948	0.0\\
845.8178306770467	0.0\\
845.82978090755	0.0\\
845.8410230125139	0.0\\
845.909484978341	0.0\\
846.207194134234	0.0\\
846.9849658552212	0.0\\
848.1450817321536	0.0\\
849.3108475200652	0.0\\
850.4851670911714	0.0\\
851.6649959368278	0.0\\
852.8552080292368	0.0\\
854.0528255261991	0.0\\
855.2545891118257	0.0\\
856.4684776505958	0.0\\
857.688303456476	0.0\\
858.9197318768861	0.0\\
860.1579541861934	0.0\\
861.4052143615625	0.0\\
862.6600358333349	0.0\\
863.9340169484929	0.0\\
865.2105306676074	0.0\\
866.5045391109227	0.0\\
867.8102138534362	0.0\\
869.1277975401963	0.0\\
870.4631946641009	0.0\\
871.8051123697117	0.0\\
873.1663136985346	0.0\\
874.5361045692266	0.0\\
875.9251188333387	0.0\\
877.3338130519294	0.0\\
878.7634760258018	0.0\\
880.2030538117244	0.0\\
881.6608479127276	0.0\\
883.1453021420614	0.0\\
884.6478782527397	0.0\\
886.1710437202976	0.0\\
887.7208844559796	0.0\\
889.2962695054086	0.0\\
890.8770170643938	0.0\\
892.4841408538894	0.0\\
894.0992436789757	0.0\\
895.7213171032517	0.0\\
897.3437017527356	0.0\\
898.967957938668	0.0\\
900.5865925397538	0.0\\
902.1930905537124	0.0\\
903.7791156353987	0.0\\
905.361631020548	0.0\\
906.9135862640919	0.0\\
908.4477995558295	0.0\\
909.9647550214086	0.0\\
911.4752603087409	0.0\\
912.9752568317836	0.0\\
914.457488172854	0.0\\
915.9198084458162	0.0\\
917.3739423312372	0.0\\
918.8189927045617	0.0\\
920.253239749464	0.0\\
921.6845701623604	0.0\\
923.097823094645	0.0\\
924.5009656514314	0.0\\
925.9021682044986	0.0\\
927.2893797114887	0.0\\
928.6772552156829	0.0\\
930.0556829104503	0.0\\
931.4269348447729	0.0\\
932.7921831332058	0.0\\
934.1439697026142	0.0\\
935.4982371613928	0.0\\
936.8420098232793	0.0\\
938.1873074599466	0.0\\
939.524178407926	0.0\\
940.8542436160262	0.0\\
942.1805736620049	0.0\\
943.4996539796407	0.0\\
944.8221930231991	0.0\\
946.1410255194241	0.0\\
947.4436198250291	0.0\\
948.749141051655	0.0\\
950.0561930762779	0.0\\
951.3589992821153	0.0\\
952.6534538639376	0.0\\
953.9482949173287	0.0\\
955.2393316770244	0.0\\
956.5322730320488	0.0\\
957.8189966754385	0.0\\
959.105166154498	0.0\\
960.3885618699094	0.0\\
961.6683379748781	0.0\\
961.8900959876896	0.0010724861035705585\\
962.1173788590052	0.002190429442512986\\
962.3428680524232	0.003318494101489668\\
962.56802959569	0.004463699943292432\\
962.7996911214962	0.00566134933634725\\
963.0320906668592	0.006882729871605037\\
963.2614777768918	0.008107939232499854\\
963.4940106330841	0.009369701939231704\\
963.7264594427861	0.010650969983831866\\
963.9581000618541	0.011947650548683304\\
964.1820262154031	0.013220184967258405\\
964.4011221310434	0.014483305233063914\\
964.626314063961	0.01579984847255532\\
964.8594757496	0.017182454659460396\\
965.071072011084	0.018455086632984896\\
965.3043243930572	0.019876455809731138\\
965.535829287599	0.02130703736870078\\
965.7690293613512	0.02276799184202412\\
965.9963598268891	0.02421160149982448\\
966.2257242495687	0.025687335486826307\\
966.4594825905908	0.027211117121258288\\
966.6891218414455	0.02872772191534361\\
966.9225096314033	0.03028882851796457\\
967.1532007077203	0.0318516346431766\\
967.3871986793604	0.033456709308269744\\
967.6167495064881	0.03505093161675937\\
967.8463893899755	0.03666511298000699\\
968.0713862524065	0.038265543057637436\\
968.3062283896995	0.039955513889154165\\
968.5252946941298	0.04155060274058857\\
968.7566319579862	0.043253775906460956\\
968.9870583162069	0.04496974982330344\\
969.2220781300532	0.046739819001732144\\
969.4526687796663	0.04849629732404667\\
969.6779495827345	0.05023125699616507\\
969.9071544081764	0.052015369808270484\\
970.1419674850199	0.053862886291947465\\
970.369180270571	0.05566999094121422\\
970.6051306107572	0.057566290975126375\\
970.8415594275718	0.059486807758759974\\
971.068945021866	0.06135335984498827\\
971.3043106453881	0.06330505253154461\\
971.5355284132872	0.06524213545830654\\
971.7715141347753	0.06723911779088335\\
972.0002638870978	0.06919443455287372\\
972.2321165284488	0.0711956323166118\\
972.466267281738	0.07323646118577631\\
972.7020851302366	0.07531193681265289\\
972.9366498276297	0.07739648589197068\\
973.1729514357808	0.07951664873426978\\
973.4092859887608	0.08165740482483616\\
973.6378301665491	0.08374711041755056\\
973.8728751679666	0.0859158560990955\\
974.1049712854087	0.08807715458651821\\
974.3396895065509	0.09028267462711762\\
974.5757961926081	0.0925213617529293\\
974.8132834693172	0.09479348836839419\\
975.0502236745785	0.09708076600741969\\
975.2853078540645	0.0993702785955542\\
975.522729679539	0.10170280161627632\\
975.7589540533895	0.10404384364224215\\
975.9900298313537	0.10635353989366869\\
976.1959735509447	0.10842893202326062\\
976.4295084962621	0.11080014586050219\\
976.6637657179458	0.11319847301387362\\
976.9038664042728	0.11567702624382681\\
977.1433969441441	0.11817045107889287\\
977.3685060535031	0.12053302073845173\\
977.6047630518242	0.12303193338122045\\
977.845174252185	0.1255953270055254\\
978.0846502528711	0.1281694878286544\\
978.3254759604552	0.13077895507768988\\
978.5620064255243	0.13336233502159733\\
978.7870049328396	0.13583876642727677\\
979.0272737564378	0.1385029402350622\\
979.2560279674112	0.14105904838859634\\
979.4983582377206	0.14378698120088518\\
979.7368483253374	0.14649239915309964\\
979.9785035344519	0.14925446932635106\\
980.2175974215363	0.15200797275452305\\
980.4596258197396	0.1548160812001365\\
980.7020115480502	0.1576493850274901\\
980.9438488977883	0.16049728913615557\\
981.1828363487168	0.16333230636101204\\
981.4199606973204	0.16616549754267135\\
981.6533923054228	0.16897433694035463\\
981.894221321126	0.17189241488905016\\
982.1223755726678	0.17467640174135862\\
982.352047913344	0.17749767202371236\\
982.5660557706956	0.18014389243747536\\
982.8096509648931	0.18317501479093218\\
983.0531049512961	0.18622555835212012\\
983.2931463469392	0.18925415451694516\\
983.5335652281415	0.19230811087105387\\
983.775608498408	0.1954034788048722\\
984.0205211978212	0.19855671639582928\\
984.2609240003505	0.20167280489991174\\
984.4876949195414	0.20463143182824683\\
984.7282871279056	0.20779000072392106\\
984.9725513472592	0.21101774161331016\\
985.2164884921131	0.21426234850447096\\
985.459361475552	0.21751384782888994\\
985.7041238177674	0.22081179174768872\\
985.9471856589105	0.22410792844577576\\
986.1908192093445	0.2274328485140667\\
986.4230950037575	0.23062269177038502\\
986.6693590857699	0.23402512554972793\\
986.9162674033553	0.23745802471649163\\
987.1628635783022	0.24090815327226206\\
987.4064371489051	0.244337221483845\\
987.6534430838599	0.24783595785399992\\
987.9007627799385	0.251360757261494\\
988.1366639877324	0.25474329517296235\\
988.3810441612784	0.2582679097109386\\
988.6240514028852	0.2617936845706781\\
988.8683960710582	0.2653598510789522\\
989.1111837283636	0.26892421001416034\\
989.3471690047206	0.2724088222761236\\
989.5880236299408	0.2759854468683882\\
989.837110251777	0.27970557846233834\\
990.0875932531237	0.28346856454209846\\
990.3290207910529	0.28711667628914694\\
990.5791494680714	0.2909176457935889\\
990.82138984536	0.2946199458190152\\
991.0515401734126	0.2981569054320746\\
991.2956861852417	0.30192889510456244\\
991.545102476874	0.3058037733686223\\
991.796424845088	0.30973029728632795\\
992.0455832974276	0.3136449535259995\\
992.2966896000758	0.3176121830758303\\
992.545335535568	0.3215623907213334\\
992.7865460018159	0.3254153797131982\\
993.0360072810779	0.3294213524731353\\
993.28506188696	0.3334425328108519\\
993.5328130663929	0.33746423342855125\\
993.7819472800786	0.34152998403655876\\
994.0298665695213	0.34559747329195434\\
994.28332749078	0.3497779088749884\\
994.5338882299045	0.3539326373448741\\
994.7825118450537	0.3580769513208797\\
995.0344079785104	0.36229770096935954\\
995.2872605553328	0.36655668889932325\\
995.5359407078724	0.37076724105099\\
995.7808423645638	0.3749349672582972\\
996.0318735533476	0.37922848647656504\\
996.2769463676209	0.3834414088241247\\
996.5316440955264	0.38784162608699846\\
996.7761749876875	0.39208769395204535\\
997.0227468542284	0.3963901666736598\\
997.2781982494623	0.40086956941817253\\
997.5302438627698	0.4053115348787597\\
997.7826148251493	0.40978129059585466\\
998.0388986786468	0.4143428154146901\\
998.2949644012431	0.4189231805900723\\
998.5509883822042	0.42352548888970565\\
998.7946038513239	0.4279261435118775\\
999.0499205864726	0.432559843241506\\
999.3083965123906	0.4372737283675252\\
999.5629898627544	0.44193947574894765\\
999.8166921511613	0.4466111741538783\\
1000.0617032095586	0.45114415308058764\\
1000.3138477016871	0.4558305099908039\\
1000.5729628754809	0.4606690395008365\\
1000.8241946090789	0.4653826658770728\\
1001.0822062062359	0.47024590641746455\\
1001.328453565374	0.47490909547419013\\
1001.5850518054558	0.47979017348684605\\
1001.8423704801417	0.4847076541892723\\
1002.0985520386369	0.4896260256952063\\
1002.3613274505014	0.4946941938338575\\
1002.6204028824336	0.49971429843068027\\
1002.8789103714157	0.5047463493008968\\
1003.1376115131122	0.5098050856628105\\
1003.3893349367822	0.5147495770444639\\
1003.6449450950583	0.5197924893280033\\
1003.9065256887429	0.5249761483895359\\
1004.1635292120388	0.5300920189662297\\
1004.407725033815	0.5349742059812006\\
1004.6725951973037	0.5402921241928369\\
1004.9348175463385	0.5455805422605904\\
1005.1943161583908	0.5508371947763551\\
1005.4474083482348	0.5559863660708231\\
1005.7100532101156	0.561352669326499\\
1005.9731518359933	0.5667517738856787\\
1006.2377043719614	0.5722044158449735\\
1006.4990225285967	0.5776138528300647\\
1006.7642152654587	0.5831271009924179\\
1007.0233700415454	0.5885380739705879\\
1007.286334096495	0.5940517661961242\\
1007.5529916284577	0.5996667395768343\\
1007.8099876380761	0.6051013630095508\\
1008.080919075144	0.6108544717937698\\
1008.3439453636126	0.6164637287433532\\
1008.6120149009832	0.6222044680386134\\
1008.877332932909	0.6279102918775346\\
1009.1480895436371	0.6337574315643197\\
1009.4098863805791	0.6394348875359839\\
1009.6756131121699	0.6452211044493861\\
1009.943121255644	0.6510701128204752\\
1010.20576547165	0.6568363837326809\\
1010.457978303532	0.6623958055524517\\
1010.6908855543447	0.6675492101373035\\
1010.9608474621125	0.6735442058560359\\
1011.2240947239409	0.6794138891457626\\
1011.4950394864943	0.6854792869440145\\
1011.762580740889	0.6914927860094435\\
1012.0208470402235	0.697320869936366\\
1012.296123059016	0.7035568979440552\\
1012.5624466695765	0.7096145617006415\\
1012.8253088157176	0.7156168909902152\\
1013.094320035922	0.7217833909630238\\
1013.3546231151506	0.7277735757923223\\
1013.6291999190892	0.7341163387676071\\
1013.9008185992973	0.74041564009628\\
1014.1783824155966	0.7468780782565059\\
1014.4581842923433	0.7534185685899979\\
1014.7289886924791	0.7597738685636435\\
1015.0039378208669	0.7662513064078027\\
1015.2841752090671	0.7728790623113015\\
1015.5595654960212	0.7794177865392435\\
1015.8336937421809	0.7859516266203184\\
1016.097544468777	0.7922643875063011\\
1016.3699859627418	0.7988066806256378\\
1016.6502228993988	0.8055616207125185\\
1016.9256750391069	0.812226750384736\\
1017.2003271163592	0.8188975765790576\\
1017.4837216014282	0.8258066462164932\\
1017.7668980703504	0.8327369509552522\\
1018.0481555859933	0.8396465978332333\\
1018.315453432836	0.8462379381886476\\
1018.5956878038853	0.8531732085419124\\
1018.8814919684132	0.8602728320298205\\
1019.1651197632898	0.8673450866495904\\
1019.4336425431543	0.874065574471176\\
1019.7016567811468	0.8807970219392931\\
1019.984941897299	0.8879372227750464\\
1020.266346311869	0.8950562017124435\\
1020.541148034278	0.9020334551512204\\
1020.8245283065626	0.909254213833365\\
1021.0928824995792	0.9161168304206988\\
1021.3832876554004	0.9235692425184745\\
1021.6675858062349	0.9308918905722128\\
1021.9430407039295	0.9380122698264559\\
1022.2244976053439	0.9453132470400876\\
1022.5087775301961	0.9527136489416814\\
1022.7915735556717	0.9601016580708583\\
1023.0782518088736	0.9676176083844641\\
1023.3587015269509	0.9749963921108111\\
1023.645004880719	0.9825554428479497\\
1023.9316188110906	0.9901494201413881\\
1024.205936293266	0.9974430045670739\\
1024.4737198107855	1.0045866570433666\\
1024.744502489133	1.0118339206211355\\
1025.023770387891	1.0193329598110474\\
1025.315508825312	1.0271934864870804\\
1025.5864096590176	1.0345178984621217\\
1025.888942525357	1.042724599324036\\
1026.1752610104236	1.0505192566764525\\
1026.4697768081355	1.058564474329554\\
1026.7592047319445	1.0664981800822897\\
1027.0511266126605	1.0745275710814264\\
1027.3482528903346	1.0827281777843942\\
1027.639870031278	1.090804587024338\\
1027.927470114224	1.098796701969575\\
1028.2039178149957	1.106504337960967\\
1028.506637803021	1.114971796431627\\
1028.800368622235	1.1232162586501357\\
1029.077982626276	1.1310343096048139\\
1029.3698950899147	1.1392812440308484\\
1029.6453685574215	1.1470893050715616\\
1029.954258649178	1.155872317689564\\
1030.2483249157108	1.1642626827082738\\
1030.5516852928222	1.1729469042892648\\
1030.8354987578787	1.1810987939011741\\
1031.1376646982394	1.1898054800894604\\
1031.4434636279507	1.1986463842502002\\
1031.7402889294335	1.2072566528434505\\
1032.0412375460855	1.216015043513373\\
1032.330230299438	1.224452990112682\\
1032.6295547640898	1.2332202595958295\\
1032.9142353848033	1.2415854701437685\\
1033.2173340806112	1.2505195571901684\\
1033.5046952778398	1.2590171664500924\\
1033.813938434971	1.2681903500569405\\
1034.1057658109016	1.2768752437052955\\
1034.4042003666582	1.2857844192083574\\
1034.7138726545168	1.2950584594683865\\
1035.0090698942927	1.3039276588224507\\
1035.3098790286576	1.31299356946033\\
1035.600604050811	1.3217829855524759\\
1035.898327525526	1.3308113507548631\\
1036.1871457079424	1.3395966004409088\\
1036.4744613099724	1.3483622166338414\\
1036.7867474113564	1.357918223032946\\
1037.0894041825804	1.3672090955893252\\
1037.3970984792581	1.3766838906530197\\
1037.7040047160826	1.3861639965200379\\
1038.0226477760625	1.3960374414520462\\
1038.3283431519035	1.4055399625812903\\
1038.6498131496915	1.415563791208203\\
1038.9634325026095	1.4253741808784142\\
1039.2650150555933	1.434837367216602\\
1039.54770145147	1.4437339274057504\\
1039.8477316339704	1.4532029792960257\\
1040.1350820004873	1.4622984927909508\\
1040.4484540162148	1.472246049230486\\
1040.7680651253859	1.4824228513841864\\
1041.0866887217949	1.492599783966455\\
1041.410944768506	1.5029887236657578\\
1041.7184170842852	1.5128705433188205\\
1042.0283359111313	1.5228605008653946\\
1042.3432648148555	1.5330421889176469\\
1042.654709824275	1.5431414697833619\\
1042.9667445353025	1.5532898539745954\\
1043.2924735535748	1.5639151503740698\\
1043.619035911664	1.5746003857970003\\
1043.9185619654754	1.584430678671882\\
1044.231099964963	1.5947169680115505\\
1044.528549256992	1.604534976401438\\
1044.8662028967337	1.6157114583785206\\
1045.181589467019	1.6261831810080407\\
1045.5077086092306	1.6370428935129766\\
1045.832864052291	1.647902916569112\\
1046.1468043871414	1.6584193700582124\\
1046.4589292663727	1.6689048769775017\\
1046.7795458462574	1.679706280442252\\
1047.0896466831027	1.6901835344111484\\
1047.384766165033	1.7001629136948657\\
1047.6979380855132	1.710761560275916\\
1048.0095643166992	1.721316902926378\\
1048.3179168554893	1.7317701855955026\\
1048.6504975259795	1.743054633525729\\
1048.9637169609728	1.753691456442188\\
1049.2960989614407	1.7649888797506432\\
1049.61798604177	1.7759392318727496\\
1049.9250810711828	1.7863951963794116\\
1050.2648743646682	1.7979744943020703\\
1050.5925058414673	1.8091492990942672\\
1050.908927373282	1.8199510110502581\\
1051.2246893974698	1.8307392553734112\\
1051.5442867643983	1.841667720035724\\
1051.8538330238762	1.852261281523981\\
1052.2031092327861	1.8642248789816782\\
1052.5217686747283	1.8751493394701675\\
1052.8698965892308	1.8870944631191118\\
1053.169256862484	1.897374922325982\\
1053.512761406717	1.9091812183776886\\
1053.846052630488	1.9206465310316805\\
1054.186625944832	1.9323725516625898\\
1054.5381676252418	1.9444870070819333\\
1054.8804649656613	1.9562934035478392\\
1055.2297115406645	1.9683501533795615\\
1055.578801266473	1.9804122263488502\\
1055.8999900052522	1.9915196996886029\\
1056.2306925880862	2.0029656375710703\\
1056.5783108848623	2.015007361157303\\
1056.913531040455	2.026629597051956\\
1057.2245545702676	2.0374216791979496\\
1057.5650884584165	2.0492473718561106\\
1057.924959370569	2.061755508533758\\
1058.269651032007	2.073746560672965\\
1058.6172715125635	2.085849885142612\\
1058.9607431980307	2.097818977483202\\
1059.302023230554	2.1097217335296836\\
1059.631852032333	2.121234592287168\\
1059.9892929504385	2.1337217692155024\\
1060.3236718654657	2.1454131425482306\\
1060.6509302771233	2.156864764506815\\
1061.032688233382	2.1702349563657757\\
1061.3827222059663	2.182504935151335\\
1061.7093376784815	2.1939633443883357\\
1062.0749055487927	2.206798954148077\\
1062.438370434159	2.2195718630096195\\
1062.7679426253076	2.2311632893229287\\
1063.0893412607202	2.2424759941336116\\
1063.439206969033	2.2548004939793715\\
1063.8099638502586	2.2678720364003953\\
1064.1664370844692	2.2804507537244882\\
1064.5148131052251	2.2927539184333705\\
1064.864989014086	2.3051307536928594\\
1065.1876417394647	2.3165437395630724\\
1065.5268797482313	2.32855261771818\\
1065.846605131761	2.339879399413353\\
1066.2258032778482	2.3533239426084895\\
1066.5739473737876	2.3656777932142026\\
1066.9119871514213	2.3776825359824088\\
1067.2727822769548	2.3905056232936923\\
1067.624032708287	2.4029996107737883\\
1067.96614859061	2.4151782651921883\\
1068.3193438462163	2.4277612195054497\\
1068.6611160556026	2.439946762661319\\
1069.0122025979367	2.4524741513111046\\
1069.342948890675	2.464284782343891\\
1069.6899637102956	2.476685728535289\\
1070.0530343815926	2.4896707053849783\\
1070.4043262555838	2.5022443799410468\\
1070.7244863373317	2.5137122733497925\\
1071.087029435314	2.5267080660908583\\
1071.442611531069	2.539464388479071\\
1071.8211279606708	2.553054379929458\\
1072.1637583807374	2.5653656218209804\\
1072.5310990968273	2.578574928975777\\
1072.8721246576852	2.5908473721298053\\
1073.2413262694486	2.604143969656217\\
1073.6001621946975	2.617077373805876\\
1073.959742250002	2.63004757895383\\
1074.291793938598	2.6420336733770293\\
1074.6351346147485	2.654436178764505\\
1074.9676249311037	2.666455349528208\\
1075.2941163185415	2.678265891162587\\
1075.667677106263	2.6917890990200535\\
1076.0276158566894	2.704829217479067\\
1076.4218765413261	2.7191240497433915\\
1076.803003842173	2.732953872671054\\
1077.1711366510945	2.7463225656502672\\
1077.520332324667	2.7590129732771755\\
1077.893684641132	2.772591387048289\\
1078.2676718552798	2.786203335536147\\
1078.6490105999887	2.80009358772318\\
1078.880932616033	2.808546625295265\\
1079.001546921405	2.812944323335298\\
1079.3891287770684	2.8270609573804126\\
1079.775608912024	2.8410773322974343\\
1080.1344773846795	2.8540362664062986\\
1080.487085378522	2.8667182152305832\\
1080.81640187604	2.8785155075665667\\
1081.1898894104338	2.8918463093303046\\
1081.568367806707	2.9052984499223786\\
1081.9780603448703	2.9197980772718726\\
1082.3573851905603	2.9331599465463887\\
1082.7079890006116	2.9454561590949417\\
1083.10119119815	2.9591913944804373\\
1083.468507286157	2.971963794897408\\
1083.826123640839	2.9843457892857526\\
1084.1611481703603	2.995896938850616\\
1084.5394407252156	3.008889306453246\\
1084.916748601575	3.0217901745969886\\
1085.2847891705824	3.0343179244216545\\
1085.6466877272742	3.046582664632333\\
1086.012613297406	3.058930354808636\\
1086.394150203405	3.0717485283610912\\
1086.7721510986967	3.0843894572927057\\
1087.1410213141999	3.0966684367339194\\
1087.5181088507552	3.109164686057979\\
1087.8982394819318	3.121703696588467\\
1088.289537728905	3.1345508926835075\\
1088.6758096110775	3.14717165123803\\
1089.0519374290598	3.1594018471951903\\
1089.417449489385	3.1712308819437736\\
1089.8053748914563	3.183727949163056\\
1090.1921613795462	3.1961273032521014\\
1090.5544634527268	3.2076844471222907\\
1090.9396960690533	3.2199165585570952\\
1091.3294388863455	3.232230813769104\\
1091.7311331163783	3.244859079984809\\
1092.1014785320212	3.2564408085668877\\
1092.5017314341908	3.2688978019962054\\
1092.877237632913	3.280523003128822\\
1093.2769509803493	3.2928367121229174\\
1093.6762395293272	3.3050721849925413\\
1094.0615941794722	3.316817670301086\\
1094.448511745149	3.328549903815852\\
1094.828761273854	3.340019736978693\\
1095.1980962614325	3.351102794795641\\
1095.6213889947007	3.3637418316247194\\
1096.0168891024514	3.37548215215478\\
1096.391311769445	3.3865359200457883\\
1096.765359744269	3.3975212707589737\\
1097.150955318104	3.4087868206115814\\
1097.509016698345	3.4191910321604446\\
1097.8964322542033	3.4303916879456144\\
1098.3016142167844	3.4420418463646616\\
1098.6909333085732	3.4531709835711384\\
1099.103870650537	3.4649096044885876\\
1099.5028408787016	3.476183356581262\\
1099.9051884838636	3.487486650240795\\
1100.2897557289748	3.498226636287498\\
1100.6848550174718	3.509198429294096\\
1101.0885125721388	3.5203424090647815\\
1101.4904684921962	3.5313726404497086\\
1101.8996409471274	3.542533306374545\\
1102.2851398745515	3.5529830195974688\\
1102.6718603547301	3.5634044587697193\\
1103.061781565997	3.573850063142083\\
1103.427162323852	3.5835792540277156\\
1103.8257320226617	3.5941325525584684\\
1104.1927208326674	3.6037889679607815\\
1104.6160967803785	3.6148657061112033\\
1105.0015502997849	3.6248824796604477\\
1105.3966806922613	3.6350879613089253\\
1105.781640134839	3.6449678034119835\\
1106.1935076166365	3.6554730631569115\\
1106.5780226246734	3.66521488584955\\
1106.9846373273126	3.675452245671039\\
1107.373249564825	3.68517079365164\\
1107.7511592324636	3.694560808859948\\
1108.1340329829077	3.7040143467727393\\
1108.521671090395	3.713524137789536\\
1108.9260797853394	3.7233806439512778\\
1109.3378658697857	3.73334806539916\\
1109.747530924929	3.7431942187236613\\
1110.1350480905817	3.752441995926385\\
1110.540642782545	3.7620562267365667\\
1110.9422535826188	3.7715084143155506\\
1111.3315470626012	3.7806056970011364\\
1111.729622295481	3.78984398654182\\
1112.1173334106256	3.7987775608274923\\
1112.5188200305483	3.8079640698170953\\
1112.9242795595114	3.8171739107456677\\
1113.325639099614	3.82622295121178\\
1113.7378645918543	3.8354483303569236\\
1114.1293622163244	3.844142488690598\\
1114.558761849783	3.8536089042194064\\
1114.9535987827876	3.8622424243804883\\
1115.3321793031078	3.870458093102193\\
1115.70800840754	3.878554791558229\\
1116.1121421691819	3.8871983564598978\\
1116.519205233923	3.895836085051741\\
1116.9520920275259	3.9049486858047935\\
1117.3568550636487	3.913395908559843\\
1117.7761218621627	3.9220752442198057\\
1118.1762069365423	3.9302873260980196\\
1118.586148814908	3.938633429144426\\
1118.9995906118838	3.9469801125854183\\
1119.405914186404	3.9551128980145123\\
1119.8205332502084	3.9633414892890038\\
1120.237691956852	3.9715482875161703\\
1120.6511627510772	3.9796104457859185\\
1121.0758815162053	3.987818689615895\\
1121.4987890988446	3.9959168440120694\\
1121.9113968931065	4.003744708109101\\
1122.3198428770957	4.011423101023132\\
1122.7241360037178	4.018954312806104\\
1123.1385812198691	4.026604658933136\\
1123.554611965636	4.034212141165018\\
1123.9580528453512	4.04151901470544\\
1124.3561683121575	4.048662136495681\\
1124.7737484271925	4.05608510758926\\
1125.1864691113901	4.063349450358988\\
1125.6005753339714	4.0705665839608915\\
1126.0048641273283	4.077542342821374\\
1126.3976225798306	4.08425246472528\\
1126.8043206348343	4.091133917733957\\
1127.2308147295103	4.098277809600264\\
1127.6546215090843	4.105300833057065\\
1128.0687355611553	4.112089486177661\\
1128.4589598328912	4.118418436567973\\
1128.8642508624657	4.12492552587188\\
1129.2511456573197	4.13107122748591\\
1129.6321994417704	4.137062173140421\\
1130.0530787881003	4.143612342556159\\
1130.48374846357	4.150238838231539\\
1130.911441507847	4.156742095465413\\
1131.3297162319336	4.163026844604499\\
1131.7457870055114	4.169205288452956\\
1132.1623584606446	4.175318289720037\\
1132.5770152203863	4.181330522132097\\
1132.995557429092	4.18732612473851\\
1133.399987650716	4.193048199420264\\
1133.8288775236883	4.199043619723122\\
1134.2414461272956	4.204736225886057\\
1134.6614353308992	4.210458351872873\\
1135.0737093551497	4.2160023654422645\\
1135.4917594906083	4.221551525012812\\
1135.900970730831	4.226911197559794\\
1136.3410814923427	4.232600051432081\\
1136.7716347038522	4.238085401120781\\
1137.2131010613211	4.2436297876037194\\
1137.6524715487171	4.249066044235882\\
1138.0720976587772	4.254180038996406\\
1138.4974959772044	4.2592891491921225\\
1138.9204473053928	4.264292938840731\\
1139.3444306731244	4.269233283210525\\
1139.7736812277171	4.2741582531687925\\
1140.2107094522366	4.279093362481161\\
1140.6237254458883	4.283680856884109\\
1141.0390814679354	4.288221930697148\\
1141.4703137584197	4.292861110040198\\
1141.8847346682933	4.297243767528471\\
1142.2918192138009	4.301477491823999\\
1142.7018505823944	4.305671365792737\\
1143.1258758972426	4.309935048276431\\
1143.5573870929225	4.314196748417077\\
1143.9641609673135	4.318139679078994\\
1144.3925292635722	4.322218489463957\\
1144.825866633575	4.326266171540807\\
1145.2530552026906	4.330178059656079\\
1145.6849700854914	4.334055231144486\\
1146.107448283702	4.337770392066986\\
1146.5452139275558	4.341541898086621\\
1146.973108920356	4.345148986069585\\
1147.4104492392676	4.3487565930852075\\
1147.8391515655849	4.352213484099819\\
1148.270940807004	4.355616927737696\\
1148.701986383498	4.3589356895234666\\
1149.145730762095	4.3622713503968615\\
1149.5810237170153	4.365461564205853\\
1150.0065030740966	4.368501282829621\\
1150.447011335552	4.371569116530685\\
1150.878523908782	4.374493648161371\\
1151.3004508860672	4.3772759447222676\\
1151.7246966544394	4.379997676698919\\
1152.1506785522956	4.382653946184261\\
1152.5859307931796	4.385289505180003\\
1153.0113308061786	4.387786783469052\\
1153.438735560882	4.390218738089915\\
1153.8781906197487	4.392639718840728\\
1154.306847687657	4.394921184352446\\
1154.7450433386043	4.397173825091684\\
1155.1801377113588	4.399329587993982\\
1155.6145379039813	4.4014016933310245\\
1156.0540361515864	4.403417139388928\\
1156.4881519137143	4.40532685685395\\
1156.9187856343478	4.4071418558575\\
1157.3502150895752	4.408881335417123\\
1157.781904591738	4.410542782514447\\
1158.211660590122	4.412117982439096\\
1158.638618929744	4.41360496871375\\
1159.0755320937092	4.415047494559971\\
1159.510338380499	4.416402340852748\\
1159.939582001522	4.417660503421441\\
1160.3775999628192	4.419082869845774\\
1161.14783308196	4.421583419777692\\
1162.1358546079018	4.4247898753333175\\
1163.3901826663282	4.4288587376803665\\
1164.6689125065614	4.433004632823232\\
1165.9243097312678	4.437072796306596\\
1167.1699152494248	4.44110719244431\\
1168.4823704268401	4.445355915690175\\
1169.7126612593242	4.44933661341296\\
1171.0082305190895	4.4535263926644575\\
1172.2926746464323	4.457678038046039\\
1172.5485519816007	4.4585048415537685\\
1172.6424650282024	4.458808276697177\\
1172.6767941543053	4.458919192007961\\
1172.6948515058484	4.458977533594059\\
1172.6984264464327	4.458989083836981\\
1172.700769914084	4.458996655316232\\
1172.7018525930794	4.4590001533273504\\
1172.7029108475167	4.4590035724240575\\
1172.7082919243126	4.45902095803322\\
1172.726197968881	4.459078810028467\\
1172.7893790826001	4.459282936274947\\
1172.9517982394837	4.4598076580042925\\
1173.3482163583499	4.461088207339065\\
1173.9751360515484	4.463112927756759\\
1174.8330264534657	4.465882769165843\\
1175.7668086742906	4.468896551184873\\
1176.904303219857	4.472566283031595\\
1178.2535589891936	4.47691701032128\\
1179.5472397355961	4.481086316441353\\
1180.787716401096	4.485082119166414\\
1182.0550897988533	4.489162505335694\\
1183.3835920709212	4.493437471917211\\
1184.654901082908	4.497526264973457\\
1185.951148563353	4.501693121099475\\
1187.2782642456104	4.505956964723028\\
1188.5497081729682	4.510039819660772\\
1190.000689887433	4.514696671000001\\
1191.4234253101454	4.519260247815673\\
1192.7523899673197	4.523520705303227\\
1194.1467500270242	4.527988384657432\\
1195.4921998990535	4.532296999016136\\
1196.9087353116065	4.536830762722165\\
1198.293178527556	4.541259345715325\\
1199.6494262456804	4.545595375729409\\
1200.9986839761145	4.549906743211704\\
1202.2785048906703	4.553994104110995\\
1203.6344591900302	4.558322351951247\\
1205.059413199976	4.562868346800986\\
1206.4231990488338	4.567216800472867\\
1207.8047343978433	4.571619460999216\\
1209.2144073522686	4.576109316772779\\
1210.6265347082876	4.580604488923047\\
1212.0408874370714	4.585104239824199\\
1213.4191045148555	4.589486617273053\\
1214.7756245853457	4.593797686131008\\
1215.3427688862544	4.5955994100430555\\
};
\end{axis}
\end{tikzpicture}%
