%TakeOff_Trajectory
\begin{tikzpicture}

\begin{axis}[
width=\figurewidth,
height=\figureheight,
scaled ticks=false, tick label style={/pgf/number format/fixed},
xmin=0.0,
xmax=1385.5092955907228,
xlabel={Ground Distance (m)},
xmajorgrids,
ymin=0.0,
ymax=11.5214400000001,
ylabel={Altitude (m)},
ymajorgrids,
legend style={at={(1.03,0.5)},anchor=west,draw=black,fill=white,legend cell align=left}
]

\addplot [
color=black,
solid
]
table[row sep=crcr]{
1.3869093119902837E-8	0.0\\
2.2802400501143798E-7	0.0\\
1.9845107591171844E-6	0.0\\
1.0079742469561031E-5	0.0\\
3.5367298177616674E-5	0.0\\
9.660675783559796E-5	0.0\\
2.534206992149265E-4	0.0\\
5.052987232195959E-4	0.0\\
8.616867355095679E-4	0.0\\
0.0013152055866273195	0.0\\
0.0018674566411423644	0.0\\
0.002510837087582184	0.0\\
0.0032575407712107643	0.0\\
0.004103214180283874	0.0\\
0.005035519136351783	0.0\\
0.00607058329777381	0.0\\
0.007204880314881996	0.0\\
0.008424331054039322	0.0\\
0.009698913617500245	0.0\\
0.011075309973140848	0.0\\
0.01259501088237193	0.0\\
0.014199189074540517	0.0\\
0.015871498903692396	0.0\\
0.017682220900124876	0.0\\
0.01956155126760492	0.0\\
0.021548397068577738	0.0\\
0.023652657307740965	0.0\\
0.025825432013610677	0.0\\
0.028124099665392463	0.0\\
0.030526337968969253	0.0\\
0.03302936273409943	0.0\\
0.03554361645946451	0.0\\
0.0382123544715835	0.0\\
0.04095409590247644	0.0\\
0.0438222207968445	0.0\\
0.04676672832884865	0.0\\
0.04988605743958795	0.0\\
0.053087324136893335	0.0\\
0.05634499729565391	0.0\\
0.05967508063008066	0.0\\
0.06310862520356214	0.0\\
0.06663987960188808	0.0\\
0.07023891705536633	0.0\\
0.07403000993100428	0.0\\
0.07787408854255107	0.0\\
0.08182986366574077	0.0\\
0.0858848547797636	0.0\\
0.09001430152838788	0.0\\
0.09432659763184217	0.0\\
0.09872299023791903	0.0\\
0.10319977090401941	0.0\\
0.10778339592877695	0.0\\
0.11245228870442192	0.0\\
0.11727110147440215	0.0\\
0.12218248546421714	0.0\\
0.12711779711085153	0.0\\
0.1321998725352922	0.0\\
0.13741604083836056	0.0\\
0.1427172981186276	0.0\\
0.1480882252188504	0.0\\
0.15356693828927842	0.0\\
0.1590952305545758	0.0\\
0.16486162764624723	0.0\\
0.17068489187062647	0.0\\
0.17653962943575074	0.0\\
0.1825101131885934	0.0\\
0.1886337520060501	0.0\\
0.19494354764248334	0.0\\
0.20124132408712986	0.0\\
0.20771191339881084	0.0\\
0.21438174687555211	0.0\\
0.22111176278272288	0.0\\
0.22788714464546717	0.0\\
0.23479771106887426	0.0\\
0.24182749135934178	0.0\\
0.24894221715209813	0.0\\
0.25626097855534236	0.0\\
0.263701366736137	0.0\\
0.2712184787355255	0.0\\
0.27894298531321915	0.0\\
0.28670940436987347	0.0\\
0.29468483763913733	0.0\\
0.3024961649743947	0.0\\
0.31053369960887267	0.0\\
0.31882721049882745	0.0\\
0.32702449691556956	0.0\\
0.3355648383533507	0.0\\
0.3442344476486452	0.0\\
0.3528184908790096	0.0\\
0.36171259995857563	0.0\\
0.37051905058615364	0.0\\
0.37959301471340456	0.0\\
0.388573045161713	0.0\\
0.39774924453311733	0.0\\
0.40693752621487633	0.0\\
0.41659149834860665	0.0\\
0.42636011505995364	0.0\\
0.4360986489001091	0.0\\
0.44595037394886883	0.0\\
0.4560606614908438	0.0\\
0.4663609646473207	0.0\\
0.47670896030755994	0.0\\
0.48710905399536186	0.0\\
0.497695406431952	0.0\\
0.5082206708816244	0.0\\
0.5188851672909682	0.0\\
0.5299558907294131	0.0\\
0.5410194056495137	0.0\\
0.5521758248016828	0.0\\
0.5635363148185419	0.0\\
0.5748424305347266	0.0\\
0.5863097583457684	0.0\\
0.5978959905609902	0.0\\
0.6097875362411911	0.0\\
0.6219253753063527	0.0\\
0.6340618507092428	0.0\\
0.6465046608278249	0.0\\
0.658898420259374	0.0\\
0.6713853300088926	0.0\\
0.6840319898449596	0.0\\
0.6969170109330325	0.0\\
0.710128651970745	0.0\\
0.7232231224406802	0.0\\
0.7365457760762568	0.0\\
0.7501003104100104	0.0\\
0.763486659087196	0.0\\
0.7770549339636608	0.0\\
0.7908163516726294	0.0\\
0.8047303332786808	0.0\\
0.8192095846979848	0.0\\
0.8334783065364706	0.0\\
0.8477924237388237	0.0\\
0.8622201842672186	0.0\\
0.8770941067528399	0.0\\
0.8918839437062944	0.0\\
0.9069790559660553	0.0\\
0.9220728593849465	0.0\\
0.9371103945132164	0.0\\
0.9524036168246752	0.0\\
0.9680332620840353	0.0\\
0.9839350352010345	0.0\\
0.999705082829937	0.0\\
1.0151244325162292	0.0\\
1.0316676285159887	0.0\\
1.0482105820547338	0.0\\
1.0648305365987465	0.0\\
1.0815726480311159	0.0\\
1.0978487948621107	0.0\\
1.1147652576944633	0.0\\
1.1319749066076445	0.0\\
1.1492245800500824	0.0\\
1.1666865805689253	0.0\\
1.184066360101184	0.0\\
1.201923893199642	0.0\\
1.219134468556324	0.0\\
1.2370254018095364	0.0\\
1.2548998722390574	0.0\\
1.273075240706794	0.0\\
1.2916146897174672	0.0\\
1.3099341309773314	0.0\\
1.32822328750599	0.0\\
1.3469080741836708	0.0\\
1.3662676573752743	0.0\\
1.3856689582393145	0.0\\
1.4056163902641048	0.0\\
1.4256431197505988	0.0\\
1.445270341909819	0.0\\
1.4653037445875077	0.0\\
1.4852505233784847	0.0\\
1.5055220603702426	0.0\\
1.5259084957022755	0.0\\
1.5464876970370778	0.0\\
1.5674133873845753	0.0\\
1.588088944082068	0.0\\
1.609770281425376	0.0\\
1.6311933289867375	0.0\\
1.6524994841712894	0.0\\
1.6745746034781352	0.0\\
1.6965226820785295	0.0\\
1.7180261648257504	0.0\\
1.7401258419757522	0.0\\
1.7633992933492513	0.0\\
1.7859712204318448	0.0\\
1.8084286913789631	0.0\\
1.8312733934435785	0.0\\
1.8539207783241838	0.0\\
1.8772080166290812	0.0\\
1.9007024994891015	0.0\\
1.9245639260802254	0.0\\
1.9480066799031373	0.0\\
1.9717270101790203	0.0\\
1.9960336158227259	0.0\\
2.0204739309947923	0.0\\
2.045259174052924	0.0\\
2.0697886596470623	0.0\\
2.094854022148896	0.0\\
2.1210968714760003	0.0\\
2.1466330462125676	0.0\\
2.17298433462409	0.0\\
2.1984392083975592	0.0\\
2.224802267667349	0.0\\
2.250713645710328	0.0\\
2.277048227377769	0.0\\
2.30364770410241	0.0\\
2.330573140893507	0.0\\
2.3581157341307586	0.0\\
2.385058793817527	0.0\\
2.41207071016224	0.0\\
2.439689546324672	0.0\\
2.467888330021129	0.0\\
2.495952319971096	0.0\\
2.524462304633184	0.0\\
2.553125229281994	0.0\\
2.5822114816129833	0.0\\
2.6106219653033333	0.0\\
2.640826604110001	0.0\\
2.6698348576717965	0.0\\
2.6999324117680317	0.0\\
2.7300505290471824	0.0\\
2.7602441113341962	0.0\\
2.790774758083918	0.0\\
2.8212958514190296	0.0\\
2.8520740345669484	0.0\\
2.8827243205801203	0.0\\
2.9134253803180954	0.0\\
2.944925455590277	0.0\\
2.976205351160459	0.0\\
3.0088717355673396	0.0\\
3.0410966232262924	0.0\\
3.0744632743459244	0.0\\
3.1067960211155183	0.0\\
3.1385936979390294	0.0\\
3.1720065986240087	0.0\\
3.20528411702072	0.0\\
3.238989677608858	0.0\\
3.272778545265134	0.0\\
3.3063179493088137	0.0\\
3.3403407574108996	0.0\\
3.3743625496557987	0.0\\
3.408750301694133	0.0\\
3.4424644822576873	0.0\\
3.478328895352246	0.0\\
3.5133291966452402	0.0\\
3.5480847164827622	0.0\\
3.5841458544215374	0.0\\
3.621169950519752	0.0\\
3.656776160687227	0.0\\
3.6936389553635456	0.0\\
3.729612946007104	0.0\\
3.7656557450456383	0.0\\
3.8024746197761017	0.0\\
3.839998666128377	0.0\\
3.8764718240158995	0.0\\
3.915558475207832	0.0\\
3.953490316463455	0.0\\
3.991946233240933	0.0\\
4.0301915738510115	0.0\\
4.06852453389175	0.0\\
4.107322198264702	0.0\\
4.145718693491787	0.0\\
4.184972258633554	0.0\\
4.224380821558109	0.0\\
4.264544716896323	0.0\\
4.304373846724324	0.0\\
4.34437872522396	0.0\\
4.383590626962645	0.0\\
4.425028567960489	0.0\\
4.465552660485589	0.0\\
4.506026362017623	0.0\\
4.547800589841833	0.0\\
4.589241535463351	0.0\\
4.63042431000687	0.0\\
4.67236389443948	0.0\\
4.716626174669699	0.0\\
4.758668720404476	0.0\\
4.801260905979669	0.0\\
4.8445228643065	0.0\\
4.888013074484022	0.0\\
4.932567301700663	0.0\\
4.9759324425224865	0.0\\
5.020536954867952	0.0\\
5.06492769227555	0.0\\
5.111387819687744	0.0\\
5.156307160537899	0.0\\
5.201148772107125	0.0\\
5.247111540743388	0.0\\
5.292648869519017	0.0\\
5.339510690434942	0.0\\
5.384945053644197	0.0\\
5.4308570641600955	0.0\\
5.478145742838517	0.0\\
5.52573703899969	0.0\\
5.572608152315778	0.0\\
5.6196596818048	0.0\\
5.668094943383972	0.0\\
5.717503303028211	0.0\\
5.766741512393043	0.0\\
5.816955968660002	0.0\\
5.867158680565492	0.0\\
5.9169606397700445	0.0\\
5.967152492000372	0.0\\
6.01683894606119	0.0\\
6.068669447635536	0.0\\
6.119275035203492	0.0\\
6.170654006460193	0.0\\
6.221749242472269	0.0\\
6.274610241295461	0.0\\
6.326506267829924	0.0\\
6.37953830793572	0.0\\
6.432477093214482	0.0\\
6.485404413116569	0.0\\
6.53787401356055	0.0\\
6.589552251486465	0.0\\
6.644612538342313	0.0\\
6.698598153337279	0.0\\
6.7536593240502025	0.0\\
6.8073932812159175	0.0\\
6.863058732712242	0.0\\
6.918545389218819	0.0\\
6.973883409530396	0.0\\
7.030717765950715	0.0\\
7.086638443199089	0.0\\
7.1434173469990245	0.0\\
7.201449706559515	0.0\\
7.2593142590632525	0.0\\
7.318080578133218	0.0\\
7.376343878211072	0.0\\
7.434432647748306	0.0\\
7.493420491476197	0.0\\
7.551280820953414	0.0\\
7.611944067374399	0.0\\
7.670501277815259	0.0\\
7.7300624458704235	0.0\\
7.790221238110933	0.0\\
7.850541785790311	0.0\\
7.91198823102029	0.0\\
7.97353007307618	0.0\\
8.035606085845266	0.0\\
8.09726740689915	0.0\\
8.158251408414493	0.0\\
8.222930352025127	0.0\\
8.286715038397976	0.0\\
8.349104748198926	0.0\\
8.412160674278397	0.0\\
8.476964074257385	0.0\\
8.540614871737144	0.0\\
8.605622649471456	0.0\\
8.67147622573603	0.0\\
8.736964610086073	0.0\\
8.804336961264237	0.0\\
8.870881464349026	0.0\\
8.937100606606037	0.0\\
9.00420594618809	0.0\\
9.070694146591244	0.0\\
9.137269803743987	0.0\\
9.203729936351351	0.0\\
9.27039446804105	0.0\\
9.338025609339525	0.0\\
9.40635902812182	0.0\\
9.475516509795547	0.0\\
9.544212946063425	0.0\\
9.61303159260298	0.0\\
9.68470512442143	0.0\\
9.755790997394268	0.0\\
9.826753925406749	0.0\\
9.898486337984838	0.0\\
9.970877023345867	0.0\\
10.041915247801121	0.0\\
10.11549752438486	0.0\\
10.186893204217846	0.0\\
10.262228455525896	0.0\\
10.336423750626409	0.0\\
10.411711316232367	0.0\\
10.485865998502074	0.0\\
10.560436941586033	0.0\\
10.63473175342573	0.0\\
10.711003434449783	0.0\\
10.786975119661783	0.0\\
10.862429737760895	0.0\\
10.9397090357335	0.0\\
11.016110933498734	0.0\\
11.093954514506606	0.0\\
11.173363627684022	0.0\\
11.252029818075783	0.0\\
11.331593813747833	0.0\\
11.409680312965161	0.0\\
11.4884393230688	0.0\\
11.566935129677951	0.0\\
11.64769806985992	0.0\\
11.727478132194403	0.0\\
11.80835177669644	0.0\\
11.889049187506178	0.0\\
11.971250460106702	0.0\\
12.05274022166504	0.0\\
12.134530793152898	0.0\\
12.218993513173011	0.0\\
12.30303626426415	0.0\\
12.387354010253041	0.0\\
12.47148280386477	0.0\\
12.556387695321714	0.0\\
12.640626670439545	0.0\\
12.725114744599558	0.0\\
12.811472969310987	0.0\\
12.898088509604051	0.0\\
12.98601614057845	0.0\\
13.071793207229089	0.0\\
13.159685445919262	0.0\\
13.246650403130847	0.0\\
13.33500139402707	0.0\\
13.426094728685353	0.0\\
13.51501874921738	0.0\\
13.604141536820052	0.0\\
13.695080265320868	0.0\\
13.784792468275082	0.0\\
13.87465075140032	0.0\\
13.965992125768231	0.0\\
14.058263986420872	0.0\\
14.151283052619728	0.0\\
14.242454767751266	0.0\\
14.336509368461599	0.0\\
14.429798700849279	0.0\\
14.5238744792344	0.0\\
14.616796202060865	0.0\\
14.710940662326607	0.0\\
14.806910230953573	0.0\\
14.903980840871629	0.0\\
14.998829391956573	0.0\\
15.094307396737484	0.0\\
15.18982624810884	0.0\\
15.288013418761675	0.0\\
15.386302102220714	0.0\\
15.484234215757638	0.0\\
15.581282128883906	0.0\\
15.68100895098566	0.0\\
15.78073415105403	0.0\\
15.88198760393675	0.0\\
15.982644170168957	0.0\\
16.083069041254753	0.0\\
16.182687219498682	0.0\\
16.28235858701371	0.0\\
16.382849895443357	0.0\\
16.484531457586968	0.0\\
16.586341834101844	0.0\\
16.69091389938125	0.0\\
16.794926560796803	0.0\\
16.897745211063246	0.0\\
17.00260131632526	0.0\\
17.110154634276945	0.0\\
17.215774144357198	0.0\\
17.32050505808855	0.0\\
17.42590133764103	0.0\\
17.530949554728807	0.0\\
17.638318822531993	0.0\\
17.745997750741786	0.0\\
17.85447072254113	0.0\\
17.965545431685314	0.0\\
18.07466355094938	0.0\\
18.185813370252028	0.0\\
18.296540440390835	0.0\\
18.40978550750667	0.0\\
18.521600062433805	0.0\\
18.63224710549138	0.0\\
18.74507503287448	0.0\\
18.85836894575256	0.0\\
18.971750013838154	0.0\\
19.086219844962216	0.0\\
19.202182437719806	0.0\\
19.31805623350205	0.0\\
19.433103285021303	0.0\\
19.549099375416155	0.0\\
19.667287570002692	0.0\\
19.782704023716036	0.0\\
19.900771131234258	0.0\\
20.01850891589494	0.0\\
20.137456876147056	0.0\\
20.255859538178328	0.0\\
20.373713902158904	0.0\\
20.492096619195863	0.0\\
20.61134785127676	0.0\\
20.732366006954784	0.0\\
20.8516902007	0.0\\
20.97381622989502	0.0\\
21.0949544716251	0.0\\
21.215491178848502	0.0\\
21.339085945362726	0.0\\
21.46272213446452	0.0\\
21.584947748724858	0.0\\
21.708617968756677	0.0\\
21.83213191225599	0.0\\
21.95634574602669	0.0\\
22.083085715635455	0.0\\
22.21007829838385	0.0\\
22.335227859974573	0.0\\
22.46142883025862	0.0\\
22.588904216436305	0.0\\
22.714769741320367	0.0\\
22.841946409178966	0.0\\
22.969647554359824	0.0\\
23.09938911598234	0.0\\
23.228681055940307	0.0\\
23.35730666348954	0.0\\
23.488175317159957	0.0\\
23.617407348416187	0.0\\
23.750630162252982	0.0\\
23.88280701741192	0.0\\
24.014211164757626	0.0\\
24.146755544298408	0.0\\
24.280046803695598	0.0\\
24.412109791745458	0.0\\
24.544636517473947	0.0\\
24.676916184193068	0.0\\
24.80947085679017	0.0\\
24.943371103274494	0.0\\
25.078196135952524	0.0\\
25.212048463944775	0.0\\
25.34548230586728	0.0\\
25.48272832577807	0.0\\
25.510251802279754	0.0\\
25.578663774240695	0.0\\
25.603996771345095	0.0\\
25.60584106731008	0.0\\
25.607003940317455	0.0\\
25.608254563470346	0.0\\
25.615477633243223	0.0\\
25.637195890909666	0.0\\
25.702299345216822	0.0\\
25.834706251917616	0.0\\
25.962419746741837	0.0\\
26.09063719445075	0.0\\
26.218022321611755	0.0\\
26.346403002422285	0.0\\
26.474377168141835	0.0\\
26.604360820414726	0.0\\
26.735036298580006	0.0\\
26.86696009662517	0.0\\
26.998291231899103	0.0\\
27.1296637916467	0.0\\
27.26273086418052	0.0\\
27.398063218487366	0.0\\
27.532027699456087	0.0\\
27.664692733888096	0.0\\
27.79802339108528	0.0\\
27.934047321887988	0.0\\
28.070507264765766	0.0\\
28.20598794333904	0.0\\
28.34137476824975	0.0\\
28.47865489459204	0.0\\
28.615640379021116	0.0\\
28.75413559006345	0.0\\
28.890379098035716	0.0\\
29.02994818037729	0.0\\
29.170183195303828	0.0\\
29.31010943739716	0.0\\
29.450300741807823	0.0\\
29.59119485225102	0.0\\
29.73347453913489	0.0\\
29.87817657654338	0.0\\
30.022611024112173	0.0\\
30.165089098083037	0.0\\
30.308857645966192	0.0\\
30.45308481428571	0.0\\
30.59565207897485	0.0\\
30.7405474326044	0.0\\
30.888017630004313	0.0\\
31.03490827136443	0.0\\
31.18311048181164	0.0\\
31.330030847565908	0.0\\
31.476979207692153	0.0\\
31.62509281441455	0.0\\
31.7741507387749	0.0\\
31.924735206273922	0.0\\
32.07582610394536	0.0\\
32.225856467770996	0.0\\
32.379257779099376	0.0\\
32.53128578735141	0.0\\
32.683294729672895	0.0\\
32.83635835645697	0.0\\
32.99043429003608	0.0\\
33.14384951629606	0.0\\
33.29791680470743	0.0\\
33.45291817038111	0.0\\
33.60694055667501	0.0\\
33.76331680180557	0.0\\
33.92076022733379	0.0\\
34.07912487254737	0.0\\
34.23725197546621	0.0\\
34.395989205754276	0.0\\
34.554155874770586	0.0\\
34.71409999145121	0.0\\
34.87454219182827	0.0\\
35.03416368035384	0.0\\
35.194242867293084	0.0\\
35.35333728619287	0.0\\
35.51444003697286	0.0\\
35.67650841202372	0.0\\
35.83712730231329	0.0\\
36.00004757679264	0.0\\
36.16418333290606	0.0\\
36.32595647305732	0.0\\
36.49125096377887	0.0\\
36.65593385405313	0.0\\
36.81972635336763	0.0\\
36.98712880789924	0.0\\
37.15286075202279	0.0\\
37.32070644382317	0.0\\
37.48626810582016	0.0\\
37.65250634962695	0.0\\
37.82004168148812	0.0\\
37.9896485827599	0.0\\
38.159495940016726	0.0\\
38.3298859680001	0.0\\
38.49798849424927	0.0\\
38.66922542957086	0.0\\
38.8369477623869	0.0\\
39.00647254987264	0.0\\
39.175413262816235	0.0\\
39.34782333683883	0.0\\
39.52119705145584	0.0\\
39.693307064038095	0.0\\
39.86645061639743	0.0\\
40.039834893693566	0.0\\
40.21209755344192	0.0\\
40.387613903015094	0.0\\
40.562792071649596	0.0\\
40.741004849296814	0.0\\
40.91526109706477	0.0\\
41.09089707846546	0.0\\
41.266624802465856	0.0\\
41.4447163025811	0.0\\
41.62345911883652	0.0\\
41.79982569205886	0.0\\
41.98098775175956	0.0\\
42.15975785264246	0.0\\
42.3403055497466	0.0\\
42.523156686239034	0.0\\
42.70294061158151	0.0\\
42.88459067353459	0.0\\
43.064685437193205	0.0\\
43.24613720525085	0.0\\
43.42782876820489	0.0\\
43.610111992237336	0.0\\
43.79457921314747	0.0\\
43.977505204524576	0.0\\
44.15953175987171	0.0\\
44.342881238675375	0.0\\
44.52619640943978	0.0\\
44.7106721450038	0.0\\
44.896639079587814	0.0\\
45.08058768131855	0.0\\
45.266087121685786	0.0\\
45.4523672206998	0.0\\
45.63733713825597	0.0\\
45.82457653805157	0.0\\
46.01339650244779	0.0\\
46.20159395132545	0.0\\
46.39052598948889	0.0\\
46.580845150861705	0.0\\
46.769661553268946	0.0\\
46.959687979620284	0.0\\
47.151526379264595	0.0\\
47.339457860374424	0.0\\
47.529834953225816	0.0\\
47.720283696867966	0.0\\
47.91194227244985	0.0\\
48.10626684755802	0.0\\
48.29746613320118	0.0\\
48.49274590651069	0.0\\
48.68664030709222	0.0\\
48.88140701095297	0.0\\
49.073939435962714	0.0\\
49.26975347941173	0.0\\
49.46494187541869	0.0\\
49.66258683623488	0.0\\
49.86183779184503	0.0\\
50.05832234445424	0.0\\
50.254379796994115	0.0\\
50.45127281729047	0.0\\
50.6489287300178	0.0\\
50.847186873789624	0.0\\
51.0466948333127	0.0\\
51.245231191337965	0.0\\
51.443194361708436	0.0\\
51.641553655514755	0.0\\
51.84262563294642	0.0\\
52.04634116484719	0.0\\
52.2481089746678	0.0\\
52.45275984236912	0.0\\
52.65697523742368	0.0\\
52.858324467230204	0.0\\
53.062784278351955	0.0\\
53.26573599152549	0.0\\
53.47107805781495	0.0\\
53.67756544638708	0.0\\
53.886217766465506	0.0\\
54.08897586014743	0.0\\
54.29687388963862	0.0\\
54.50536189845498	0.0\\
54.712740727587615	0.0\\
54.92142306599639	0.0\\
55.12995763125542	0.0\\
55.33917564035697	0.0\\
55.5488154989614	0.0\\
55.75841366637641	0.0\\
55.96861878348837	0.0\\
56.17845246663795	0.0\\
56.3905360543538	0.0\\
56.60484452283791	0.0\\
56.81622335048152	0.0\\
57.030292716417875	0.0\\
57.243157487907	0.0\\
57.45788851108125	0.0\\
57.672833974388396	0.0\\
57.89073911408518	0.0\\
58.10997498664344	0.0\\
58.32976711197894	0.0\\
58.548161984226	0.0\\
58.76733444144736	0.0\\
58.988824719421316	0.0\\
59.2067633293844	0.0\\
59.428501624782584	0.0\\
59.64969324639121	0.0\\
59.869398675477925	0.0\\
60.09480233918042	0.0\\
60.31911668184175	0.0\\
60.541361024519375	0.0\\
60.76537950819652	0.0\\
60.98709388934586	0.0\\
61.21017847334862	0.0\\
61.43545736450854	0.0\\
61.663112265525186	0.0\\
61.887949209260626	0.0\\
62.11550945586693	0.0\\
62.34224980299135	0.0\\
62.571301087219084	0.0\\
62.79857266425185	0.0\\
63.027733504644615	0.0\\
63.258125664322606	0.0\\
63.491621273490935	0.0\\
63.72305584795902	0.0\\
63.95438974480325	0.0\\
64.18875289173462	0.0\\
64.42172969367968	0.0\\
64.65541244887024	0.0\\
64.8885021777223	0.0\\
65.12151907788046	0.0\\
65.35700936851674	0.0\\
65.59314248031893	0.0\\
65.83111664361562	0.0\\
66.06866060028813	0.0\\
66.30562684828669	0.0\\
66.54268263072203	0.0\\
66.78389306440755	0.0\\
67.02925923993706	0.0\\
67.2688274015631	0.0\\
67.50919324028123	0.0\\
67.75232725663068	0.0\\
67.9968719447561	0.0\\
68.24088631107722	0.0\\
68.48523720817775	0.0\\
68.72973308994767	0.0\\
68.97718655860311	0.0\\
69.22560530760472	0.0\\
69.47587692127155	0.0\\
69.72542575152497	0.0\\
69.97529708905464	0.0\\
70.22559606192891	0.0\\
70.47600798344351	0.0\\
70.73009274326117	0.0\\
70.98392240586327	0.0\\
71.23742271982184	0.0\\
71.49250452200997	0.0\\
71.74658013325927	0.0\\
72.0029976174043	0.0\\
72.25872434396072	0.0\\
72.51612151104212	0.0\\
72.77454067506858	0.0\\
73.03350345284201	0.0\\
73.29350783495872	0.0\\
73.55228047951451	0.0\\
73.81536814209304	0.0\\
74.07861453689759	0.0\\
74.33836529692303	0.0\\
74.60249372743974	0.0\\
74.86729016272344	0.0\\
75.13538178924176	0.0\\
75.40284188181468	0.0\\
75.67246082025954	0.0\\
75.94326106794955	0.0\\
76.21256394651294	0.0\\
76.48609715539905	0.0\\
76.75687674354651	0.0\\
77.03192369366184	0.0\\
77.30826012361521	0.0\\
77.58442411174985	0.0\\
77.85931854180802	0.0\\
78.13599737258002	0.0\\
78.41872285787636	0.0\\
78.69736727986265	0.0\\
78.97426734015647	0.0\\
79.25405612905615	0.0\\
79.53528346005987	0.0\\
79.81577831033235	0.0\\
80.10319376937247	0.0\\
80.38889780096426	0.0\\
80.67355417156045	0.0\\
80.95924288274122	0.0\\
81.2497615274736	0.0\\
81.54081448828273	0.0\\
81.82770715491435	0.0\\
82.12095568408947	0.0\\
82.41390289126153	0.0\\
82.70584081321942	0.0\\
82.9962673199513	0.0\\
83.29059363064533	0.0\\
83.58851167061238	0.0\\
83.88958853727644	0.0\\
84.1899305653589	0.0\\
84.48960145137158	0.0\\
84.79127913479437	0.0\\
85.0933741449937	0.0\\
85.40311219571095	0.0\\
85.70585521054113	0.0\\
86.01517448985362	0.0\\
86.32545136397297	0.0\\
86.63249667998494	0.0\\
86.94212850351246	0.0\\
87.2528965190584	0.0\\
87.56722955716108	0.0\\
87.88302884342392	0.0\\
88.19757595776912	0.0\\
88.51372598503161	0.0\\
88.83188440292633	0.0\\
89.15172347661368	0.0\\
89.47093119712503	0.0\\
89.79258145752524	0.0\\
90.11603842883389	0.0\\
90.44015747619505	0.0\\
90.76823665501763	0.0\\
91.09618085285143	0.0\\
91.42363672949818	0.0\\
91.75722080108213	0.0\\
92.08649358242585	0.0\\
92.42078608352355	0.0\\
92.75342332059898	0.0\\
93.08374688886687	0.0\\
93.41479759701687	0.0\\
93.74944100602616	0.0\\
94.08106621297708	0.0\\
94.41955859629397	0.0\\
94.75810613637887	0.0\\
95.1003609937197	0.0\\
95.43857955664177	0.0\\
95.77779859755356	0.0\\
96.1157624186765	0.0\\
96.45361700693448	0.0\\
96.79716597813197	0.0\\
97.14281841923932	0.0\\
97.48328230402998	0.0\\
97.82130962620977	0.0\\
98.16345634541003	0.0\\
98.50573099742886	0.0\\
98.85065645283109	0.0\\
99.19303680122172	0.0\\
99.53669686925792	0.0\\
99.88331708334684	0.0\\
100.2280628081501	0.0\\
100.57685210783177	0.0\\
100.92487685797445	0.0\\
101.26901133979572	0.0\\
101.6114420409229	0.0\\
101.9548804134694	0.0\\
102.30056836472127	0.0\\
102.64279541443966	0.0\\
102.98446315901413	0.0\\
103.32781175467352	0.0\\
103.67149243164656	0.0\\
104.01469339738168	0.0\\
104.35657281688427	0.0\\
104.69799506865502	0.0\\
105.03989815728329	0.0\\
105.37706761954558	0.0\\
105.71606250662407	0.0\\
106.05666318578798	0.0\\
106.39575090824917	0.0\\
106.73595988574434	0.0\\
106.8041611833903	0.0\\
106.84082044992874	0.0\\
106.84681172966688	0.0\\
106.85259258941602	0.0\\
106.86674093140792	0.0\\
106.87948889285005	0.0\\
106.92169911723568	0.0\\
107.03746652731598	0.0\\
107.31994334369637	0.0\\
107.62264024333888	0.0\\
107.92580400309552	0.0\\
108.2279176455398	0.0\\
108.53652241298565	0.0\\
108.84430938138703	0.0\\
109.15544612084562	0.0\\
109.46725677992717	0.0\\
109.77927204851292	0.0\\
110.09451567919436	0.0\\
110.41198575704729	0.0\\
110.72899924835363	0.0\\
111.04888234845467	0.0\\
111.37071735760486	0.0\\
111.69620237912113	0.0\\
112.01998966977501	0.0\\
112.34812905719636	0.0\\
112.67640781530596	0.0\\
113.00568130084133	0.0\\
113.33672115186886	0.0\\
113.66776289929265	0.0\\
114.00487325400289	0.0\\
114.34313336058901	0.0\\
114.68256750048965	0.0\\
115.02199779281673	0.0\\
115.36413815164553	0.0\\
115.70801500641264	0.0\\
116.05638064367085	0.0\\
116.40375255009974	0.0\\
116.75144902134002	0.0\\
117.10478228838181	0.0\\
117.45887504021712	0.0\\
117.8143500938157	0.0\\
118.17064728724958	0.0\\
118.52633826227301	0.0\\
118.88600623766115	0.0\\
119.24752381493465	0.0\\
119.60867239968161	0.0\\
119.97098911187521	0.0\\
120.33221679281382	0.0\\
120.69844357985187	0.0\\
121.06359416387116	0.0\\
121.43049557454228	0.0\\
121.79822971143992	0.0\\
122.16837113450197	0.0\\
122.53944267325383	0.0\\
122.91021193507268	0.0\\
123.28428568513391	0.0\\
123.65983981968671	0.0\\
124.03134471669884	0.0\\
124.40409576325047	0.0\\
124.77550855620231	0.0\\
125.14608963503406	0.0\\
125.51931322674119	0.0\\
125.89592866803045	0.0\\
126.27096944541694	0.0\\
126.64645660885884	0.0\\
127.01648304655487	0.0\\
127.38961570468982	0.0\\
127.76193649751508	0.0\\
128.13365360319705	0.0\\
128.51032571452583	0.0\\
128.88311528397548	0.0\\
129.25778856860893	0.0\\
129.62978884100772	0.0\\
130.00459643173554	0.0\\
130.38018246250692	0.0\\
130.7560097731809	0.0\\
131.12906573655727	0.0\\
131.50308395621454	0.0\\
131.87979218249626	0.0\\
132.2511997314969	0.0\\
132.62121239575544	0.0\\
132.9929347428236	0.0\\
133.3657218512427	0.0\\
133.73760435261823	0.0\\
134.10998684906139	0.0\\
134.4836328534073	0.0\\
134.85619000542823	0.0\\
135.2264167064128	0.0\\
135.5994308833778	0.0\\
135.97101310766402	0.0\\
136.3418396127788	0.0\\
136.71045324714805	0.0\\
137.08017382674592	0.0\\
137.45313263691702	0.0\\
137.82575255257933	0.0\\
138.19769678856028	0.0\\
138.5687794084231	0.0\\
138.94302754159702	0.0\\
139.3163642086675	0.0\\
139.68872803450603	0.0\\
140.05761175664554	0.0\\
140.43164797514288	0.0\\
140.80079815885802	0.0\\
141.17348115724235	0.0\\
141.54333184857967	0.0\\
141.91637620116097	0.0\\
142.2857294774861	0.0\\
142.65822710764104	0.0\\
143.02969387975514	0.0\\
143.3977582113585	0.0\\
143.77126573910726	0.0\\
144.1452805302535	0.0\\
144.5192429678661	0.0\\
144.88807771769422	0.0\\
145.26152819618	0.0\\
145.6340415347321	0.0\\
146.0052893833963	0.0\\
146.37772857587612	0.0\\
146.752534308954	0.0\\
147.12608452154473	0.0\\
147.4978752080101	0.0\\
147.87202229175227	0.0\\
148.2474935833152	0.0\\
148.6230064692104	0.0\\
148.9961563881697	0.0\\
149.37006713180347	0.0\\
149.7429515619218	0.0\\
150.11856859616142	0.0\\
150.49345770731804	0.0\\
150.86911878281438	0.0\\
151.24447059728152	0.0\\
151.62006217701446	0.0\\
151.998069860825	0.0\\
152.37223668040076	0.0\\
152.74730574098913	0.0\\
153.12693453572643	0.0\\
153.50381476156218	0.0\\
153.8806777081714	0.0\\
154.2594576125266	0.0\\
154.6359579666016	0.0\\
155.0144937728652	0.0\\
155.39405397194867	0.0\\
155.77253481441375	0.0\\
156.1495815167267	0.0\\
156.5282922504689	0.0\\
156.9060723555856	0.0\\
157.28463398316728	0.0\\
157.6650672731369	0.0\\
158.0450102511873	0.0\\
158.42549425831135	0.0\\
158.80530811605735	0.0\\
159.1848757447948	0.0\\
159.56686254204908	0.0\\
159.94888373257442	0.0\\
160.3327788295319	0.0\\
160.7148039477804	0.0\\
161.09903707263823	0.0\\
161.4838736071539	0.0\\
161.86813155256817	0.0\\
162.2533076676749	0.0\\
162.64159683407894	0.0\\
163.02749769601814	0.0\\
163.41223908942897	0.0\\
163.80042872412855	0.0\\
164.1873500908411	0.0\\
164.576997827553	0.0\\
164.96680440287548	0.0\\
165.35595462716674	0.0\\
165.74535113507636	0.0\\
166.13641238789063	0.0\\
166.5272041305824	0.0\\
166.91837247655582	0.0\\
167.30759278764248	0.0\\
167.70104669910194	0.0\\
168.09416993376993	0.0\\
168.48825473472624	0.0\\
168.8820505455161	0.0\\
169.278531160591	0.0\\
169.6744951377383	0.0\\
170.0702120569885	0.0\\
170.46616062818686	0.0\\
170.8625376157463	0.0\\
171.25888290566053	0.0\\
171.65609525124313	0.0\\
172.05767446894708	0.0\\
172.45777638989313	0.0\\
172.85839526788453	0.0\\
173.2620320272668	0.0\\
173.66666682678385	0.0\\
174.0727600369284	0.0\\
174.47424717146282	0.0\\
174.87749002167095	0.0\\
175.2826300731656	0.0\\
175.6886721086296	0.0\\
176.09488000380384	0.0\\
176.49889088645125	0.0\\
176.90886771447867	0.0\\
177.31781571164385	0.0\\
177.72642487292643	0.0\\
178.13502973903422	0.0\\
178.54689202607665	0.0\\
178.95868758491508	0.0\\
179.3684498018457	0.0\\
179.78413403632464	0.0\\
180.19835172636834	0.0\\
180.61308507052496	0.0\\
181.03033926302982	0.0\\
181.44847984383995	0.0\\
181.8662042021	0.0\\
182.28516197469884	0.0\\
182.70487821200925	0.0\\
183.12508813424512	0.0\\
183.54602814947026	0.0\\
183.9684273700393	0.0\\
184.3930040686863	0.0\\
184.81529898710158	0.0\\
185.24029069616898	0.0\\
185.66306074401683	0.0\\
186.09186334561628	0.0\\
186.51814344949725	0.0\\
186.94778401062632	0.0\\
187.37717343195453	0.0\\
187.80506025349968	0.0\\
188.23640090723615	0.0\\
188.66943641177994	0.0\\
189.10397359946433	0.0\\
189.53917157658924	0.0\\
189.9768347777259	0.0\\
190.41197089116582	0.0\\
190.8499535176722	0.0\\
191.29105781809722	0.0\\
191.73206460539996	0.0\\
192.17317567632028	0.0\\
192.61580042455637	0.0\\
193.05896425997838	0.0\\
193.50354136904696	0.0\\
193.9479424696773	0.0\\
194.3940645317569	0.0\\
194.84113043346207	0.0\\
195.2935272835012	0.0\\
195.74257032603407	0.0\\
196.1977603518465	0.0\\
196.65163370015847	0.0\\
197.10876972788003	0.0\\
197.563958380166	0.0\\
198.02287226111162	0.0\\
198.48323479281459	0.0\\
198.942304951739	0.0\\
199.40264860963867	0.0\\
199.8654076463639	0.0\\
200.3304065788347	0.0\\
200.79327986407577	0.0\\
201.25841509780594	0.0\\
201.72768066392644	0.0\\
202.19861384245866	0.0\\
202.67154891801374	0.0\\
203.14416979413	0.0\\
203.61826016416848	0.0\\
204.0930859643691	0.0\\
204.57119958197597	0.0\\
205.04926140560445	0.0\\
205.5299744055544	0.0\\
206.01488308697725	0.0\\
206.4982001654638	0.0\\
206.9833742936155	0.0\\
207.47130259636305	0.0\\
207.96178622820435	0.0\\
208.45455976422147	0.0\\
208.9459616117839	0.0\\
209.44112006801288	0.0\\
209.9437673087035	0.0\\
210.44172358698074	0.0\\
210.94586286755776	0.0\\
211.45234133199352	0.0\\
211.95972022129723	0.0\\
212.4720447887243	0.0\\
212.98277944158394	0.0\\
213.49814012759828	0.0\\
214.0133535734709	0.0\\
214.5318960979074	0.0\\
215.05246605193014	0.0\\
215.57936253692554	0.0\\
216.10529709645033	0.0\\
216.633472757101	0.0\\
217.16108316591578	0.0\\
217.6987951868632	0.0\\
218.23245816095852	0.0\\
218.7762394777567	0.0\\
219.3234071548069	0.0\\
219.86820956886277	0.0\\
220.41865933948816	0.0\\
220.97110145332402	0.0\\
221.52585634883667	0.0\\
222.08479813107766	0.0\\
222.64275476261383	0.0\\
223.20711063057945	0.0\\
223.7756147012364	0.0\\
224.34942301615297	0.0\\
224.92906002252641	0.0\\
225.50930861944835	0.0\\
226.09466411126925	0.0\\
226.68350578098017	0.0\\
227.28345677269476	0.0\\
227.87876561692138	0.0\\
228.47526510291686	0.0\\
229.07957241931643	0.0\\
229.68683766762746	0.0\\
230.29360660424425	0.0\\
230.9047145842004	0.0\\
231.52471298707428	0.0\\
232.1469595025519	0.0\\
232.77638073429983	0.0\\
233.40685642339315	0.0\\
234.0345749251851	0.0\\
234.67364749293654	0.0\\
235.3045439358322	0.0\\
235.93833124817593	0.0\\
236.57459110340278	0.0\\
237.21421670292727	0.0\\
237.85323862003912	0.0\\
238.49094754417285	0.0\\
239.12467480057882	0.0\\
239.75701211552325	0.0\\
240.38551981571635	0.0\\
241.01850253176536	0.0\\
241.64983901480497	0.0\\
242.2708298555949	0.0\\
242.89264632397516	0.0\\
243.51217354047253	0.0\\
244.1322823378266	0.0\\
244.7483491736666	0.0\\
245.35626450515934	0.0\\
245.96445682346103	0.0\\
246.57185003676653	0.0\\
247.17267680370657	0.0\\
247.77497637078244	0.0\\
248.3707105612798	0.0\\
248.95798877029665	0.0\\
249.5474097136866	0.0\\
250.13271560910886	0.0\\
250.71342944022575	0.0\\
251.29008687186837	0.0\\
251.86413450318844	0.0\\
252.43697239273735	0.0\\
253.00838633675323	0.0\\
253.57698824950984	0.0\\
254.14350090737804	0.0\\
254.70782121946104	0.0\\
255.27052768991865	0.0\\
255.38256863465705	0.0\\
255.44959716037482	0.0\\
255.48990717390126	0.0\\
255.49909994906284	0.0\\
255.54262149944458	0.0\\
255.5821676937441	0.0\\
255.7353681974531	0.0\\
256.1420255554707	0.0\\
256.6272242967332	0.0\\
257.1146718264083	0.0\\
257.60740638884545	0.0\\
258.0999319059506	0.0\\
258.59512367596164	0.0\\
259.0914309487491	0.0\\
259.59436031990913	0.0\\
260.0991923723178	0.0\\
260.60634662246093	0.0\\
261.11883934768446	0.0\\
261.63352413426617	0.0\\
262.1497017734032	0.0\\
262.6734524335227	0.0\\
263.19828243460915	0.0\\
263.72481817574715	0.0\\
264.2580042442271	0.0\\
264.79225489007604	0.0\\
265.3323373579908	0.0\\
265.8762219389657	0.0\\
266.42373701577503	0.0\\
266.97601194681295	0.0\\
267.5300694580337	0.0\\
268.09104666307394	0.0\\
268.65445974516956	0.0\\
269.2197094591779	0.0\\
269.7915757258469	0.0\\
270.3691604195516	0.0\\
270.9517357898668	0.0\\
271.53995059532724	0.0\\
272.13178805446546	0.0\\
272.72702451530074	0.0\\
273.33084933404484	0.0\\
273.93869388859764	0.0\\
274.5486136854835	0.0\\
275.162068839772	0.0\\
275.78186761499944	0.0\\
276.40784422738466	0.0\\
277.04033388205266	0.0\\
277.66584403025104	0.0\\
278.29753744224377	0.0\\
278.93542390327093	0.0\\
279.5770000499724	0.0\\
280.2128088360969	0.0\\
280.85054232038806	0.0\\
281.49165222033207	0.0\\
282.13571068888143	0.0\\
282.77531052904624	0.0\\
283.4154264604234	0.0\\
284.0488221727396	0.0\\
284.6835804625557	0.0\\
285.317489385434	0.0\\
285.9458987920607	0.0\\
286.57640217259734	0.0\\
287.20479140830037	0.0\\
287.83194381392343	0.0\\
288.4540604180726	0.0\\
289.06837996737875	0.0\\
289.6840193357408	0.0\\
290.2992155563787	0.0\\
290.90793146345015	0.0\\
291.51428023262724	0.0\\
292.11893486380245	0.0\\
292.7243410965814	0.0\\
293.32669475849457	0.0\\
293.9227318122263	0.0\\
294.51943080427736	0.0\\
295.1146438394593	0.0\\
295.7098087825955	0.0\\
296.3043002760339	0.0\\
296.90052157578214	0.0\\
297.4923135530289	0.0\\
298.08374697190754	0.0\\
298.6695404618587	0.0\\
299.2542348808689	0.0\\
299.84088765402316	0.0\\
300.4202074094294	0.0\\
301.0012904249089	0.0\\
301.58068784751526	0.0\\
302.15836971605495	0.0\\
302.73625180548424	0.0\\
303.3121966975516	0.0\\
303.88443886351934	0.0\\
304.45909969943284	0.0\\
305.03321907242275	0.0\\
305.60316769320787	0.0\\
306.18213317990785	0.0\\
306.7528690380926	0.0\\
307.32360458271205	0.0\\
307.89458063530776	0.0\\
308.4622845989833	0.0\\
309.02793800200686	0.0\\
309.59389666088487	0.0\\
310.161038881113	0.0\\
310.7268617738297	0.0\\
311.29167132258556	0.0\\
311.8592801253152	0.0\\
312.4228519487773	0.0\\
312.98616683617365	0.0\\
313.55056144568687	0.0\\
314.11140226068335	0.0\\
314.6722825503333	0.0\\
315.2360183864257	0.0\\
315.7973049675611	0.0\\
316.35766506280254	0.0\\
316.9193991129249	0.0\\
317.48150864889726	0.0\\
318.04131227408413	0.0\\
318.6036252478208	0.0\\
319.16188504198647	0.0\\
319.72337894483303	0.0\\
320.2822344134371	0.0\\
320.8422620430109	0.0\\
321.40257352667436	0.0\\
321.96225814187017	0.0\\
322.5216246238474	0.0\\
323.08163963072343	0.0\\
323.64364419606943	0.0\\
324.2016691389498	0.0\\
324.761881273546	0.0\\
325.3229083242819	0.0\\
325.8828752675174	0.0\\
326.4431889278751	0.0\\
327.00230321952324	0.0\\
327.5638625817785	0.0\\
328.123404383771	0.0\\
328.68730747287134	0.0\\
329.24720650266306	0.0\\
329.8056199882943	0.0\\
330.36563895146264	0.0\\
330.9240434425192	0.0\\
331.48422404225425	0.0\\
332.0451741437188	0.0\\
332.6058437805002	0.0\\
333.16798636168426	0.0\\
333.7317063847911	0.0\\
334.29077726510616	0.0\\
334.8522419372073	0.0\\
335.4128159363694	0.0\\
335.9754104883691	0.0\\
336.53859922373954	0.0\\
337.1036451869321	0.0\\
337.6690917221623	0.0\\
338.23096009830124	0.0\\
338.7923511417829	0.0\\
339.356843647035	0.0\\
339.9217688426261	0.0\\
340.4904593952648	0.0\\
341.0542688687972	0.0\\
341.6223667230263	0.0\\
342.1894076193199	0.0\\
342.756026615569	0.0\\
343.32650244217496	0.0\\
343.89579996558757	0.0\\
344.4632466472418	0.0\\
345.03135299034307	0.0\\
345.59918283361924	0.0\\
346.17037852740566	0.0\\
346.74116880827455	0.0\\
347.3106723226997	0.0\\
347.88047036403054	0.0\\
348.44957814465545	0.0\\
349.0217096777819	0.0\\
349.5928922742361	0.0\\
350.1639037284924	0.0\\
350.734680416827	0.0\\
351.3066484321415	0.0\\
351.8796563611903	0.0\\
352.4573211402578	0.0\\
353.03288244557166	0.0\\
353.6077253393953	0.0\\
354.18393073174263	0.0\\
354.7630508634559	0.0\\
355.33821269746045	0.0\\
355.9185375827858	0.0\\
356.49528568272126	0.0\\
357.07752111076525	0.0\\
357.6579952781442	0.0\\
358.2367211077577	0.0\\
358.81728475839225	0.0\\
359.40219901221985	0.0\\
359.98507700057655	0.0\\
360.56521796144705	0.0\\
361.1515404600375	0.0\\
361.7377949747805	0.0\\
362.32533764922744	0.0\\
362.90998401885975	0.0\\
363.5003311070907	0.0\\
364.089491293749	0.0\\
364.67979916860065	0.0\\
365.2701102641943	0.0\\
365.86010562662364	0.0\\
366.45236910420454	0.0\\
367.0437342040685	0.0\\
367.6401972982078	0.0\\
368.2348614164342	0.0\\
368.83153387410346	0.0\\
369.4292304504412	0.0\\
370.02807966828834	0.0\\
370.6257861698324	0.0\\
371.22484305572675	0.0\\
371.8230912706415	0.0\\
372.42666623008085	0.0\\
373.0270705438926	0.0\\
373.63070050165834	0.0\\
374.23431064582564	0.0\\
374.83566068085236	0.0\\
375.44219338409096	0.0\\
376.0503916348064	0.0\\
376.65913530137766	0.0\\
377.26905143215913	0.0\\
377.87869863814433	0.0\\
378.48606762946565	0.0\\
379.0955135911545	0.0\\
379.71025366825984	0.0\\
380.3251617382524	0.0\\
380.9372308091241	0.0\\
381.5529380381124	0.0\\
382.1698034670816	0.0\\
382.78817506387395	0.0\\
383.40836627248484	0.0\\
384.02920907683665	0.0\\
384.65074831752065	0.0\\
385.27501447086127	0.0\\
385.89923067936843	0.0\\
386.5257564619118	0.0\\
387.153356280503	0.0\\
387.78182961718244	0.0\\
388.41336649234586	0.0\\
389.046013943102	0.0\\
389.67903368302814	0.0\\
390.31205865248614	0.0\\
390.94778864131604	0.0\\
391.5814751555878	0.0\\
392.2160168022589	0.0\\
392.8560881618863	0.0\\
393.4975017482519	0.0\\
394.139691018128	0.0\\
394.78659088531276	0.0\\
395.4317697672818	0.0\\
396.07787448486306	0.0\\
396.724098278416	0.0\\
397.37745929325524	0.0\\
398.0296281225785	0.0\\
398.68257098972106	0.0\\
399.3385470625691	0.0\\
399.99340591274824	0.0\\
400.65255757128784	0.0\\
401.3107637949262	0.0\\
401.9724529877684	0.0\\
402.63500140454835	0.0\\
403.3000304974023	0.0\\
403.9651213376113	0.0\\
404.63488781877675	0.0\\
405.3061991599526	0.0\\
405.9779970624252	0.0\\
406.6514004032043	0.0\\
407.32901491728387	0.0\\
408.007393095755	0.0\\
408.6890638483994	0.0\\
409.37011479899036	0.0\\
410.05331453172187	0.0\\
410.7399067503111	0.0\\
411.4278955187883	0.0\\
412.11555742736743	0.0\\
412.8081089565528	0.0\\
413.50081466405436	0.0\\
414.19416335047333	0.0\\
414.8942839305422	0.0\\
415.59628542821736	0.0\\
416.3019672702129	0.0\\
417.00872339632815	0.0\\
417.7191004571687	0.0\\
418.42925098315663	0.0\\
419.14356675383283	0.0\\
419.85881115130985	0.0\\
420.57953319654655	0.0\\
421.30286361427704	0.0\\
422.02759379415636	0.0\\
422.7556685906799	0.0\\
423.487557884038	0.0\\
424.22435329491634	0.0\\
424.9609401540888	0.0\\
425.7017083102305	0.0\\
426.44571597151196	0.0\\
427.1928102204421	0.0\\
427.94532467600663	0.0\\
428.6984102584348	0.0\\
429.4580834790064	0.0\\
430.2182871265443	0.0\\
430.98366019633727	0.0\\
431.75030593458143	0.0\\
432.52240933460473	0.0\\
433.30197034906564	0.0\\
434.0838154680639	0.0\\
434.86844368084996	0.0\\
435.6572703227854	0.0\\
436.45787896911975	0.0\\
437.2598425944143	0.0\\
438.0657178849807	0.0\\
438.8743136369168	0.0\\
439.6833943523659	0.0\\
440.49652923576923	0.0\\
441.3186819645051	0.0\\
442.1549453239551	0.0\\
443.0020446036565	0.0\\
443.8533377410646	0.0\\
444.7023155495557	0.0\\
445.5568435660929	0.0\\
446.4264554271532	0.0\\
447.3041277658614	0.0\\
448.1905538462456	0.0\\
449.07830384511306	0.0\\
449.98003392050816	0.0\\
450.89206615544674	0.0\\
451.81749226167483	0.0\\
452.7531805134598	0.0\\
453.70087952418976	0.0\\
454.66218920653887	0.0\\
455.6326160973832	0.0\\
456.62917464008353	0.0\\
457.6326921365468	0.0\\
458.6372333604751	0.0\\
459.65377044378874	0.0\\
460.6882783962551	0.0\\
461.7176595919931	0.0\\
462.76209040843685	0.0\\
463.80938665232657	0.0\\
464.85240119958985	0.0\\
465.8919658869371	0.0\\
466.9193095069785	0.0\\
467.94293301756704	0.0\\
468.95334878259075	0.0\\
469.9498439470682	0.0\\
470.93457130708475	0.0\\
471.90642748068854	0.0\\
472.86845115908113	0.0\\
473.8148787873631	0.0\\
474.7616457508426	0.0\\
475.68877651119726	0.0\\
476.60853153198366	0.0\\
477.5218194671544	0.0\\
478.4239732758989	0.0\\
479.3188991724164	0.0\\
480.2068388980689	0.0\\
481.08919272498906	0.0\\
481.9636079575671	0.0\\
482.8310972848353	0.0\\
483.69295621789024	0.0\\
484.5495631964892	0.0\\
485.40077234005264	0.0\\
486.2497833134504	0.0\\
487.08528412631983	0.0\\
487.92225415476923	0.0\\
488.7515344738795	0.0\\
489.5762983060798	0.0\\
490.39491953850154	0.0\\
491.2135449222278	0.0\\
492.0240589460931	0.0\\
492.834026427838	0.0\\
493.6371879591453	0.0\\
494.4420942573878	0.0\\
495.2415622525459	0.0\\
495.40088175349433	0.0\\
495.8777094195141	0.0\\
495.9090623009679	0.0\\
495.9358079119222	0.0\\
495.94913433067404	0.0\\
495.9577889363326	0.0\\
495.9677419743176	0.0\\
496.0181366735686	0.0\\
496.2147848400152	0.0\\
496.8116229398157	0.0\\
497.5816102146755	0.0\\
498.3608633123166	0.0\\
499.1426675117531	0.0\\
499.93013234910757	0.0\\
500.72288713737885	0.0\\
501.52382562339074	0.0\\
502.32695778658	0.0\\
503.1340342760799	0.0\\
503.9462093980302	0.0\\
504.7670845950738	0.0\\
505.59183231629595	0.0\\
506.42670053400934	0.0\\
507.26000162100274	0.0\\
508.1036195138979	0.0\\
508.95645557407056	0.0\\
509.81096243087336	0.0\\
510.6756503404963	0.0\\
511.54734972357426	0.0\\
512.427735199396	0.0\\
513.3165885673588	0.0\\
514.2138130752533	0.0\\
515.1174021694399	0.0\\
516.0373841193536	0.0\\
516.9571164417935	0.0\\
517.8891983381488	0.0\\
518.8315955035009	0.0\\
519.786651032932	0.0\\
520.7541260948312	0.0\\
521.7333792628135	0.0\\
522.7247567968041	0.0\\
523.7188753258472	0.0\\
524.7291166797145	0.0\\
525.7468366461235	0.0\\
526.7783049052348	0.0\\
527.817375940808	0.0\\
528.8591193841166	0.0\\
529.9020473727446	0.0\\
530.951170060109	0.0\\
531.9986566997002	0.0\\
533.0398682765476	0.0\\
534.0830759595879	0.0\\
535.1232304370135	0.0\\
536.156304127165	0.0\\
537.1861507089923	0.0\\
538.2059202980365	0.0\\
539.2181136909721	0.0\\
540.2230224461248	0.0\\
541.2227004414115	0.0\\
542.2149713038859	0.0\\
543.2014317991805	0.0\\
544.1771979155394	0.0\\
545.1529297702377	0.0\\
546.1149790388279	0.0\\
547.0757379619715	0.0\\
548.0261986189198	0.0\\
548.9784922886756	0.0\\
549.9238294992629	0.0\\
550.8596169269592	0.0\\
551.7893116903324	0.0\\
552.7145004039819	0.0\\
553.6380401295626	0.0\\
554.5543388579861	0.0\\
555.4700354542731	0.0\\
556.3786458004995	0.0\\
557.2881642002887	0.0\\
558.1899809933091	0.0\\
559.0950282991555	0.0\\
559.9963049432051	0.0\\
560.8887819834231	0.0\\
561.783792203863	0.0\\
562.677365558312	0.0\\
563.564023152737	0.0\\
564.4477328845412	0.0\\
565.3350133094914	0.0\\
566.215646303348	0.0\\
567.0967418191915	0.0\\
567.9740124307568	0.0\\
568.8478063531513	0.0\\
569.7246449247164	0.0\\
570.6003105226569	0.0\\
571.4685306725398	0.0\\
572.3399746021096	0.0\\
573.206542501438	0.0\\
574.0686822566934	0.0\\
574.929189762355	0.0\\
575.7905036031909	0.0\\
576.6509089697645	0.0\\
577.5114618377236	0.0\\
578.3694721162826	0.0\\
579.2294465700481	0.0\\
580.0840087344329	0.0\\
580.9388814270844	0.0\\
581.7956987367036	0.0\\
582.6464152717388	0.0\\
583.4965630041117	0.0\\
584.3498421016607	0.0\\
585.2018049141695	0.0\\
586.0525515618931	0.0\\
586.9005435109796	0.0\\
587.7504428127231	0.0\\
588.5971208349456	0.0\\
589.4436552178772	0.0\\
590.290753131459	0.0\\
591.1344140887272	0.0\\
591.978496057694	0.0\\
592.8228743208749	0.0\\
593.6668532669455	0.0\\
594.509514609485	0.0\\
595.3522008137963	0.0\\
596.1960177924611	0.0\\
597.037289944489	0.0\\
597.8867308181477	0.0\\
598.7315065027014	0.0\\
599.5746040172678	0.0\\
600.4189111044441	0.0\\
601.257156402957	0.0\\
602.0992933556295	0.0\\
602.9436412252448	0.0\\
603.7847807339272	0.0\\
604.6249813815309	0.0\\
605.4687857043107	0.0\\
606.3094142783634	0.0\\
607.1526808468898	0.0\\
607.9957619733473	0.0\\
608.8367531817021	0.0\\
609.680078969021	0.0\\
610.5198046888165	0.0\\
611.3617469616563	0.0\\
612.2034273447309	0.0\\
613.0465679697356	0.0\\
613.8912403665588	0.0\\
614.7345752664155	0.0\\
615.5760613190328	0.0\\
616.4172329476037	0.0\\
617.2603302283205	0.0\\
618.1054322458851	0.0\\
618.9500431276069	0.0\\
619.7945200202826	0.0\\
620.6411775392019	0.0\\
621.485090687625	0.0\\
622.327758750487	0.0\\
623.175467351834	0.0\\
624.0247849821155	0.0\\
624.8716600421717	0.0\\
625.7202918046287	0.0\\
626.5684834413394	0.0\\
627.4201262466563	0.0\\
628.2682902181441	0.0\\
629.1144499797504	0.0\\
629.9683913818549	0.0\\
630.8191539517013	0.0\\
631.6705208264559	0.0\\
632.5224408470717	0.0\\
633.3719676375963	0.0\\
634.2274636172885	0.0\\
635.0821343234595	0.0\\
635.9335991516043	0.0\\
636.7866161482682	0.0\\
637.6431041606011	0.0\\
638.4983804777412	0.0\\
639.3552210926746	0.0\\
640.2100243373786	0.0\\
641.0695583361592	0.0\\
641.9273535281595	0.0\\
642.7872252393581	0.0\\
643.6499064230331	0.0\\
644.509686589281	0.0\\
645.3728044967397	0.0\\
646.2360541621897	0.0\\
647.1004519764497	0.0\\
647.9636348593385	0.0\\
648.8298883369878	0.0\\
649.6915167753202	0.0\\
650.5551609947067	0.0\\
651.422237915096	0.0\\
652.2910963697084	0.0\\
653.1606845377844	0.0\\
654.0269583792451	0.0\\
654.8995693252939	0.0\\
655.7705744624607	0.0\\
656.6400751693823	0.0\\
657.5142097543578	0.0\\
658.3878646069463	0.0\\
659.2611008471724	0.0\\
660.1351865298202	0.0\\
661.0153226021725	0.0\\
661.8921233206377	0.0\\
662.7681877304612	0.0\\
663.6505938447017	0.0\\
664.5290379539654	0.0\\
665.4109694825033	0.0\\
666.296646749536	0.0\\
667.1795116457379	0.0\\
668.062379294041	0.0\\
668.9451493704546	0.0\\
669.832354599188	0.0\\
670.722019889381	0.0\\
671.6100179961131	0.0\\
672.5021675071202	0.0\\
673.3907171248829	0.0\\
674.2813764651571	0.0\\
675.1750027478311	0.0\\
676.0716773487991	0.0\\
676.971657342252	0.0\\
677.868943249038	0.0\\
678.7677116754278	0.0\\
679.6713805926686	0.0\\
680.5725571368021	0.0\\
681.4736757160902	0.0\\
682.3793051030514	0.0\\
683.2858235265323	0.0\\
684.1956754315272	0.0\\
685.1018745287804	0.0\\
686.007984264859	0.0\\
686.9202406245945	0.0\\
687.8351362299202	0.0\\
688.7473004774081	0.0\\
689.6634107305097	0.0\\
690.5836066226339	0.0\\
691.5009150928777	0.0\\
692.4251791869358	0.0\\
693.3449455508035	0.0\\
694.2710550841009	0.0\\
695.1960381329768	0.0\\
696.1255992330082	0.0\\
697.0569085104046	0.0\\
697.9907151925715	0.0\\
698.9232213474697	0.0\\
699.8556086838014	0.0\\
700.7938845475526	0.0\\
701.7276835670309	0.0\\
702.6664050376303	0.0\\
703.6089538506897	0.0\\
704.5536091801678	0.0\\
705.5014252945448	0.0\\
706.4488067273276	0.0\\
707.3968224262753	0.0\\
708.3464382522457	0.0\\
709.2980030442075	0.0\\
710.2508417250806	0.0\\
711.2038703097678	0.0\\
712.1605061176192	0.0\\
713.1200693100759	0.0\\
714.0814721633396	0.0\\
715.0435707373724	0.0\\
716.0089306115112	0.0\\
716.9760967276468	0.0\\
717.9478816142739	0.0\\
718.9180563005493	0.0\\
719.8863028869164	0.0\\
720.8645919943003	0.0\\
721.8455395990366	0.0\\
722.8257666385798	0.0\\
723.8083678141375	0.0\\
724.7948371824857	0.0\\
725.7814744344971	0.0\\
726.7749709173222	0.0\\
727.7656471063005	0.0\\
728.7604954054157	0.0\\
729.7588173986001	0.0\\
730.7572057374573	0.0\\
731.7575835543839	0.0\\
732.7640227184927	0.0\\
733.7734628002022	0.0\\
734.7867447427523	0.0\\
735.7991949834802	0.0\\
736.8180378554193	0.0\\
737.8339067301795	0.0\\
738.8573086879326	0.0\\
739.8816339114792	0.0\\
740.908454751863	0.0\\
741.9417391114264	0.0\\
742.9799153012821	0.0\\
744.0135326066179	0.0\\
745.054292252624	0.0\\
746.0966326625687	0.0\\
747.1434666923844	0.0\\
748.1901119292397	0.0\\
749.2432874038918	0.0\\
750.2982870742255	0.0\\
751.3575971635382	0.0\\
752.4178231567985	0.0\\
753.4845913761055	0.0\\
754.5547687830342	0.0\\
755.6265907261613	0.0\\
756.7069286507588	0.0\\
757.787114742224	0.0\\
758.8702926711653	0.0\\
759.962362348833	0.0\\
761.0589140129441	0.0\\
762.1542546497246	0.0\\
763.2567423357434	0.0\\
764.3632093637143	0.0\\
765.4665299523103	0.0\\
766.5777201337378	0.0\\
767.6962294420352	0.0\\
768.8266143702008	0.0\\
769.9545639591522	0.0\\
771.0890882217047	0.0\\
772.2290920307364	0.0\\
773.378386445436	0.0\\
774.5303007787059	0.0\\
775.6876228815845	0.0\\
776.8478631728292	0.0\\
778.0136693080424	0.0\\
779.1902036391512	0.0\\
780.3727937542244	0.0\\
781.5609432189399	0.0\\
782.7545435605691	0.0\\
783.9494223427098	0.0\\
785.1591105971845	0.0\\
785.4170728279348	0.0\\
786.3701263491594	0.0\\
787.5872898376565	0.0\\
788.8211110601064	0.0\\
790.0658962290577	0.0\\
791.3192299436782	0.0\\
792.5826320160481	0.0\\
793.8519875252762	0.0\\
795.1341605772952	0.0\\
796.4232305717292	0.0\\
797.7200157252462	0.0\\
799.0276517844222	0.0\\
800.3505336794176	0.0\\
801.6895912137916	0.0\\
803.0435237380393	0.0\\
804.4025928510614	0.0\\
805.785339187209	0.0\\
807.1812216459932	0.0\\
808.604476117757	0.0\\
810.0418336166772	0.0\\
811.4959365204909	0.0\\
812.9610584078189	0.0\\
814.4524613753483	0.0\\
815.9657446840297	0.0\\
817.5190735059939	0.0\\
819.0948633807507	0.0\\
820.7055293589844	0.0\\
822.3541084974943	0.0\\
824.0245033197689	0.0\\
825.7149470336599	0.0\\
827.4567514159926	0.0\\
829.215727839106	0.0\\
830.9862927322181	0.0\\
832.7433300473881	0.0\\
834.4759727503947	0.0\\
836.1820998837343	0.0\\
837.8627362860664	0.0\\
839.5097090203283	0.0\\
841.128719272989	0.0\\
842.718091079269	0.0\\
844.2799001995534	0.0\\
845.8186905121781	0.0\\
847.3412646213712	0.0\\
848.8432685761659	0.0\\
850.3263240693063	0.0\\
851.7939749091668	0.0\\
853.2447668316579	0.0\\
854.6829746837986	0.0\\
856.1081204295738	0.0\\
857.5222633167116	0.0\\
858.9224930603041	0.0\\
860.3133438253735	0.0\\
861.6909553966177	0.0\\
863.0606855009498	0.0\\
864.4242305982457	0.0\\
865.7751030982818	0.0\\
867.1166230810218	0.0\\
868.4526213958825	0.0\\
869.7847542957691	0.0\\
871.1053775084924	0.0\\
872.4239468782857	0.0\\
873.7344628905357	0.0\\
875.0403944897116	0.0\\
876.3408865353542	0.0\\
877.6319343835753	0.0\\
877.8897095847431	0.0\\
878.0623951929399	0.0\\
878.1629280330851	0.0\\
878.2344262634949	0.0\\
878.2858021782565	0.0\\
878.3098881926114	0.0\\
878.3239047323609	0.0\\
878.341377530782	0.0\\
878.4463352067137	0.0\\
878.8543303658421	0.0\\
879.972923554636	0.0\\
881.3089458773477	0.0\\
882.6526427814965	0.0\\
884.0103319193056	0.0\\
885.3727972308084	0.0\\
886.7541510485569	0.0\\
888.149565793264	0.0\\
889.5655316408695	0.0\\
890.9917784306322	0.0\\
892.4376309662205	0.0\\
893.8970056184473	0.0\\
895.3754573388587	0.0\\
896.8833557697053	0.0\\
898.4027551505526	0.0\\
899.9406845117353	0.0\\
901.5048573259869	0.0\\
903.088291640642	0.0\\
904.7045422288047	0.0\\
906.340210158153	0.0\\
908.001555477691	0.0\\
909.6846730570621	0.0\\
911.3846912264812	0.0\\
913.1012170071126	0.0\\
914.8407000766665	0.0\\
916.5791157121919	0.0\\
918.3193375629698	0.0\\
920.0467957887745	0.0\\
921.7636404094444	0.0\\
923.4679260389173	0.0\\
925.1503965783068	0.0\\
926.8229090349132	0.0\\
928.4709637098533	0.0\\
930.1011633359892	0.0\\
931.727604890244	0.0\\
933.3379490439702	0.0\\
934.9241226746033	0.0\\
936.4953629810443	0.0\\
938.0624990456356	0.0\\
939.6041337136514	0.0\\
941.1411488295598	0.0\\
942.6682544991222	0.0\\
944.1847424625676	0.0\\
945.695692575629	0.0\\
947.1949408792855	0.0\\
948.6859883883162	0.0\\
950.1716333201546	0.0\\
951.6487780552129	0.0\\
953.1194099619399	0.0\\
954.5824795762653	0.0\\
956.0404806861957	0.0\\
957.4959315991321	0.0\\
958.9470052663148	0.0\\
960.3858039127001	0.0\\
961.8224368414913	0.0\\
963.2559757718086	0.0\\
964.6821824150559	0.0\\
966.1091437997125	0.0\\
967.5260364233156	0.0\\
968.9450310913776	0.0\\
970.3623298362902	0.0\\
971.7787910348156	0.0\\
973.1929473247687	0.0\\
974.5927936113992	0.0\\
975.9973950688136	0.0\\
977.3973601482019	0.0\\
978.7974968470214	0.0\\
980.1951720709139	0.0\\
981.591705550399	0.0\\
982.9836488738651	0.0\\
984.3714308301328	0.0\\
985.7610587265842	0.0\\
987.1516156479299	0.0\\
988.5373969770528	0.0\\
989.9260649629525	0.0\\
991.3068720543972	0.0\\
992.6878858651562	0.0\\
994.0643941074911	0.0\\
995.4499320651848	0.0\\
995.6911472403024	2.487200947265039E-6\\
995.9311943099117	9.942706425261635E-6\\
996.172749914384	2.2537838518829063E-5\\
996.4097599252093	3.993639222416114E-5\\
996.648424233792	6.257667864623698E-5\\
996.8912519088267	9.096226252112486E-5\\
997.1227412141907	1.2311872318636536E-4\\
997.3656460584377	1.62286177018976E-4\\
997.60667280542	2.0671786383861363E-4\\
997.8469046513876	2.565980646893768E-4\\
998.0903277872685	3.1291670562280866E-4\\
998.3281476819066	3.736291381790537E-4\\
998.5578149218902	4.376688309071274E-4\\
998.8000641310871	5.110504584065608E-4\\
999.0352498958766	5.880937456270441E-4\\
999.2670273462711	6.696831657491164E-4\\
999.4911548935058	7.539906429483898E-4\\
999.7342784208474	8.515320100964134E-4\\
999.9680254941834	9.513553198442451E-4\\
1000.2125423382429	0.0010621961996342558\\
1000.4559058313562	0.0011791076755926612\\
1000.6989498552282	0.0013025092879845926\\
1000.9441554947416	0.0014338161202098014\\
1001.1715335551014	0.001561756479895322\\
1001.4051267980867	0.0016994575631857209\\
1001.644994785112	0.001847535163204724\\
1001.8890194196672	0.0020051979029606024\\
1002.133025921747	0.0021700056721807356\\
1002.3702211329442	0.0023371476070912613\\
1002.6075446068421	0.0025112958144935457\\
1002.8445189656095	0.0026921626300938292\\
1003.0870821972487	0.0028845884657820696\\
1003.3320233177644	0.0030864654491121113\\
1003.5652611405203	0.0032858347643755052\\
1003.809436127576	0.003502090644238988\\
1004.0506235572877	0.0037233447073581295\\
1004.2950060549201	0.003955356670822684\\
1004.5358204569739	0.004191763955724591\\
1004.7822729534357	0.0044417843659667455\\
1005.0252008215834	0.004696303840685225\\
1005.2595461987639	0.004949501163264744\\
1005.5066266644592	0.005224692934668247\\
1005.7437837139162	0.005496855544484329\\
1005.9515471428992	0.00574180245582343\\
1006.1963326317632	0.0060382769971939945\\
1006.4434963157955	0.006346353461354525\\
1006.6923187563668	0.006665431048175114\\
1006.937391049727	0.006988541481710598\\
1007.1869586601929	0.007326678488191381\\
1007.43597115189	0.007673297172862022\\
1007.6825517200646	0.00802570078462711\\
1007.9309808114972	0.008390055889518126\\
1008.1611784757995	0.008736084295259308\\
1008.4090223969192	0.009117762091245152\\
1008.643614958029	0.009487818673881758\\
1008.8942838553753	0.009892757765329344\\
1009.1436107620952	0.010305368269093777\\
1009.3895097604768	0.010721998126514025\\
1009.640466900848	0.011157204854868083\\
1009.8904575552372	0.011600868177311641\\
1010.1415929144621	0.012056829518027178\\
1010.3831429472293	0.012505174250900728\\
1010.6336123282899	0.012980290160994754\\
1010.8735240125147	0.013445207152167602\\
1011.1194639502703	0.013931866496947234\\
1011.3685562991204	0.014435224854059799\\
1011.614293199153	0.014942197663687228\\
1011.8546105375087	0.0154480510277079\\
1012.1038860140832	0.015983352528629473\\
1012.356135844484	0.016536102163838128\\
1012.5997638229117	0.017080600401568356\\
1012.8285270145293	0.01760146509741601\\
1013.0425312209422	0.0180971913291827\\
1013.2660866858778	0.01862384022203547\\
1013.5196215347894	0.01923206476883131\\
1013.7635982056452	0.01982842226576082\\
1014.0120238973002	0.020446884100279526\\
1014.2670943807425	0.021093761206472487\\
1014.518549541089	0.021743327979870664\\
1014.7669168124069	0.022396557950510917\\
1015.020476462103	0.023075461466735316\\
1015.2726697405617	0.023762833254978404\\
1015.5200706733856	0.02444897580007155\\
1015.7724290949	0.02516102406515648\\
1016.0198553505456	0.025871155369128873\\
1016.2710421821737	0.02660431522172256\\
1016.4996413301062	0.02728233045615821\\
1016.7574117993395	0.028059275285537574\\
1017.0152187981164	0.028849568697173096\\
1017.26932351544	0.029641555298001068\\
1017.5244115472206	0.030449716464176352\\
1017.7644590787993	0.0312223002032219\\
1018.0222037705723	0.03206495917075386\\
1018.2815302896179	0.032926584684921226\\
1018.5404033368616	0.03380059403399041\\
1018.7996464686032	0.034689851014778755\\
1019.0454929235004	0.03554617755047357\\
1019.3024253131825	0.03645475204912202\\
1019.5500887024582	0.037343818190862604\\
1019.8016447278633	0.03826027459339425\\
1020.0471568765338	0.039167827624772986\\
1020.3034397380038	0.04012909977038312\\
1020.5651120837626	0.04112532835868475\\
1020.8186191531227	0.04210476120402193\\
1021.0613504667826	0.0430558208783733\\
1021.3094942654798	0.044041574443877504\\
1021.5668508686849	0.04507841275533672\\
1021.8255487295858	0.04613560714931214\\
1022.0846893168209	0.047209729143088866\\
1022.3449308432321	0.04830373185216347\\
1022.5903149306228	0.04934941820660792\\
1022.8515045813187	0.05047762673885989\\
1023.113555830131	0.051625363505168456\\
1023.3765641406612	0.05279330356667683\\
1023.6405912771252	0.05398199503574916\\
1023.8945667279618	0.055140861268085775\\
1024.1374624413052	0.056263404629570385\\
1024.3950115273747	0.057468951850489766\\
1024.6572186834487	0.05871254914811666\\
1024.9089371722553	0.05992190636917724\\
1025.168363498311	0.06118427663804195\\
1025.4345441826413	0.06249646596970096\\
1025.6940619454176	0.06379242971493515\\
1025.9546344642167	0.06511026118907698\\
1026.2198645767126	0.06646882303031315\\
1026.4736857197026	0.06778525698546928\\
1026.7297093433217	0.06912936102875544\\
1026.9952209964013	0.07054060163161444\\
1027.2394272938986	0.07185425385033184\\
1027.5065484591678	0.07330843825679076\\
1027.777994512399	0.074804741374832\\
1028.030338891478	0.07621263050130375\\
1028.2997420308488	0.07773374126200658\\
1028.565733408242	0.0792539646782465\\
1028.805827095769	0.08064193316951346\\
1029.0747780295042	0.08221457012000019\\
1029.3416456363138	0.0837937540947307\\
1029.6102072799913	0.08540189306405743\\
1029.861951117377	0.08692665730586083\\
1030.1036133290158	0.0884062120639458\\
1030.3580277083893	0.08998069978167683\\
1030.604069113048	0.09151989274736472\\
1030.8616640097925	0.0931488532042899\\
1031.1340016007507	0.09489059100470904\\
1031.4000333491313	0.09661149255391119\\
1031.6621029609032	0.09832569256817023\\
1031.9244884323966	0.10006086956537799\\
1032.1989286952353	0.10189610908789962\\
1032.458497795329	0.10365113202894227\\
1032.7169049932563	0.10541695715738256\\
1032.9755013260215	0.10720279710233688\\
1033.243417150606	0.10907284123085914\\
1033.490833070768	0.11081781437156993\\
1033.7486493525116	0.11265463085078525\\
1034.0206693468535	0.11461319303370937\\
1034.2941600660188	0.11660371468458347\\
1034.5731097634189	0.11865614529572638\\
1034.8355082584717	0.12060733412950966\\
1035.1030921395932	0.12261768019569597\\
1035.3555305722407	0.12453339057616672\\
1035.619266377987	0.1265547836137551\\
1035.8993239954675	0.1287236887281512\\
1036.1803430166465	0.13092334943271017\\
1036.4564051817529	0.133107051245208\\
1036.73603663723	0.13534217138783544\\
1037.0097772178465	0.13755290843118978\\
1037.2826813751658	0.13977934997511277\\
1037.5502555550975	0.14198417599313695\\
1037.8332606298104	0.14433981925771644\\
1038.0990998760544	0.1465748351368772\\
1038.3789179681712	0.14895077047359362\\
1038.6515488278937	0.15128885382901208\\
1038.9330112806929	0.1537267793921422\\
1039.2152983357023	0.15619654800479482\\
1039.499186876526	0.15870538562275344\\
1039.7784933117678	0.1611983595283169\\
1040.0616970093615	0.16375117126260857\\
1040.3452706637245	0.16633270215212298\\
1040.6339739558157	0.16898713867498943\\
1040.9180030694815	0.17162451433451198\\
1041.2068125604642	0.17433274949247896\\
1041.4891741346264	0.17700643563455098\\
1041.7615061877855	0.17960952809294578\\
1042.051889650575	0.18241164417908456\\
1042.3373167562581	0.18519267464204592\\
1042.6303099653592	0.18807511766225155\\
1042.9215605756694	0.1909683396191958\\
1043.2104988601332	0.1938662168051778\\
1043.5019074793609	0.1968168566242564\\
1043.788884282886	0.19975020447205522\\
1044.0823772395247	0.20277858588647635\\
1044.3761130486637	0.2058383751238556\\
1044.6683284898031	0.20891113614424456\\
1044.956006348073	0.21196436695139886\\
1045.2197224420938	0.21478794764794978\\
1045.477263701337	0.21756827429714298\\
1045.781027400465	0.22087674625001158\\
1046.0652662924363	0.2240012358881871\\
1046.3328128782305	0.2269676654636429\\
1046.6097029146986	0.23006375811410745\\
1046.8940537003587	0.23327097308913058\\
1047.1884953828026	0.23662169607038747\\
1047.489868689951	0.24008270771384033\\
1047.7855688100676	0.24350957156771247\\
1048.0588091036075	0.24670355503935526\\
1048.354473780406	0.2501894330697261\\
1048.6317999774028	0.25348732756127124\\
1048.9360850250441	0.25713736939280507\\
1049.2282573309808	0.26067330551502543\\
1049.513908079145	0.26415997471570063\\
1049.789697318458	0.26755420035850896\\
1050.081815688131	0.27117942556095265\\
1050.3865816459493	0.2749946604647663\\
1050.6824159488383	0.2787304881994397\\
1050.972484349306	0.28242461747338554\\
1051.2538290708926	0.28603718827879066\\
1051.5601895088166	0.2900041775377591\\
1051.8594048246405	0.2939121865659231\\
1052.1674509131026	0.29797029209479386\\
1052.4741962384337	0.30204643503610007\\
1052.7523637561226	0.30577328467582976\\
1053.0541151751927	0.30984898997367005\\
1053.336108526937	0.31368886471769797\\
1053.6430964170054	0.3179033057458739\\
1053.9518823486774	0.3221785428541586\\
1054.2591757695982	0.3264692046948837\\
1054.576225646088	0.33093396920710916\\
1054.873151474958	0.3351503528720995\\
1055.1833585874224	0.339591636565153\\
1055.4989655276504	0.3441484401554442\\
1055.7927746952387	0.348425286711453\\
1056.095862707607	0.3528724549450194\\
1056.4127349161658	0.35756029281753166\\
1056.7036422277583	0.3618987000498892\\
1057.007222201371	0.36646164353455357\\
1057.3237782863298	0.37125841988977804\\
1057.628277444288	0.3759100023711601\\
1057.926033532557	0.38049426715404133\\
1058.2218965089974	0.38508446087372705\\
1058.5427292908266	0.39010170134004607\\
1058.86238797546	0.3951417517687219\\
1059.1835112367985	0.400246421527804\\
1059.4843115095096	0.40506591843838924\\
1059.7780820565795	0.4098082809736254\\
1060.0600793634421	0.4143936925538093\\
1060.398575099598	0.4199407644466191\\
1060.714655751061	0.42516297612970755\\
1061.005336286251	0.430001861297415\\
1061.306833731589	0.43505771178645336\\
1061.5993888714738	0.43999963924157726\\
1061.9278571136183	0.4455906534395143\\
1062.2392010368294	0.4509317571739905\\
1062.5601914514336	0.4564808517376705\\
1062.8747848007056	0.46196136953274214\\
1063.1812520613807	0.4673404490058044\\
1063.4944520003041	0.4728787506910316\\
1063.8227122676358	0.47872804812626457\\
1064.1282666003053	0.4842139788979486\\
1064.468789280505	0.4903747333284567\\
1064.776387444891	0.4959825429944089\\
1065.1103280308666	0.5021166752393555\\
1065.4410543017684	0.5082391940972828\\
1065.7554142452968	0.5141026358664449\\
1066.065509723208	0.5199285967332907\\
1066.3989042575145	0.5262390410978861\\
1066.7319805504512	0.5325919899570106\\
1067.0666328412858	0.5390240124215921\\
1067.411290609808	0.5456998679226257\\
1067.7288551804522	0.5518973765009014\\
1068.0544453866405	0.5582979043068401\\
1068.3749959554857	0.564645393271235\\
1068.7271258577389	0.5716710261789917\\
1069.082612128716	0.5788198193154248\\
1069.4033770699439	0.5853188638790836\\
1069.7231909622124	0.5918444711968947\\
1070.0831455880943	0.5992439048984164\\
1070.411366769853	0.6060416113963687\\
1070.739260899662	0.6128807769759557\\
1071.0807691392474	0.6200551919620296\\
1071.3903102378008	0.6266032842474556\\
1071.711281989426	0.6334386484115153\\
1072.0219431549058	0.6400985521209595\\
1072.3492423643906	0.6471621109929784\\
1072.6944571268073	0.6546645731274621\\
1073.038391978996	0.6621926123484454\\
1073.3731747589559	0.6695715527453716\\
1073.7284756680851	0.6774580431220718\\
1074.0598917326938	0.6848657461691152\\
1074.3848359407862	0.6921769717679922\\
1074.6860773627454	0.698997525359967\\
1075.0545143617564	0.7073952969478321\\
1075.3967508191727	0.7152509330208923\\
1075.7102318072211	0.7224930804945944\\
1076.0501265381781	0.730395783302862\\
1076.3808776959459	0.7381362034662273\\
1076.7258630591723	0.7462626490096909\\
1077.0555002864166	0.7540780603712938\\
1077.3612788391601	0.7613719589500674\\
1077.684937958959	0.7691386994284923\\
1078.0381594349483	0.777669242552363\\
1078.3637211575333	0.7855821018399851\\
1078.709005395166	0.7940270997332421\\
1079.0335886371195	0.8020153640173806\\
1079.3505862085908	0.8098633388865137\\
1079.6919968339798	0.818367029896131\\
1080.0777998906856	0.8280405190990379\\
1080.4368153044475	0.8371034737710281\\
1080.7615318380595	0.8453513799775823\\
1081.074690889459	0.8533514482203244\\
1081.4180949840652	0.8621758100564714\\
1081.737723262333	0.8704377827440228\\
1082.087769480263	0.8795397806833747\\
1082.4169357839614	0.8881501602549913\\
1082.779985555393	0.8977045779787014\\
1083.1160849127377	0.9066037343895159\\
1083.4280152520755	0.914909427419565\\
1083.7436269390173	0.9233587098847871\\
1084.0518952643793	0.9316556751449228\\
1084.3955121611789	0.9409556341770335\\
1084.7697747795278	0.9511469426030583\\
1085.1190376331083	0.960715780381169\\
1085.4926859398065	0.9710150526222512\\
1085.8530880909912	0.9810103041268654\\
1086.1997700205989	0.9906816940912773\\
1086.5446785004788	1.0003587702759988\\
1086.867543766979	1.0094672686824562\\
1087.2112980779666	1.019218132936158\\
1087.5510329276299	1.028908776632917\\
1087.8762551354016	1.0382355904426666\\
1088.2128737671414	1.047940909249053\\
1088.5823317235308	1.058653589030325\\
1088.951957943058	1.0694345917548267\\
1089.3067334764196	1.0798421638338658\\
1089.6769755772625	1.0907658786516383\\
1090.0124637302465	1.1007192955385854\\
1090.349397580973	1.1107683534828334\\
1090.6891155898606	1.1209540004870155\\
1091.0271540082376	1.1311426941417753\\
1091.4075947838505	1.142673176536996\\
1091.7810741684002	1.1540583883743385\\
1092.1462737317074	1.1652541980761013\\
1092.4879768096393	1.1757861304508506\\
1092.8738274416055	1.1877444166612126\\
1093.2314689521359	1.1988906608597003\\
1093.584079806701	1.209938754078462\\
1093.9380368994134	1.2210876160497688\\
1094.2884519103627	1.232182766295494\\
1094.6414908186734	1.243419244506942\\
1095.0010384223988	1.2549230082431042\\
1095.3696306991574	1.2667791807766324\\
1095.714253656045	1.2779221057805303\\
1096.051998702384	1.288896825441308\\
1096.3895268937963	1.2999181137402425\\
1096.751140805061	1.3117853770144046\\
1097.1344513467775	1.3244319153576245\\
1097.4961144303243	1.3364277314143598\\
1097.8845162523276	1.3493791240834692\\
1098.2409901204082	1.361328515906795\\
1098.618732995335	1.3740563433760151\\
1098.9925035578317	1.3867166787493073\\
1099.3461357171996	1.398755686853975\\
1099.7124379914508	1.411288402509712\\
1099.9581463014697	1.4197306818823234\\
1100.0846467677852	1.4240882505066645\\
1100.4895912517777	1.438088279445139\\
1100.871079457615	1.4513480722727827\\
1101.2304034849253	1.4638998586291927\\
1101.6091598812513	1.4771955912922459\\
1101.9798557320437	1.490272761076715\\
1102.3335971349225	1.5028108895517014\\
1102.6968747006595	1.5157467276282532\\
1103.0679741990593	1.52902322787366\\
1103.4308044559443	1.5420642660434014\\
1103.8026512659821	1.555490975381249\\
1104.2059826599616	1.5701246269199527\\
1104.5921163216535	1.5842022577400563\\
1104.978642582903	1.5983603586364925\\
1105.3701881261659	1.6127693901683142\\
1105.7423509886057	1.6265273382563232\\
1106.1191101247732	1.640516577594053\\
1106.527972744008	1.6557672856328187\\
1106.94352437398	1.671341114975895\\
1107.3304748217206	1.6859093431576708\\
1107.6892230976287	1.6994725381089744\\
1108.0824419868404	1.7144012877256833\\
1108.4900912516086	1.7299462914762755\\
1108.8742567162803	1.7446591009937098\\
1109.2392223083152	1.7586931296923702\\
1109.6014141461355	1.7726746174246237\\
1109.9738141435332	1.7871060320287668\\
1110.3497880043424	1.801733050318557\\
1110.7295795787309	1.8165664820573544\\
1111.1258698032757	1.8321059210365687\\
1111.5130495770509	1.847348500443776\\
1111.8689669156029	1.8614126275581717\\
1112.2366363957976	1.8759933933505448\\
1112.6041211230881	1.8906195587762675\\
1112.960499154778	1.9048536929227744\\
1113.346707433861	1.9203345257770552\\
1113.7331013758435	1.9358799340980464\\
1114.091409529141	1.9503461134392075\\
1114.4845124907865	1.9662728336150752\\
1114.8716277336616	1.982013585913319\\
1115.2517406978195	1.9975238990764255\\
1115.6546669041632	2.0140233992859766\\
1116.0341255101503	2.0296163957235143\\
1116.4414178550574	2.0464115080799807\\
1116.8494865791122	2.0632987819328754\\
1117.2445064940853	2.0797029573068517\\
1117.6391408727486	2.0961465867518116\\
1118.0284708899749	2.1124231051395945\\
1118.4223769798336	2.1289450081259664\\
1118.7987389555283	2.1447814711649693\\
1119.1902096334143	2.1613055514728474\\
1119.5655148163419	2.177196576554394\\
1119.995390592393	2.195457021610414\\
1120.3854546054672	2.212080255041954\\
1120.7970307461555	2.229675412436528\\
1121.196427867284	2.2468036116959285\\
1121.570583487081	2.2628969124377534\\
1122.0053886449814	2.2816562285488695\\
1122.3978834625277	2.2986426100262953\\
1122.7779541950558	2.315138358692322\\
1123.1558114635159	2.33158355140729\\
1123.5450442076249	2.3485708868044384\\
1123.9389061240508	2.3658084588494095\\
1124.33529124389	2.3832049961296935\\
1124.7361123286605	2.400845295568751\\
1125.1508811198369	2.4191509286860446\\
1125.5609299227326	2.4372992583427964\\
1125.9635609842858	2.455168174151022\\
1126.3552861461153	2.4725991387513053\\
1126.7425071340022	2.4898739065697972\\
1127.144006056818	2.507831650810042\\
1127.540419550805	2.525607470719706\\
1127.9326197937062	2.543238458412075\\
1128.298835327027	2.559740555269035\\
1128.707806104344	2.5782135959883927\\
1129.1151963385837	2.596661332940111\\
1129.5176185093883	2.6149288075121246\\
1129.886585246812	2.631716266985239\\
1130.2935539839218	2.650275210986549\\
1130.6859471245025	2.668211226213362\\
1131.079266660282	2.686230301134067\\
1131.4723471615184	2.704278733913723\\
1131.8659124190185	2.7223893769761354\\
1132.2508837629712	2.7401428295181995\\
1132.650066561339	2.758591210521524\\
1133.0461912421547	2.776937644422791\\
1133.4510446838917	2.7957284426129423\\
1133.8536970976284	2.814456839305719\\
1134.2397411680126	2.832449549639721\\
1134.6261347360883	2.8504942240067876\\
1135.004613981284	2.8682035173500022\\
1135.4019216261486	2.886829826696621\\
1135.802337651609	2.905638771883389\\
1136.1962666665222	2.9241787326237256\\
1136.6102515508196	2.943700337399675\\
1137.0074231820017	2.9624650145865923\\
1137.4053611724794	2.9813007177503126\\
1137.7930237016126	2.999683151098922\\
1138.172438307297	3.017705718805214\\
1138.5636114063805	3.036318779662345\\
1138.9661738240984	3.0555072242796006\\
1139.3693161016427	3.074756872431583\\
1139.7497711890974	3.092953629523495\\
1140.1290270865757	3.1111220173172356\\
1140.5126610518319	3.1295291992022536\\
1140.9122613781906	3.1487331305335955\\
1141.3092396030647	3.1678416138551615\\
1141.7143885486794	3.1873743575022537\\
1142.1087338394746	3.2064158544922767\\
1142.5120323869205	3.2259194382356906\\
1142.9161165042292	3.2454907576226626\\
1143.3167857007938	3.2649256323904385\\
1143.7234214718387	3.284678943741545\\
1144.1096065213787	3.3034654632810563\\
1144.5102460388625	3.3229821419711323\\
1144.9138837094151	3.3426722448574084\\
1145.3157649763107	3.362303518628762\\
1145.7156504983377	3.3818634542804844\\
1146.1228935618533	3.4018096316834843\\
1146.5163716501784	3.421106454098136\\
1146.9183712951208	3.440845948005707\\
1147.3253559153736	3.4608552662761607\\
1147.7375542832679	3.4811461364728506\\
1148.1436176313882	3.5011593575652444\\
1148.5422613274663	3.5208299569721397\\
1148.9449941400535	3.5407250841158184\\
1149.341140768167	3.560316734014224\\
1149.7396594501383	3.5800471567911867\\
1150.1290066438137	3.599343879032098\\
1150.5220811463232	3.6188453421900153\\
1150.9163284108372	3.6384247690668925\\
1151.3073240555304	3.6578618641495666\\
1151.7007115620845	3.6774366959074367\\
1152.10236764734	3.697442029895403\\
1152.5049401784	3.7175118965187757\\
1152.9052002125413	3.737484781047727\\
1153.3050739888254	3.7574561778542073\\
1153.706072301482	3.7775011522253186\\
1154.1080890188891	3.7976140970376404\\
1154.51517932667	3.8179978305024926\\
1154.9153889271033	3.838053224229693\\
1155.3099436379803	3.8578405187097884\\
1155.6997241875256	3.877402865919138\\
1156.0887794148352	3.8969427567176735\\
1156.4897851676023	3.917097007323904\\
1156.890927799719	3.937272085965793\\
1157.2947304889717	3.957594594030688\\
1157.6903878809458	3.9775200137157434\\
1158.0816822581205	3.9972377955213476\\
1158.48202742191	4.0174236658846105\\
1158.8802799069163	4.0375156460028805\\
1159.283721934486	4.057880820102774\\
1159.687641347778	4.078281121470303\\
1160.0924056382928	4.098734714217432\\
1160.4959079764499	4.119134670485895\\
1160.8991147207548	4.139529339683399\\
1161.2971014071181	4.159669002360106\\
1161.692891054311	4.179705953605334\\
1162.0885083658632	4.199742194625522\\
1162.4890155812805	4.220033817982429\\
1162.877996012492	4.239748472692112\\
1163.2792243410972	4.260091281445245\\
1163.8606282555988	4.2895831587463125\\
1164.7100463713928	4.332699751943506\\
1165.9549689065966	4.395955728000491\\
1167.2330923949853	4.460977205550186\\
1168.4350200264853	4.522194944085912\\
1169.6327183434582	4.5832671771307645\\
1170.7895109260498	4.642319786435685\\
1172.045440700138	4.706506835722076\\
1173.2553166573425	4.768412653945008\\
1174.4601851623943	4.830132874252492\\
1175.6320594386684	4.890230511292465\\
1176.8665937495011	4.953613597263402\\
1178.0868920400453	5.016338378381011\\
1179.338687452041	5.080757102798218\\
1180.6335438042843	5.147471616228291\\
1181.859667699664	5.21071963417563\\
1183.0842286765874	5.273959601063625\\
1184.399674136569	5.3419738663597265\\
1185.7091939400498	5.409764782356245\\
1186.937961385945	5.473450627528189\\
1188.1661996104608	5.537181860223349\\
1189.4422318894658	5.6034701109117115\\
1190.6448369017617	5.666015756959309\\
1191.9348506716888	5.733184862304515\\
1193.165530125169	5.7973392111747835\\
1194.4827441503153	5.866085303145528\\
1195.7213093198666	5.930802806053244\\
1197.000597753854	5.997725611198389\\
1198.2547731309887	6.063411029297431\\
1199.4589740098195	6.126550201913009\\
1200.7325552200696	6.19340289150238\\
1202.023397593668	6.261241058822911\\
1203.320188368018	6.329472285736241\\
1204.632007728806	6.398576246559633\\
1205.9104798041021	6.466002849906255\\
1207.17863326516	6.532962550995455\\
1208.3794595571903	6.596438242439083\\
1209.7007277121752	6.666360171525753\\
1210.9907050212992	6.7347066786490135\\
1212.2812242835748	6.803161441812264\\
1213.533844458877	6.8696819201516135\\
1214.8480854662566	6.939555267064632\\
1216.1347249324385	7.008040943389084\\
1217.3625740374027	7.07347089337264\\
1218.6969850669316	7.144660792824572\\
1220.0083451733071	7.2147035486325155\\
1221.2849360767368	7.282967818494274\\
1222.5558391285358	7.351004939351034\\
1222.8322710559182	7.365813745108875\\
1222.930063496397	7.371053478909802\\
1223.1451287147274	7.382578305117468\\
1223.1651591095583	7.383651797569488\\
1223.1671863790534	7.383760446440686\\
1223.168231874905	7.383816478507034\\
1223.16957459155	7.383888439833063\\
1223.1771098936192	7.384292287112114\\
1223.203791896265	7.385722305121263\\
1223.2748391190657	7.389530235590527\\
1223.4483294271704	7.398829834263253\\
1223.705825544529	7.412635032284857\\
1224.2517430726884	7.441913853824719\\
1224.9537306278376	7.4795838814549\\
1225.9513696013005	7.533159409140634\\
1227.2194533057636	7.601326646822697\\
1228.5139182731555	7.670990740153041\\
1229.8448677613392	7.742701178654631\\
1231.2153300035393	7.816628274586959\\
1232.5359083531594	7.8879486538011925\\
1233.9687267612821	7.9654241719223595\\
1235.3151833736943	8.038318469950301\\
1236.6882006378669	8.112739004321945\\
1238.080021141062	8.188269666515797\\
1239.4095461536203	8.260505172991632\\
1240.783209245557	8.335226448237623\\
1242.1272222748985	8.40842107715643\\
1243.5018149266307	8.483369195638467\\
1244.8632206127527	8.557686105492031\\
1246.220247728697	8.631850900668901\\
1247.5894842819766	8.706770862052416\\
1248.9937520740964	8.783699265044014\\
1250.3357040541673	8.857300567459557\\
1251.7265416789146	8.933672418881859\\
1253.0178177328162	9.004658643843594\\
1254.3974279539657	9.080587449027561\\
1255.7415057160815	9.154646591673245\\
1257.1074235028677	9.229995954440007\\
1258.4552860003278	9.304435070615682\\
1259.8390828328552	9.380947323911982\\
1261.182628674041	9.455319852776597\\
1262.5905711201003	9.533347757219492\\
1263.9886281725767	9.610919587919224\\
1265.377351868789	9.688064039755822\\
1266.7937948693134	9.76684116711596\\
1268.216511509244	9.846061551321078\\
1269.5978295024365	9.923067169937092\\
1271.020000199478	10.002443261052083\\
1272.5083697756318	10.085615142709596\\
1273.9717006300693	10.167488489463395\\
1275.342897569817	10.24429747161933\\
1276.6559403001793	10.317930934955417\\
1278.0375605529653	10.39549674625652\\
1279.478111216777	10.476465523569214\\
1280.9308237922323	10.558215572516346\\
1282.3626280891244	10.63888496711846\\
1282.8789773988174	10.668000000000092\\
};
\end{axis}
\end{tikzpicture}%
