%TakeOff_Trajectory
\begin{tikzpicture}

\begin{axis}[
width=\figurewidth,
height=\figureheight,
scaled ticks=false, tick label style={/pgf/number format/fixed},
xmin=0.0,
xmax=1385.7353957635887,
xlabel={Ground Distance (m)},
xmajorgrids,
ymin=0.0,
ymax=11.524627909985105,
ylabel={Altitude (m)},
ymajorgrids,
legend style={at={(1.03,0.5)},anchor=west,draw=black,fill=white,legend cell align=left}
]

\addplot [
color=black,
solid
]
table[row sep=crcr]{
1.3869093119902837E-8	0.0\\
2.2802400501143798E-7	0.0\\
1.9845107591171844E-6	0.0\\
1.0079742469561031E-5	0.0\\
6.289998334471397E-5	0.0\\
2.196015924341957E-4	0.0\\
4.725067914220952E-4	0.0\\
8.184292159138693E-4	0.0\\
0.0012497074387781719	0.0\\
0.001772951536685284	0.0\\
0.0024101257781580883	0.0\\
0.003116242879208973	0.0\\
0.0039315663449978906	0.0\\
0.004856937291423389	0.0\\
0.00587684940362407	0.0\\
0.006954341674323173	0.0\\
0.00814447111788636	0.0\\
0.009447989891320098	0.0\\
0.010854324152264547	0.0\\
0.012347714332010602	0.0\\
0.013944084209700468	0.0\\
0.015634001544740116	0.0\\
0.017420558661278736	0.0\\
0.019312922574631873	0.0\\
0.021243277896218736	0.0\\
0.023312641265682464	0.0\\
0.02549772265149057	0.0\\
0.02778167847781539	0.0\\
0.03010357093688182	0.0\\
0.03258404335056782	0.0\\
0.03513660437630575	0.0\\
0.03779117577118625	0.0\\
0.04056428504500163	0.0\\
0.043363975861885784	0.0\\
0.0463002708583715	0.0\\
0.04935046971349326	0.0\\
0.052509247876139045	0.0\\
0.055718751570982814	0.0\\
0.05904188067059053	0.0\\
0.06253484440677931	0.0\\
0.06609370163610656	0.0\\
0.06972942294469706	0.0\\
0.0734680004135772	0.0\\
0.07733245958588178	0.0\\
0.08121916321451814	0.0\\
0.08526089838553866	0.0\\
0.08944770013523076	0.0\\
0.09372338949055117	0.0\\
0.09807146341945569	0.0\\
0.1025985093521016	0.0\\
0.10720632589815948	0.0\\
0.11195684602804931	0.0\\
0.1168089282595795	0.0\\
0.12164009636205159	0.0\\
0.12661262573079768	0.0\\
0.13175114382727787	0.0\\
0.13699962569138657	0.0\\
0.14226531655705488	0.0\\
0.14769173766459948	0.0\\
0.15328180913796335	0.0\\
0.15892199071690083	0.0\\
0.16468623048684256	0.0\\
0.17057235248928015	0.0\\
0.176534629476938	0.0\\
0.18258669451472115	0.0\\
0.18867437669618242	0.0\\
0.19506221343074842	0.0\\
0.20157287578459138	0.0\\
0.2081373020281505	0.0\\
0.2147507391211821	0.0\\
0.22144375157827018	0.0\\
0.22829669684763332	0.0\\
0.23540330470040766	0.0\\
0.24245955821658294	0.0\\
0.24955428989529949	0.0\\
0.2568772249344723	0.0\\
0.26416659099692585	0.0\\
0.2716094328530263	0.0\\
0.2791847299197725	0.0\\
0.28685051699493846	0.0\\
0.29463511212959126	0.0\\
0.3027107955739382	0.0\\
0.31075208896844686	0.0\\
0.3189891914061611	0.0\\
0.327277342587767	0.0\\
0.3357516350682681	0.0\\
0.34420271611750375	0.0\\
0.3529737809225558	0.0\\
0.36168822475545126	0.0\\
0.3706161858698641	0.0\\
0.37957338647786154	0.0\\
0.38859079069830715	0.0\\
0.3977365384391006	0.0\\
0.40690262160189106	0.0\\
0.4164784248668302	0.0\\
0.4262722861401057	0.0\\
0.4359937108993973	0.0\\
0.44592344093414205	0.0\\
0.4559933359377927	0.0\\
0.4662244970718552	0.0\\
0.4766617170530515	0.0\\
0.4871552211261557	0.0\\
0.4977733193172935	0.0\\
0.5084236697050357	0.0\\
0.5193323285097071	0.0\\
0.5302900959526657	0.0\\
0.5413339280151639	0.0\\
0.5526892222061304	0.0\\
0.5641674618459651	0.0\\
0.5756521186285017	0.0\\
0.5873028339143347	0.0\\
0.5989572324328476	0.0\\
0.6110079046088608	0.0\\
0.6228158579417784	0.0\\
0.6348433879628521	0.0\\
0.6471467857119495	0.0\\
0.6595759804663663	0.0\\
0.6720304921564901	0.0\\
0.6846882421341718	0.0\\
0.6974497782748574	0.0\\
0.7103581582561518	0.0\\
0.7234639904310365	0.0\\
0.7365763647856536	0.0\\
0.7501984017127925	0.0\\
0.7634932398594367	0.0\\
0.7769375003580943	0.0\\
0.7915426265351306	0.0\\
0.8052058781706575	0.0\\
0.8189670923869197	0.0\\
0.8335518556670958	0.0\\
0.8480039295058326	0.0\\
0.8626364331783405	0.0\\
0.877572884789918	0.0\\
0.8923717905472586	0.0\\
0.9070729463506981	0.0\\
0.9223126452169086	0.0\\
0.9376226877858882	0.0\\
0.9529622407582172	0.0\\
0.9682300086953484	0.0\\
0.9839076567154685	0.0\\
0.9997285667666325	0.0\\
1.0157506386261925	0.0\\
1.0316823462943536	0.0\\
1.0479063278988936	0.0\\
1.0649731192250083	0.0\\
1.0815587402598434	0.0\\
1.0980684751437257	0.0\\
1.1148933256721216	0.0\\
1.1316883299583065	0.0\\
1.1489864770824116	0.0\\
1.1667079810857972	0.0\\
1.1841335715025134	0.0\\
1.2023135898580293	0.0\\
1.2199019874685044	0.0\\
1.237747508512192	0.0\\
1.2560803018785918	0.0\\
1.274757331199341	0.0\\
1.293586865377212	0.0\\
1.3124123406278447	0.0\\
1.330981336121218	0.0\\
1.349899286984463	0.0\\
1.3688783149918118	0.0\\
1.3885456631855564	0.0\\
1.4084863297971117	0.0\\
1.4279249586146312	0.0\\
1.4476741245370621	0.0\\
1.4671657355767582	0.0\\
1.487459992548687	0.0\\
1.5081900354168973	0.0\\
1.5286386648029309	0.0\\
1.5494517264110792	0.0\\
1.569885261465719	0.0\\
1.5908351692896305	0.0\\
1.6123419749875443	0.0\\
1.6340952625951677	0.0\\
1.655672660304166	0.0\\
1.677449224845347	0.0\\
1.6988665618899277	0.0\\
1.7210219525178787	0.0\\
1.742983435752699	0.0\\
1.7654900532384161	0.0\\
1.7875607927766337	0.0\\
1.8105848116042895	0.0\\
1.8340737784783578	0.0\\
1.8570921212091802	0.0\\
1.8802459607437334	0.0\\
1.9038251699019897	0.0\\
1.9275869014756033	0.0\\
1.9521140618432233	0.0\\
1.9760889167362259	0.0\\
2.000492737741026	0.0\\
2.0249158806763026	0.0\\
2.049468788511482	0.0\\
2.073666414908973	0.0\\
2.0984295982597203	0.0\\
2.123828627955846	0.0\\
2.148942712037515	0.0\\
2.1752239484785827	0.0\\
2.2007909181252128	0.0\\
2.22733449033709	0.0\\
2.2539316221528427	0.0\\
2.2804824455723924	0.0\\
2.307362628018076	0.0\\
2.3337528468631206	0.0\\
2.361212553184795	0.0\\
2.387832983644347	0.0\\
2.415669800088825	0.0\\
2.442838155059322	0.0\\
2.4706558621253594	0.0\\
2.4988471519790005	0.0\\
2.526670561014698	0.0\\
2.554721287052563	0.0\\
2.5837796522280874	0.0\\
2.612663379603597	0.0\\
2.6424305639229075	0.0\\
2.67173469347986	0.0\\
2.700933551097961	0.0\\
2.7306053441599962	0.0\\
2.7599275937682526	0.0\\
2.790238521535745	0.0\\
2.8207181501456713	0.0\\
2.851446302539701	0.0\\
2.88221866887367	0.0\\
2.913472239153424	0.0\\
2.943944390920719	0.0\\
2.9761171181712784	0.0\\
3.008139158978074	0.0\\
3.0397007498108977	0.0\\
3.0722154025032316	0.0\\
3.104738398938977	0.0\\
3.1380139347226104	0.0\\
3.1708613837570274	0.0\\
3.2047838752754876	0.0\\
3.238127010673505	0.0\\
3.2718952535653116	0.0\\
3.3058552992051	0.0\\
3.3390310513784733	0.0\\
3.3729175437510053	0.0\\
3.4063086116200827	0.0\\
3.4406666987040087	0.0\\
3.474934131493149	0.0\\
3.5098994472067755	0.0\\
3.5462870115450915	0.0\\
3.5822000397094866	0.0\\
3.6182488737765643	0.0\\
3.6541058683313894	0.0\\
3.69046830575435	0.0\\
3.7273232479798146	0.0\\
3.763551151823326	0.0\\
3.801190022012084	0.0\\
3.838356904076658	0.0\\
3.8756160509110025	0.0\\
3.913627027913538	0.0\\
3.952582297902836	0.0\\
3.9903850672338086	0.0\\
4.029410569428929	0.0\\
4.068837252163789	0.0\\
4.108333857370571	0.0\\
4.148097874088702	0.0\\
4.188323818589097	0.0\\
4.227862350859912	0.0\\
4.268911114187738	0.0\\
4.309715449169644	0.0\\
4.350449753429597	0.0\\
4.3910365530522615	0.0\\
4.431584609553703	0.0\\
4.473861462404027	0.0\\
4.515290320650539	0.0\\
4.556614528605731	0.0\\
4.598881233639499	0.0\\
4.641498934988277	0.0\\
4.684165350093108	0.0\\
4.726372357462344	0.0\\
4.769102741635134	0.0\\
4.813100697295878	0.0\\
4.8568788038887725	0.0\\
4.900978994350924	0.0\\
4.944581254696825	0.0\\
4.988817997319037	0.0\\
5.032729057421582	0.0\\
5.078596762671941	0.0\\
5.12452173376195	0.0\\
5.169570211979309	0.0\\
5.215419737303453	0.0\\
5.260914909588905	0.0\\
5.307781723523297	0.0\\
5.3538937409771545	0.0\\
5.401099927950682	0.0\\
5.447639429894663	0.0\\
5.49477440832738	0.0\\
5.542578201430411	0.0\\
5.590751694911662	0.0\\
5.639343368372259	0.0\\
5.687814509117786	0.0\\
5.735322623215975	0.0\\
5.785002288832787	0.0\\
5.8341912399848805	0.0\\
5.8835933717503615	0.0\\
5.9350603292500175	0.0\\
5.98448600870335	0.0\\
6.035305789265514	0.0\\
6.086283831970443	0.0\\
6.1365368925741635	0.0\\
6.188651423151727	0.0\\
6.240435228418336	0.0\\
6.291743128204997	0.0\\
6.344130074812373	0.0\\
6.396261284683506	0.0\\
6.449292913965408	0.0\\
6.501581531468105	0.0\\
6.555315189416458	0.0\\
6.607904848649193	0.0\\
6.6618076179696	0.0\\
6.716496260988535	0.0\\
6.7717374164187	0.0\\
6.827742820064822	0.0\\
6.882856482369975	0.0\\
6.93902708099964	0.0\\
6.995735478757178	0.0\\
7.052733795184299	0.0\\
7.110210297080604	0.0\\
7.166258994479431	0.0\\
7.223453761456378	0.0\\
7.280468690849663	0.0\\
7.337479002923695	0.0\\
7.395310181204733	0.0\\
7.454582970842759	0.0\\
7.512582131187292	0.0\\
7.5718394513839105	0.0\\
7.632610692786335	0.0\\
7.692433093913582	0.0\\
7.752263503149509	0.0\\
7.812269593688528	0.0\\
7.874215071046606	0.0\\
7.934683763845705	0.0\\
7.997002519496759	0.0\\
8.05846839373454	0.0\\
8.120642945391698	0.0\\
8.183275821880596	0.0\\
8.245776669102131	0.0\\
8.309405587182766	0.0\\
8.371838982624539	0.0\\
8.435653746933362	0.0\\
8.499707938656577	0.0\\
8.563159834129817	0.0\\
8.627650081078308	0.0\\
8.692968586227433	0.0\\
8.758318301841225	0.0\\
8.823875160233118	0.0\\
8.890196944167347	0.0\\
8.956987473258945	0.0\\
9.023792314094422	0.0\\
9.090676308844671	0.0\\
9.157494810320465	0.0\\
9.224504930074808	0.0\\
9.291652933656675	0.0\\
9.361490189792576	0.0\\
9.431256652451896	0.0\\
9.49935282410464	0.0\\
9.567773754556885	0.0\\
9.63703233846476	0.0\\
9.707654109887905	0.0\\
9.777177448374676	0.0\\
9.848561571703382	0.0\\
9.919936499564432	0.0\\
9.9907051389505	0.0\\
10.06436425340124	0.0\\
10.135809517098107	0.0\\
10.209861585675789	0.0\\
10.284114385771051	0.0\\
10.356313119230766	0.0\\
10.432429010030976	0.0\\
10.505945376399456	0.0\\
10.57964702850979	0.0\\
10.655216605581817	0.0\\
10.730897849530471	0.0\\
10.805580126581063	0.0\\
10.882045575927862	0.0\\
10.959310442198817	0.0\\
11.036438583915345	0.0\\
11.113694051235349	0.0\\
11.191547796432037	0.0\\
11.268595178585358	0.0\\
11.347328977317066	0.0\\
11.425508225312662	0.0\\
11.504437907216793	0.0\\
11.582935572814755	0.0\\
11.662665060190506	0.0\\
11.742432141086493	0.0\\
11.823372780557488	0.0\\
11.904829998321919	0.0\\
11.984778878098854	0.0\\
12.064833289239928	0.0\\
12.146883045774636	0.0\\
12.229534824023869	0.0\\
12.314453685034739	0.0\\
12.399647189806338	0.0\\
12.484065774684773	0.0\\
12.568378968882996	0.0\\
12.65105270931343	0.0\\
12.737346909143003	0.0\\
12.822227811054503	0.0\\
12.908448999767803	0.0\\
12.996711038386639	0.0\\
13.081929512909703	0.0\\
13.167826725843955	0.0\\
13.25439008991204	0.0\\
13.342854800330315	0.0\\
13.432007209860672	0.0\\
13.521325849314298	0.0\\
13.610544480327434	0.0\\
13.700657302591317	0.0\\
13.789309544901663	0.0\\
13.880552562481835	0.0\\
13.971024936825241	0.0\\
14.062958420483078	0.0\\
14.153789039310304	0.0\\
14.24558921234576	0.0\\
14.336091008028912	0.0\\
14.430713203571013	0.0\\
14.523609296054477	0.0\\
14.616816274211988	0.0\\
14.711910724348066	0.0\\
14.806841689431607	0.0\\
14.90405495707703	0.0\\
15.001345246825693	0.0\\
15.097294740651552	0.0\\
15.194841624796915	0.0\\
15.293416846480184	0.0\\
15.391312278734894	0.0\\
15.491061244189154	0.0\\
15.589532311076383	0.0\\
15.688805516234662	0.0\\
15.788049827089374	0.0\\
15.88691782699653	0.0\\
15.986706442999399	0.0\\
16.086910924349716	0.0\\
16.186892656914736	0.0\\
16.28747527624961	0.0\\
16.389886077880085	0.0\\
16.49358044301401	0.0\\
16.596858142500025	0.0\\
16.699569060626743	0.0\\
16.804474388081424	0.0\\
16.909035703432764	0.0\\
17.014879743038186	0.0\\
17.120247592432847	0.0\\
17.225560193284828	0.0\\
17.332603956994447	0.0\\
17.43997928870963	0.0\\
17.54566658002898	0.0\\
17.652632893896467	0.0\\
17.760986284863584	0.0\\
17.869625905227686	0.0\\
17.979130711894385	0.0\\
18.088511471411287	0.0\\
18.197553481139238	0.0\\
18.30720435610302	0.0\\
18.41866457258532	0.0\\
18.528387659680895	0.0\\
18.639720137897186	0.0\\
18.753375665247987	0.0\\
18.8659093480152	0.0\\
18.977539724501725	0.0\\
19.091443733266445	0.0\\
19.203641607514506	0.0\\
19.318978899131253	0.0\\
19.434312942728866	0.0\\
19.54890405452783	0.0\\
19.661997323642765	0.0\\
19.778235673330514	0.0\\
19.89764165919763	0.0\\
20.014260758517516	0.0\\
20.131043286837155	0.0\\
20.251506409859395	0.0\\
20.371083686996073	0.0\\
20.490888108716995	0.0\\
20.61107471809624	0.0\\
20.730527264991764	0.0\\
20.84985545960393	0.0\\
20.973369165600978	0.0\\
21.094070099483055	0.0\\
21.216693994889575	0.0\\
21.33957566440221	0.0\\
21.46479080643369	0.0\\
21.58894379672107	0.0\\
21.71276295029905	0.0\\
21.837834920546015	0.0\\
21.962371015529392	0.0\\
22.087588559008772	0.0\\
22.21258746544045	0.0\\
22.337466496259594	0.0\\
22.46291462545461	0.0\\
22.588905812824855	0.0\\
22.71756807825851	0.0\\
22.844289100260596	0.0\\
22.97078489719963	0.0\\
23.101706580099602	0.0\\
23.23082984163611	0.0\\
23.36014659847325	0.0\\
23.489091579590394	0.0\\
23.618757807234417	0.0\\
23.747523203284665	0.0\\
23.88123611140101	0.0\\
24.015262275969867	0.0\\
24.14717047333768	0.0\\
24.278931631264328	0.0\\
24.4108120513774	0.0\\
24.5415296242057	0.0\\
24.675046678740976	0.0\\
24.811179098821277	0.0\\
24.944813534487608	0.0\\
25.07948308618539	0.0\\
25.21282285673245	0.0\\
25.348493272510296	0.0\\
25.483349606984525	0.0\\
25.510651367839564	0.0\\
25.5775898259605	0.0\\
25.602715936935084	0.0\\
25.605605999470328	0.0\\
25.607171470576453	0.0\\
25.609357545986775	0.0\\
25.619112203536325	0.0\\
25.65340948688187	0.0\\
25.746630448053622	0.0\\
25.874814828217033	0.0\\
26.000552046019095	0.0\\
26.125961652007668	0.0\\
26.25220623379886	0.0\\
26.38227476489287	0.0\\
26.512097192444337	0.0\\
26.640030727380285	0.0\\
26.77067419492859	0.0\\
26.903387192159684	0.0\\
27.033622768932936	0.0\\
27.16534040944847	0.0\\
27.297643969187604	0.0\\
27.430544869575996	0.0\\
27.564277853646445	0.0\\
27.696990179561887	0.0\\
27.829957704261382	0.0\\
27.965962181815783	0.0\\
28.10122477267374	0.0\\
28.23644668964007	0.0\\
28.371790337329962	0.0\\
28.50901116890016	0.0\\
28.64606669342733	0.0\\
28.783349614144477	0.0\\
28.921301874006716	0.0\\
29.06041842510205	0.0\\
29.199510478433325	0.0\\
29.340485170188195	0.0\\
29.480621684981863	0.0\\
29.624127786502243	0.0\\
29.767766707225874	0.0\\
29.912221014977128	0.0\\
30.054472914906817	0.0\\
30.19679189764839	0.0\\
30.341287675322924	0.0\\
30.485041072397117	0.0\\
30.630071246127557	0.0\\
30.77733036974744	0.0\\
30.924893424172645	0.0\\
31.070922632106672	0.0\\
31.21880424771596	0.0\\
31.36669475650431	0.0\\
31.51453935873306	0.0\\
31.663273696135548	0.0\\
31.812431227538696	0.0\\
31.961495520358675	0.0\\
32.11231985331888	0.0\\
32.26208742223298	0.0\\
32.414061403005206	0.0\\
32.565173969500464	0.0\\
32.71946317465665	0.0\\
32.87254650153298	0.0\\
33.02773600377439	0.0\\
33.18121466557679	0.0\\
33.33679709816697	0.0\\
33.49285383657693	0.0\\
33.6470321352197	0.0\\
33.801785725849655	0.0\\
33.956253466251	0.0\\
34.11226112125807	0.0\\
34.26832884905322	0.0\\
34.42728468406668	0.0\\
34.587719702947865	0.0\\
34.747692336936396	0.0\\
34.90877944369156	0.0\\
35.06665482153713	0.0\\
35.224940584736956	0.0\\
35.38644298325231	0.0\\
35.54613563521568	0.0\\
35.70837819381137	0.0\\
35.87039935733435	0.0\\
36.03198804429887	0.0\\
36.19421932430335	0.0\\
36.35715688557373	0.0\\
36.521900824023945	0.0\\
36.68664267232896	0.0\\
36.852098469260255	0.0\\
37.01973103832357	0.0\\
37.18554914472304	0.0\\
37.35170121247059	0.0\\
37.51951647798104	0.0\\
37.688357687005805	0.0\\
37.85847646030943	0.0\\
38.026293280570684	0.0\\
38.19268623165249	0.0\\
38.36089982025925	0.0\\
38.52808180027651	0.0\\
38.69518475440128	0.0\\
38.86479048412231	0.0\\
39.03563019165932	0.0\\
39.20741302993831	0.0\\
39.379519676478864	0.0\\
39.55048588501349	0.0\\
39.72452434339654	0.0\\
39.895516680376915	0.0\\
40.07041610739087	0.0\\
40.24311372580179	0.0\\
40.41686816988562	0.0\\
40.59183568531327	0.0\\
40.764596281322	0.0\\
40.93938380809432	0.0\\
41.11428361070929	0.0\\
41.29406018431979	0.0\\
41.47085841757912	0.0\\
41.64655956317654	0.0\\
41.825184167803684	0.0\\
42.00330270981122	0.0\\
42.18191825018984	0.0\\
42.36088638488776	0.0\\
42.54164606184443	0.0\\
42.72081965389583	0.0\\
42.902919916352744	0.0\\
43.08312310623519	0.0\\
43.263045959253006	0.0\\
43.445893476538785	0.0\\
43.62800114584145	0.0\\
43.810510044012915	0.0\\
43.99082859802387	0.0\\
44.175914155557535	0.0\\
44.361520281362246	0.0\\
44.54686363032852	0.0\\
44.73053236147727	0.0\\
44.91509047940946	0.0\\
45.10018453943353	0.0\\
45.2886899829555	0.0\\
45.475382479096936	0.0\\
45.661154810227345	0.0\\
45.84826475264744	0.0\\
46.034473377469666	0.0\\
46.2219228375364	0.0\\
46.40996984904913	0.0\\
46.59839657610593	0.0\\
46.78674230235433	0.0\\
46.97851437896924	0.0\\
47.16727491495408	0.0\\
47.35620199475966	0.0\\
47.545409880966474	0.0\\
47.73588177743849	0.0\\
47.928020915022245	0.0\\
48.12072320546068	0.0\\
48.31212758495522	0.0\\
48.50450076201426	0.0\\
48.69697208289125	0.0\\
48.8934077267335	0.0\\
49.08967394778253	0.0\\
49.283809859914015	0.0\\
49.48153767033956	0.0\\
49.679763347622796	0.0\\
49.877378909446605	0.0\\
50.074354677599004	0.0\\
50.27058169706318	0.0\\
50.469062544530374	0.0\\
50.66857519730948	0.0\\
50.86441655435877	0.0\\
51.06551220224701	0.0\\
51.26365355837133	0.0\\
51.46308845034061	0.0\\
51.66423899968524	0.0\\
51.86723474322963	0.0\\
52.07060382056676	0.0\\
52.27178927405626	0.0\\
52.47443482752996	0.0\\
52.67646158025161	0.0\\
52.879566751753245	0.0\\
53.08424721860287	0.0\\
53.28947977214341	0.0\\
53.49508759304767	0.0\\
53.702234181807796	0.0\\
53.90890572303016	0.0\\
54.11670384999353	0.0\\
54.3230093215589	0.0\\
54.531589615972834	0.0\\
54.73670484627628	0.0\\
54.94585054371427	0.0\\
55.15517578356332	0.0\\
55.36552917171079	0.0\\
55.57782955914446	0.0\\
55.78764710938391	0.0\\
55.99712580878298	0.0\\
56.2073890392231	0.0\\
56.420685867011244	0.0\\
56.631385669247436	0.0\\
56.844141105286056	0.0\\
57.058429060467134	0.0\\
57.273417131886305	0.0\\
57.48948535701534	0.0\\
57.70259610468919	0.0\\
57.915164315626924	0.0\\
58.13446841732966	0.0\\
58.35176984145781	0.0\\
58.57188962969981	0.0\\
58.79066755558004	0.0\\
59.00882174162443	0.0\\
59.22774530796056	0.0\\
59.44858621959402	0.0\\
59.66951081998084	0.0\\
59.889534925320376	0.0\\
60.11272019130526	0.0\\
60.334022821337186	0.0\\
60.555608266276266	0.0\\
60.77847099542009	0.0\\
61.00130373731244	0.0\\
61.22653016145895	0.0\\
61.45246965392576	0.0\\
61.679100531393345	0.0\\
61.904478464952106	0.0\\
62.131029011432375	0.0\\
62.357205517583765	0.0\\
62.58638334306909	0.0\\
62.815767897833766	0.0\\
63.04497579433868	0.0\\
63.276314076636325	0.0\\
63.506366830687355	0.0\\
63.73781026851094	0.0\\
63.9713247963507	0.0\\
64.20475252981916	0.0\\
64.4361823572792	0.0\\
64.6693839796587	0.0\\
64.90342735265997	0.0\\
65.13838382354555	0.0\\
65.37360808652062	0.0\\
65.61000790450885	0.0\\
65.84705788904284	0.0\\
66.08355444624743	0.0\\
66.31994305816559	0.0\\
66.5588751471571	0.0\\
66.79915250205295	0.0\\
67.04023845695303	0.0\\
67.28219420244417	0.0\\
67.52429139764607	0.0\\
67.77049549766141	0.0\\
68.01353842159702	0.0\\
68.25675265410729	0.0\\
68.50315004529435	0.0\\
68.74908581312386	0.0\\
68.99541921237628	0.0\\
69.24265805879324	0.0\\
69.49262115393401	0.0\\
69.74081996067966	0.0\\
69.9900140781132	0.0\\
70.23730761627522	0.0\\
70.48876704223437	0.0\\
70.73754100273305	0.0\\
70.98807907417768	0.0\\
71.23903414543116	0.0\\
71.49199670794223	0.0\\
71.7470032153372	0.0\\
72.00264101422579	0.0\\
72.2590405328636	0.0\\
72.51460401930126	0.0\\
72.77546306271424	0.0\\
73.03741146460925	0.0\\
73.29488333355312	0.0\\
73.55684595612556	0.0\\
73.81888022721742	0.0\\
74.0785986421007	0.0\\
74.34330720353549	0.0\\
74.60681893228741	0.0\\
74.87292534973125	0.0\\
75.13893625040294	0.0\\
75.40782253822366	0.0\\
75.67528503604083	0.0\\
75.94755825267092	0.0\\
76.21903617665197	0.0\\
76.49272340204817	0.0\\
76.76524154889847	0.0\\
77.04007278569509	0.0\\
77.31338622432628	0.0\\
77.5894537318305	0.0\\
77.86362442542654	0.0\\
78.14230713673567	0.0\\
78.41965662996421	0.0\\
78.69845321692512	0.0\\
78.97913578428484	0.0\\
79.25744292503276	0.0\\
79.53827497309751	0.0\\
79.82381197491327	0.0\\
80.10803887117197	0.0\\
80.39411413442633	0.0\\
80.67966963824202	0.0\\
80.96705765432685	0.0\\
81.25732438135071	0.0\\
81.54725621801549	0.0\\
81.8371121829768	0.0\\
82.1251066521396	0.0\\
82.4182835302777	0.0\\
82.71218001834023	0.0\\
83.00585370923196	0.0\\
83.30511541542441	0.0\\
83.60403845527773	0.0\\
83.90133607136784	0.0\\
84.20249017780233	0.0\\
84.50378613469096	0.0\\
84.80462689868179	0.0\\
85.10531679758361	0.0\\
85.41192239628253	0.0\\
85.72014561934688	0.0\\
86.02694906416292	0.0\\
86.33751782950822	0.0\\
86.64506236735335	0.0\\
86.95547436842887	0.0\\
87.26501226339559	0.0\\
87.58030189621417	0.0\\
87.89640563555585	0.0\\
88.21269217501006	0.0\\
88.53407539153827	0.0\\
88.85180603023966	0.0\\
89.1703286943708	0.0\\
89.49056354610133	0.0\\
89.81232985301503	0.0\\
90.14008587000004	0.0\\
90.4610418461117	0.0\\
90.78800547833742	0.0\\
91.1136556909496	0.0\\
91.44020572703636	0.0\\
91.77715444776865	0.0\\
92.10418581438532	0.0\\
92.43708883501535	0.0\\
92.77140638692066	0.0\\
93.1039872675627	0.0\\
93.4407277674324	0.0\\
93.77986148799502	0.0\\
94.11941287405216	0.0\\
94.45768735629369	0.0\\
94.79256476240985	0.0\\
95.12976087374741	0.0\\
95.47028559976644	0.0\\
95.80559433522907	0.0\\
96.14757325264435	0.0\\
96.4872506134518	0.0\\
96.82678258166692	0.0\\
97.16978265720195	0.0\\
97.5118960023566	0.0\\
97.85845543187747	0.0\\
98.20056816354852	0.0\\
98.54451617480464	0.0\\
98.88897878101574	0.0\\
99.23494628290325	0.0\\
99.57880723458882	0.0\\
99.9218334549825	0.0\\
100.27131992613667	0.0\\
100.61397674759093	0.0\\
100.95994287504845	0.0\\
101.30439963234588	0.0\\
101.645015302828	0.0\\
101.98887910694356	0.0\\
102.3332699489703	0.0\\
102.68053050780756	0.0\\
103.02420074025846	0.0\\
103.36520478417901	0.0\\
103.70800493429374	0.0\\
104.05204160126198	0.0\\
104.39560195716189	0.0\\
104.73598276579784	0.0\\
105.07599862133642	0.0\\
105.41704620737329	0.0\\
105.7583374716491	0.0\\
106.09872802691822	0.0\\
106.4391547948567	0.0\\
106.78129357744584	0.0\\
106.84910565636895	0.0\\
106.85390540142288	0.0\\
106.85830582934432	0.0\\
106.87850667720281	0.0\\
106.95591833944724	0.0\\
107.20043359300914	0.0\\
107.50007577472306	0.0\\
107.8026880928544	0.0\\
108.10975621734406	0.0\\
108.41632625389812	0.0\\
108.72572540928965	0.0\\
109.03353096593062	0.0\\
109.34444867092455	0.0\\
109.65786488064734	0.0\\
109.97215167224894	0.0\\
110.2902285346195	0.0\\
110.6099185794302	0.0\\
110.92992914543598	0.0\\
111.25282418826743	0.0\\
111.5767326659965	0.0\\
111.90162321626363	0.0\\
112.22621744216892	0.0\\
112.55616416525851	0.0\\
112.88565654932765	0.0\\
113.21459126381617	0.0\\
113.54324785286099	0.0\\
113.88077560486778	0.0\\
114.21836007469525	0.0\\
114.5549868522171	0.0\\
114.89684068401334	0.0\\
115.23622633248456	0.0\\
115.57950236258449	0.0\\
115.92165766737429	0.0\\
116.26668008585807	0.0\\
116.61478106087924	0.0\\
116.96264769984123	0.0\\
117.31420829101413	0.0\\
117.66704911604523	0.0\\
118.01992001103864	0.0\\
118.37807225916356	0.0\\
118.73520686728492	0.0\\
119.09796921636891	0.0\\
119.45738577167393	0.0\\
119.81844000443581	0.0\\
120.1812828079801	0.0\\
120.54419717830658	0.0\\
120.91226458806787	0.0\\
121.28153989200769	0.0\\
121.65326013289717	0.0\\
122.02206342424802	0.0\\
122.3919098573385	0.0\\
122.76096348388376	0.0\\
123.13302746943191	0.0\\
123.50240944147188	0.0\\
123.87479248565677	0.0\\
124.24226293865917	0.0\\
124.61443863439868	0.0\\
124.98696730356096	0.0\\
125.36068745313526	0.0\\
125.73690575277746	0.0\\
126.1133245225744	0.0\\
126.48927956172554	0.0\\
126.86319056941235	0.0\\
127.23912067953972	0.0\\
127.61503629449723	0.0\\
127.99076365657413	0.0\\
128.36381682909024	0.0\\
128.73648251838262	0.0\\
129.11191790767424	0.0\\
129.48702245179084	0.0\\
129.8582821279291	0.0\\
130.2296740161974	0.0\\
130.60293319634042	0.0\\
130.9774466737041	0.0\\
131.35195186364479	0.0\\
131.72379564795034	0.0\\
132.09830552131905	0.0\\
132.46956894807232	0.0\\
132.8438385433608	0.0\\
133.21757363072214	0.0\\
133.59143476664826	0.0\\
133.96207509712764	0.0\\
134.3360426984883	0.0\\
134.7099912792463	0.0\\
135.0809659002777	0.0\\
135.45168649909442	0.0\\
135.82366150817677	0.0\\
136.19575692690916	0.0\\
136.5681274813013	0.0\\
136.94084227626735	0.0\\
137.31112013532112	0.0\\
137.68146446962737	0.0\\
138.05163670135846	0.0\\
138.42413730021582	0.0\\
138.79617474233999	0.0\\
139.16532058941624	0.0\\
139.53884610461802	0.0\\
139.9073830487804	0.0\\
140.27647771636794	0.0\\
140.64845345809698	0.0\\
141.02249000498466	0.0\\
141.39344742217145	0.0\\
141.76330728492002	0.0\\
142.1333395007971	0.0\\
142.50306324856547	0.0\\
142.8750136820854	0.0\\
143.2451632097068	0.0\\
143.61778433778653	0.0\\
143.9908685312942	0.0\\
144.36055783278437	0.0\\
144.7325455237596	0.0\\
145.106078161408	0.0\\
145.47811954099348	0.0\\
145.84862810193187	0.0\\
146.22202999495016	0.0\\
146.5939154507942	0.0\\
146.96915543541581	0.0\\
147.34254911071173	0.0\\
147.71466230170967	0.0\\
148.0872746459463	0.0\\
148.45837898264057	0.0\\
148.83281764002277	0.0\\
149.20683169406436	0.0\\
149.581933083193	0.0\\
149.9550965086765	0.0\\
150.33085519950595	0.0\\
150.70522967606797	0.0\\
151.0821545154679	0.0\\
151.45927530705916	0.0\\
151.83315550409486	0.0\\
152.20944334121185	0.0\\
152.58717018568638	0.0\\
152.96298290950318	0.0\\
153.34069513647086	0.0\\
153.71804220683936	0.0\\
154.0945751523529	0.0\\
154.47209752758573	0.0\\
154.85257540786534	0.0\\
155.22940885974793	0.0\\
155.60764298697273	0.0\\
155.98593430910773	0.0\\
156.36769093703805	0.0\\
156.747105784629	0.0\\
157.12703757371276	0.0\\
157.50701152432674	0.0\\
157.88636351146914	0.0\\
158.26893232200302	0.0\\
158.64932028747495	0.0\\
159.03384015718473	0.0\\
159.41808565236101	0.0\\
159.80055693885515	0.0\\
160.18293157837172	0.0\\
160.56756029714995	0.0\\
160.9510205040997	0.0\\
161.33661506039766	0.0\\
161.72041289109978	0.0\\
162.10616652505888	0.0\\
162.4904000021662	0.0\\
162.87471744202082	0.0\\
163.26148325215968	0.0\\
163.6480601224206	0.0\\
164.03652521846539	0.0\\
164.42366559737076	0.0\\
164.81057234227342	0.0\\
165.19852251063236	0.0\\
165.58796771104835	0.0\\
165.9797764938192	0.0\\
166.3691878069988	0.0\\
166.7628123969858	0.0\\
167.15405624232568	0.0\\
167.54811809877225	0.0\\
167.94049903292523	0.0\\
168.33507604030348	0.0\\
168.729687037418	0.0\\
169.12509852185008	0.0\\
169.51923186113754	0.0\\
169.91397369396128	0.0\\
170.31119567878568	0.0\\
170.70905743509024	0.0\\
171.10788731554976	0.0\\
171.50808529234627	0.0\\
171.90825850549066	0.0\\
172.30567564559954	0.0\\
172.7029433931399	0.0\\
173.10354203907514	0.0\\
173.50446625590843	0.0\\
173.90691916232583	0.0\\
174.311691062904	0.0\\
174.71706337619804	0.0\\
175.1211687140136	0.0\\
175.52636382204662	0.0\\
175.93148260797147	0.0\\
176.33801918413945	0.0\\
176.74433522196148	0.0\\
177.15341089237364	0.0\\
177.5636235363545	0.0\\
177.9720910926107	0.0\\
178.38063731050073	0.0\\
178.7909326242709	0.0\\
179.2039263411201	0.0\\
179.61526650603759	0.0\\
180.02721996055908	0.0\\
180.44266647477122	0.0\\
180.8586882052852	0.0\\
181.2737392537004	0.0\\
181.69078162682592	0.0\\
182.11074219458965	0.0\\
182.5293970738232	0.0\\
182.9494261718782	0.0\\
183.37116050480637	0.0\\
183.79277312624157	0.0\\
184.2169255854347	0.0\\
184.6407861406583	0.0\\
185.06807822456324	0.0\\
185.4932517920796	0.0\\
185.9170009663597	0.0\\
186.34364667483607	0.0\\
186.77315926977798	0.0\\
187.20127301772737	0.0\\
187.6322470189703	0.0\\
188.06410679813627	0.0\\
188.4977049059258	0.0\\
188.9300814490377	0.0\\
189.36493788365073	0.0\\
189.79803427095766	0.0\\
190.23390932062154	0.0\\
190.67186435391233	0.0\\
191.10921178267228	0.0\\
191.54747274003176	0.0\\
191.98725128971773	0.0\\
192.43029567498098	0.0\\
192.87369092209207	0.0\\
193.31897241842609	0.0\\
193.76599571272845	0.0\\
194.21249791751796	0.0\\
194.65889261303795	0.0\\
195.10894867535825	0.0\\
195.5573013404839	0.0\\
196.0112028497585	0.0\\
196.46415570638425	0.0\\
196.91713532184104	0.0\\
197.37129159370664	0.0\\
197.82714980449168	0.0\\
198.28764213292874	0.0\\
198.74573136261455	0.0\\
199.20599572522724	0.0\\
199.6671330380418	0.0\\
200.12860486221172	0.0\\
200.59403797628426	0.0\\
201.0608837360005	0.0\\
201.52388040057338	0.0\\
201.99516181357342	0.0\\
202.46601629240723	0.0\\
202.93805633146036	0.0\\
203.4124652177914	0.0\\
203.88928662056543	0.0\\
204.36438621878148	0.0\\
204.8425860367763	0.0\\
205.32356229136457	0.0\\
205.80436314006448	0.0\\
206.2888438639277	0.0\\
206.77495185793356	0.0\\
207.25947167950875	0.0\\
207.74679020957632	0.0\\
208.24056449017513	0.0\\
208.73325555913806	0.0\\
209.23007220463364	0.0\\
209.7257394232006	0.0\\
210.22562740882273	0.0\\
210.72817560307482	0.0\\
211.23377801279537	0.0\\
211.737561196692	0.0\\
212.24846908294103	0.0\\
212.76044573497558	0.0\\
213.2737099544742	0.0\\
213.78766067050913	0.0\\
214.30291489620504	0.0\\
214.82084551518255	0.0\\
215.3424540575927	0.0\\
215.86742247314913	0.0\\
216.39850481267064	0.0\\
216.92750360306223	0.0\\
217.46234583094338	0.0\\
217.99605323627947	0.0\\
218.53349003433334	0.0\\
219.07768055453994	0.0\\
219.62177636187465	0.0\\
220.17484761935913	0.0\\
220.72796512687995	0.0\\
221.28235942143976	0.0\\
221.83879743977792	0.0\\
222.40323326937062	0.0\\
222.9726587602574	0.0\\
223.53971297030665	0.0\\
224.10886806276505	0.0\\
224.6800150266427	0.0\\
225.25525626980556	0.0\\
225.83647172735937	0.0\\
226.4260229346752	0.0\\
227.01798991402154	0.0\\
227.61139617888716	0.0\\
228.20814128500177	0.0\\
228.8111086628678	0.0\\
229.4187345014463	0.0\\
230.03253424434274	0.0\\
230.64758440792173	0.0\\
231.26820082130143	0.0\\
231.88874303520856	0.0\\
232.51379413586784	0.0\\
233.1410187416152	0.0\\
233.77350007642696	0.0\\
234.40297048054424	0.0\\
235.03654729522725	0.0\\
235.66801032707127	0.0\\
236.305967881058	0.0\\
236.94679981870934	0.0\\
237.58872734550562	0.0\\
238.22613921777315	0.0\\
238.8591539751531	0.0\\
239.48665286519616	0.0\\
240.12234960085362	0.0\\
240.7515816049982	0.0\\
241.37993396808452	0.0\\
242.00501161120894	0.0\\
242.63145994498956	0.0\\
243.24987377743577	0.0\\
243.87024461206556	0.0\\
244.48060505767194	0.0\\
245.09147313941696	0.0\\
245.69951746587543	0.0\\
246.30473017714047	0.0\\
246.90930431889296	0.0\\
247.51263112072002	0.0\\
248.10199819664666	0.0\\
248.69156076558113	0.0\\
249.2832958803437	0.0\\
249.86761624924532	0.0\\
250.44935349535882	0.0\\
251.0315945161048	0.0\\
251.60930052215008	0.0\\
252.18688564490293	0.0\\
252.75923170685684	0.0\\
253.32993929088462	0.0\\
253.89886616536165	0.0\\
254.463886413654	0.0\\
255.02616511677053	0.0\\
255.13825397328077	0.0\\
255.4867435994954	0.0\\
255.49599340963994	0.0\\
255.5008804277697	0.0\\
255.50617775685225	0.0\\
255.53270175617047	0.0\\
255.6487052351951	0.0\\
255.98617757318175	0.0\\
256.46881877335045	0.0\\
256.95528522240113	0.0\\
257.44433663173857	0.0\\
257.9374921697348	0.0\\
258.4337565745967	0.0\\
258.9303946441895	0.0\\
259.432268258583	0.0\\
259.9376015485934	0.0\\
260.4442554324454	0.0\\
260.9537105201034	0.0\\
261.46766208518625	0.0\\
261.9863481366376	0.0\\
262.5049724484769	0.0\\
263.03023121327	0.0\\
263.5563546898901	0.0\\
264.08822512626284	0.0\\
264.6253180899971	0.0\\
265.16464764594923	0.0\\
265.70663469457077	0.0\\
266.25200360456074	0.0\\
266.80288482684944	0.0\\
267.35825705072625	0.0\\
267.9157160840299	0.0\\
268.48092859351607	0.0\\
269.0449660177493	0.0\\
269.6170139347412	0.0\\
270.19226063519227	0.0\\
270.77010622373166	0.0\\
271.35388057140074	0.0\\
271.94398732304126	0.0\\
272.5392609816769	0.0\\
273.1429108799663	0.0\\
273.74619387436985	0.0\\
274.3572818121364	0.0\\
274.96730518327513	0.0\\
275.5881479673326	0.0\\
276.2109967972144	0.0\\
276.8376154383068	0.0\\
277.4686241878792	0.0\\
278.09975968865695	0.0\\
278.73412775073746	0.0\\
279.3688108203879	0.0\\
280.00479613794437	0.0\\
280.6490656610865	0.0\\
281.29358498460056	0.0\\
281.9329893894927	0.0\\
282.5735021590664	0.0\\
283.20791770967105	0.0\\
283.84859101328243	0.0\\
284.48372166173294	0.0\\
285.123881583037	0.0\\
285.7549105451602	0.0\\
286.38446000994213	0.0\\
287.00959041250644	0.0\\
287.64281491123495	0.0\\
288.26102621697726	0.0\\
288.87765403645756	0.0\\
289.49427443603804	0.0\\
290.1104083472002	0.0\\
290.72243217048015	0.0\\
291.33225381402144	0.0\\
291.94573962917	0.0\\
292.5490917852975	0.0\\
293.152785103223	0.0\\
293.7513581915214	0.0\\
294.35106222022307	0.0\\
294.9460050858439	0.0\\
295.5439263977345	0.0\\
296.13355172431795	0.0\\
296.7263024576296	0.0\\
297.3143414750922	0.0\\
297.90381097421266	0.0\\
298.49202211832596	0.0\\
299.0806441177509	0.0\\
299.6627113059956	0.0\\
300.24451202323064	0.0\\
300.8267081410355	0.0\\
301.4072261030951	0.0\\
301.9865195494484	0.0\\
302.56472205852776	0.0\\
303.1393826633441	0.0\\
303.71347370113824	0.0\\
304.28667026859716	0.0\\
304.86168553613163	0.0\\
305.4319838145003	0.0\\
306.0043496944951	0.0\\
306.57036879019734	0.0\\
307.14452773960033	0.0\\
307.7135124032834	0.0\\
308.28122994788873	0.0\\
308.8489020324961	0.0\\
309.41456605786254	0.0\\
309.98516038618527	0.0\\
310.5505394291571	0.0\\
311.11926191043324	0.0\\
311.6859906301612	0.0\\
312.2505043072797	0.0\\
312.81205447978937	0.0\\
313.37481950720496	0.0\\
313.93921495812333	0.0\\
314.5027401951031	0.0\\
315.0669091175565	0.0\\
315.63088025355387	0.0\\
316.19208296652187	0.0\\
316.7542474470504	0.0\\
317.31511658418924	0.0\\
317.8777018786059	0.0\\
318.4367545131321	0.0\\
318.996186315587	0.0\\
319.5561312264425	0.0\\
320.1152216383132	0.0\\
320.67783862749707	0.0\\
321.2371761464175	0.0\\
321.7957010099153	0.0\\
322.35550087005254	0.0\\
322.91297973353494	0.0\\
323.47074521980653	0.0\\
324.02883343876306	0.0\\
324.5879155927096	0.0\\
325.1478599315992	0.0\\
325.70608076595704	0.0\\
326.2619563344433	0.0\\
326.8235371634902	0.0\\
327.3839478856047	0.0\\
327.943294945478	0.0\\
328.504756872519	0.0\\
329.06191912435645	0.0\\
329.6257902646312	0.0\\
330.1850075390837	0.0\\
330.74696996683406	0.0\\
331.3055054156474	0.0\\
331.8661157420812	0.0\\
332.4262583505779	0.0\\
332.9866143345498	0.0\\
333.54638969714824	0.0\\
334.10772106500576	0.0\\
334.67053294447555	0.0\\
335.23151645986786	0.0\\
335.7958402566942	0.0\\
336.35616631454195	0.0\\
336.91917330704746	0.0\\
337.4839633577683	0.0\\
338.04724372189	0.0\\
338.61023392730044	0.0\\
339.1729431066774	0.0\\
339.7354201681982	0.0\\
340.29927330555904	0.0\\
340.86566619113944	0.0\\
341.43131861580673	0.0\\
341.99783856739555	0.0\\
342.564814053796	0.0\\
343.1299089666519	0.0\\
343.69784463677695	0.0\\
344.2681210728948	0.0\\
344.83485654777223	0.0\\
345.4061319992287	0.0\\
345.97718521308354	0.0\\
346.5459194753091	0.0\\
347.11588661011365	0.0\\
347.68863014191027	0.0\\
348.2592105605254	0.0\\
348.83166467042076	0.0\\
349.4053944938679	0.0\\
349.9766307721869	0.0\\
350.5474746815472	0.0\\
351.1210232630755	0.0\\
351.69202916095867	0.0\\
352.26668924656644	0.0\\
352.83917201319605	0.0\\
353.41669571324735	0.0\\
353.9924443838096	0.0\\
354.57087653286794	0.0\\
355.1480056023162	0.0\\
355.7264793601254	0.0\\
356.3046869959596	0.0\\
356.8839052529763	0.0\\
357.46330232174023	0.0\\
358.04693119915873	0.0\\
358.6255242838213	0.0\\
359.2107315322078	0.0\\
359.7961596345219	0.0\\
360.3786240309653	0.0\\
360.961397017208	0.0\\
361.54492231173276	0.0\\
362.1320766926998	0.0\\
362.7195107863388	0.0\\
363.3049325225951	0.0\\
363.896190418827	0.0\\
364.48750196893013	0.0\\
365.0745259301991	0.0\\
365.66567175969	0.0\\
366.25711952458073	0.0\\
366.8498689514365	0.0\\
367.44387107083526	0.0\\
368.0371180922152	0.0\\
368.63158751810533	0.0\\
369.2255872730826	0.0\\
369.8208088035233	0.0\\
370.41962266190467	0.0\\
371.0169370179515	0.0\\
371.6170404432007	0.0\\
372.2169407121098	0.0\\
372.8171235518179	0.0\\
373.4181140191105	0.0\\
374.02119510916157	0.0\\
374.6274958524258	0.0\\
375.23129489298105	0.0\\
375.83595675528125	0.0\\
376.4427712461842	0.0\\
377.0516388247129	0.0\\
377.66343883017043	0.0\\
378.2735185722597	0.0\\
378.8853451785775	0.0\\
379.49772465850606	0.0\\
380.1114756923844	0.0\\
380.7276883984192	0.0\\
381.3450534415962	0.0\\
381.9654333879623	0.0\\
382.5836517200373	0.0\\
383.20358611146594	0.0\\
383.82278622287083	0.0\\
384.44541454493003	0.0\\
385.06961173298225	0.0\\
385.6939452320081	0.0\\
386.317244534678	0.0\\
386.9465002605417	0.0\\
387.5740710445549	0.0\\
388.2041623804224	0.0\\
388.83464639180477	0.0\\
389.46665238845685	0.0\\
390.09925167264225	0.0\\
390.7335377725449	0.0\\
391.3748757818113	0.0\\
392.01048920410653	0.0\\
392.65000293200956	0.0\\
393.28934671124125	0.0\\
393.9324444872519	0.0\\
394.5751749140818	0.0\\
395.2207542244515	0.0\\
395.8693789953519	0.0\\
396.5176436226868	0.0\\
397.1656116814577	0.0\\
397.81127032544634	0.0\\
398.4647702006198	0.0\\
399.12081139544136	0.0\\
399.77563670194854	0.0\\
400.4328834869451	0.0\\
401.090377348729	0.0\\
401.750866124157	0.0\\
402.4150815587758	0.0\\
403.07747505165867	0.0\\
403.7415668180864	0.0\\
404.41015547711777	0.0\\
405.0832112597317	0.0\\
405.75227436859996	0.0\\
406.4247287617659	0.0\\
407.09921612113124	0.0\\
407.7754934984139	0.0\\
408.4556130668934	0.0\\
409.1387419408088	0.0\\
409.82347097420734	0.0\\
410.50673831040126	0.0\\
411.1925148801189	0.0\\
411.8826375672901	0.0\\
412.57346784133176	0.0\\
413.26895839342296	0.0\\
413.9664215097631	0.0\\
414.6669542132357	0.0\\
415.3658086489544	0.0\\
416.0668686942108	0.0\\
416.77285374438225	0.0\\
417.48057972109405	0.0\\
418.190083870933	0.0\\
418.902175648371	0.0\\
419.61766841760107	0.0\\
420.33769796299714	0.0\\
421.05956122950874	0.0\\
421.7879352789653	0.0\\
422.51558511817643	0.0\\
423.2494866497573	0.0\\
423.9839495122162	0.0\\
424.71710243489406	0.0\\
425.45953716692577	0.0\\
426.19894632915134	0.0\\
426.9493853841816	0.0\\
427.700480116943	0.0\\
428.45404132217527	0.0\\
429.21081607803603	0.0\\
429.9696595649482	0.0\\
430.73422638961654	0.0\\
431.5038073452	0.0\\
432.2755964514805	0.0\\
433.05090783542005	0.0\\
433.82972823813293	0.0\\
434.61493062221393	0.0\\
435.4033046688737	0.0\\
436.1971706629354	0.0\\
436.9970711323913	0.0\\
437.80083903704633	0.0\\
438.608882279746	0.0\\
439.4224163929415	0.0\\
440.2431019563883	0.0\\
441.06697175653596	0.0\\
441.89883078214234	0.0\\
442.73854630499966	0.0\\
443.5861789829619	0.0\\
444.4405453531881	0.0\\
445.2973940213235	0.0\\
446.1671755350611	0.0\\
447.0412203247939	0.0\\
447.9199591021237	0.0\\
448.8084058518489	0.0\\
449.711487469301	0.0\\
450.62563249516893	0.0\\
451.5462740102116	0.0\\
452.4797054823806	0.0\\
453.42490973345525	0.0\\
454.3791560486919	0.0\\
455.3435500824861	0.0\\
456.31866863464154	0.0\\
457.30978399507353	0.0\\
458.31773855261156	0.0\\
459.3407177622953	0.0\\
460.37107931952596	0.0\\
461.4017590962849	0.0\\
462.447298501142	0.0\\
463.49319736772225	0.0\\
464.53079533371135	0.0\\
465.5731290350983	0.0\\
466.60457686000996	0.0\\
467.62726376811224	0.0\\
468.6374822599365	0.0\\
469.63271514177916	0.0\\
470.6204316379849	0.0\\
471.60357503322507	0.0\\
472.5629294677217	0.0\\
473.5147587938317	0.0\\
474.45646160013996	0.0\\
475.39048970642614	0.0\\
476.3125464403753	0.0\\
477.22648985653336	0.0\\
478.13655722039243	0.0\\
479.02934373877645	0.0\\
479.91799207672284	0.0\\
480.80152933880436	0.0\\
481.6786482456863	0.0\\
482.547594528192	0.0\\
483.4114899125335	0.0\\
484.27060549678015	0.0\\
485.1222867091226	0.0\\
485.96748063991095	0.0\\
486.81012736492596	0.0\\
487.6441413053194	0.0\\
488.4778856544656	0.0\\
489.3023576495792	0.0\\
490.128118930518	0.0\\
490.94952410697965	0.0\\
491.7621241191613	0.0\\
492.57323749537557	0.0\\
493.3817681457715	0.0\\
494.1868002403195	0.0\\
494.98794213845997	0.0\\
495.7827969847067	0.0\\
495.9419879304975	0.0\\
495.9537735198229	0.0\\
495.96255870358243	0.0\\
495.970523280674	0.0\\
496.0175312572786	0.0\\
496.1948807702785	0.0\\
496.6673834554616	0.0\\
497.4638959733029	0.0\\
498.2409268156571	0.0\\
499.0232998849053	0.0\\
499.8089173186571	0.0\\
500.6009414664842	0.0\\
501.39896464991557	0.0\\
502.1986087161117	0.0\\
503.00441227840724	0.0\\
503.8174257934512	0.0\\
504.63770569773317	0.0\\
505.4640854464802	0.0\\
506.2969664990535	0.0\\
507.13085833413993	0.0\\
507.9749500157999	0.0\\
508.82513679178703	0.0\\
509.6803911220287	0.0\\
510.5432658150585	0.0\\
511.4170915853648	0.0\\
512.2942384700018	0.0\\
513.1768085293702	0.0\\
514.0729843572792	0.0\\
514.9789587119328	0.0\\
515.8929413733542	0.0\\
516.8117122115784	0.0\\
517.7479832546564	0.0\\
518.6880574947295	0.0\\
519.6383171997204	0.0\\
520.6041033922575	0.0\\
521.5802698249531	0.0\\
522.5684137933474	0.0\\
523.5680204681282	0.0\\
524.5779125146296	0.0\\
525.5945854652334	0.0\\
526.61910417784	0.0\\
527.6501885528339	0.0\\
528.6904503635867	0.0\\
529.7388651839935	0.0\\
530.7970252171131	0.0\\
531.8464703924537	0.0\\
532.8991112934682	0.0\\
533.9408314626819	0.0\\
534.9872558042587	0.0\\
536.0273094674328	0.0\\
537.0569518234838	0.0\\
538.0808249472318	0.0\\
539.0905628045514	0.0\\
540.0980747249782	0.0\\
541.0977814232533	0.0\\
542.0868036751874	0.0\\
543.0690197452504	0.0\\
544.043293163342	0.0\\
545.0110121289836	0.0\\
545.9730049368652	0.0\\
546.9297697319164	0.0\\
547.8877366380984	0.0\\
548.8369903578541	0.0\\
549.7787988268153	0.0\\
550.7128544660729	0.0\\
551.6474008815164	0.0\\
552.5782489902201	0.0\\
553.5022518789651	0.0\\
554.421282227953	0.0\\
555.3346823813986	0.0\\
556.2487134121975	0.0\\
557.1555622263754	0.0\\
558.0609070762041	0.0\\
558.9617812080983	0.0\\
559.864394562396	0.0\\
560.7620424521854	0.0\\
561.6573924821441	0.0\\
562.5490246277536	0.0\\
563.4359930496901	0.0\\
564.3195997225016	0.0\\
565.2003885025013	0.0\\
566.0801299773127	0.0\\
566.9613302305916	0.0\\
567.836526451259	0.0\\
568.7104419971906	0.0\\
569.5827799635326	0.0\\
570.4500313554847	0.0\\
571.3182568479631	0.0\\
572.1865399573533	0.0\\
573.0514722505975	0.0\\
573.9153788314513	0.0\\
574.7804622615884	0.0\\
575.6416491740115	0.0\\
576.5026992865858	0.0\\
577.3608265649978	0.0\\
578.2157617359371	0.0\\
579.0693583405889	0.0\\
579.931501813533	0.0\\
580.7843903036814	0.0\\
581.640211658523	0.0\\
582.4961149662101	0.0\\
583.3478527163943	0.0\\
584.2064999599447	0.0\\
585.0580257262236	0.0\\
585.9070151839742	0.0\\
586.7544472931143	0.0\\
587.5996283933587	0.0\\
588.4457816495005	0.0\\
589.2918811112338	0.0\\
590.1367027248662	0.0\\
590.9831230935845	0.0\\
591.8283112099778	0.0\\
592.6730404980349	0.0\\
593.5178929811309	0.0\\
594.3587345961432	0.0\\
595.1979831908823	0.0\\
596.0408765887344	0.0\\
596.8847456982955	0.0\\
597.7250940859667	0.0\\
598.568447628018	0.0\\
599.4080498238441	0.0\\
600.2506686573001	0.0\\
601.0913960001892	0.0\\
601.9321025219745	0.0\\
602.7738652424605	0.0\\
603.614028111014	0.0\\
604.4557454964959	0.0\\
605.3003567422954	0.0\\
606.1423899312292	0.0\\
606.9815644869029	0.0\\
607.8265206647325	0.0\\
608.6696458370702	0.0\\
609.5085926802751	0.0\\
610.3511824045156	0.0\\
611.1891793837815	0.0\\
612.0325136535944	0.0\\
612.8770745010308	0.0\\
613.7178591387346	0.0\\
614.5628485107347	0.0\\
615.4079307552715	0.0\\
616.2498787553939	0.0\\
617.0933999543556	0.0\\
617.9411083199993	0.0\\
618.7849943640606	0.0\\
619.6309281110555	0.0\\
620.475038160592	0.0\\
621.3173201485306	0.0\\
622.1618637741415	0.0\\
623.0072935505598	0.0\\
623.8567028116768	0.0\\
624.699851132066	0.0\\
625.5460898611627	0.0\\
626.3918290612742	0.0\\
627.2408203437046	0.0\\
628.0910094268845	0.0\\
628.9405969952086	0.0\\
629.791913910497	0.0\\
630.6411665416765	0.0\\
631.4922318259285	0.0\\
632.344935012027	0.0\\
633.197211806367	0.0\\
634.0502644373801	0.0\\
634.9007065921749	0.0\\
635.7515180784972	0.0\\
636.6094034767489	0.0\\
637.4666625206501	0.0\\
638.3240783905117	0.0\\
639.178885972239	0.0\\
640.0342490455507	0.0\\
640.8890761166272	0.0\\
641.7459221544823	0.0\\
642.6035494838072	0.0\\
643.4630283298936	0.0\\
644.3219722005676	0.0\\
645.1794339942369	0.0\\
646.0374105045746	0.0\\
646.8991804021052	0.0\\
647.7598994199157	0.0\\
648.6237329029043	0.0\\
649.4870767699736	0.0\\
650.3507597921512	0.0\\
651.2186681415271	0.0\\
652.0836076382352	0.0\\
652.9517288000231	0.0\\
653.8188468653268	0.0\\
654.6903703671051	0.0\\
655.5641626497975	0.0\\
656.435493609911	0.0\\
657.3089462873791	0.0\\
658.1845267210783	0.0\\
659.0585996996947	0.0\\
659.9341145828098	0.0\\
660.8118190015616	0.0\\
661.6881306584639	0.0\\
662.565824306432	0.0\\
663.4444746444776	0.0\\
664.3221548240895	0.0\\
665.204575211339	0.0\\
666.0864406733344	0.0\\
666.9696333169716	0.0\\
667.8578732817937	0.0\\
668.7421388817509	0.0\\
669.6305859393929	0.0\\
670.5214296329191	0.0\\
671.4127358253586	0.0\\
672.3028359246834	0.0\\
673.1962775724091	0.0\\
674.0937385907409	0.0\\
674.9906097724006	0.0\\
675.8875200001437	0.0\\
676.7826031287634	0.0\\
677.6796882203228	0.0\\
678.5765221765762	0.0\\
679.4745516511339	0.0\\
680.373783657989	0.0\\
681.2708733475201	0.0\\
682.1721116742938	0.0\\
683.0806497391884	0.0\\
683.9865428265443	0.0\\
684.8936942716509	0.0\\
685.8043069267792	0.0\\
686.7153462476986	0.0\\
687.6250606633862	0.0\\
688.5396905725693	0.0\\
689.4567878379669	0.0\\
690.3731070705091	0.0\\
691.2912551165011	0.0\\
692.2076738032206	0.0\\
693.1289249642675	0.0\\
694.0469093099821	0.0\\
694.9713848982808	0.0\\
695.8975216838471	0.0\\
696.8240024621957	0.0\\
697.7535784218014	0.0\\
698.6853060932522	0.0\\
699.6155693917799	0.0\\
700.5493794877875	0.0\\
701.48268837345	0.0\\
702.4222673908423	0.0\\
703.3619876027153	0.0\\
704.3059900380142	0.0\\
705.2483306534166	0.0\\
706.1937401682442	0.0\\
707.1431858703313	0.0\\
708.0941278213068	0.0\\
709.0425186483678	0.0\\
709.9977031548513	0.0\\
710.9534125162252	0.0\\
711.9122602317427	0.0\\
712.8706601436379	0.0\\
713.8291057691113	0.0\\
714.7931259990485	0.0\\
715.7589098901944	0.0\\
716.7261224951699	0.0\\
717.699397269248	0.0\\
718.669782731831	0.0\\
719.64080087763	0.0\\
720.6136443608334	0.0\\
721.5937652518969	0.0\\
722.5743444349437	0.0\\
723.5601447367092	0.0\\
724.5478328328675	0.0\\
725.5323197967291	0.0\\
726.5190626144094	0.0\\
727.5112552430546	0.0\\
728.5089222596803	0.0\\
729.503313105195	0.0\\
730.5028295950603	0.0\\
731.5036007570432	0.0\\
732.5066780434024	0.0\\
733.5159448453367	0.0\\
734.5249671760125	0.0\\
735.538830578977	0.0\\
736.5550739565849	0.0\\
737.5727353884163	0.0\\
738.5926585719187	0.0\\
739.6117344987306	0.0\\
740.6360902034571	0.0\\
741.6693116871472	0.0\\
742.7010792985927	0.0\\
743.7375361164491	0.0\\
744.7752557104145	0.0\\
745.8134584656725	0.0\\
746.8613280525715	0.0\\
747.9096239956261	0.0\\
748.9586488637633	0.0\\
750.0134949082619	0.0\\
751.0655322537054	0.0\\
752.1286175635366	0.0\\
753.193903842455	0.0\\
754.2622063999816	0.0\\
755.3343434391206	0.0\\
756.4093149350219	0.0\\
757.494512594053	0.0\\
758.5777999875677	0.0\\
759.6650794104512	0.0\\
760.7567871260262	0.0\\
761.8560596996974	0.0\\
762.9549211559286	0.0\\
764.0617857848017	0.0\\
765.1701116354886	0.0\\
766.2874055667394	0.0\\
767.4009666701475	0.0\\
768.5284138247573	0.0\\
769.6555620480549	0.0\\
770.7922976693283	0.0\\
771.9315873426985	0.0\\
773.0747412734197	0.0\\
774.2203775317023	0.0\\
775.3759492112508	0.0\\
776.536503110945	0.0\\
777.7030006573907	0.0\\
778.8725480695566	0.0\\
780.0480236407195	0.0\\
781.2354349155278	0.0\\
782.4289933816428	0.0\\
783.6290900936972	0.0\\
784.8359913714289	0.0\\
785.4170555141759	0.0\\
786.0452186267153	0.0\\
787.2574288562698	0.0\\
788.487419021483	0.0\\
789.7235253763447	0.0\\
790.9660253370357	0.0\\
792.2256796518241	0.0\\
793.4930534359426	0.0\\
794.7693307454679	0.0\\
796.0583981101095	0.0\\
797.3540755977212	0.0\\
798.6594576334842	0.0\\
799.9843651825954	0.0\\
801.317405084639	0.0\\
802.6635210453537	0.0\\
804.0313533789702	0.0\\
805.4090387658086	0.0\\
806.7967350526287	0.0\\
808.2064745906639	0.0\\
809.6254354725318	0.0\\
811.0769156788651	0.0\\
812.5376828536505	0.0\\
814.0255976390322	0.0\\
815.525285813641	0.0\\
817.0665014250183	0.0\\
818.6374001544632	0.0\\
820.2276833068386	0.0\\
821.8538920058929	0.0\\
823.5102190664184	0.0\\
825.2146481346504	0.0\\
826.934138615358	0.0\\
828.6950750430485	0.0\\
830.4662549519514	0.0\\
832.2283598915819	0.0\\
833.9707471535862	0.0\\
835.6942997862241	0.0\\
837.3793197335535	0.0\\
839.0387271223701	0.0\\
840.6656673435566	0.0\\
842.2732454857319	0.0\\
843.849222971553	0.0\\
845.3973231162176	0.0\\
846.9235044495094	0.0\\
848.4294156807989	0.0\\
849.9147480683582	0.0\\
851.3867567829382	0.0\\
852.8435424900681	0.0\\
854.2823508334541	0.0\\
855.7054942340549	0.0\\
857.1256606703882	0.0\\
858.5259389566631	0.0\\
859.9122350746466	0.0\\
861.2904981012398	0.0\\
862.6623459555508	0.0\\
864.0249247704883	0.0\\
865.3816424999745	0.0\\
866.733175041034	0.0\\
868.0744568116193	0.0\\
869.408786639915	0.0\\
870.7362416292597	0.0\\
872.0575366540372	0.0\\
873.3711534669446	0.0\\
874.674916217012	0.0\\
875.9758237987653	0.0\\
877.2710444912564	0.0\\
877.5290807741067	0.0\\
877.6981463044594	0.0\\
878.2453122553572	0.0\\
878.3081011681045	0.0\\
878.3258600089553	0.0\\
878.342312859053	0.0\\
878.4434500645737	0.0\\
878.8101925747385	0.0\\
879.8641884010667	0.0\\
881.1847366104475	0.0\\
882.523814660939	0.0\\
883.87395069544	0.0\\
885.2330533332697	0.0\\
886.6125490792956	0.0\\
888.0030079835806	0.0\\
889.4159541763775	0.0\\
890.8374945988637	0.0\\
892.2813645055937	0.0\\
893.7411970037163	0.0\\
895.2212224435054	0.0\\
896.7174665908929	0.0\\
898.2320078067501	0.0\\
899.777160610669	0.0\\
901.3358402815049	0.0\\
902.9171207634668	0.0\\
904.5196476020985	0.0\\
906.1541388445407	0.0\\
907.8145244859923	0.0\\
909.5016087426995	0.0\\
911.2069684140943	0.0\\
912.9255360947886	0.0\\
914.655776690106	0.0\\
916.3950851135339	0.0\\
918.1248658630152	0.0\\
919.8546172749998	0.0\\
921.5798237561507	0.0\\
923.2856651989744	0.0\\
924.9769239037937	0.0\\
926.6432897507241	0.0\\
928.302353572564	0.0\\
929.9480154953064	0.0\\
931.5660886365235	0.0\\
933.1776319577411	0.0\\
934.7713520156533	0.0\\
936.3420443039595	0.0\\
937.900348752373	0.0\\
939.4540185279202	0.0\\
940.9926272951539	0.0\\
942.5231858566062	0.0\\
944.0436090467108	0.0\\
945.5556133811062	0.0\\
947.063250406869	0.0\\
948.5566862317894	0.0\\
950.0396838467411	0.0\\
951.5203598219664	0.0\\
952.9938865207196	0.0\\
954.4572341991272	0.0\\
955.9142326286169	0.0\\
957.3648891861981	0.0\\
958.8122838229056	0.0\\
960.2560189476369	0.0\\
961.6974878045082	0.0\\
963.1383575561999	0.0\\
964.5709535915216	0.0\\
965.9911993925193	0.0\\
967.4106428898056	0.0\\
968.8337567089025	0.0\\
970.2536017879781	0.0\\
971.6684585885691	0.0\\
973.0795239999711	0.0\\
974.4877972170432	0.0\\
975.8895983484097	0.0\\
977.2947804758128	0.0\\
978.6907834441333	0.0\\
980.0854779406657	0.0\\
981.480217790802	0.0\\
982.8684072057381	0.0\\
984.2575211471321	0.0\\
985.6417046990966	0.0\\
987.0266019790156	0.0\\
988.4074861428969	0.0\\
989.7955884315245	0.0\\
991.1803343878266	0.0\\
992.556751362079	0.0\\
993.9388054415213	0.0\\
995.3166728237077	0.0\\
995.55215311962	2.349666376478696E-6\\
995.7939388416564	9.693654511601743E-6\\
996.0229721640283	2.132837990766412E-5\\
996.2514330497622	3.753682154852722E-5\\
996.4812951198396	5.855078503131549E-5\\
996.7224866266527	8.574848009878692E-5\\
996.9626770506836	1.1814689034438699E-4\\
997.2041283909491	1.5613707463919905E-4\\
997.4446577260835	1.994637555500798E-4\\
997.6750727561798	2.4617055761480826E-4\\
997.9159285152925	3.005101167469319E-4\\
998.1488856449992	3.585023129802134E-4\\
998.3841183545467	4.2255579665116E-4\\
998.6277608527478	4.947960070129948E-4\\
998.8705615559663	5.728330283353955E-4\\
999.0777242298566	6.442474658394184E-4\\
999.2934074027773	7.233844304052866E-4\\
999.509436209107	8.075953918454777E-4\\
999.7485741627636	9.066546288646784E-4\\
999.9699924450167	0.0010039063433060131\\
1000.1916928484648	0.0011066743770833734\\
1000.4245372067046	0.001220482520384029\\
1000.6587396311409	0.0013410931404184137\\
1000.9033335942529	0.0014737030127538213\\
1001.1435138573054	0.0016106044049544054\\
1001.3875221798696	0.0017565490945849731\\
1001.6172620912225	0.0019003508515260232\\
1001.8512606586419	0.0020532612117959\\
1002.0923777229852	0.002217697741891354\\
1002.3103583887205	0.002372423598945024\\
1002.555116014872	0.0025530971326304525\\
1002.7719707076576	0.00271936797440184\\
1003.0084896397962	0.002907421568866686\\
1003.2455971455729	0.003103033767394117\\
1003.4919155102184	0.003313840459754469\\
1003.7374785692887	0.0035317839954574094\\
1003.9720274710335	0.0037472824222056908\\
1004.1902055711219	0.003954232635366352\\
1004.4332162182595	0.004192175721145516\\
1004.6685167084156	0.004430107496427671\\
1004.9030061672188	0.004674668690480891\\
1005.1505421099785	0.004940982199488367\\
1005.3982570309627	0.005215942304665072\\
1005.6324290677312	0.005483720203411332\\
1005.8666781815841	0.005759291223001997\\
1006.0949192483504	0.006035272607969933\\
1006.3416038273281	0.006341929643410196\\
1006.588105597175	0.006657125990233362\\
1006.8219280745927	0.006964281555635448\\
1007.0664190981292	0.00729403732962665\\
1007.3114712150498	0.007633433711243318\\
1007.5313611874151	0.00794561660546515\\
1007.7560293015649	0.00827210639587686\\
1008.002291452661	0.008638782806350713\\
1008.2518437899719	0.00901983048217141\\
1008.4907653829066	0.009393656426879077\\
1008.7354956002098	0.009785787347592528\\
1008.9826040173534	0.010191270748909801\\
1009.2289594935339	0.010605142279739698\\
1009.469188246157	0.011018050730806802\\
1009.7048717738351	0.011432171585087015\\
1009.9430234130641	0.011859780367137716\\
1010.1940539158675	0.012320550267363617\\
1010.4460588088582	0.012793551407445921\\
1010.6978498861165	0.013276685342660018\\
1010.9424036048672	0.013756092640764207\\
1011.193047315789	0.01425790999788534\\
1011.4355347186145	0.014753563387129093\\
1011.6879989135305	0.015280315591252355\\
1011.9409282203637	0.015819073192771094\\
1012.1616521605363	0.016298323285921144\\
1012.3866721542115	0.01679568846759688\\
1012.6253341790798	0.017332967706443665\\
1012.8747037019314	0.017905160769006973\\
1013.1166657202211	0.01847099088073298\\
1013.3603363163843	0.019051478263886763\\
1013.6125323121114	0.019663623124584015\\
1013.8635275755546	0.020284395711548664\\
1014.1085942092741	0.02090169499447498\\
1014.3616928758656	0.021550914510471635\\
1014.613610256855	0.02220898017448615\\
1014.8587793590864	0.022860874390726177\\
1015.1051149292232	0.023527331106961223\\
1015.3535552950634	0.024211197122350696\\
1015.5952519719729	0.02488786601481744\\
1015.8322411596021	0.025562312003256274\\
1016.0663599215293	0.02623931025096677\\
1016.3211149305009	0.026988166512673488\\
1016.5675531631612	0.027724736134476485\\
1016.8244041142832	0.028505240978397635\\
1017.0728025249225	0.029272581203263072\\
1017.330551352348	0.03008190800734694\\
1017.5788876338759	0.03087438256734501\\
1017.8321434644661	0.03169547990199492\\
1018.0828142316179	0.03252112909233178\\
1018.3415479691796	0.03338691675521023\\
1018.5973786086558	0.034256640625237714\\
1018.8561828715428	0.03515037388009619\\
1019.115725576929	0.03606078696846804\\
1019.3658594458568	0.03695167024715282\\
1019.6238764718087	0.03788457484956129\\
1019.8721233262445	0.03879560138394286\\
1020.1292864576249	0.03975334235098911\\
1020.3831171627619	0.040712720484837775\\
1020.6314891281575	0.04166505772446087\\
1020.8918172706315	0.04267775499362496\\
1021.1505227701584	0.043698945769745784\\
1021.4111963555931	0.044742923815966215\\
1021.6743707082439	0.045812302271766345\\
1021.9372823618808	0.04689614119464493\\
1022.1916812189077	0.04795974884487096\\
1022.4410540092392	0.049016613520559985\\
1022.6949000738616	0.05010702950836737\\
1022.9503279874814	0.051219184691984165\\
1023.1996220689016	0.05231916871012311\\
1023.4622772896216	0.053493729763374284\\
1023.7191716935456	0.0546581215767115\\
1023.9804609692669	0.0558583410562927\\
1024.2429669638068	0.05708039465047521\\
1024.5054136311192	0.05831854099513836\\
1024.7694871558438	0.05958097470398134\\
1025.027840408085	0.06083227757045198\\
1025.2957396514544	0.06214684763471302\\
1025.561963306578	0.06347046864706152\\
1025.8259565486378	0.06480009780737611\\
1026.0829767747296	0.0661110526611561\\
1026.3492319891616	0.06748631513759282\\
1026.6104763825092	0.06885280194173868\\
1026.86841148451	0.07021869098469438\\
1027.1280296550362	0.07161034926717083\\
1027.397362620458	0.07307204884283056\\
1027.6662733332569	0.07454980552839485\\
1027.9335939427401	0.07603709282948884\\
1028.197694809247	0.07752444754302915\\
1028.4683795499523	0.07906752431737432\\
1028.7384515843228	0.0806260143986321\\
1028.9906091705557	0.08209826130136422\\
1029.22307106188	0.08347024446842036\\
1029.465017727478	0.0849132870902802\\
1029.7370044961795	0.08655394840054492\\
1030.0013790297976	0.08816749717483041\\
1030.26383152659	0.08978774480545287\\
1030.5131818239538	0.09134419898711135\\
1030.7781453465027	0.09301645259166977\\
1031.0516955157232	0.09476281940927353\\
1031.3222395491907	0.09650999843775918\\
1031.5812253757535	0.09820126244110083\\
1031.8553290027544	0.10001130332726399\\
1032.1249571752128	0.10181200517658556\\
1032.3950830202466	0.10363623286793344\\
1032.6685022994857	0.10550339354034069\\
1032.9414442876441	0.10738815724943618\\
1033.210629149682	0.10926749050584972\\
1033.4853969889987	0.11120691226694782\\
1033.7613389710236	0.11317618740997276\\
1034.0370506550735	0.1151655068048455\\
1034.2977065485852	0.11706622420918833\\
1034.5680330229457	0.11905811968848792\\
1034.8414189817563	0.12109405003252555\\
1035.1208834030322	0.12319768892953673\\
1035.3945054572578	0.12527943358089327\\
1035.672912923888	0.1274201178858962\\
1035.9296838385076	0.12941467491556657\\
1036.210737581333	0.13162021991851858\\
1036.488364926316	0.1338219235374415\\
1036.7606332545424	0.1360034762598366\\
1037.04339495052	0.13829264021386162\\
1037.3221775066345	0.1405731691230031\\
1037.592130982277	0.14280388543658074\\
1037.8605800736354	0.14504413472372168\\
1038.13803524375	0.1473826585350822\\
1038.4202660144692	0.14978564698702096\\
1038.6844025720584	0.15205679438383402\\
1038.9593002162196	0.15444338257448192\\
1039.2440197453088	0.15693998381909335\\
1039.4983792384796	0.15919175108978328\\
1039.7786404050516	0.16169628432920857\\
1040.060253140915	0.16423777816032276\\
1040.3413252760797	0.1667993706914096\\
1040.6015082622862	0.1691929210184358\\
1040.890117725517	0.1718732069101115\\
1041.1768399733255	0.174562347082154\\
1041.4430609962692	0.1770828493036275\\
1041.72068196488	0.17973563291265482\\
1042.002923169714	0.18245815223550493\\
1042.2909812694543	0.18526349392772284\\
1042.5646446917926	0.18795374746540994\\
1042.840787131202	0.19069326298042183\\
1043.1050945539346	0.19333887960099227\\
1043.3989664694022	0.19630753496427933\\
1043.692356516186	0.1992999106574379\\
1043.9828432363847	0.20229093484750926\\
1044.259021490293	0.20516081436895306\\
1044.5209199875521	0.2079059788705076\\
1044.7927395742586	0.21077959791617001\\
1045.0851762832795	0.21389910816970054\\
1045.368681531499	0.21695109010853797\\
1045.6506504374047	0.2200137365495723\\
1045.940668053996	0.22319221942935824\\
1046.230456244576	0.22639708087031363\\
1046.5221898741465	0.22965274700247984\\
1046.7956347497225	0.2327311015755371\\
1047.082765943042	0.23599153949336565\\
1047.3493869027693	0.23904486400796654\\
1047.6461017754395	0.24247212695812947\\
1047.9330949089813	0.24581657524528633\\
1048.2085137395402	0.24905350624614037\\
1048.5063221950345	0.2525838489815214\\
1048.8097182060064	0.2562128957385521\\
1049.1058453106562	0.25978672025798555\\
1049.3856870062627	0.2631929169612762\\
1049.6759672936846	0.2667559717944218\\
1049.9765761853623	0.2704779096040497\\
1050.2800109783957	0.2742680892260303\\
1050.5652930156907	0.2778621110524161\\
1050.8586963295352	0.28158948566112896\\
1051.1571295094786	0.2854131676823626\\
1051.454201957887	0.2892519970361064\\
1051.7641260946975	0.29329167719202953\\
1052.0691436218772	0.2973022092592439\\
1052.3724506871026	0.30132462184107456\\
1052.6765470365413	0.305392039789271\\
1052.9785256063165	0.3094654821416284\\
1053.2561962543368	0.3132413492050783\\
1053.5660360523625	0.3174890808315637\\
1053.8636380383896	0.3216033366970761\\
1054.173178760076	0.32591843165426637\\
1054.4703461248246	0.33009549632796165\\
1054.7714025764426	0.33436177473806783\\
1055.0636647315937	0.33853681024486615\\
1055.3753160766469	0.3430251872549528\\
1055.6575902679929	0.34712297850456286\\
1055.9723147698505	0.35172841158487755\\
1056.2815640410272	0.3562913991795249\\
1056.5915887884426	0.36090345088350506\\
1056.8990039095124	0.3655140091118294\\
1057.2130572498631	0.3702626475974178\\
1057.494599749286	0.37455291708111016\\
1057.7820216442024	0.37896528080630754\\
1058.1012455818227	0.38390447081074686\\
1058.4012773125	0.388583882422343\\
1058.701963935804	0.3933097748308987\\
1059.0110233047262	0.3982052275765846\\
1059.321776579041	0.40316644808145596\\
1059.6385417130837	0.4082639717391854\\
1059.956105929165	0.4134153602262931\\
1060.2689916719855	0.4185311513308122\\
1060.6126745037454	0.4241967447024019\\
1060.935804919346	0.4295678580753347\\
1061.2380836219922	0.43463140267132294\\
1061.5359165784125	0.43965750302676265\\
1061.8744453035683	0.4454151470173864\\
1062.20039522455	0.4510040229168176\\
1062.5082150813078	0.45632286294745983\\
1062.8373316747225	0.46205371588304645\\
1063.1452266442411	0.4674563667609507\\
1063.473570359347	0.47326200305715727\\
1063.7927861602093	0.4789500933892149\\
1064.1016022554013	0.4844941530028395\\
1064.406499088043	0.4900078101878209\\
1064.7422072933846	0.4961247253552895\\
1065.0711222649911	0.5021648485829351\\
1065.394461056751	0.5081480577247528\\
1065.7183734657947	0.5141872497770954\\
1066.021961392199	0.5198888593909663\\
1066.3467515467896	0.5260331160424869\\
1066.6728113135932	0.5322477591514687\\
1067.0060323765274	0.5386470540315511\\
1067.3172990288854	0.5446688471125689\\
1067.653038258727	0.5512120203508015\\
1067.958657176273	0.5572115674568876\\
1068.2877838008785	0.5637189812776049\\
1068.621611359457	0.5703686384043725\\
1068.9404957432503	0.5767670898514838\\
1069.2586129376987	0.5831954056787017\\
1069.5663738651556	0.5894574975688158\\
1069.894107832407	0.5961725649222629\\
1070.2335720437422	0.6031786655509983\\
1070.5710942455612	0.6101958590713739\\
1070.8804078252097	0.6166714254792101\\
1071.1810450182352	0.623006472773368\\
1071.5343049917155	0.6305022289114237\\
1071.8630145203228	0.6375273945649849\\
1072.1724992321278	0.6441860730137539\\
1072.5098488789035	0.6514933450299325\\
1072.859649115363	0.6591243957101633\\
1073.2145962893533	0.6669240596039296\\
1073.5428545330947	0.6741877951605764\\
1073.870449588915	0.681485306137487\\
1074.206800562034	0.689028257443163\\
1074.524164529123	0.6961922565623748\\
1074.8807493341656	0.7042959084547689\\
1075.2243530342907	0.712158956252289\\
1075.5699150045339	0.7201207049865317\\
1075.9060106616516	0.7279162261280563\\
1076.2436371571353	0.7357987951462992\\
1076.569133148968	0.7434470933155648\\
1076.8886924280082	0.751002663382095\\
1077.2408391737613	0.7593824255624786\\
1077.580733126165	0.7675240570906712\\
1077.9154064882532	0.7755919623817151\\
1078.2497053626257	0.7837017159241633\\
1078.6054494159193	0.7923875902539399\\
1078.930217392282	0.8003674954747768\\
1079.2962114378693	0.8094180002280977\\
1079.6383512777757	0.8179338904814641\\
1079.993985322636	0.8268422964985185\\
1080.3296387547848	0.835303200643563\\
1080.6756370267976	0.8440787774588003\\
1081.0164154716158	0.8527754919985229\\
1081.3823775253709	0.8621740909161786\\
1081.7216544998091	0.87094216502776\\
1082.0989277243762	0.8807541472614633\\
1082.4455638352301	0.8898268783133223\\
1082.7852871105329	0.8987721854411008\\
1083.1266838592915	0.9078149548038079\\
1083.4609693966554	0.9167212665048401\\
1083.8087905227267	0.9260427553855706\\
1084.1458176284414	0.935128072196741\\
1084.4740417238122	0.944026352890766\\
1084.8394891680705	0.9539921705943983\\
1085.194436973517	0.9637306044115592\\
1085.515014281471	0.97257599259659\\
1085.8641533066493	0.9822634254776508\\
1086.224848062188	0.99233062224454\\
1086.5631678684276	1.0018279740043106\\
1086.9522228248134	1.012815010038342\\
1087.3108461493084	1.0230046941838795\\
1087.6924122294818	1.0339116582057106\\
1088.0364759638906	1.0438044772107697\\
1088.4079856664785	1.0545480853315468\\
1088.7473970326746	1.0644194309230954\\
1089.0845475030478	1.0742779758864587\\
1089.4371928215633	1.0846461085392654\\
1089.7961583762103	1.0952594371964803\\
1090.136602928731	1.1053805458867796\\
1090.47727234901	1.1155623393544167\\
1090.8519300782086	1.1268223706896778\\
1091.2017026873268	1.1373935415479046\\
1091.5465769117259	1.1478725244245478\\
1091.8789379207547	1.158023805039393\\
1092.2511164408725	1.1694524389599672\\
1092.6305469684617	1.1811703759367522\\
1092.9857430472357	1.1922008692243526\\
1093.3261883948107	1.2028286704246298\\
1093.6850288264318	1.2140894378804017\\
1094.0600528177433	1.2259225039362138\\
1094.4095814712387	1.2370104556824968\\
1094.7676970301172	1.2484302169640897\\
1095.140219045451	1.2603732256380673\\
1095.4796185687728	1.2713110455777978\\
1095.8445807034395	1.2831330453777219\\
1096.240923235	1.2960424406559068\\
1096.6071913040973	1.3080379530533808\\
1096.9744702983994	1.3201299661972197\\
1097.3478320611944	1.3324873485794995\\
1097.7092611433795	1.3445123516079187\\
1098.052259119038	1.3559810918767181\\
1098.3830981411234	1.3670958544302865\\
1098.7679066547003	1.3800887458911828\\
1099.1182311708108	1.3919781093026256\\
1099.501845591611	1.405063789467516\\
1099.8519941043942	1.4170686326175406\\
1099.8739904291315	1.4178247125879673\\
1100.257633401488	1.4310484833408998\\
1100.6198283848803	1.4435966872508912\\
1100.9997974317544	1.4568268199956997\\
1101.3458149857215	1.4689334125111002\\
1101.6824465376862	1.4807649323727108\\
1102.0304229383946	1.4930501867309012\\
1102.4098633042427	1.5065096653963033\\
1102.7652095959647	1.5191741374237178\\
1103.1317628234356	1.5322981374190685\\
1103.5015665543392	1.5456000445505733\\
1103.89224936534	1.5597197260605795\\
1104.2640802385372	1.5732214168970788\\
1104.6329606686645	1.5866766485718564\\
1104.9987257266862	1.6000775721333698\\
1105.3841502342025	1.614262332786942\\
1105.7882062768322	1.6292023992768336\\
1106.1692625645178	1.6433569341416785\\
1106.548335446675	1.6574998964519838\\
1106.922392588608	1.6715160729838665\\
1107.3150541007676	1.6862934644835668\\
1107.690464721281	1.7004826551528671\\
1108.0681493321754	1.714817603444605\\
1108.4515882226374	1.7294319427689584\\
1108.8499944328169	1.744681428877819\\
1109.2274185119818	1.7591882201478812\\
1109.5970254016347	1.773451148643462\\
1110.0237643766313	1.7899879832181602\\
1110.4112140392444	1.8050661340262195\\
1110.7990425371295	1.8202194437371255\\
1111.1848006164737	1.8353514224902532\\
1111.568230636181	1.8504505554244757\\
1111.9650677169188	1.866138624957082\\
1112.3652412240908	1.8820209784600799\\
1112.7515290978922	1.8974112415590847\\
1113.1405520048347	1.9129686462093365\\
1113.5298463411818	1.928594942336801\\
1113.9278436510763	1.9446301728400037\\
1114.2908345563615	1.9593071777090536\\
1114.6707368839611	1.974720894896402\\
1115.0540324180265	1.9903267701271168\\
1115.4388297972018	2.006048455800576\\
1115.8118023867482	2.0213389161322164\\
1116.2194112956195	2.0381073346124516\\
1116.6060231706392	2.054067544087782\\
1116.9882595433687	2.0698999090619674\\
1117.3799659333986	2.0861785730605593\\
1117.768055750495	2.102360492671634\\
1118.1717203188282	2.1192479459758484\\
1118.5577076279537	2.135448982354312\\
1118.9773774743462	2.1531222239857284\\
1119.3572475131455	2.1691715098578905\\
1119.75285782238	2.1859380038899827\\
1120.1220928796733	2.2016343569509944\\
1120.5230914200633	2.2187327114531152\\
1120.909274450441	2.2352498574606754\\
1121.2863277440501	2.2514239524779045\\
1121.6812917413995	2.268416193072058\\
1122.0759854926914	2.2854473501425208\\
1122.4709217713848	2.302539121002715\\
1122.866156058663	2.3196935855916134\\
1123.2596746140157	2.336822652119234\\
1123.634574220709	2.3531864301884555\\
1124.0224566539673	2.3701628662310092\\
1124.4334937421709	2.388203309552342\\
1124.827155185416	2.405529521399977\\
1125.202379950635	2.4220879483239885\\
1125.6001560748905	2.4396876746515437\\
1126.013626944888	2.458031691524038\\
1126.4178113457897	2.4760123891184938\\
1126.8246499300212	2.4941592997429085\\
1127.2191030296776	2.511799435644342\\
1127.6232893633032	2.5299210434266213\\
1128.023158669912	2.5478946745579476\\
1128.4255677572705	2.566027781860721\\
1128.8141770747916	2.5835817809945034\\
1129.2041214222654	2.601237867474417\\
1129.6189558684396	2.6200664333393844\\
1130.0129075532782	2.637990160813704\\
1130.3907317144453	2.6552190670601616\\
1130.7823971363819	2.6731189753043223\\
1131.1985372743075	2.6921814143713547\\
1131.6069608928483	2.7109339863755073\\
1132.0001853030599	2.7290290686859677\\
1132.406891434282	2.7477857546271967\\
1132.8144457614562	2.766623144854443\\
1133.2284751397933	2.7858019657830617\\
1133.6307216245423	2.804475203376753\\
1134.0265232683623	2.8228875110089913\\
1134.4233753299527	2.8413863467853053\\
1134.8295100161708	2.8603564834233763\\
1135.2248456080506	2.878859278234545\\
1135.6267084784981	2.89770460571369\\
1136.0017084353672	2.9153234895263074\\
1136.4040372536333	2.934261689753285\\
1136.8106116375207	2.9534364310258194\\
1137.2060469065264	2.9721207832809995\\
1137.5949908288112	2.9905316183192836\\
1137.9613244285179	3.007901924117668\\
1138.3747704261327	3.0275403583528533\\
1138.750400144032	3.0454136268246534\\
1139.1471854306583	3.0643252324068104\\
1139.5463588785428	3.0833831206231235\\
1139.9307254798568	3.101764439651676\\
1140.3303177445914	3.1209050354579206\\
1140.7399212330033	3.1405576866022313\\
1141.1360165343654	3.159593089433354\\
1141.5313695276254	3.1786226498885446\\
1141.9415852257875	3.198398650520816\\
1142.341218688564	3.2176944671442396\\
1142.7416274591242	3.2370569374317233\\
1143.1505972188347	3.256863125342506\\
1143.5412098142683	3.275807917339212\\
1143.9212087046221	3.294263445331996\\
1144.3123503751617	3.3132860128259374\\
1144.6914926132372	3.3317496701386684\\
1145.0930494650775	3.3513309372345965\\
1145.4964407624775	3.3710282142170387\\
1145.8927636200256	3.3904058315809635\\
1146.2876347873694	3.409737163810675\\
1146.6735892442275	3.4286553818959673\\
1147.073608356382	3.4482870023583088\\
1147.4751375552291	3.468016871153888\\
1147.882338025177	3.488049653863378\\
1148.2797665880216	3.5076247999454226\\
1148.6771344218446	3.5272193367024567\\
1149.0757930858376	3.54689958276634\\
1149.4936496183245	3.5675507990302657\\
1149.894045324832	3.5873609447720183\\
1150.2897729274737	3.6069607190848076\\
1150.6898304662486	3.6267953184199087\\
1151.0931580366555	3.6468123361054126\\
1151.5028479916418	3.6671655182389546\\
1151.9001610227624	3.6869230196699654\\
1152.2986457789511	3.706757334325485\\
1152.6999798885222	3.726751809631737\\
1153.0968268862093	3.7465403999214537\\
1153.4995556733866	3.7666397968672314\\
1153.9041196479047	3.7868481032744663\\
1154.3020806501086	3.8067430832954985\\
1154.6967674777716	3.8264901102742135\\
1155.0979256367305	3.846576529780144\\
1155.487931646603	3.8661192293066406\\
1155.8797361832017	3.8857662064829244\\
1156.2812065945463	3.9059121682424385\\
1156.6837645790097	3.9261267933063833\\
1157.0884817639594	3.9464636162728084\\
1157.4839087643845	3.966346517469419\\
1157.8850147894932	3.9865275627040813\\
1158.284771198154	4.006652887825494\\
1158.6844416713047	4.02678560918892\\
1159.0777356992248	4.046608146775384\\
1159.4673697044436	4.066256579068419\\
1159.8673792013765	4.0864385324161425\\
1160.267625898433	4.106642476877022\\
1160.6677298975474	4.126848802671724\\
1161.0641938455597	4.146880318842829\\
1161.4647974682716	4.1671296810338685\\
1161.8597985396927	4.187103976394798\\
1162.2642977381993	4.207566489901861\\
1162.6493347083292	4.227051500996954\\
1163.0489377727195	4.24728099075654\\
1163.8667473658688	4.288706039696642\\
1164.9879455576101	4.345551849239758\\
1166.2634387281082	4.410295075389007\\
1167.470286122838	4.47162687123474\\
1168.6709823269503	4.532716452427799\\
1169.8520852765555	4.592877621847419\\
1171.0488886820913	4.653907739947753\\
1172.213752054317	4.7133759806796025\\
1173.4094885395612	4.774488933343932\\
1174.6554780875572	4.838244159537927\\
1175.8544155262553	4.899662959800391\\
1177.1451588905488	4.965862726964348\\
1178.3598869107332	5.028237607455377\\
1179.586233796515	5.091281650565108\\
1180.8411860253727	5.155871659782752\\
1182.0994829737178	5.2207103714296\\
1183.3247754798954	5.283922027699461\\
1184.5276552062169	5.346048061869766\\
1185.7502234482317	5.409262633153949\\
1187.0197766164538	5.474983053874039\\
1188.2391698998626	5.538180146181137\\
1189.4919422068128	5.603181897487941\\
1190.718017677344	5.666871749831241\\
1191.9204963046764	5.72940623341907\\
1193.1943416184608	5.795728117007631\\
1194.4595993848347	5.861680256337792\\
1195.7461179284705	5.9288196335674765\\
1196.9658351096418	5.992546388210799\\
1198.130581386622	6.053467840565496\\
1199.4281968834607	6.121415727212321\\
1200.6741839311098	6.18673627584209\\
1201.9382848204732	6.253082602308165\\
1203.3038991683834	6.324843017124222\\
1204.604277719719	6.393258541365711\\
1205.8882489763441	6.460890363986858\\
1207.1397277526912	6.526886679113103\\
1208.3936224907743	6.593085602203486\\
1209.7134867365653	6.662848638718465\\
1210.9915151871405	6.730479789240324\\
1212.260761663662	6.797723484822734\\
1213.5636465866655	6.866829371005009\\
1214.9129109155206	6.938480685817504\\
1216.2454027883368	7.009326583174294\\
1217.5655712039502	7.07960078275436\\
1218.8747856371997	7.149373939224699\\
1220.1767546471706	7.218841946990901\\
1221.417492098215	7.285117992272124\\
1222.6114041177598	7.348961953150765\\
1222.8717859905369	7.362894776274365\\
1222.9450026460145	7.366813121126269\\
1222.9749822281665	7.36841761572868\\
1222.9916283052494	7.36930852521713\\
1223.0401093072087	7.371903336858583\\
1223.040731485205	7.371936637942849\\
1223.0414193371303	7.37197345414077\\
1223.04674620782	7.372258567320779\\
1223.065842372347	7.373280673467814\\
1223.1251495508413	7.376455150900476\\
1223.2413126567549	7.382673384764406\\
1223.4892378699965	7.395947016559711\\
1223.9126000996816	7.418620102401221\\
1224.6501088504929	7.458137599445497\\
1225.9695620281454	7.528901578751947\\
1227.264147029634	7.598412228162612\\
1228.5981757184118	7.670123991342736\\
1229.8293097098604	7.736379502841036\\
1231.1225140227489	7.806052849866054\\
1232.4723538934659	7.878862088280107\\
1233.7668374813798	7.948766547658247\\
1235.0986194782472	8.020768003798825\\
1236.4632647650028	8.094633259521352\\
1237.7968212573578	8.166900851856013\\
1239.1454519881117	8.240070851179972\\
1240.5292579230395	8.315238617058004\\
1241.8700727162418	8.388157386693372\\
1243.2758798824957	8.464701822877686\\
1244.63617815823	8.538857110266903\\
1246.0035284148412	8.613484753844485\\
1247.3880874776783	8.689141398643393\\
1248.843928808274	8.768790506755725\\
1250.2452360942057	8.845550285196701\\
1251.62205023433	8.921058366994057\\
1253.0841443474378	9.001341004755467\\
1254.5314137513028	9.08090855888329\\
1255.9273062359275	9.157744723311282\\
1257.2268408659938	9.229359129855208\\
1258.6558671528664	9.308200990858879\\
1260.0491883782074	9.385165134835692\\
1261.5009650296902	9.465455015460392\\
1262.875820754794	9.541581826175452\\
1264.2778547853477	9.619304644873324\\
1265.653129898505	9.695633413370896\\
1266.9836267907822	9.769561128204575\\
1268.3283736945746	9.844364698314159\\
1269.7140848674571	9.921535337868573\\
1271.0950925842617	9.998533233397374\\
1272.523854324194	10.078287310219633\\
1273.9140185165802	10.155978235611432\\
1275.4450829829707	10.241647770905956\\
1276.8565096652837	10.320719802760483\\
1278.2171520403122	10.397034563844432\\
1279.5778243902432	10.473437161829807\\
1280.9910015326177	10.552879096284656\\
1282.3651807060814	10.630217783837121\\
1283.0883294107302	10.670951768504725\\
};
\end{axis}
\end{tikzpicture}%
