%TakeOff_Trajectory
\begin{tikzpicture}

\begin{axis}[
width=\figurewidth,
height=\figureheight,
scaled ticks=false, tick label style={/pgf/number format/fixed},
xmin=0.0,
xmax=1312.5701903971549,
xlabel={Ground Distance (m)},
xmajorgrids,
ymin=0.0,
ymax=11.52144000000001,
ylabel={Altitude (m)},
ymajorgrids,
legend style={at={(1.03,0.5)},anchor=west,draw=black,fill=white,legend cell align=left}
]

\addplot [
color=black,
solid
]
table[row sep=crcr]{
1.3869093119904958E-8	0.0\\
1.6781602652052382E-6	0.0\\
1.647353542553254E-5	0.0\\
6.439931843204793E-5	0.0\\
1.9065297784454734E-4	0.0\\
4.3047238193074354E-4	0.0\\
7.655732019409523E-4	0.0\\
0.0011859140074752068	0.0\\
0.0017125440148558512	0.0\\
0.002325773289020553	0.0\\
0.003048160223602098	0.0\\
0.0038534230156502492	0.0\\
0.0047613423065209805	0.0\\
0.005745362525174262	0.0\\
0.006850362334786895	0.0\\
0.008045979951874255	0.0\\
0.009335229969848511	0.0\\
0.010714092062249835	0.0\\
0.012211839023396752	0.0\\
0.013806134132442	0.0\\
0.015491733619538515	0.0\\
0.017286021718634886	0.0\\
0.01917170370083953	0.0\\
0.021153325972783472	0.0\\
0.023197908476303188	0.0\\
0.025372110745651856	0.0\\
0.027650919608325122	0.0\\
0.03002640709782567	0.0\\
0.03250602794886426	0.0\\
0.035064153728616584	0.0\\
0.037739587901381225	0.0\\
0.04050627233588411	0.0\\
0.04339296545513019	0.0\\
0.04631485534154671	0.0\\
0.049370246086126626	0.0\\
0.052506104134768944	0.0\\
0.05576582072261431	0.0\\
0.05912657968021526	0.0\\
0.06261242875808509	0.0\\
0.06619469567640685	0.0\\
0.06985128555014214	0.0\\
0.0736020022920034	0.0\\
0.07747276990571292	0.0\\
0.08143666552108483	0.0\\
0.08555657348076778	0.0\\
0.08965026933349979	0.0\\
0.0938667719793066	0.0\\
0.09825220225265535	0.0\\
0.10273224426630076	0.0\\
0.10735322574215084	0.0\\
0.112069260754049	0.0\\
0.11689628210681491	0.0\\
0.1218415428471844	0.0\\
0.12687191809557297	0.0\\
0.1319619208160973	0.0\\
0.13718738019241578	0.0\\
0.14259661331750534	0.0\\
0.14809029506440063	0.0\\
0.15357369830174794	0.0\\
0.15919819638502208	0.0\\
0.16499087615582547	0.0\\
0.17085798999819946	0.0\\
0.1767488836171578	0.0\\
0.18282417565258646	0.0\\
0.18901001188117672	0.0\\
0.19541955137153394	0.0\\
0.20194211148581165	0.0\\
0.2083979414026551	0.0\\
0.21505060334870085	0.0\\
0.22184856138038173	0.0\\
0.22872836417933162	0.0\\
0.23574011358716662	0.0\\
0.2429311919259305	0.0\\
0.2501747585817372	0.0\\
0.25754265036543367	0.0\\
0.264908342817759	0.0\\
0.2724992266078814	0.0\\
0.2801550350754869	0.0\\
0.2879703443199304	0.0\\
0.29595569844966996	0.0\\
0.3041777677368186	0.0\\
0.3122504838515201	0.0\\
0.32045351605106465	0.0\\
0.32877567798681406	0.0\\
0.33732345559612786	0.0\\
0.3457968785732404	0.0\\
0.35455004879480934	0.0\\
0.36322843010821737	0.0\\
0.37224776347106225	0.0\\
0.3814675422578342	0.0\\
0.39069394939808333	0.0\\
0.40021984944961075	0.0\\
0.40970638086144073	0.0\\
0.4193138042850624	0.0\\
0.4290893215883308	0.0\\
0.4388805223818275	0.0\\
0.4489093157118843	0.0\\
0.4591350017105895	0.0\\
0.46933643762109933	0.0\\
0.47978785615739383	0.0\\
0.49015856505001654	0.0\\
0.5008453841776759	0.0\\
0.5117123055272812	0.0\\
0.5226460162980606	0.0\\
0.533572747316372	0.0\\
0.5447745348549675	0.0\\
0.5562298797559428	0.0\\
0.567600366819037	0.0\\
0.578894288599904	0.0\\
0.5903104906593495	0.0\\
0.6019807485559185	0.0\\
0.6136659013944394	0.0\\
0.6254808586354892	0.0\\
0.6378084600455878	0.0\\
0.650221596751215	0.0\\
0.6623845470068528	0.0\\
0.6750947014695341	0.0\\
0.6881234944141856	0.0\\
0.7008394740602484	0.0\\
0.7137452297605933	0.0\\
0.7269750316735368	0.0\\
0.7402994320441199	0.0\\
0.7534357647498278	0.0\\
0.7671170049846847	0.0\\
0.7807939104989849	0.0\\
0.7945569619485264	0.0\\
0.8082734465770611	0.0\\
0.8222036351021433	0.0\\
0.8360767896229833	0.0\\
0.8500982100225709	0.0\\
0.8646731983422744	0.0\\
0.8793607873553657	0.0\\
0.894065382079672	0.0\\
0.9089011139339038	0.0\\
0.9239919736344921	0.0\\
0.9394340412729152	0.0\\
0.9547423489749303	0.0\\
0.970675174294443	0.0\\
0.9863792848718844	0.0\\
1.002208661846851	0.0\\
1.0179215544763207	0.0\\
1.0337609107096482	0.0\\
1.0503014712301177	0.0\\
1.066804783640285	0.0\\
1.0831296322942476	0.0\\
1.0994408533815623	0.0\\
1.116418346440463	0.0\\
1.1336682352845933	0.0\\
1.150731246592069	0.0\\
1.1680961354711568	0.0\\
1.185820430454851	0.0\\
1.2034309729936048	0.0\\
1.2210819921068579	0.0\\
1.2391921685259857	0.0\\
1.2578394128071744	0.0\\
1.2758663224890419	0.0\\
1.2939250533341191	0.0\\
1.3123645253841323	0.0\\
1.3313585397842993	0.0\\
1.3501558231949402	0.0\\
1.3689269948012535	0.0\\
1.3884661875180258	0.0\\
1.4079955186177986	0.0\\
1.4277413080765053	0.0\\
1.4474753085187868	0.0\\
1.467471474524118	0.0\\
1.4874730038714024	0.0\\
1.5076485746094725	0.0\\
1.528779072707001	0.0\\
1.549856729170581	0.0\\
1.5705391890214968	0.0\\
1.591502974875028	0.0\\
1.6124327343357	0.0\\
1.6340860465704603	0.0\\
1.655632584097523	0.0\\
1.6772651820367055	0.0\\
1.6994980512063207	0.0\\
1.721597950057515	0.0\\
1.7440842836185761	0.0\\
1.7665148624763156	0.0\\
1.7894019268757413	0.0\\
1.8118513142513648	0.0\\
1.8350799651972478	0.0\\
1.8589544657105512	0.0\\
1.8824641715463515	0.0\\
1.9063286050768564	0.0\\
1.9303889869756765	0.0\\
1.954675897933921	0.0\\
1.9792675008541973	0.0\\
2.0035730438398724	0.0\\
2.028489396329875	0.0\\
2.0527088363919512	0.0\\
2.0778342385147397	0.0\\
2.1026566595076703	0.0\\
2.128062810070972	0.0\\
2.153823736621862	0.0\\
2.180467341008873	0.0\\
2.2064974833486524	0.0\\
2.232410286985835	0.0\\
2.258124290236183	0.0\\
2.284198358897303	0.0\\
2.3109907545635844	0.0\\
2.338507592131256	0.0\\
2.365858627797544	0.0\\
2.3928349543589578	0.0\\
2.420181218100314	0.0\\
2.4474885549694756	0.0\\
2.4755345553349413	0.0\\
2.5035521109052974	0.0\\
2.5318582520347146	0.0\\
2.5601654147156543	0.0\\
2.5893803207167227	0.0\\
2.618052895252129	0.0\\
2.6469831691506576	0.0\\
2.6762887530321082	0.0\\
2.706492091133014	0.0\\
2.7366919356807857	0.0\\
2.766406065169848	0.0\\
2.795586340488235	0.0\\
2.82634455478047	0.0\\
2.857819561913467	0.0\\
2.888649095672255	0.0\\
2.9195647508814746	0.0\\
2.9499278887128817	0.0\\
2.9807127613820956	0.0\\
3.0126969188116073	0.0\\
3.043847060235108	0.0\\
3.076334856582169	0.0\\
3.1086015272875143	0.0\\
3.140964801898045	0.0\\
3.174188884488247	0.0\\
3.207092578614164	0.0\\
3.239991883613249	0.0\\
3.272907436279824	0.0\\
3.3064913831472174	0.0\\
3.340495156793697	0.0\\
3.374570177552002	0.0\\
3.4085233373546657	0.0\\
3.4431165891888	0.0\\
3.4779810908677407	0.0\\
3.51357856529118	0.0\\
3.5493632570290323	0.0\\
3.584600538576524	0.0\\
3.6191347389445756	0.0\\
3.655447285266705	0.0\\
3.6916721187231216	0.0\\
3.727886000248427	0.0\\
3.7645089513334593	0.0\\
3.8019144243484035	0.0\\
3.8384332556175487	0.0\\
3.8760586370089953	0.0\\
3.913951103120721	0.0\\
3.9508541174182126	0.0\\
3.990068504343009	0.0\\
4.029200010708983	0.0\\
4.068093121762725	0.0\\
4.1071219657086875	0.0\\
4.146396414792356	0.0\\
4.185816498640818	0.0\\
4.224844990909782	0.0\\
4.26420603458326	0.0\\
4.305376002828089	0.0\\
4.34658025371532	0.0\\
4.38735130541415	0.0\\
4.428594226092558	0.0\\
4.469562014000886	0.0\\
4.511015746058332	0.0\\
4.552797086705496	0.0\\
4.595031459793169	0.0\\
4.638699308354287	0.0\\
4.682207241331252	0.0\\
4.7252173116443394	0.0\\
4.768618055967824	0.0\\
4.812010584227675	0.0\\
4.855940569181	0.0\\
4.899642374160813	0.0\\
4.9433626607637855	0.0\\
4.988109023744494	0.0\\
5.033526709121988	0.0\\
5.078648137242995	0.0\\
5.122987590154207	0.0\\
5.168844677132833	0.0\\
5.214484660301688	0.0\\
5.259310474278417	0.0\\
5.305777826910848	0.0\\
5.351406434373011	0.0\\
5.398094081321537	0.0\\
5.446888200321448	0.0\\
5.494714444093429	0.0\\
5.541807048552167	0.0\\
5.589227685908444	0.0\\
5.638198553988488	0.0\\
5.685090463779236	0.0\\
5.733269165403026	0.0\\
5.782181510572503	0.0\\
5.83242326565826	0.0\\
5.88152931463666	0.0\\
5.931528981494198	0.0\\
5.98198270843927	0.0\\
6.033125094179418	0.0\\
6.084375535972967	0.0\\
6.135973945945917	0.0\\
6.187907328495919	0.0\\
6.240385864152662	0.0\\
6.291258754428256	0.0\\
6.343645944929829	0.0\\
6.395944061254735	0.0\\
6.45010592291494	0.0\\
6.5034019806422005	0.0\\
6.557222553529764	0.0\\
6.611914519487845	0.0\\
6.666262792946119	0.0\\
6.721130022513055	0.0\\
6.776611308278962	0.0\\
6.830253383581329	0.0\\
6.886334845837908	0.0\\
6.941659394737563	0.0\\
6.997352302356317	0.0\\
7.054420058545775	0.0\\
7.110930763843873	0.0\\
7.167900896664538	0.0\\
7.225911381601177	0.0\\
7.282807108769738	0.0\\
7.340371040476326	0.0\\
7.3988915374885345	0.0\\
7.458574772874121	0.0\\
7.516552151345696	0.0\\
7.5775866281113515	0.0\\
7.637147897643995	0.0\\
7.697324697913386	0.0\\
7.757729406844822	0.0\\
7.817590447566081	0.0\\
7.879326117406196	0.0\\
7.9415318697231	0.0\\
8.003477574378273	0.0\\
8.065945557956294	0.0\\
8.12886380803361	0.0\\
8.190877255917385	0.0\\
8.25438450473002	0.0\\
8.316892853931492	0.0\\
8.379196417797669	0.0\\
8.44277422293986	0.0\\
8.508282170370755	0.0\\
8.572413265126183	0.0\\
8.636549661237726	0.0\\
8.702302446472519	0.0\\
8.7686368668423	0.0\\
8.833503540477455	0.0\\
8.899728313389012	0.0\\
8.96526583631698	0.0\\
9.032087210166736	0.0\\
9.098267291220708	0.0\\
9.165552728118161	0.0\\
9.233109586221008	0.0\\
9.301374261044419	0.0\\
9.370927371226973	0.0\\
9.440221785138014	0.0\\
9.510251236066548	0.0\\
9.578926399070099	0.0\\
9.648683368676586	0.0\\
9.719694069154592	0.0\\
9.79143055970954	0.0\\
9.861993801919944	0.0\\
9.932891380397528	0.0\\
10.004615160870873	0.0\\
10.07632339997635	0.0\\
10.149587788360982	0.0\\
10.2229521415215	0.0\\
10.295386772412222	0.0\\
10.368128892335267	0.0\\
10.44265781948009	0.0\\
10.518193191318808	0.0\\
10.5933837124742	0.0\\
10.668912206559273	0.0\\
10.745456035585427	0.0\\
10.821596006859231	0.0\\
10.896513279475869	0.0\\
10.97461621039525	0.0\\
11.050262979984193	0.0\\
11.126720276839343	0.0\\
11.205678217165648	0.0\\
11.283068305392277	0.0\\
11.361574299345556	0.0\\
11.442234489651238	0.0\\
11.520725886475706	0.0\\
11.599720478431518	0.0\\
11.679105694164441	0.0\\
11.760861412016528	0.0\\
11.84140976521903	0.0\\
11.922743637450814	0.0\\
12.003764517153495	0.0\\
12.08532817832063	0.0\\
12.16758216038535	0.0\\
12.248972239747367	0.0\\
12.332158014002438	0.0\\
12.41614155330591	0.0\\
12.497487128281943	0.0\\
12.580769125858549	0.0\\
12.664465528620653	0.0\\
12.750279420338941	0.0\\
12.837017108906164	0.0\\
12.921917420043762	0.0\\
13.010509666581672	0.0\\
13.097198826708176	0.0\\
13.183980144969741	0.0\\
13.26992679861213	0.0\\
13.35848221707279	0.0\\
13.445104847913008	0.0\\
13.534576381547087	0.0\\
13.622875897105779	0.0\\
13.715271886287411	0.0\\
13.806040699621455	0.0\\
13.895428664804395	0.0\\
13.987346601643246	0.0\\
14.080007563742996	0.0\\
14.1716964042215	0.0\\
14.263562183911276	0.0\\
14.355213777099816	0.0\\
14.446250666513638	0.0\\
14.538528550482052	0.0\\
14.633387866849468	0.0\\
14.72907157606587	0.0\\
14.822982400900749	0.0\\
14.91752733255468	0.0\\
15.011563044137553	0.0\\
15.108085488375032	0.0\\
15.206509347405934	0.0\\
15.304295382315455	0.0\\
15.403982517605268	0.0\\
15.501738701494357	0.0\\
15.599671344317596	0.0\\
15.697390427017886	0.0\\
15.795559180758193	0.0\\
15.89581865303121	0.0\\
15.996173839731139	0.0\\
16.097833200549516	0.0\\
16.199554828122068	0.0\\
16.301416610335714	0.0\\
16.404420929832455	0.0\\
16.50642142625287	0.0\\
16.607869795832386	0.0\\
16.710761618277942	0.0\\
16.81465979808744	0.0\\
16.917802071845095	0.0\\
17.01970025046225	0.0\\
17.12483288476978	0.0\\
17.231076313902896	0.0\\
17.33744422376796	0.0\\
17.44223740361111	0.0\\
17.55095777873052	0.0\\
17.65865140689337	0.0\\
17.765797658012644	0.0\\
17.87344296809473	0.0\\
17.983495493179213	0.0\\
18.09140735527133	0.0\\
18.199491081482613	0.0\\
18.310376261622665	0.0\\
18.422542616989787	0.0\\
18.53415740116597	0.0\\
18.64470180930506	0.0\\
18.757477656659844	0.0\\
18.86887976211652	0.0\\
18.98301450239927	0.0\\
19.096811037831856	0.0\\
19.2117424472939	0.0\\
19.325147148388474	0.0\\
19.438470047950076	0.0\\
19.552818758923863	0.0\\
19.668984237786454	0.0\\
19.787059157809132	0.0\\
19.90414757336596	0.0\\
20.020218310708742	0.0\\
20.13745161763952	0.0\\
20.255922514365892	0.0\\
20.374377224617717	0.0\\
20.4945239956107	0.0\\
20.61398168239743	0.0\\
20.733946965927494	0.0\\
20.855390349575742	0.0\\
20.976634810018417	0.0\\
21.09851007263704	0.0\\
21.218217144578766	0.0\\
21.340471044379377	0.0\\
21.46339058897565	0.0\\
21.585993691554975	0.0\\
21.70980792673773	0.0\\
21.834432793880026	0.0\\
21.956203774721352	0.0\\
22.081567057815953	0.0\\
22.208772633267763	0.0\\
22.335186984345825	0.0\\
22.461326543763384	0.0\\
22.588230222424933	0.0\\
22.715345111452983	0.0\\
22.843938098342257	0.0\\
22.969732289268705	0.0\\
23.099610218432673	0.0\\
23.226954625823772	0.0\\
23.355382933009487	0.0\\
23.484117532875878	0.0\\
23.61311589418532	0.0\\
23.742262325909238	0.0\\
23.871396626987107	0.0\\
24.003277614400886	0.0\\
24.13589524582158	0.0\\
24.26894633419417	0.0\\
24.402560013414252	0.0\\
24.533653589547036	0.0\\
24.668073888129854	0.0\\
24.802433017106623	0.0\\
24.93655909342982	0.0\\
25.07143808091306	0.0\\
25.207561694960198	0.0\\
25.341290039366285	0.0\\
25.474552806626917	0.0\\
25.50144311925164	0.0\\
25.5759340011818	0.0\\
25.58102499911392	0.0\\
25.58470813422234	0.0\\
25.588215911238073	0.0\\
25.600785241672277	0.0\\
25.635792796431325	0.0\\
25.71640041756517	0.0\\
25.8523493658925	0.0\\
25.97882639610753	0.0\\
26.10538678614398	0.0\\
26.231165610165377	0.0\\
26.35674703707931	0.0\\
26.486177669683556	0.0\\
26.617776205297957	0.0\\
26.74670315120111	0.0\\
26.876704264294062	0.0\\
27.01123246113204	0.0\\
27.143253171856088	0.0\\
27.273772762045027	0.0\\
27.40522526452999	0.0\\
27.537121391030745	0.0\\
27.66916022545795	0.0\\
27.803313173578225	0.0\\
27.938501887496017	0.0\\
28.072389035300134	0.0\\
28.20995128294375	0.0\\
28.346506859872363	0.0\\
28.483086682623195	0.0\\
28.619344455567038	0.0\\
28.755286323728214	0.0\\
28.894927557222047	0.0\\
29.03420811154306	0.0\\
29.173563857085064	0.0\\
29.314326407129343	0.0\\
29.455067480416908	0.0\\
29.594157188267722	0.0\\
29.736681433860582	0.0\\
29.879071521032678	0.0\\
30.021121069713743	0.0\\
30.1660798468097	0.0\\
30.310687985626082	0.0\\
30.45580142937633	0.0\\
30.6005146210506	0.0\\
30.745731216708776	0.0\\
30.89323379886239	0.0\\
31.041022821133346	0.0\\
31.188115160515387	0.0\\
31.335405333171046	0.0\\
31.48435304764147	0.0\\
31.634813411188908	0.0\\
31.787124024571177	0.0\\
31.936229510087855	0.0\\
32.086897532438456	0.0\\
32.236529347962374	0.0\\
32.38735933572569	0.0\\
32.54006710051492	0.0\\
32.69099178757553	0.0\\
32.84515114593202	0.0\\
32.996385464852594	0.0\\
33.14937141728001	0.0\\
33.305665998386004	0.0\\
33.460418800026616	0.0\\
33.616109625880654	0.0\\
33.77327312102862	0.0\\
33.9326920972627	0.0\\
34.09105052586206	0.0\\
34.249402416493055	0.0\\
34.40936121493536	0.0\\
34.56862214115888	0.0\\
34.727531363420326	0.0\\
34.8871600740184	0.0\\
35.04529964637692	0.0\\
35.20594539286675	0.0\\
35.363788119544054	0.0\\
35.52268191011321	0.0\\
35.68471983935868	0.0\\
35.84778784222708	0.0\\
36.01092969953069	0.0\\
36.17327001899076	0.0\\
36.336427651383346	0.0\\
36.500190310651604	0.0\\
36.66606116492454	0.0\\
36.83184460304567	0.0\\
36.99602926883226	0.0\\
37.16054594987418	0.0\\
37.32545808149992	0.0\\
37.493350288646795	0.0\\
37.662611807846105	0.0\\
37.831801448665615	0.0\\
37.99869229765014	0.0\\
38.1674980088668	0.0\\
38.33624863401006	0.0\\
38.506278652509266	0.0\\
38.674990840576555	0.0\\
38.846113613014666	0.0\\
39.01907155568843	0.0\\
39.189673460094625	0.0\\
39.35895544734126	0.0\\
39.53389933885826	0.0\\
39.70812065214345	0.0\\
39.8799759194046	0.0\\
40.05357595865209	0.0\\
40.22826105019891	0.0\\
40.405670025835704	0.0\\
40.581159826414265	0.0\\
40.758661193854635	0.0\\
40.93536878201198	0.0\\
41.112390148125826	0.0\\
41.2905202294626	0.0\\
41.465773395976214	0.0\\
41.64457669406332	0.0\\
41.82233046236415	0.0\\
42.00116108700712	0.0\\
42.18038549494476	0.0\\
42.36069264988308	0.0\\
42.5403197842906	0.0\\
42.72171083303407	0.0\\
42.90231175882896	0.0\\
43.0816339508179	0.0\\
43.26124009525664	0.0\\
43.44376978470652	0.0\\
43.62703136154356	0.0\\
43.811498568242314	0.0\\
43.994653970673255	0.0\\
44.17955294494796	0.0\\
44.36199645788939	0.0\\
44.546315067333296	0.0\\
44.730896770849384	0.0\\
44.917564466011015	0.0\\
45.10291894910149	0.0\\
45.28903472343241	0.0\\
45.4737724641365	0.0\\
45.66185871924168	0.0\\
45.847781026448246	0.0\\
46.03584546535953	0.0\\
46.22439581401848	0.0\\
46.412894376700976	0.0\\
46.605209657630425	0.0\\
46.79569826226867	0.0\\
46.986754218288695	0.0\\
47.17854451210614	0.0\\
47.36788659495666	0.0\\
47.55795997499989	0.0\\
47.75023926134655	0.0\\
47.94367037556847	0.0\\
48.13733489784886	0.0\\
48.33198682489876	0.0\\
48.527111606732575	0.0\\
48.72214685244572	0.0\\
48.91831256878446	0.0\\
49.11391546665595	0.0\\
49.31130002698025	0.0\\
49.50612043713984	0.0\\
49.70259265251657	0.0\\
49.901122990734336	0.0\\
50.099709619255506	0.0\\
50.2985717393795	0.0\\
50.497123798684314	0.0\\
50.696934663181494	0.0\\
50.89716583792078	0.0\\
51.099731397413024	0.0\\
51.29870439195726	0.0\\
51.49905541915088	0.0\\
51.70194442710381	0.0\\
51.904815092872994	0.0\\
52.10896136733682	0.0\\
52.31301594265632	0.0\\
52.51628248614311	0.0\\
52.7194716176805	0.0\\
52.926935935005204	0.0\\
53.13251088882413	0.0\\
53.33958171986313	0.0\\
53.54342987388597	0.0\\
53.74994692029041	0.0\\
53.95601821807068	0.0\\
54.16404650522179	0.0\\
54.37239843615944	0.0\\
54.58120460807784	0.0\\
54.79204685545993	0.0\\
54.999618844521464	0.0\\
55.21297590032157	0.0\\
55.42532423896495	0.0\\
55.63798122139113	0.0\\
55.84929577470656	0.0\\
56.06112933665578	0.0\\
56.273339332526035	0.0\\
56.487981657774	0.0\\
56.70163161171321	0.0\\
56.91533004593228	0.0\\
57.128542021537044	0.0\\
57.341815304042996	0.0\\
57.556524306424734	0.0\\
57.77121349665933	0.0\\
57.99045226278008	0.0\\
58.21163159877143	0.0\\
58.42755485439312	0.0\\
58.64762055049445	0.0\\
58.86549786092007	0.0\\
59.08110534562667	0.0\\
59.30150836647064	0.0\\
59.523369545733104	0.0\\
59.74545669991576	0.0\\
59.96819458863561	0.0\\
60.192610901318446	0.0\\
60.41685303697733	0.0\\
60.63943340808673	0.0\\
60.86243725858105	0.0\\
61.087387386501504	0.0\\
61.312967674501934	0.0\\
61.539922453545245	0.0\\
61.766220404137556	0.0\\
61.99252341885473	0.0\\
62.22290458368424	0.0\\
62.45401905554074	0.0\\
62.681934693190925	0.0\\
62.911036206319935	0.0\\
63.14325260562316	0.0\\
63.37427787627517	0.0\\
63.60547590884926	0.0\\
63.840017219249205	0.0\\
64.07293021489374	0.0\\
64.3084604827086	0.0\\
64.5437051757381	0.0\\
64.77872206928058	0.0\\
65.01308910472795	0.0\\
65.24911349494474	0.0\\
65.48765804826411	0.0\\
65.72448269887195	0.0\\
65.96301079794586	0.0\\
66.20226545665247	0.0\\
66.44108856569267	0.0\\
66.68211892097898	0.0\\
66.92366663289425	0.0\\
67.16771935204801	0.0\\
67.41223707471289	0.0\\
67.65753102817487	0.0\\
67.90011693249966	0.0\\
68.14481889550859	0.0\\
68.38914646634316	0.0\\
68.63585299266461	0.0\\
68.88504081079034	0.0\\
69.13292178160535	0.0\\
69.3818129543071	0.0\\
69.63293396520476	0.0\\
69.88286336730076	0.0\\
70.13554072594164	0.0\\
70.38774244009971	0.0\\
70.6391676300718	0.0\\
70.8946718668015	0.0\\
71.14833146108984	0.0\\
71.4025074522346	0.0\\
71.66156242815126	0.0\\
71.92027918509496	0.0\\
72.17889679626529	0.0\\
72.4378954145077	0.0\\
72.69970560710271	0.0\\
72.9613038866527	0.0\\
73.22092141715785	0.0\\
73.4833396613837	0.0\\
73.74600266105335	0.0\\
74.01092424130167	0.0\\
74.27923230983217	0.0\\
74.54697155873473	0.0\\
74.81368154472509	0.0\\
75.08550254995646	0.0\\
75.35337454991506	0.0\\
75.62060297082033	0.0\\
75.8930595288426	0.0\\
76.1621793572684	0.0\\
76.43458035155084	0.0\\
76.70919040487942	0.0\\
76.98186118377441	0.0\\
77.25581109285994	0.0\\
77.53074782922127	0.0\\
77.81278401159003	0.0\\
78.09183058782281	0.0\\
78.37252440765238	0.0\\
78.65413996894222	0.0\\
78.93779488994258	0.0\\
79.22020126675059	0.0\\
79.5043054178764	0.0\\
79.78799282928725	0.0\\
80.07426795518103	0.0\\
80.36206173670419	0.0\\
80.65011154965475	0.0\\
80.94124014043979	0.0\\
81.23331233189455	0.0\\
81.52747377253729	0.0\\
81.82050926692614	0.0\\
82.11174296440501	0.0\\
82.40762115154999	0.0\\
82.70105581419463	0.0\\
82.9965566307761	0.0\\
83.2955249098714	0.0\\
83.59334983049942	0.0\\
83.89281438122714	0.0\\
84.19366490892668	0.0\\
84.49386870537981	0.0\\
84.79818321919399	0.0\\
85.10096005557006	0.0\\
85.40841855323376	0.0\\
85.71631172169683	0.0\\
86.02830181264164	0.0\\
86.3402878478731	0.0\\
86.6527218498947	0.0\\
86.96825567567058	0.0\\
87.28456067908527	0.0\\
87.60139886641238	0.0\\
87.91377033498361	0.0\\
88.2329169731471	0.0\\
88.55451237842581	0.0\\
88.87632982710792	0.0\\
89.19792550891984	0.0\\
89.51859560630265	0.0\\
89.83813724038836	0.0\\
90.16355195474026	0.0\\
90.48984374320287	0.0\\
90.81192832428755	0.0\\
91.13735761592585	0.0\\
91.46327718731001	0.0\\
91.79195914660676	0.0\\
92.12387334395521	0.0\\
92.45366340909627	0.0\\
92.784886328608	0.0\\
93.11881968308526	0.0\\
93.44933352739164	0.0\\
93.78537164416255	0.0\\
94.11961938108595	0.0\\
94.45324270153796	0.0\\
94.78977749407156	0.0\\
95.12728954751313	0.0\\
95.46615723951368	0.0\\
95.80540032110511	0.0\\
96.14328198239659	0.0\\
96.4795485136406	0.0\\
96.8168988241965	0.0\\
97.15864997346614	0.0\\
97.49691124094184	0.0\\
97.83374870893218	0.0\\
98.17336239322904	0.0\\
98.51580285288532	0.0\\
98.85417498138676	0.0\\
99.18977627639384	0.0\\
99.53065866757436	0.0\\
99.87029432574985	0.0\\
100.21207149250372	0.0\\
100.55236039969625	0.0\\
100.89186594403472	0.0\\
101.22905684407482	0.0\\
101.57044475881924	0.0\\
101.90979249921537	0.0\\
102.24748997900616	0.0\\
102.58472642518802	0.0\\
102.92057876652896	0.0\\
103.2539339678928	0.0\\
103.58701757133184	0.0\\
103.92472971670688	0.0\\
104.25963220507478	0.0\\
104.59275772586338	0.0\\
104.93184553834382	0.0\\
105.26631625571227	0.0\\
105.60031900916655	0.0\\
105.93620242240948	0.0\\
106.26689680011313	0.0\\
106.33348729140508	0.0\\
106.37499685919838	0.0\\
106.40860778816568	0.0\\
106.43119180298976	0.0\\
106.44722805732232	0.0\\
106.457473105046	0.0\\
106.46217936883986	0.0\\
106.46496572051919	0.0\\
106.46785653824449	0.0\\
106.48210214130123	0.0\\
106.53998173566913	0.0\\
106.70432341177266	0.0\\
106.99054502225638	0.0\\
107.29125073895685	0.0\\
107.59459612453853	0.0\\
107.89929565864878	0.0\\
108.20487300220603	0.0\\
108.5126435430112	0.0\\
108.82100397517766	0.0\\
109.1321122011673	0.0\\
109.44193877829423	0.0\\
109.7543949369443	0.0\\
110.06688928039253	0.0\\
110.38296748749715	0.0\\
110.70025806796775	0.0\\
111.01722727004375	0.0\\
111.33938486876073	0.0\\
111.66055740176711	0.0\\
111.98114449024666	0.0\\
112.30560099418918	0.0\\
112.63198717749958	0.0\\
112.9612774487307	0.0\\
113.29265657024527	0.0\\
113.62335019234911	0.0\\
113.95462607162068	0.0\\
114.29176220163578	0.0\\
114.6308128558367	0.0\\
114.97120148272779	0.0\\
115.31440897720563	0.0\\
115.65591545111863	0.0\\
116.00064440928003	0.0\\
116.34486354580082	0.0\\
116.69362040064019	0.0\\
117.04285013406039	0.0\\
117.39512533345899	0.0\\
117.74741414421646	0.0\\
118.10303832840356	0.0\\
118.45571948012099	0.0\\
118.81003327709115	0.0\\
119.16681257999718	0.0\\
119.52663762223156	0.0\\
119.88876725107156	0.0\\
120.24995601324466	0.0\\
120.61084602258657	0.0\\
120.97616520751293	0.0\\
121.34334758477473	0.0\\
121.71025331175056	0.0\\
122.07747259012984	0.0\\
122.44578715685458	0.0\\
122.81744023446649	0.0\\
123.19009918236398	0.0\\
123.56123351878759	0.0\\
123.93715313997072	0.0\\
124.31146469402427	0.0\\
124.68526660327976	0.0\\
125.06081596392403	0.0\\
125.4364241959469	0.0\\
125.80802499570223	0.0\\
126.1848497266096	0.0\\
126.5609710338282	0.0\\
126.93305383109873	0.0\\
127.31114129795554	0.0\\
127.68521821979309	0.0\\
128.06046301290115	0.0\\
128.43801165468585	0.0\\
128.81521487015914	0.0\\
129.19219413500986	0.0\\
129.56612845520198	0.0\\
129.94267519490052	0.0\\
130.3181878313651	0.0\\
130.69228806236066	0.0\\
131.0676335246473	0.0\\
131.44069256509738	0.0\\
131.8164990241899	0.0\\
132.1931977854564	0.0\\
132.56788559077893	0.0\\
132.9441588403875	0.0\\
133.32075630072865	0.0\\
133.69358561268064	0.0\\
134.06729434800218	0.0\\
134.44034471502948	0.0\\
134.8140531244187	0.0\\
135.18651705910264	0.0\\
135.55938125316158	0.0\\
135.93264478721085	0.0\\
136.30740026366334	0.0\\
136.6784269209433	0.0\\
137.0521063827307	0.0\\
137.42630805162537	0.0\\
137.79824015832446	0.0\\
138.17197880496752	0.0\\
138.54398262673232	0.0\\
138.9181701073686	0.0\\
139.2918177914372	0.0\\
139.66395608322267	0.0\\
140.03771877141975	0.0\\
140.41191567198234	0.0\\
140.785214435772	0.0\\
141.1569699646381	0.0\\
141.52828555088394	0.0\\
141.9041014462735	0.0\\
142.27843281827558	0.0\\
142.6531859827976	0.0\\
143.02636833273493	0.0\\
143.40115329183038	0.0\\
143.7755577578822	0.0\\
144.14846071828862	0.0\\
144.52420405339825	0.0\\
144.89820769561425	0.0\\
145.27269214017286	0.0\\
145.64715502381193	0.0\\
146.0246576647304	0.0\\
146.3980003741944	0.0\\
146.77188540290956	0.0\\
147.14699849483344	0.0\\
147.52131776226065	0.0\\
147.89602893943328	0.0\\
148.27204034411415	0.0\\
148.64608729848084	0.0\\
149.0208593455847	0.0\\
149.39764195764786	0.0\\
149.77339461409542	0.0\\
150.1534148831098	0.0\\
150.5291076514028	0.0\\
150.90903965895268	0.0\\
151.28543144418177	0.0\\
151.6633602951634	0.0\\
152.04249724748917	0.0\\
152.42107498922724	0.0\\
152.80096884172895	0.0\\
153.18008210542433	0.0\\
153.56021362675494	0.0\\
153.93998936888823	0.0\\
154.31952056284706	0.0\\
154.70033899148706	0.0\\
155.0808456605577	0.0\\
155.46260683652747	0.0\\
155.8451500717461	0.0\\
156.22658081777672	0.0\\
156.60827055160593	0.0\\
156.9909464565656	0.0\\
157.37447262340498	0.0\\
157.75928833119883	0.0\\
158.14175289248914	0.0\\
158.52848710229284	0.0\\
158.91177799657294	0.0\\
159.2956497528856	0.0\\
159.68037959094522	0.0\\
160.06564096408647	0.0\\
160.45096257460483	0.0\\
160.83715950875825	0.0\\
161.2258713073063	0.0\\
161.6123323162809	0.0\\
162.0020733751664	0.0\\
162.38979962136716	0.0\\
162.78005749517496	0.0\\
163.16926884367706	0.0\\
163.55903424207065	0.0\\
163.94986558386933	0.0\\
164.34027010332778	0.0\\
164.72897674527087	0.0\\
165.1219618404894	0.0\\
165.51648116340715	0.0\\
165.91121110303834	0.0\\
166.305125129374	0.0\\
166.70055814189493	0.0\\
167.09355837361738	0.0\\
167.4867487070524	0.0\\
167.88152655658757	0.0\\
168.27797625652778	0.0\\
168.67417091820505	0.0\\
169.0744241223909	0.0\\
169.4696289626308	0.0\\
169.86942142380093	0.0\\
170.26823373269303	0.0\\
170.66825541214263	0.0\\
171.06882877564112	0.0\\
171.47052101522314	0.0\\
171.87117220207847	0.0\\
172.27408818569603	0.0\\
172.67888262744867	0.0\\
173.08278584620598	0.0\\
173.48711221007846	0.0\\
173.89286364513737	0.0\\
174.30044396299678	0.0\\
174.70785810564865	0.0\\
175.1148217729209	0.0\\
175.52417397745887	0.0\\
175.9353018887096	0.0\\
176.3445277394477	0.0\\
176.75679769119074	0.0\\
177.1675329613106	0.0\\
177.58147861087787	0.0\\
177.99464686026658	0.0\\
178.40846172066875	0.0\\
178.8221588369641	0.0\\
179.23788859262316	0.0\\
179.65594628198625	0.0\\
180.07393730685396	0.0\\
180.49154769314794	0.0\\
180.91067637722034	0.0\\
181.32733049951304	0.0\\
181.74511868140502	0.0\\
182.16838055329725	0.0\\
182.5935731219521	0.0\\
183.01849763465827	0.0\\
183.44789807780944	0.0\\
183.87296697220467	0.0\\
184.3005805343215	0.0\\
184.7275357140556	0.0\\
185.15540561964053	0.0\\
185.58828973829708	0.0\\
186.0209685893201	0.0\\
186.45209324401605	0.0\\
186.88635114466473	0.0\\
187.3202530286718	0.0\\
187.75627482837768	0.0\\
188.19290135663692	0.0\\
188.63474465174716	0.0\\
189.07311754437853	0.0\\
189.51196080445675	0.0\\
189.95324255860208	0.0\\
190.39726596022723	0.0\\
190.84057804609728	0.0\\
191.28574213849475	0.0\\
191.73164607656958	0.0\\
192.18211492962195	0.0\\
192.632212918464	0.0\\
193.08574784107805	0.0\\
193.53718076485956	0.0\\
193.9889309324463	0.0\\
194.44192149972122	0.0\\
194.89579355743757	0.0\\
195.34994743186104	0.0\\
195.8058879641373	0.0\\
196.26245662347003	0.0\\
196.72016737285458	0.0\\
197.18359847535754	0.0\\
197.64589060843696	0.0\\
198.11087782386443	0.0\\
198.57502374365885	0.0\\
199.04300438502406	0.0\\
199.51338163613372	0.0\\
199.98393648855864	0.0\\
200.45516506696913	0.0\\
200.92864741549454	0.0\\
201.40444982665974	0.0\\
201.88275447800072	0.0\\
202.35951076264297	0.0\\
202.8411124640724	0.0\\
203.32141288234197	0.0\\
203.80789076149057	0.0\\
204.29622653061597	0.0\\
204.78464735065688	0.0\\
205.2720699180345	0.0\\
205.76371166647334	0.0\\
206.25812404621178	0.0\\
206.7538852744985	0.0\\
207.25226803960481	0.0\\
207.75369831762367	0.0\\
208.2576130451625	0.0\\
208.76384232452614	0.0\\
209.26687195306613	0.0\\
209.7753918597067	0.0\\
210.2846893697261	0.0\\
210.7963991052548	0.0\\
211.31379007685774	0.0\\
211.83462216092812	0.0\\
212.35583345573502	0.0\\
212.88092061723842	0.0\\
213.4053181133067	0.0\\
213.93048265793448	0.0\\
214.46080198276206	0.0\\
214.99280682831574	0.0\\
215.5294770958094	0.0\\
216.07284281333642	0.0\\
216.61517032692353	0.0\\
217.1649754620828	0.0\\
217.71148410367374	0.0\\
218.26737841805794	0.0\\
218.82240503157732	0.0\\
219.38168577081672	0.0\\
219.94757377678263	0.0\\
220.5157757014327	0.0\\
221.08753515993334	0.0\\
221.66450025786634	0.0\\
222.24385220045775	0.0\\
222.82885466274382	0.0\\
223.4112244925018	0.0\\
224.0015354336785	0.0\\
224.60005104881571	0.0\\
225.20097165321243	0.0\\
225.80679778963525	0.0\\
226.4142763690901	0.0\\
227.02575673380335	0.0\\
227.63461372304909	0.0\\
228.24974742285855	0.0\\
228.86673693726647	0.0\\
229.48436427341443	0.0\\
230.0989457634348	0.0\\
230.722114636328	0.0\\
231.34244873087368	0.0\\
231.97325724844399	0.0\\
232.59474255779588	0.0\\
233.22159326059818	0.0\\
233.8431015560668	0.0\\
234.46367634501973	0.0\\
235.08641879225445	0.0\\
235.70278557911195	0.0\\
236.31864509320485	0.0\\
236.93937737772637	0.0\\
237.55407410514982	0.0\\
238.16547554548157	0.0\\
238.77939087141692	0.0\\
239.3813168273977	0.0\\
239.98100147277364	0.0\\
240.57543920085465	0.0\\
241.16836030089274	0.0\\
241.7571167129284	0.0\\
242.34201365077286	0.0\\
242.93055448890203	0.0\\
243.51170262633934	0.0\\
244.09257059533718	0.0\\
244.67179294361154	0.0\\
245.24482151044447	0.0\\
245.8173160071512	0.0\\
246.38351716417617	0.0\\
246.95362849999805	0.0\\
247.5202096844256	0.0\\
248.08325741316798	0.0\\
248.64446305128456	0.0\\
249.20075824534877	0.0\\
249.75469846513056	0.0\\
250.30945619721592	0.0\\
250.8614556493837	0.0\\
251.408510583341	0.0\\
251.95355357370266	0.0\\
252.4996012707087	0.0\\
253.04126098987143	0.0\\
253.1488138397171	0.0\\
253.16819209411136	0.0\\
253.1837823680185	0.0\\
253.19662431846268	0.0\\
253.2071936664194	0.0\\
253.21275590301065	0.0\\
253.22117114680987	0.0\\
253.26352439711104	0.0\\
253.41432990884306	0.0\\
253.82930310711612	0.0\\
254.30306641551323	0.0\\
254.78159567442054	0.0\\
255.25932726785965	0.0\\
255.7437876764298	0.0\\
256.23033824242543	0.0\\
256.72149575104197	0.0\\
257.2130748498888	0.0\\
257.70796578879254	0.0\\
258.206669200321	0.0\\
258.70610515962187	0.0\\
259.2079502656683	0.0\\
259.71188112252	0.0\\
260.2189424756507	0.0\\
260.7262302511605	0.0\\
261.24022815529725	0.0\\
261.75685841556344	0.0\\
262.27381092857786	0.0\\
262.79851097873814	0.0\\
263.3270605395941	0.0\\
263.85902142499447	0.0\\
264.3957196258134	0.0\\
264.9350026981771	0.0\\
265.4771865976642	0.0\\
266.02438826793184	0.0\\
266.57502465504126	0.0\\
267.12985589644336	0.0\\
267.69508687819234	0.0\\
268.2574473439623	0.0\\
268.82260791852957	0.0\\
269.39444721478594	0.0\\
269.97137562145883	0.0\\
270.55380970007513	0.0\\
271.14197731531294	0.0\\
271.73437146929496	0.0\\
272.33148825752005	0.0\\
272.9364726389575	0.0\\
273.5439946102076	0.0\\
274.1524582923545	0.0\\
274.7654429342565	0.0\\
275.3786325850501	0.0\\
275.99829889928617	0.0\\
276.625244334335	0.0\\
277.25199692051126	0.0\\
277.8805156104013	0.0\\
278.51241528731794	0.0\\
279.1472993194542	0.0\\
279.7798163586458	0.0\\
280.415774521491	0.0\\
281.0491750679978	0.0\\
281.6859483568941	0.0\\
282.32015512620876	0.0\\
282.9553797230003	0.0\\
283.58792414238735	0.0\\
284.2169522637232	0.0\\
284.84572396143164	0.0\\
285.47678441782114	0.0\\
286.10864649330836	0.0\\
286.7287745354	0.0\\
287.34611027100766	0.0\\
287.9675615727342	0.0\\
288.5858120101028	0.0\\
289.2040505432649	0.0\\
289.81305758687665	0.0\\
290.4204868585308	0.0\\
291.03235102704366	0.0\\
291.6389287296397	0.0\\
292.24256191587233	0.0\\
292.84553447424435	0.0\\
293.4438226071644	0.0\\
294.0409792947876	0.0\\
294.63063723150856	0.0\\
295.224486883787	0.0\\
295.81621351620277	0.0\\
296.40631441129733	0.0\\
296.99593820771656	0.0\\
297.5837872894514	0.0\\
298.1710572547879	0.0\\
298.75194642054066	0.0\\
299.3365399263279	0.0\\
299.92021707211177	0.0\\
300.5048038985856	0.0\\
301.07972254917684	0.0\\
301.65871501792253	0.0\\
302.23544339879004	0.0\\
302.8098166673582	0.0\\
303.382790903624	0.0\\
303.95411688302784	0.0\\
304.52572928756194	0.0\\
305.09702326798686	0.0\\
305.66909170428767	0.0\\
306.2389054217898	0.0\\
306.8075228050035	0.0\\
307.37625354138174	0.0\\
307.94253431645916	0.0\\
308.5093283037037	0.0\\
309.0741525852028	0.0\\
309.63790685611514	0.0\\
310.20182157857266	0.0\\
310.7628361601812	0.0\\
311.3282164355909	0.0\\
311.89268611617024	0.0\\
312.4584080165224	0.0\\
313.02159660049847	0.0\\
313.5840055190747	0.0\\
314.14555836603915	0.0\\
314.70744289948163	0.0\\
315.268337889587	0.0\\
315.8303704538257	0.0\\
316.39286263622955	0.0\\
316.9544987760597	0.0\\
317.51667588976545	0.0\\
318.0790129222488	0.0\\
318.6366322619465	0.0\\
319.19814757516315	0.0\\
319.75676359471856	0.0\\
320.3187177488146	0.0\\
320.8782448269069	0.0\\
321.43751154778784	0.0\\
321.99768440814876	0.0\\
322.5600371677781	0.0\\
323.11959052824477	0.0\\
323.67937097972344	0.0\\
324.2414708866254	0.0\\
324.8019271123844	0.0\\
325.36119738589264	0.0\\
325.9242540504797	0.0\\
326.4835412969944	0.0\\
327.0433627497323	0.0\\
327.6030477703922	0.0\\
328.1635910293122	0.0\\
328.72721834449067	0.0\\
329.28913308860956	0.0\\
329.84898169301687	0.0\\
330.41024941985984	0.0\\
330.9701687068524	0.0\\
331.5325210682887	0.0\\
332.09615480258867	0.0\\
332.6582728849294	0.0\\
333.2212641275107	0.0\\
333.78453649946596	0.0\\
334.34704722103925	0.0\\
334.9085363225354	0.0\\
335.47219158948656	0.0\\
336.03770868904985	0.0\\
336.60021491247426	0.0\\
337.164763535622	0.0\\
337.7300631146451	0.0\\
338.29569272794674	0.0\\
338.8620957725997	0.0\\
339.4283215708232	0.0\\
339.99415456232873	0.0\\
340.56464247726854	0.0\\
341.1345764539367	0.0\\
341.70271740632006	0.0\\
342.27245215221524	0.0\\
342.8434610976533	0.0\\
343.4144649347172	0.0\\
343.984884458447	0.0\\
344.55562013709914	0.0\\
345.1274307304152	0.0\\
345.6991236865042	0.0\\
346.2724608976106	0.0\\
346.845782037636	0.0\\
347.4175902060348	0.0\\
347.98929436482194	0.0\\
348.56420147749884	0.0\\
349.1410262205544	0.0\\
349.71588047656485	0.0\\
350.29209849271047	0.0\\
350.86868202225514	0.0\\
351.4510291101999	0.0\\
352.0306324127814	0.0\\
352.6092432498283	0.0\\
353.18876518286606	0.0\\
353.7694192783765	0.0\\
354.34843441171336	0.0\\
354.927716852344	0.0\\
355.5088980570638	0.0\\
356.09015458630836	0.0\\
356.6750178675279	0.0\\
357.2592942703857	0.0\\
357.8430227771056	0.0\\
358.42763932122045	0.0\\
359.015072217451	0.0\\
359.60104357058685	0.0\\
360.19078598942485	0.0\\
360.778582778148	0.0\\
361.3674359646898	0.0\\
361.9532913471419	0.0\\
362.54324641173696	0.0\\
363.13475408750946	0.0\\
363.72670023032936	0.0\\
364.3216988728641	0.0\\
364.91629231369564	0.0\\
365.51445534509253	0.0\\
366.1107290539038	0.0\\
366.7083704523294	0.0\\
367.3083188412687	0.0\\
367.90810715165117	0.0\\
368.5107196791125	0.0\\
369.11310622225324	0.0\\
369.71838879276936	0.0\\
370.3224805552321	0.0\\
370.92691039937665	0.0\\
371.531080400072	0.0\\
372.1351582088249	0.0\\
372.7425785137583	0.0\\
373.35070517362203	0.0\\
373.96050140264254	0.0\\
374.57426164671494	0.0\\
375.18775632483266	0.0\\
375.8025054899716	0.0\\
376.4183941555432	0.0\\
377.036157180591	0.0\\
377.65505813652214	0.0\\
378.2719293378151	0.0\\
378.8909778407759	0.0\\
379.5119717214518	0.0\\
380.1304093985665	0.0\\
380.7539319375877	0.0\\
381.377488569079	0.0\\
382.00412815402626	0.0\\
382.6328450687505	0.0\\
383.2631286425798	0.0\\
383.89165251718316	0.0\\
384.52173464362284	0.0\\
385.1531705630896	0.0\\
385.78936789488205	0.0\\
386.42309610358836	0.0\\
387.05764400489113	0.0\\
387.6954920751797	0.0\\
388.33483486853834	0.0\\
388.9761975281216	0.0\\
389.61933106250365	0.0\\
390.2654861091645	0.0\\
390.9102611975036	0.0\\
391.5589683237554	0.0\\
392.2085621207834	0.0\\
392.8559582459146	0.0\\
393.50855051623853	0.0\\
394.1619436525448	0.0\\
394.81718949105573	0.0\\
395.47582040435145	0.0\\
396.1350086783008	0.0\\
396.7992690747477	0.0\\
397.4598193356777	0.0\\
398.1245377356655	0.0\\
398.7932461547799	0.0\\
399.46339584754935	0.0\\
400.1361397462392	0.0\\
400.80782433846264	0.0\\
401.48331569845334	0.0\\
402.1558870975806	0.0\\
402.83373598120465	0.0\\
403.51858080091154	0.0\\
404.20495686213815	0.0\\
404.89138919151276	0.0\\
405.5782836115194	0.0\\
406.26899787518096	0.0\\
406.96495731692255	0.0\\
407.66223596240025	0.0\\
408.3581158233353	0.0\\
409.05987330460584	0.0\\
409.76189908353115	0.0\\
410.46798508148345	0.0\\
411.1781460426254	0.0\\
411.89252629574776	0.0\\
412.6099219905526	0.0\\
413.3267356835721	0.0\\
414.04289122142313	0.0\\
414.76467386265483	0.0\\
415.4902413711201	0.0\\
416.22310191950976	0.0\\
416.95605722569394	0.0\\
417.69179594913396	0.0\\
418.4317733358945	0.0\\
419.17431922313483	0.0\\
419.9254721628341	0.0\\
420.6719856542569	0.0\\
421.4230492978952	0.0\\
422.18501759372384	0.0\\
422.94576021989985	0.0\\
423.7140720273537	0.0\\
424.4856937255338	0.0\\
425.26187416748394	0.0\\
426.0447565561203	0.0\\
426.83056854233257	0.0\\
427.61945747313587	0.0\\
428.41784437459535	0.0\\
429.21803771724467	0.0\\
430.02397061246324	0.0\\
430.83478213389435	0.0\\
431.65136324029356	0.0\\
432.4790081599091	0.0\\
433.3141423067307	0.0\\
434.1542265250947	0.0\\
435.003161392734	0.0\\
435.85507079556146	0.0\\
436.70826637660014	0.0\\
437.58150845605326	0.0\\
438.457839681004	0.0\\
439.34707410675526	0.0\\
440.24123226094844	0.0\\
441.1523579576651	0.0\\
442.0673464703625	0.0\\
442.9942342836961	0.0\\
443.937399764033	0.0\\
444.8899544765534	0.0\\
445.85594700403635	0.0\\
446.8286295818426	0.0\\
447.80722953063264	0.0\\
448.8017517154209	0.0\\
449.7983304796701	0.0\\
450.805662499493	0.0\\
451.8119995298704	0.0\\
452.81588165598055	0.0\\
453.8135695821211	0.0\\
454.8064448773897	0.0\\
455.7903482522986	0.0\\
456.7671747104671	0.0\\
457.73220747263997	0.0\\
458.68865644649486	0.0\\
459.6333953524967	0.0\\
460.5665689820096	0.0\\
461.49336214642267	0.0\\
462.4101560111558	0.0\\
463.3102512158566	0.0\\
464.20619088989747	0.0\\
465.09274596013813	0.0\\
465.9726160332484	0.0\\
466.8455207893327	0.0\\
467.7101068913622	0.0\\
468.5654894786844	0.0\\
469.4174978092028	0.0\\
470.26317688639165	0.0\\
471.1012961241112	0.0\\
471.93318993555954	0.0\\
472.7575203744044	0.0\\
473.5832537614157	0.0\\
474.3998367198741	0.0\\
475.21332504982206	0.0\\
476.0247288711747	0.0\\
476.8295419991306	0.0\\
477.6288291922816	0.0\\
478.4255304532103	0.0\\
479.22100896978145	0.0\\
480.00851471011936	0.0\\
480.794535008141	0.0\\
481.57720489509757	0.0\\
482.35329570542444	0.0\\
483.1278241708404	0.0\\
483.89939420051314	0.0\\
484.6689365163576	0.0\\
485.4329009855759	0.0\\
486.1954443871997	0.0\\
486.3468643949451	0.0\\
486.7618524024307	0.0\\
486.9094347080062	0.0\\
486.91744904023597	0.0\\
486.92667141784887	0.0\\
486.97291146387215	0.0\\
487.1343625066205	0.0\\
487.6665767834313	0.0\\
488.4081581246535	0.0\\
489.1548350887846	0.0\\
489.90797031891395	0.0\\
490.66254775179027	0.0\\
491.4221365553293	0.0\\
492.18625608793207	0.0\\
492.95469842922785	0.0\\
493.72827052945286	0.0\\
494.5030744208201	0.0\\
495.2841489009794	0.0\\
496.0694717313663	0.0\\
496.8616472229803	0.0\\
497.6584497164645	0.0\\
498.4645107775325	0.0\\
499.2704783140715	0.0\\
500.0893509578748	0.0\\
500.9076236346813	0.0\\
501.7330021505518	0.0\\
502.5668270370386	0.0\\
503.4067823468481	0.0\\
504.2551084803504	0.0\\
505.1106888127799	0.0\\
505.9726115789439	0.0\\
506.84109106123356	0.0\\
507.7188428603879	0.0\\
508.6051431501455	0.0\\
509.5005291010972	0.0\\
510.4030705468955	0.0\\
511.3175083018144	0.0\\
512.2408899995571	0.0\\
513.1742154613398	0.0\\
514.1219390238991	0.0\\
515.0724564359525	0.0\\
516.0355756919005	0.0\\
517.0140687849528	0.0\\
518.0006871431597	0.0\\
518.9950504746023	0.0\\
519.9961965058226	0.0\\
521.012462048478	0.0\\
522.0392120273541	0.0\\
523.0694223761463	0.0\\
524.1008724108824	0.0\\
525.1335444850342	0.0\\
526.1737522994356	0.0\\
527.1997477425691	0.0\\
528.2301104500334	0.0\\
529.2594760103086	0.0\\
530.2748695837729	0.0\\
531.2863083414538	0.0\\
532.2909025646666	0.0\\
533.2907535300981	0.0\\
534.2803080932056	0.0\\
535.2655949327752	0.0\\
536.2446557023616	0.0\\
537.2083716118686	0.0\\
538.1729640865587	0.0\\
539.1314447194998	0.0\\
540.0838502659926	0.0\\
541.0291656373479	0.0\\
541.9644733864184	0.0\\
542.8976861397853	0.0\\
543.8271221908808	0.0\\
544.7520156855264	0.0\\
545.6728665853082	0.0\\
546.5869730488234	0.0\\
547.4982793693655	0.0\\
548.4049730831398	0.0\\
549.3070188492297	0.0\\
550.2042655527584	0.0\\
551.0965439619756	0.0\\
551.9901898679532	0.0\\
552.8814201335783	0.0\\
553.7666256997375	0.0\\
554.6483275083147	0.0\\
555.525896088627	0.0\\
556.4029124034878	0.0\\
557.2835507207992	0.0\\
558.1561284401853	0.0\\
559.0310821381238	0.0\\
559.9010071878142	0.0\\
560.7675445393661	0.0\\
561.6260389967929	0.0\\
562.4949335613719	0.0\\
563.3572637323246	0.0\\
564.2179669616914	0.0\\
565.0793124456375	0.0\\
565.935223126342	0.0\\
566.7930715069897	0.0\\
567.6505763921853	0.0\\
568.5016680747312	0.0\\
569.3498587737133	0.0\\
570.1996566716971	0.0\\
571.0533709175827	0.0\\
571.902711071169	0.0\\
572.7499158044309	0.0\\
573.5929169404451	0.0\\
574.4370395364938	0.0\\
575.2799275184843	0.0\\
576.1247275669607	0.0\\
576.970897161706	0.0\\
577.8120316910556	0.0\\
578.6569696899169	0.0\\
579.4939538592339	0.0\\
580.3346575763746	0.0\\
581.1716025514143	0.0\\
582.0084324604668	0.0\\
582.8471642199879	0.0\\
583.6893697122518	0.0\\
584.5259333364688	0.0\\
585.3637130124812	0.0\\
586.2052405112784	0.0\\
587.0404943457916	0.0\\
587.8776331056342	0.0\\
588.714411403334	0.0\\
589.5510634561113	0.0\\
590.3870372003607	0.0\\
591.2208341355947	0.0\\
592.0547039927965	0.0\\
592.8895291328427	0.0\\
593.7266174369222	0.0\\
594.5598143056632	0.0\\
595.3922880298232	0.0\\
596.2318707595243	0.0\\
597.0678235034709	0.0\\
597.9017664417227	0.0\\
598.7385912067914	0.0\\
599.5715611452567	0.0\\
600.405972402345	0.0\\
601.2398465494205	0.0\\
602.0767771255069	0.0\\
602.9102460757808	0.0\\
603.7438800625428	0.0\\
604.5809527851065	0.0\\
605.4183722970606	0.0\\
606.2554815235283	0.0\\
607.096909128574	0.0\\
607.9316600886439	0.0\\
608.770898634287	0.0\\
609.6089753958554	0.0\\
610.4414063997469	0.0\\
611.2794029006836	0.0\\
612.1121430988353	0.0\\
612.9514528120008	0.0\\
613.7915532250936	0.0\\
614.6311654386509	0.0\\
615.4699087426964	0.0\\
616.3093466367197	0.0\\
617.1468624394256	0.0\\
617.9862950239942	0.0\\
618.8275592116472	0.0\\
619.6690496642195	0.0\\
620.5132187241095	0.0\\
621.359373173012	0.0\\
622.2026234043203	0.0\\
623.0444549717708	0.0\\
623.8864285973766	0.0\\
624.7335013743159	0.0\\
625.5821670111884	0.0\\
626.4250460804415	0.0\\
627.2740846136364	0.0\\
628.1209925532255	0.0\\
628.9718338373859	0.0\\
629.8192251366443	0.0\\
630.6730302886374	0.0\\
631.5241044345235	0.0\\
632.3724283379472	0.0\\
633.2225294380346	0.0\\
634.074446944001	0.0\\
634.9265365542199	0.0\\
635.7842728366222	0.0\\
636.6410565112171	0.0\\
637.4960157599571	0.0\\
638.3527523676917	0.0\\
639.2113407928603	0.0\\
640.0690354130898	0.0\\
640.9287349132601	0.0\\
641.7886210032254	0.0\\
642.651054133521	0.0\\
643.5106116133793	0.0\\
644.3722204380554	0.0\\
645.233416654296	0.0\\
646.1004676270404	0.0\\
646.9652645350259	0.0\\
647.8317456579009	0.0\\
648.7009296075569	0.0\\
649.5677256425231	0.0\\
650.4363264062863	0.0\\
651.3031532103541	0.0\\
652.1766259869312	0.0\\
653.0501082072981	0.0\\
653.9215710724013	0.0\\
654.7980759923246	0.0\\
655.6773808690862	0.0\\
656.5563111862562	0.0\\
657.4322896161318	0.0\\
658.3135493524148	0.0\\
659.1931834744362	0.0\\
660.0731575342697	0.0\\
660.9593162718318	0.0\\
661.8507000981131	0.0\\
662.7366251175522	0.0\\
663.624841581762	0.0\\
664.5112140202268	0.0\\
665.4027516115905	0.0\\
666.2946744952274	0.0\\
667.1864918211306	0.0\\
668.0829360081555	0.0\\
668.982491107116	0.0\\
669.879701172269	0.0\\
670.7772852009964	0.0\\
671.6785675307792	0.0\\
672.5792073919633	0.0\\
673.482381974515	0.0\\
674.3896032514294	0.0\\
675.2982021132941	0.0\\
676.2040655113551	0.0\\
677.1129386555308	0.0\\
678.025591389561	0.0\\
678.9399304422304	0.0\\
679.8541530717516	0.0\\
680.7712112315996	0.0\\
681.6894840860055	0.0\\
682.6092541677001	0.0\\
683.5272609537842	0.0\\
684.4488743932984	0.0\\
685.3775800265878	0.0\\
686.3025527545947	0.0\\
687.2306555170044	0.0\\
688.1565443203638	0.0\\
689.0894922855637	0.0\\
690.0240523631844	0.0\\
690.9598381666153	0.0\\
691.9009986401907	0.0\\
692.8461755771525	0.0\\
693.7908829285077	0.0\\
694.7299502974756	0.0\\
695.6753622371589	0.0\\
696.6237297365233	0.0\\
697.5751868160869	0.0\\
698.5276956872949	0.0\\
699.4842469187531	0.0\\
700.4410228121335	0.0\\
701.4040768840773	0.0\\
702.3709042907053	0.0\\
703.3361645062716	0.0\\
704.3024555800198	0.0\\
705.2703789207435	0.0\\
706.243699919786	0.0\\
707.2180444667376	0.0\\
708.192456605891	0.0\\
709.165274235198	0.0\\
710.1451634888758	0.0\\
711.1267508984045	0.0\\
712.1170881903986	0.0\\
713.1073787767452	0.0\\
714.1015439619086	0.0\\
715.1026856687495	0.0\\
716.1018334268533	0.0\\
717.1045068560625	0.0\\
718.1124893141298	0.0\\
719.1159179287213	0.0\\
720.1289168774344	0.0\\
721.1451062556787	0.0\\
722.1628199997076	0.0\\
723.1832342515397	0.0\\
724.2102861491608	0.0\\
725.2361413172428	0.0\\
726.2633501406599	0.0\\
727.294483430831	0.0\\
728.331088717847	0.0\\
729.3690391724101	0.0\\
730.4120088704428	0.0\\
731.4599929657147	0.0\\
732.5143743638255	0.0\\
733.5735745866434	0.0\\
734.6348026096289	0.0\\
735.7028849579629	0.0\\
736.777861816028	0.0\\
737.8559710197073	0.0\\
738.9381928657783	0.0\\
740.0263655176273	0.0\\
741.1170111079907	0.0\\
742.2151415183407	0.0\\
743.3125477306871	0.0\\
744.4211126544437	0.0\\
745.533882035289	0.0\\
746.6500374104135	0.0\\
747.7719315348104	0.0\\
748.8986975270043	0.0\\
750.0324458954603	0.0\\
751.1699269505498	0.0\\
752.3185821598267	0.0\\
753.4708793271147	0.0\\
754.6325786229143	0.0\\
755.8081558433728	0.0\\
756.9851544768517	0.0\\
758.1670199275645	0.0\\
759.3618140727338	0.0\\
760.5565294301823	0.0\\
761.6604242678779	0.0\\
761.7678588135082	0.0\\
762.987882706158	0.0\\
764.214461009715	0.0\\
765.4568983778809	0.0\\
766.7045149693042	0.0\\
767.9687192469412	0.0\\
769.235381342141	0.0\\
770.5161842464395	0.0\\
771.8171769313165	0.0\\
773.1245905902938	0.0\\
774.4528171430891	0.0\\
775.7998694250603	0.0\\
777.1631026706443	0.0\\
778.5475270360478	0.0\\
779.9465342529186	0.0\\
781.3689533763334	0.0\\
782.8174529102821	0.0\\
784.2853638751565	0.0\\
785.7839160226981	0.0\\
787.3166230160559	0.0\\
788.8694177083539	0.0\\
790.445368837472	0.0\\
792.0554040067857	0.0\\
793.6669858001396	0.0\\
795.29064171204	0.0\\
796.8876231305601	0.0\\
798.4584112043144	0.0\\
800.0163373585076	0.0\\
801.5424134548705	0.0\\
803.0369936482819	0.0\\
804.5121413089328	0.0\\
805.9627694591468	0.0\\
807.3891094346895	0.0\\
808.7887547422254	0.0\\
810.175858202268	0.0\\
811.5390842669638	0.0\\
812.8892435546454	0.0\\
814.2262822617113	0.0\\
815.5455008227439	0.0\\
816.8517894643032	0.0\\
818.1550008857048	0.0\\
819.439684122462	0.0\\
820.7178699980323	0.0\\
821.9777064119933	0.0\\
823.2362474444535	0.0\\
824.4820308138185	0.0\\
825.7156026752261	0.0\\
826.9427015118342	0.0\\
828.1659159030451	0.0\\
829.3752783549542	0.0\\
830.5837365947682	0.0\\
831.7837078856855	0.0\\
832.979074966881	0.0\\
834.1666475288632	0.0\\
835.3492689059235	0.0\\
836.5256588727543	0.0\\
837.6950146857	0.0\\
838.8529147113559	0.0\\
840.0156034736649	0.0\\
841.1694861702363	0.0\\
842.3179602676048	0.0\\
843.4618054039834	0.0\\
844.5972011447427	0.0\\
845.7307565213584	0.0\\
845.775816578802	0.0\\
845.800696383948	0.0\\
845.8178306770467	0.0\\
845.82978090755	0.0\\
845.8410230125139	0.0\\
845.909484978341	0.0\\
846.207194134234	0.0\\
846.9849658552212	0.0\\
848.1450817321536	0.0\\
849.3108475200652	0.0\\
850.4851670911714	0.0\\
851.6649959368278	0.0\\
852.8552080292368	0.0\\
854.0528255261991	0.0\\
855.2545891118257	0.0\\
856.4684776505958	0.0\\
857.688303456476	0.0\\
858.9197318768861	0.0\\
860.1579541861934	0.0\\
861.4052143615625	0.0\\
862.6600358333349	0.0\\
863.9340169484929	0.0\\
865.2105306676074	0.0\\
866.5045391109227	0.0\\
867.8102138534362	0.0\\
869.1277975401963	0.0\\
870.4631946641009	0.0\\
871.8051123697117	0.0\\
873.1663136985346	0.0\\
874.5361045692266	0.0\\
875.9251188333387	0.0\\
877.3338130519294	0.0\\
878.7634760258018	0.0\\
880.2030538117244	0.0\\
881.6608479127276	0.0\\
883.1453021420614	0.0\\
884.6478782527397	0.0\\
886.1710437202976	0.0\\
887.7208844559796	0.0\\
889.2962695054086	0.0\\
890.8770170643938	0.0\\
892.4841408538894	0.0\\
894.0992436789757	0.0\\
895.7213171032517	0.0\\
897.3437017527356	0.0\\
898.967957938668	0.0\\
900.5865925397538	0.0\\
902.1930905537124	0.0\\
903.7791156353987	0.0\\
905.361631020548	0.0\\
906.9135862640919	0.0\\
908.4477995558295	0.0\\
909.9647550214086	0.0\\
911.4752603087409	0.0\\
912.9752568317836	0.0\\
914.457488172854	0.0\\
915.9198084458162	0.0\\
917.3739423312372	0.0\\
918.8189927045617	0.0\\
920.253239749464	0.0\\
921.6845701623604	0.0\\
923.097823094645	0.0\\
924.5009656514314	0.0\\
925.9021682044986	0.0\\
927.2893797114887	0.0\\
928.6772552156829	0.0\\
930.0556829104503	0.0\\
931.4269348447729	0.0\\
932.7921831332058	0.0\\
934.1439697026142	0.0\\
935.4982371613928	0.0\\
936.8420098232793	0.0\\
938.1873074599466	0.0\\
939.524178407926	0.0\\
940.8542436160262	0.0\\
942.1805736620049	0.0\\
943.4996539796407	0.0\\
944.8221930231991	0.0\\
946.1410255194241	0.0\\
947.4436198250291	0.0\\
948.749141051655	0.0\\
950.0561930762779	0.0\\
951.3589992821153	0.0\\
952.6534538639376	0.0\\
953.9482949173287	0.0\\
955.2393316770244	0.0\\
956.5322730320488	0.0\\
957.8189966754385	0.0\\
959.105166154498	0.0\\
960.3885618699094	0.0\\
961.6683379748781	0.0\\
961.8900959876896	1.928667207199228E-6\\
962.1173788590052	7.945804137820414E-6\\
962.3428680524232	1.8025124853561447E-5\\
962.56802959569	3.2242582992055545E-5\\
962.7996911214962	5.127306311768704E-5\\
963.0320906668592	7.492372038968837E-5\\
963.2614777768918	1.0281883030981693E-4\\
963.4940106330841	1.357851688982705E-4\\
963.7264594427861	1.7353149134457244E-4\\
963.9581000618541	2.1598659292227962E-4\\
964.1820262154031	2.6169012175942337E-4\\
964.4011221310434	3.109092126367573E-4\\
964.626314063961	3.6620380216119516E-4\\
964.8594757496	4.285527805539002E-4\\
965.071072011084	4.896855088935236E-4\\
965.3043243930572	5.621628696580107E-4\\
965.535829287599	6.394427026424525E-4\\
965.7690293613512	7.227468292024593E-4\\
965.9963598268891	8.092985054652373E-4\\
966.2257242495687	9.020431527823104E-4\\
966.4594825905908	0.0010022376304563005\\
966.6891218414455	0.0011063149464853915\\
966.9225096314033	0.0012179012018287598\\
967.1532007077203	0.0013340264421522838\\
967.3871986793604	0.0014578103653261013\\
967.6167495064881	0.001585179460477214\\
967.8463893899755	0.001718553900599119\\
968.0713862524065	0.0018550776984791253\\
968.3062283896995	0.0020038199228599616\\
968.5252946941298	0.0021483853238598643\\
968.7566319579862	0.0023072126991628052\\
968.9870583162069	0.0024717789205039647\\
969.2220781300532	0.002646242735282917\\
969.4526687796663	0.0028239855758407668\\
969.6779495827345	0.003003986461867153\\
969.9071544081764	0.0031936343012790467\\
970.1419674850199	0.0033948058102120727\\
970.369180270571	0.0035961678623359587\\
970.6051306107572	0.0038123246297256663\\
970.8415594275718	0.004036200764391092\\
971.068945021866	0.004258460926854581\\
971.3043106453881	0.004495770025904809\\
971.5355284132872	0.004736148777650499\\
971.7715141347753	0.0049889706536894365\\
972.0002638870978	0.005241329837487247\\
972.2321165284488	0.005504507217088922\\
972.466267281738	0.005777921906893739\\
972.7020851302366	0.006061106353742001\\
972.9366498276297	0.006350649066368237\\
973.1729514357808	0.0066503410456849755\\
973.4092859887608	0.0069581870849194614\\
973.6378301665491	0.0072636733298568415\\
973.8728751679666	0.007585909953272409\\
974.1049712854087	0.007912196492606285\\
974.3396895065509	0.00825042164847822\\
974.5757961926081	0.008599094735487159\\
974.8132834693172	0.008958429329360224\\
975.0502236745785	0.009325630497312696\\
975.2853078540645	0.00969861320219547\\
975.522729679539	0.010084133968409629\\
975.7589540533895	0.010476591747435714\\
975.9900298313537	0.010869140052281942\\
976.1959735509447	0.01122625777120164\\
976.4295084962621	0.011639570303754437\\
976.6637657179458	0.012063144663468445\\
976.9038664042728	0.012506698401709957\\
977.1433969441441	0.012958771904541935\\
977.3685060535031	0.013392413230876109\\
977.6047630518242	0.013856759083107621\\
977.845174252185	0.01433904846099562\\
978.0846502528711	0.014829345968297894\\
978.3254759604552	0.015332434498291692\\
978.5620064255243	0.015836415290334263\\
978.7870049328396	0.016324967289390264\\
979.0272737564378	0.016856593795244318\\
979.2560279674112	0.01737233017430101\\
979.4983582377206	0.017928953056745904\\
979.7368483253374	0.018487155755321845\\
979.9785035344519	0.019063369878186187\\
980.2175974215363	0.01964405845582655\\
980.4596258197396	0.020242673610107904\\
980.7020115480502	0.02085314176489006\\
980.9438488977883	0.021473248900649743\\
981.1828363487168	0.02209694058132001\\
981.4199606973204	0.022726547840468264\\
981.6533923054228	0.023356909782144435\\
981.894221321126	0.024018304231948374\\
982.1223755726678	0.024655317753588618\\
982.352047913344	0.02530688750543344\\
982.5660557706956	0.0259233946283568\\
982.8096509648931	0.02663621663791558\\
983.0531049512961	0.027360487318506106\\
983.2931463469392	0.02808629486444953\\
983.5335652281415	0.028824956395075277\\
983.775608498408	0.029580528264943833\\
984.0205211978212	0.030357311416883206\\
984.2609240003505	0.031131857382853775\\
984.4876949195414	0.03187351112330632\\
984.7282871279056	0.032672147208634816\\
984.9725513472592	0.03349545674277973\\
985.2164884921131	0.03433029786769054\\
985.459361475552	0.03517412047484213\\
985.7041238177674	0.036037331688004895\\
985.9471856589105	0.03690736610813322\\
986.1908192093445	0.03779234836033435\\
986.4230950037575	0.038648175497803694\\
986.6693590857699	0.03956852333870518\\
986.9162674033553	0.04050477157706231\\
987.1628635783022	0.04145340414313127\\
987.4064371489051	0.042403801499432264\\
987.6534430838599	0.04338126680957016\\
987.9007627799385	0.04437385382180266\\
988.1366639877324	0.04533363288168983\\
988.3810441612784	0.04634139336967927\\
988.6240514028852	0.04735717719602944\\
988.8683960710582	0.04839239107718672\\
989.1111837283636	0.049434832822174354\\
989.3471690047206	0.05046134946043393\\
989.5880236299408	0.05152262493841253\\
989.837110251777	0.052634681049515464\\
990.0875932531237	0.05376793155666969\\
990.3290207910529	0.05487449172525512\\
990.5791494680714	0.05603579986722164\\
990.82138984536	0.0571749853350776\\
991.0515401734126	0.058270606181014664\\
991.2956861852417	0.05944708598476593\\
991.545102476874	0.0606641728289765\\
991.796424845088	0.061906195727863655\\
992.0455832974276	0.06315310203802679\\
992.2966896000758	0.06442553485023145\\
992.545335535568	0.06570119270840533\\
992.7865460018159	0.06695370524536282\\
993.0360072810779	0.06826468457032872\\
993.28506188696	0.06958945673815295\\
993.5328130663929	0.07092317140481233\\
993.7819472800786	0.0722803820317339\\
994.0298665695213	0.07364703497851388\\
994.28332749078	0.07506088528313376\\
994.5338882299045	0.07647518864001951\\
994.7825118450537	0.07789498639189643\\
995.0344079785104	0.0793502473166677\\
995.2872605553328	0.08082810127076809\\
995.5359407078724	0.08229833214376633\\
995.7808423645638	0.08376255298608615\\
996.0318735533476	0.08528032224090668\\
996.2769463676209	0.08677865258179429\\
996.5316440955264	0.08835327925968564\\
996.7761749876875	0.08988186867468609\\
997.0227468542284	0.09143998033246425\\
997.2781982494623	0.09307204189448984\\
997.5302438627698	0.09470022318970753\\
997.7826148251493	0.0963483866447562\\
998.0388986786468	0.09804050298453007\\
998.2949644012431	0.09974978523475087\\
998.5509883822042	0.10147747256993686\\
998.7946038513239	0.1031388537764644\\
999.0499205864726	0.10489836035761962\\
999.3083965123906	0.10669883260637167\\
999.5629898627544	0.10849122837296762\\
999.8166921511613	0.11029616552129909\\
1000.0617032095586	0.11205717957593231\\
1000.3138477016871	0.11388792305685327\\
1000.5729628754809	0.11578887299629317\\
1000.8241946090789	0.1176510382136969\\
1001.0822062062359	0.11958306940930263\\
1001.328453565374	0.121445626059169\\
1001.5850518054558	0.12340590835022033\\
1001.8423704801417	0.12539169998113459\\
1002.0985520386369	0.127388706754814\\
1002.3613274505014	0.12945793094293512\\
1002.6204028824336	0.13151874973417638\\
1002.8789103714157	0.13359565878164847\\
1003.1376115131122	0.13569482377273756\\
1003.3893349367822	0.13775733453203626\\
1003.6449450950583	0.13987192971311313\\
1003.9065256887429	0.14205712101435825\\
1004.1635292120388	0.14422505592841328\\
1004.407725033815	0.14630430076408052\\
1004.6725951973037	0.14858098796264957\\
1004.9348175463385	0.15085695109192987\\
1005.1943161583908	0.15313095117107606\\
1005.4474083482348	0.15536967229415088\\
1005.7100532101156	0.15771476474403573\\
1005.9731518359933	0.16008633816572032\\
1006.2377043719614	0.16249374858266474\\
1006.4990225285967	0.1648941986132625\\
1006.7642152654587	0.16735317000481836\\
1007.0233700415454	0.16977856334980573\\
1007.286334096495	0.17226234285291775\\
1007.5529916284577	0.1748044910741488\\
1007.8099876380761	0.17727700088460113\\
1008.080919075144	0.17990756042809414\\
1008.3439453636126	0.18248500729414596\\
1008.6120149009832	0.18513593873651957\\
1008.877332932909	0.18778367828797365\\
1009.1480895436371	0.19051042672108254\\
1009.4098863805791	0.19317079743195031\\
1009.6756131121699	0.19589518531936606\\
1009.943121255644	0.19866244033967206\\
1010.20576547165	0.20140349168657767\\
1010.457978303532	0.20405825137833428\\
1010.6908855543447	0.2065295190793367\\
1010.9608474621125	0.20941773426270616\\
1011.2240947239409	0.21225878665841463\\
1011.4950394864943	0.21520845642562075\\
1011.762580740889	0.21814659713974532\\
1012.0208470402235	0.22100703216296907\\
1012.296123059016	0.22408208149930803\\
1012.5624466695765	0.22708297558348045\\
1012.8253088157176	0.2300698925225489\\
1013.094320035922	0.2331525211679148\\
1013.3546231151506	0.2361603377084341\\
1013.6291999190892	0.23935981123645733\\
1013.9008185992973	0.24255191072306997\\
1014.1783824155966	0.2458418250047411\\
1014.4581842923433	0.24918696775333576\\
1014.7289886924791	0.2524520883384942\\
1015.0039378208669	0.255795009902702\\
1015.2841752090671	0.25923118927188016\\
1015.5595654960212	0.26263652543250715\\
1015.8336937421809	0.26605450873491465\\
1016.097544468777	0.2693710668720709\\
1016.3699859627418	0.27282321470213455\\
1016.6502228993988	0.2764035081730115\\
1016.9256750391069	0.27995180175337087\\
1017.2003271163592	0.28351864945198\\
1017.4837216014282	0.2872293527726161\\
1017.7668980703504	0.29096807336220787\\
1018.0481555859933	0.29471211876825765\\
1018.315453432836	0.2982987576340915\\
1018.5956878038853	0.30208883044966317\\
1018.8814919684132	0.30598581638747846\\
1019.1651197632898	0.3098847725828464\\
1019.4336425431543	0.3136052395717902\\
1019.7016567811468	0.317347038212051\\
1019.984941897299	0.3213329630792271\\
1020.266346311869	0.32532400198538736\\
1020.541148034278	0.32925187722700366\\
1020.8245283065626	0.33333402380998045\\
1021.0928824995792	0.33722944744541883\\
1021.3832876554004	0.3414776605578488\\
1021.6675858062349	0.3456695729572935\\
1021.9430407039295	0.3497623791502381\\
1022.2244976053439	0.3539762805691812\\
1022.5087775301961	0.3582653052532019\\
1022.7915735556717	0.3625648178313787\\
1023.0782518088736	0.3669569378742146\\
1023.3587015269509	0.3712864623692056\\
1023.645004880719	0.3757399623336295\\
1023.9316188110906	0.380232418980466\\
1024.205936293266	0.38456422406511614\\
1024.4737198107855	0.388823220759859\\
1024.744502489133	0.3931605269281824\\
1025.023770387891	0.3976660905609386\\
1025.315508825312	0.4024080369050431\\
1025.5864096590176	0.40684358836339074\\
1025.888942525357	0.4118339521883775\\
1026.1752610104236	0.41659282255208396\\
1026.4697768081355	0.4215245584785544\\
1026.7592047319445	0.42640739509435\\
1027.0511266126605	0.4313688768823868\\
1027.3482528903346	0.4364566526518111\\
1027.639870031278	0.4414873363646573\\
1027.927470114224	0.4464849766687359\\
1028.2039178149957	0.4513228670612226\\
1028.506637803021	0.4566589324771083\\
1028.800368622235	0.4618750427422219\\
1029.077982626276	0.46683991606579356\\
1029.3698950899147	0.4720972738281859\\
1029.6453685574215	0.47709323865157527\\
1029.954258649178	0.482735417661462\\
1030.2483249157108	0.4881464090717039\\
1030.5516852928222	0.4937690125680535\\
1030.8354987578787	0.499066771049534\\
1031.1376646982394	0.5047470176452726\\
1031.4434636279507	0.5105375998211998\\
1031.7402889294335	0.5161988370331398\\
1032.0412375460855	0.5219796598504494\\
1032.330230299438	0.5275697490524929\\
1032.6295547640898	0.5334000182391225\\
1032.9142353848033	0.5389832445498484\\
1033.2173340806112	0.5449687435083084\\
1033.5046952778398	0.5506826789421948\\
1033.813938434971	0.5568744939084975\\
1034.1057658109016	0.5627583922355446\\
1034.4042003666582	0.5688165985530484\\
1034.7138726545168	0.5751469928603674\\
1035.0090698942927	0.5812233914700256\\
1035.3098790286576	0.5874575148791856\\
1035.600604050811	0.5935232580125689\\
1035.898327525526	0.5997765116000258\\
1036.1871457079424	0.6058829613298884\\
1036.4744613099724	0.611997077184798\\
1036.7867474113564	0.6186873080170776\\
1037.0894041825804	0.6252158447165945\\
1037.3970984792581	0.6318981852844565\\
1037.7040047160826	0.638608885489163\\
1038.0226477760625	0.6456244195644016\\
1038.3283431519035	0.6524011770340392\\
1038.6498131496915	0.6595766834302872\\
1038.9634325026095	0.6666255599468871\\
1039.2650150555933	0.6734493110131481\\
1039.54770145147	0.6798860533882685\\
1039.8477316339704	0.6867607531372042\\
1040.1350820004873	0.693386580760396\\
1040.4484540162148	0.7006590285546743\\
1040.7680651253859	0.7081264931276585\\
1041.0866887217949	0.7156215211878345\\
1041.410944768506	0.7233011045533588\\
1041.7184170842852	0.7306318416224156\\
1042.0283359111313	0.7380689792554385\\
1042.3432648148555	0.7456759239964876\\
1042.654709824275	0.7532480094872631\\
1042.9667445353025	0.7608837317295545\\
1043.2924735535748	0.7689073581286847\\
1043.619035911664	0.7770058038073471\\
1043.9185619654754	0.7844817089563796\\
1044.231099964963	0.7923314195338915\\
1044.528549256992	0.7998488006710129\\
1044.8662028967337	0.8084375387702414\\
1045.181589467019	0.8165131180582992\\
1045.5077086092306	0.8249177464292572\\
1045.832864052291	0.8333525954078034\\
1046.1468043871414	0.841548826114668\\
1046.4589292663727	0.8497487531485326\\
1046.7795458462574	0.8582249583676673\\
1047.0896466831027	0.8664745778036027\\
1047.384766165033	0.8743726891990498\\
1047.6979380855132	0.8828041356113807\\
1048.0095643166992	0.89124532061661\\
1048.3179168554893	0.8996482873019092\\
1048.6504975259795	0.9087678023414401\\
1048.9637169609728	0.9174098911991158\\
1049.2960989614407	0.926637461780994\\
1049.61798604177	0.9356294243398919\\
1049.9250810711828	0.9442593401024522\\
1050.2648743646682	0.9538664099803853\\
1050.5925058414673	0.9631876413661642\\
1050.908927373282	0.972244055097051\\
1051.2246893974698	0.9813346327249384\\
1051.5442867643983	0.9905896199427116\\
1051.8538330238762	0.9996053643476503\\
1052.2031092327861	1.0098395446413786\\
1052.5217686747283	1.0192333375598759\\
1052.8698965892308	1.0295577378309333\\
1053.169256862484	1.038487568380288\\
1053.512761406717	1.0487931854053625\\
1053.846052630488	1.0588526744397657\\
1054.186625944832	1.0691933359787558\\
1054.5381676252418	1.0799321490722282\\
1054.8804649656613	1.0904521863399728\\
1055.2297115406645	1.1012505431420094\\
1055.578801266473	1.1121094509199612\\
1055.8999900052522	1.1221582594501593\\
1056.2306925880862	1.1325626412530156\\
1056.5783108848623	1.1435626130172123\\
1056.913531040455	1.1542318483793887\\
1057.2245545702676	1.1641850834342131\\
1057.5650884584165	1.1751424790376221\\
1057.924959370569	1.186790047865351\\
1058.269651032007	1.1980118578969092\\
1058.6172715125635	1.2093940073895668\\
1058.9607431980307	1.220704459616786\\
1059.302023230554	1.2320059400496208\\
1059.631852032333	1.242988117457462\\
1059.9892929504385	1.2549562149870228\\
1060.3236718654657	1.2662148286204062\\
1060.6509302771233	1.2772924179249734\\
1061.032688233382	1.2902882619481546\\
1061.3827222059663	1.3022737280234784\\
1061.7093376784815	1.313517395100631\\
1062.0749055487927	1.3261708178202651\\
1062.438370434159	1.3388235770330064\\
1062.7679426253076	1.3503586980224487\\
1063.0893412607202	1.3616647733218041\\
1063.439206969033	1.3740363172458903\\
1063.8099638502586	1.387219520647574\\
1064.1664370844692	1.3999656477288873\\
1064.5148131052251	1.4124893746410025\\
1064.864989014086	1.4251447223984686\\
1065.1876417394647	1.4368648106676822\\
1065.5268797482313	1.4492488536293497\\
1065.846605131761	1.460978330825733\\
1066.2258032778482	1.4749623297668029\\
1066.5739473737876	1.4878706298662037\\
1066.9119871514213	1.5004680026403956\\
1067.2727822769548	1.5139826808134238\\
1067.624032708287	1.5272086287217665\\
1067.96614859061	1.5401559187365477\\
1068.3193438462163	1.5535901481572223\\
1068.6611160556026	1.5666553549427706\\
1069.0122025979367	1.5801437214608773\\
1069.342948890675	1.592912878925596\\
1069.6899637102956	1.606375073178187\\
1070.0530343815926	1.620531393240988\\
1070.4043262555838	1.6342978530352177\\
1070.7244863373317	1.646903808049605\\
1071.087029435314	1.6612470885512907\\
1071.442611531069	1.6753857300572137\\
1071.8211279606708	1.6905133372770598\\
1072.1637583807374	1.7042753039855314\\
1072.5310990968273	1.7191021930771413\\
1072.8721246576852	1.7329340518497722\\
1073.2413262694486	1.747981627861476\\
1073.6001621946975	1.7626794153172956\\
1073.959742250002	1.7774796052488422\\
1074.291793938598	1.7912107195850293\\
1074.6351346147485	1.8054733055561578\\
1074.9676249311037	1.8193478429791954\\
1075.2941163185415	1.8330321038318567\\
1075.667677106263	1.848762228300843\\
1076.0276158566894	1.8639925343952757\\
1076.4218765413261	1.8807582856940077\\
1076.803003842173	1.8970482516039704\\
1077.1711366510945	1.9128600602156052\\
1077.520332324667	1.927928690127524\\
1077.893684641132	1.9441153859624967\\
1078.2676718552798	1.9604080367801648\\
1078.6490105999887	1.9771018346847908\\
1078.880932616033	1.9872946041879223\\
1079.001546921405	1.992607449275746\\
1079.3891287770684	2.00973506016076\\
1079.775608912024	2.026897804633454\\
1080.1344773846795	2.0429089898833235\\
1080.487085378522	2.058710532006592\\
1080.81640187604	2.073530416327216\\
1081.1898894104338	2.090410378883247\\
1081.568367806707	2.1075939793926723\\
1081.9780603448703	2.1262829404829144\\
1082.3573851905603	2.14366798536281\\
1082.7079890006116	2.1598059463384223\\
1083.10119119815	2.1779834424645195\\
1083.468507286157	2.1950391593943275\\
1083.826123640839	2.2117136888677296\\
1084.1611481703603	2.227396505481165\\
1084.5394407252156	2.2451761386400477\\
1084.916748601575	2.2629846090464865\\
1085.2847891705824	2.2804276170643325\\
1085.6466877272742	2.2976484883569306\\
1086.012613297406	2.3151301910236803\\
1086.394150203405	2.3334314758057575\\
1086.7721510986967	2.351637068947336\\
1087.1410213141999	2.369473496543467\\
1087.5181088507552	2.3877789988840457\\
1087.8982394819318	2.406305282647933\\
1088.289537728905	2.425452079093019\\
1088.6758096110775	2.4444284168311325\\
1089.0519374290598	2.4629781188437017\\
1089.417449489385	2.481071730440119\\
1089.8053748914563	2.5003472166954532\\
1090.1921613795462	2.519639943981299\\
1090.5544634527268	2.5377779343767823\\
1090.9396960690533	2.5571341358284227\\
1091.3294388863455	2.576790259103147\\
1091.7311331163783	2.5971258898658736\\
1092.1014785320212	2.6159431708522547\\
1092.5017314341908	2.636353729480363\\
1092.877237632913	2.6555715832754307\\
1093.2769509803493	2.6761015626393023\\
1093.6762395293272	2.6966847345998906\\
1094.0615941794722	2.7166203215829006\\
1094.448511745149	2.736706246231467\\
1094.828761273854	2.7565134846300605\\
1095.1980962614325	2.7758158687289303\\
1095.6213889947007	2.7980149757811175\\
1096.0168891024514	2.8188302175463793\\
1096.391311769445	2.8386013583486065\\
1096.765359744269	2.858415684595828\\
1097.150955318104	2.8789072419195945\\
1097.509016698345	2.8979948037458403\\
1097.8964322542033	2.918711072533142\\
1098.3016142167844	2.940448024782227\\
1098.6909333085732	2.9614016421147777\\
1099.103870650537	2.9836984533257986\\
1099.5028408787016	3.0053111208042385\\
1099.9051884838636	3.0271760030252253\\
1100.2897557289748	3.048139259864584\\
1100.6848550174718	3.069742003726372\\
1101.0885125721388	3.091880699602969\\
1101.4904684921962	3.1139939582324327\\
1101.8996409471274	3.136573370451348\\
1102.2851398745515	3.1579098258547305\\
1102.6718603547301	3.179375321725211\\
1103.061781565997	3.2010803900053784\\
1103.427162323852	3.221475484024533\\
1103.8257320226617	3.243784622599237\\
1104.1927208326674	3.2643824771544354\\
1104.6160967803785	3.2882118754261533\\
1105.0015502997849	3.3099686265108748\\
1105.3966806922613	3.3323322895020553\\
1105.781640134839	3.354179022237858\\
1106.1935076166365	3.37761655737743\\
1106.5780226246734	3.399556685613585\\
1106.9846373273126	3.4228194561815286\\
1107.373249564825	3.445111128100561\\
1107.7511592324636	3.4668436485364262\\
1108.1340329829077	3.4889163457193844\\
1108.521671090395	3.5113194321653074\\
1108.9260797853394	3.5347511076601217\\
1109.3378658697857	3.5586720792258975\\
1109.747530924929	3.582531315347456\\
1110.1350480905817	3.605156664203345\\
1110.540642782545	3.628895383630679\\
1110.9422535826188	3.6524588756034637\\
1111.3315470626012	3.6753543059813554\\
1111.729622295481	3.6988214118421068\\
1112.1173334106256	3.7217308013192136\\
1112.5188200305483	3.7455091494875674\\
1112.9242795595114	3.769579149655807\\
1113.325639099614	3.793461103908487\\
1113.7378645918543	3.818046487345157\\
1114.1293622163244	3.8414485985041535\\
1114.558761849783	3.867175171249885\\
1114.9535987827876	3.890884896046839\\
1115.3321793031078	3.913666527789701\\
1115.70800840754	3.9363287973699856\\
1116.1121421691819	3.960748794574285\\
1116.519205233923	3.9853987815393914\\
1116.9520920275259	4.01167039603326\\
1117.3568550636487	4.036288694112768\\
1117.7761218621627	4.06184315601975\\
1118.1762069365423	4.086279310287884\\
1118.586148814908	4.111368521760882\\
1118.9995906118838	4.1367237981637786\\
1119.405914186404	4.161692832358645\\
1119.8205332502084	4.187222570788444\\
1120.237691956852	4.212960145204082\\
1120.6511627510772	4.238520652901514\\
1121.0758815162053	4.264828325551427\\
1121.4987890988446	4.291075504422503\\
1121.9113968931065	4.3167326771706005\\
1122.3198428770957	4.342178489552548\\
1122.7241360037178	4.367411614841011\\
1123.1385812198691	4.393325441198133\\
1123.554611965636	4.4193858804070665\\
1123.9580528453512	4.444702663337456\\
1124.3561683121575	4.469728249842708\\
1124.7737484271925	4.4960228125810335\\
1125.1864691113901	4.522056632075085\\
1125.6005753339714	4.548222591815852\\
1126.0048641273283	4.573811011420283\\
1126.3976225798306	4.5987097114927895\\
1126.8043206348343	4.6245332826068815\\
1127.2308147295103	4.651658353588147\\
1127.6546215090843	4.678657190018523\\
1128.0687355611553	4.705081084268729\\
1128.4589598328912	4.730018661707822\\
1128.8642508624657	4.755957737635834\\
1129.2511456573197	4.780755779610962\\
1129.6321994417704	4.805213757982401\\
1130.0530787881003	4.83226708626804\\
1130.48374846357	4.859991776158667\\
1130.911441507847	4.887566434614657\\
1131.3297162319336	4.914573455848014\\
1131.7457870055114	4.94147652799745\\
1132.1623584606446	4.968449819784583\\
1132.5770152203863	4.99533626998983\\
1132.995557429092	5.022511748198822\\
1133.399987650716	5.048805903480812\\
1133.8288775236883	5.076727347441093\\
1134.2414461272956	5.103621761782405\\
1134.6614353308992	5.13103518483727\\
1135.0737093551497	5.157979175587451\\
1135.4917594906083	5.185334730544421\\
1135.900970730831	5.212144670344687\\
1136.3410814923427	5.241014687878726\\
1136.7716347038522	5.269293009821899\\
1137.2131010613211	5.298323740519278\\
1137.6524715487171	5.327251929814908\\
1138.0720976587772	5.354912491603965\\
1138.4974959772044	5.382985279435722\\
1138.9204473053928	5.410927769734444\\
1139.3444306731244	5.438969147245544\\
1139.7736812277171	5.467389691422111\\
1140.2107094522366	5.496356504132697\\
1140.6237254458883	5.523760299577058\\
1141.0390814679354	5.5513468416530465\\
1141.4703137584197	5.580016493005443\\
1141.8847346682933	5.607595507113555\\
1142.2918192138009	5.6347116274357685\\
1142.7018505823944	5.6620489567858705\\
1143.1258758972426	5.690345106585696\\
1143.5573870929225	5.71916726014914\\
1143.9641609673135	5.746361084809283\\
1144.3925292635722	5.775023182045121\\
1144.825866633575	5.804042963699738\\
1145.2530552026906	5.832675266169039\\
1145.6849700854914	5.8616483428066495\\
1146.107448283702	5.8900112357042556\\
1146.5452139275558	5.919423729202586\\
1146.973108920356	5.9481954222592694\\
1147.4104492392676	5.977624543320275\\
1147.8391515655849	6.006493784213303\\
1148.270940807004	6.0355917630743825\\
1148.701986383498	6.0646599840560445\\
1149.145730762095	6.094605259934188\\
1149.5810237170153	6.124000059234136\\
1150.0065030740966	6.152750629508578\\
1150.447011335552	6.182535426375939\\
1150.878523908782	6.211729891405472\\
1151.3004508860672	6.240292452003301\\
1151.7246966544394	6.269028044628376\\
1152.1506785522956	6.297896930153852\\
1152.5859307931796	6.327409790312046\\
1153.0113308061786	6.3562694492497815\\
1153.438735560882	6.3852793679359205\\
1153.8781906197487	6.415121557377953\\
1154.306847687657	6.44424399008453\\
1154.7450433386043	6.474027698326893\\
1155.1801377113588	6.503613317974674\\
1155.6145379039813	6.533163817403512\\
1156.0540361515864	6.563072851947048\\
1156.4881519137143	6.592626639287184\\
1156.9187856343478	6.621953684903209\\
1157.3502150895752	6.651344686883416\\
1157.781904591738	6.680762659047838\\
1158.211660590122	6.710057540378996\\
1158.638618929744	6.73916976337097\\
1159.0755320937092	6.768968525689132\\
1159.510338380499	6.798630859016235\\
1159.939582001522	6.827920288197607\\
1160.3775999628192	6.857815374058356\\
1161.14783308196	6.910402531578493\\
1162.1358546079018	6.977892849863117\\
1163.3901826663282	7.063628881217474\\
1164.6689125065614	7.151095784772865\\
1165.9243097312678	7.237028502236864\\
1167.1699152494248	7.322351448437759\\
1168.4823704268401	7.412318677656465\\
1169.7126612593242	7.496714296095588\\
1171.0082305190895	7.58565130274348\\
1172.2926746464323	7.673888778032648\\
1172.5485519816007	7.691474416005006\\
1172.6424650282024	7.697929397654111\\
1172.6767941543053	7.700289047219304\\
1172.6948515058484	7.701530257088047\\
1172.6984264464327	7.70177598961112\\
1172.700769914084	7.701937074016476\\
1172.7018525930794	7.702011494873229\\
1172.7029108475167	7.702084236886035\\
1172.7082919243126	7.702454120585932\\
1172.726197968881	7.703684951827503\\
1172.7893790826001	7.708028013937742\\
1172.9517982394837	7.719193396107814\\
1173.3482163583499	7.746449146072807\\
1173.9751360515484	7.789565454506736\\
1174.8330264534657	7.848591371433061\\
1175.7668086742906	7.912871256119113\\
1176.904303219857	7.991219852248388\\
1178.2535589891936	8.084218976835885\\
1179.5472397355961	8.173453510737055\\
1180.787716401096	8.259078805163558\\
1182.0550897988533	8.346621943079864\\
1183.3835920709212	8.43845396071374\\
1184.654901082908	8.526396157624486\\
1185.951148563353	8.61612749861904\\
1187.2782642456104	8.70806260434756\\
1188.5497081729682	8.796204577407249\\
1190.000689887433	8.896868748684856\\
1191.4234253101454	8.995651759889416\\
1192.7523899673197	9.087994244183552\\
1194.1467500270242	9.184953484667524\\
1195.4921998990535	9.278582285551362\\
1196.9087353116065	9.377232772980378\\
1198.293178527556	9.473722481534967\\
1199.6494262456804	9.568318153917655\\
1200.9986839761145	9.662496038548046\\
1202.2785048906703	9.75189150187298\\
1203.6344591900302	9.846673087350784\\
1205.059413199976	9.946353349586825\\
1206.4231990488338	10.041827187310908\\
1207.8047343978433	10.138615850699221\\
1209.2144073522686	10.237450702206555\\
1210.6265347082876	10.336533443238565\\
1212.0408874370714	10.435848332401559\\
1213.4191045148555	10.532698927524663\\
1214.7756245853457	10.628095263419919\\
1215.3427688862544	10.66800000000001\\
};
\end{axis}
\end{tikzpicture}%
