Ground Distance, Speed
   0.000000,    0.000602
   0.050435,    0.601922
   0.553755,    1.200851
   1.112915,    1.799411
   1.672075,    2.397971
   2.231236,    2.996530
   2.790396,    3.595090
   3.349556,    4.193650
   3.908716,    4.792210
   4.467876,    5.390769
   5.027037,    5.989329
   5.586197,    6.587889
   6.952672,    7.180947
   8.419948,    7.773319
   9.887224,    8.365690
  11.354500,    8.958062
  12.821776,    9.550433
  14.289052,   10.142805
  15.756328,   10.735176
  17.223604,   11.327548
  18.690880,   11.919919
  20.158155,   12.512291
  22.424223,   13.098987
  24.790028,   13.684976
  27.155833,   14.270964
  29.521637,   14.856953
  31.887442,   15.442941
  34.253246,   16.028929
  36.619051,   16.614918
  38.984856,   17.200906
  41.350660,   17.786894
  43.716465,   18.372883
  46.872282,   18.953033
  50.126739,   19.532454
  53.381196,   20.111875
  56.635653,   20.691296
  59.890110,   21.270717
  63.144567,   21.850138
  66.399024,   22.429559
  69.653481,   23.008979
  72.907939,   23.588400
  76.162396,   24.167821
  80.197842,   24.741249
  84.330803,   25.313929
  88.463763,   25.886609
  92.596723,   26.459289
  96.729684,   27.031968
 100.862644,   27.604648
 104.995605,   28.177328
 109.128565,   28.750008
 113.261525,   29.322688
 117.394486,   29.895367
 122.299185,   30.461909
 127.300242,   31.027685
 132.301300,   31.593460
 137.302357,   32.159235
 142.303415,   32.725011
 147.304472,   33.290786
 152.305530,   33.856562
 157.306588,   34.422337
 162.307645,   34.988113
 167.308703,   35.553888
 173.071710,   36.112622
 178.929855,   36.670477
 184.787999,   37.228332
 190.646143,   37.786187
 196.504288,   38.344042
 202.362432,   38.901897
 208.220577,   39.459752
 214.078721,   40.017607
 219.936865,   40.575462
 225.795010,   41.133317
 232.402935,   41.682578
 239.104478,   42.230766
 245.806021,   42.778953
 252.507563,   43.327141
 259.209106,   43.875329
 265.910649,   44.423517
 272.612191,   44.971704
 279.313734,   45.519892
 286.015277,   46.068080
 292.716819,   46.616267
 300.154950,   47.155782
 307.685050,   47.694213
 315.215150,   48.232645
 322.745251,   48.771076
 330.275351,   49.309507
 337.805451,   49.847939
 345.335551,   50.386370
 352.865652,   50.924802
 360.395752,   51.463233
 367.925852,   52.001664
 376.179286,   52.531388
 384.523034,   53.060025
 392.866782,   53.588661
 401.210531,   54.117298
 409.554279,   54.645934
 417.898027,   55.174571
 426.241776,   55.703207
 434.585524,   56.231844
 442.929272,   56.760480
 451.273021,   57.289116
 460.326804,   57.809022
 469.469241,   58.327837
 478.611679,   58.846652
 487.754116,   59.365467
 496.896553,   59.884283
 506.038991,   60.403098
 515.181428,   60.921913
 524.323866,   61.440728
 533.466303,   61.959543
 542.608741,   62.478359
 552.447887,   62.988430
 562.374023,   63.497409
 572.300160,   64.006389
 582.226296,   64.515368
 592.152432,   65.024348
 602.078569,   65.533327
 612.004705,   66.042306
 621.930842,   66.551286
 631.856978,   67.060265
 641.783115,   67.569245
 652.392622,   68.069478
 663.087454,   68.568618
 673.782286,   69.067759
 684.477118,   69.566900
 695.171951,   70.066040
 705.866783,   70.565181
 716.561615,   71.064321
 727.256447,   71.563462
 737.951279,   72.062603
 748.646111,   72.561743
 760.010509,   73.051116
 771.458508,   73.539270
 782.906507,   74.027423
 794.354507,   74.515577
 805.802506,   75.003730
 817.250505,   75.491884
 828.698504,   75.980037
 840.146503,   76.468191
 851.594502,   76.956344
 863.042502,   77.444497
 875.143722,   77.921390
 887.326504,   78.396877
 899.509285,   78.872364
 911.692067,   79.347851
 923.874848,   79.823338
 936.057630,   80.298825
 948.240411,   80.774312
 960.423192,   81.249799
 972.605974,   81.725286
 984.788755,   82.200773
 997.607657,   82.665121
1010.505984,   83.128077
1023.404311,   83.591034
1036.302638,   84.053990
1049.200965,   84.516947
1062.099292,   84.979903
1074.997619,   85.442859
1087.895946,   85.905816
1100.794273,   86.368772
1113.692600,   86.831729
1127.210176,   87.283701
1140.805072,   87.734301
1154.399967,   88.184902
1167.994863,   88.635502
1181.589758,   89.086103
1195.184654,   89.536703
1208.779549,   89.987303
1222.374445,   90.437904
1235.969340,   90.888504
1249.564236,   91.339105
1263.761752,   91.778883
1278.034511,   92.217310
1292.307270,   92.655737
1306.580029,   93.094163
1320.852788,   93.532590
1335.125548,   93.971017
1349.398307,   94.409444
1363.671066,   94.847871
1377.943825,   95.286298
1392.216584,   95.724724
1407.075587,   96.152497
1422.007788,   96.578940
1436.939990,   97.005382
1451.872191,   97.431825
1466.804392,   97.858268
1481.736594,   98.284710
1496.668795,   98.711153
1511.600996,   99.137595
1526.533198,   99.564038
1541.465399,   99.990480
1556.967729,  100.406443
1572.541245,  100.821097
1588.114761,  101.235751
1603.688277,  101.650405
1619.261793,  102.065059
1634.835308,  102.479713
1650.408824,  102.894367
1665.982340,  103.309020
1681.555856,  103.723674
1697.129372,  104.138328
1713.257170,  104.542681
1729.454176,  104.945747
1745.651181,  105.348814
1761.848186,  105.751880
1778.045192,  106.154947
1794.242197,  106.558013
1810.439203,  106.961080
1826.636208,  107.364146
1842.833213,  107.767213
1859.030219,  108.170279
1875.765943,  108.563251
1892.568932,  108.954963
1909.371921,  109.346675
1926.174909,  109.738386
1942.977898,  110.130098
1959.780887,  110.521810
1976.583875,  110.913522
1993.386864,  111.305234
2010.189853,  111.696945
2026.992841,  112.088657
2044.319370,  112.470549
2061.711268,  112.851214
2079.103166,  113.231879
2096.495063,  113.612545
2113.886961,  113.993210
2131.278859,  114.373875
2148.670757,  114.754541
2166.062654,  115.135206
2183.454552,  115.515871
2200.846450,  115.896537
2218.747065,  116.267577
2236.711199,  116.637415
2254.675333,  117.007253
2272.639466,  117.377091
2290.603600,  117.746930
2308.567734,  118.116768
2326.531867,  118.486606
2344.496001,  118.856444
2362.460135,  119.226282
2380.424268,  119.596121
2398.819672,  119.957727
2417.268923,  120.318306
2435.718175,  120.678885
2454.167426,  121.039464
2472.616677,  121.400043
2491.065929,  121.760622
2509.515180,  122.121201
2519.133162,  122.309179
2537.855673,  122.664509
2556.578185,  123.019840
2575.437731,  123.370667
2594.494214,  123.715020
2613.550696,  124.059373
2632.607179,  124.403726
2651.663661,  124.748080
2670.720144,  125.092433
2689.776626,  125.436786
2708.833108,  125.781139
2727.889591,  126.125493
2746.946073,  126.469846
2766.212495,  126.806942
2785.780625,  127.133608
2805.348754,  127.460275
2824.916884,  127.786941
2844.485014,  128.113608
2864.053143,  128.440274
2883.621273,  128.766941
2903.189402,  129.093607
2922.757532,  129.420273
2942.325661,  129.746940
2962.092049,  130.065545
2982.143357,  130.372566
3002.194664,  130.679587
3022.245972,  130.986608
3042.297279,  131.293629
3062.348587,  131.600650
3082.399895,  131.907670
3102.451202,  132.214691
3122.502510,  132.521712
3142.553818,  132.828733
3162.790701,  133.127186
3183.294278,  133.413327
3203.797855,  133.699468
3224.301432,  133.985608
3244.805009,  134.271749
3265.308586,  134.557890
3285.812163,  134.844030
3306.315740,  135.130171
3326.819318,  135.416312
3347.322895,  135.702452
3359.413424,  135.871184
3380.275930,  136.028064
3401.138435,  136.184943
3422.000941,  136.341823
3442.863447,  136.498703
3463.725952,  136.655583
3484.588458,  136.812463
3505.450964,  136.969343
3526.313469,  137.126223
3547.175975,  137.283103
3568.038481,  137.439983
3589.026103,  137.500224
3610.013725,  137.560466
3631.001347,  137.620707
3651.988969,  137.680948
3672.976591,  137.741189
3693.994440,  137.755145
3715.012288,  137.769100
3736.030137,  137.783056
3757.047985,  137.797011
3778.065834,  137.810967
3799.066692,  137.763246
3820.067551,  137.715525
3841.068409,  137.667805
3862.069267,  137.620084
3883.070126,  137.572363
3904.070984,  137.524642
3925.071842,  137.476922
3946.072701,  137.429201
