Speed, Power
 154.646231, 2777.461254
 155.972635, 2656.796694
 157.299039, 2564.377775
 158.625444, 2506.659478
 159.951848, 2466.711540
 161.278252, 2425.175126
 162.604656, 2397.064766
 163.931060, 2378.820092
 165.257464, 2359.609483
 166.583868, 2339.424876
 167.910272, 2324.290370
 169.236676, 2313.992106
 170.563080, 2302.982947
 171.889484, 2291.257151
 173.215888, 2278.808978
 174.542292, 2270.539541
 175.868696, 2263.657292
 177.195100, 2256.198850
 178.521504, 2248.159740
 179.847908, 2239.535491
 181.174312, 2232.090296
 182.500716, 2228.788820
 183.827120, 2225.034897
 185.153524, 2220.825144
 186.479929, 2216.156182
 187.806333, 2211.024629
 189.132737, 2205.849324
 190.459141, 2206.095049
 191.785545, 2206.003904
 193.111949, 2205.573480
 194.438353, 2204.801368
 195.764757, 2203.685159
 197.091161, 2202.222444
 198.417565, 2200.410812
 199.743969, 2203.975218
 201.070373, 2208.042471
 202.396777, 2211.886860
 203.723181, 2215.506878
 205.049585, 2218.901015
 206.375989, 2222.067766
 207.702393, 2225.005622
 209.028797, 2227.713076
 210.355201, 2233.191457
 211.681605, 2242.201086
 213.008009, 2251.106130
 214.334413, 2259.905916
 215.660818, 2268.599774
 216.987222, 2277.187032
 218.313626, 2285.667019
 219.640030, 2294.039063
 220.966434, 2302.302494
 222.292838, 2310.456641
 223.619242, 2320.810597
 224.945646, 2335.540813
 226.272050, 2350.282813
 227.598454, 2365.036668
 228.924858, 2379.802449
 230.251262, 2394.580226
 231.577666, 2409.370071
 232.904070, 2424.172056
 234.230474, 2438.986250
 235.556878, 2453.812725
 236.883282, 2468.651553
 238.209686, 2483.502803
 239.536090, 2498.366548
 240.862494, 2518.801981
 242.188898, 2539.729474
 243.515302, 2560.770739
 244.841707, 2581.926412
 246.168111, 2603.197130
 247.494515, 2624.583528
 248.820919, 2646.086243
 250.147323, 2667.705911
 251.473727, 2689.443169
 252.800131, 2711.298652
 254.126535, 2733.272997
 255.452939, 2755.366841
 256.779343, 2777.580818
 258.105747, 2799.915566
 259.432151, 2822.371721
 260.758555, 2846.089094
 262.084959, 2874.761917
 263.411363, 2903.650639
 264.737767, 2932.756372
 266.064171, 2962.080232
 267.390575, 2991.623332
 268.716979, 3021.386786
 270.043383, 3051.371707
 271.369787, 3081.579210
 272.696191, 3112.010409
 274.022596, 3142.666417
 275.349000, 3173.548349
 276.675404, 3204.657318
 278.001808, 3235.994438
 279.328212, 3267.560823
 280.654616, 3299.357588
 281.981020, 3331.385845
 283.307424, 3363.646710
 284.633828, 3396.141295
 285.960232, 3428.870715
