Speed, Power
 121.640963, 2433.210237
 123.092793, 2523.906678
 124.544623, 2616.829343
 125.996452, 2712.005223
 127.448282, 2809.461310
 128.900112, 2909.224597
 130.351942, 3011.322077
 131.803771, 3115.780741
 133.255601, 3222.627581
 134.707431, 3331.889592
 136.159260, 3443.593763
 137.611090, 3527.849654
 139.062920, 3591.401300
 140.514750, 3594.295365
 141.966579, 2736.331944
 143.418409, 2514.238434
 144.870239, 2398.259999
 146.322069, 2321.101657
 147.773898, 2270.733676
 149.225728, 2235.026702
 150.677558, 2199.165370
 152.129387, 2181.508875
 153.581217, 2162.695395
 155.033047, 2142.713639
 156.484877, 2129.919668
 157.936706, 2117.876357
 159.388536, 2104.920480
 160.840366, 2091.652290
 162.292196, 2084.103515
 163.744025, 2075.816113
 165.195855, 2066.783336
 166.647685, 2056.998437
 168.099515, 2052.442894
 169.551344, 2047.988209
 171.003174, 2042.940197
 172.455004, 2037.293675
 173.906833, 2032.078713
 175.358663, 2031.267586
 176.810493, 2029.995969
 178.262323, 2028.259975
 179.714152, 2026.055717
 181.165982, 2023.379309
 182.617812, 2025.160429
 184.069642, 2027.859288
 185.521471, 2030.226574
 186.973301, 2032.259624
 188.425131, 2033.955772
 189.876960, 2035.312356
 191.328790, 2040.481289
 192.780620, 2048.243549
 194.232450, 2055.821222
 195.684279, 2063.212895
 197.136109, 2070.417152
 198.587939, 2077.432579
 200.039769, 2084.257760
 201.491598, 2093.006068
 202.943428, 2105.712504
 204.395258, 2118.361346
 205.847088, 2130.952176
 207.298917, 2143.484576
 208.750747, 2155.958125
 210.202577, 2168.372405
 211.654406, 2180.726998
 213.106236, 2193.021483
 214.558066, 2209.245897
 216.009896, 2227.250113
 217.461725, 2245.312240
 218.913555, 2263.432673
 220.365385, 2281.611809
 221.817215, 2299.850043
 223.269044, 2318.147769
 224.720874, 2336.505384
 226.172704, 2354.923283
 227.624533, 2373.401860
 229.076363, 2392.803887
 230.528193, 2417.321976
 231.980023, 2442.015630
 233.431852, 2466.885968
 234.883682, 2491.934115
 236.335512, 2517.161191
 237.787342, 2542.568319
 239.239171, 2568.156621
 240.691001, 2593.927219
 242.142831, 2619.881234
 243.594661, 2646.019788
 245.046490, 2672.344004
 246.498320, 2698.855004
 247.950150, 2725.553910
 249.401979, 2758.432056
 250.853809, 2792.442980
 252.305639, 2826.766914
 253.757469, 2861.405692
 255.209298, 2896.361152
 256.661128, 2931.635129
 258.112958, 2967.229460
 259.564788, 3003.145981
 261.016617, 3039.386527
 262.468447, 3075.952935
 263.920277, 3112.847041
 265.372106, 3150.070681
