Speed, Power
 146.436673, 1509.712129
 147.638041, 1514.163749
 148.839409, 1518.893079
 150.040777, 1523.873685
 151.242145, 1529.325480
 152.443513, 1535.148038
 153.644881, 1541.169975
 154.846249, 1547.727063
 156.047617, 1554.565476
 157.248985, 1561.649682
 158.450353, 1569.296575
 159.651721, 1577.041915
 160.853089, 1585.389220
 162.054457, 1593.888438
 163.255825, 1602.861861
 164.457193, 1612.089721
 165.658561, 1621.725135
 166.859929, 1631.649790
 168.061297, 1641.981552
 169.262665, 1652.564321
 170.464033, 1663.625176
 171.665401, 1674.820326
 172.866769, 1686.641308
 174.068137, 1698.457111
 175.269505, 1711.006170
 176.470873, 1723.628243
 177.672241, 1736.686589
 178.873609, 1750.142176
 180.074977, 1763.639679
 181.276345, 1777.954008
 182.477713, 1792.313897
 183.679081, 1807.008710
 184.880449, 1822.267131
 186.081817, 1837.588203
 187.283185, 1853.418511
 188.484553, 1869.675469
 189.685921, 1886.012211
 190.887289, 1902.900553
 192.088657, 1920.207922
 193.290025, 1937.612215
 194.491393, 1955.464845
 195.692761, 1973.871715
 196.894129, 1992.392617
 198.095497, 2011.098863
 199.296865, 2030.651324
 200.498233, 2050.334862
 201.699601, 2070.150285
 202.900969, 2090.507411
 204.102337, 2111.396361
 205.303706, 2132.434229
 206.505074, 2153.621912
 207.706442, 2175.509432
 208.907810, 2197.808918
 210.109178, 2220.275196
 211.310546, 2242.909246
 212.511914, 2266.176789
 213.713282, 2289.956944
 214.914650, 2313.921748
 216.116018, 2338.072262
 217.317386, 2362.538183
 218.518754, 2387.864843
 219.720122, 2413.393945
 220.921490, 2439.126628
 222.122858, 2465.064030
 223.324226, 2491.510937
 224.525594, 2518.665387
 225.726962, 2546.041173
 226.928330, 2573.639506
 228.129698, 2601.461596
 229.331066, 2629.660679
 230.532434, 2658.735352
 231.733802, 2688.050233
 232.935170, 2717.606601
 234.136538, 2747.405735
 235.337906, 2777.448913
 236.539274, 2808.158176
 237.740642, 2839.498643
 238.942010, 2871.099452
 240.143378, 2902.961945
 241.344746, 2935.087467
 242.546114, 2967.477359
 243.747482, 3000.384888
 244.948850, 3034.109969
 246.150218, 3068.115506
 247.351586, 3102.402903
 248.552954, 3136.973561
 249.754322, 3171.828886
 250.955690, 3206.970279
 252.157058, 3242.766525
 253.358426, 3279.288041
 254.559794, 3316.111495
 255.761162, 3353.238346
 256.962530, 3390.670056
 258.163898, 3428.408082
 259.365266, 3466.453885
 260.566634, 3504.808925
 261.768002, 3544.147515
 262.969370, 3583.933068
 264.170738, 3624.043495
 265.372106, 3664.480309
