Time, Rate of Climb
   0.000000,    0.000000
   0.001667,    0.000000
   0.003333,    0.000000
   0.005000,    0.000000
   0.006667,    0.000000
   0.008333,    0.000000
   0.010000,    0.000000
   0.011667,    0.000000
   0.013333,    0.000000
   0.015000,    0.000000
   0.016667,    0.000000
   0.018333,    0.000000
   0.020000,    0.000000
   0.021667,    0.000000
   0.023333,    0.000000
   0.025000,    0.000000
   0.026667,    0.000000
   0.028333,    0.000000
   0.030000,    0.000000
   0.031667,    0.000000
   0.033333,    0.000000
   0.035000,    0.000000
   0.036667,    0.000000
   0.038333,    0.000000
   0.040000,    0.000000
   0.041667,    0.000000
   0.043333,    0.000000
   0.045000,    0.000000
   0.046667,    0.000000
   0.048333,    0.000000
   0.050000,    0.000000
   0.051667,    0.000000
   0.053333,    0.000000
   0.055000,    0.000000
   0.056667,    0.000000
   0.058333,    0.000000
   0.060000,    0.000000
   0.061667,    0.000000
   0.063333,    0.000000
   0.065000,    0.000000
   0.066667,    0.000000
   0.068333,    0.000000
   0.070000,    0.000000
   0.071667,    0.000000
   0.073333,    0.000000
   0.075000,    0.000000
   0.076667,    0.000000
   0.078333,    0.000000
   0.080000,    0.000000
   0.081667,    0.000000
   0.083333,    0.000000
   0.085000,    0.000000
   0.086667,    0.000000
   0.088333,    0.000000
   0.090000,    0.000000
   0.091667,    0.000000
   0.093333,    0.000000
   0.095000,    0.000000
   0.096667,    0.000000
   0.098333,    0.000000
   0.100000,    0.000000
   0.101667,    0.000000
   0.103333,    0.000000
   0.105000,    0.000000
   0.106667,    0.000000
   0.108333,    0.000000
   0.110000,    0.000000
   0.111667,    0.000000
   0.113333,    0.000000
   0.115000,    0.000000
   0.116667,    0.000000
   0.118333,    0.000000
   0.120000,    0.000000
   0.121667,    0.000000
   0.123333,    0.000000
   0.125000,    0.000000
   0.126667,    0.000000
   0.128333,    0.000000
   0.130000,    0.000000
   0.131667,    0.000000
   0.133333,    0.000000
   0.135000,    0.000000
   0.136667,    0.000000
   0.138333,    0.000000
   0.140000,    0.000000
   0.141667,    0.000000
   0.143333,    0.000000
   0.145000,    0.000000
   0.146667,    0.000000
   0.148333,    0.000000
   0.150000,    0.000000
   0.151667,    0.000000
   0.153333,    0.000000
   0.155000,    0.000000
   0.156667,    0.000000
   0.158333,    0.000000
   0.160000,    0.000000
   0.161667,    0.000000
   0.163333,    0.000000
   0.165000,    0.000000
   0.166667,    0.000000
   0.168333,    0.000000
   0.170000,    0.000000
   0.171667,    0.000000
   0.173333,    0.000000
   0.175000,    0.000000
   0.176667,    0.000000
   0.178333,    0.000000
   0.180000,    0.000000
   0.181667,    0.000000
   0.183333,    0.000000
   0.185000,    0.000000
   0.186667,    0.000000
   0.188333,    0.000000
   0.190000,    0.000000
   0.191667,    0.000000
   0.193333,    0.000000
   0.195000,    0.000000
   0.196667,    0.000000
   0.198333,    0.000000
   0.200000,    0.000000
   0.201667,    0.000000
   0.203333,    0.000000
   0.205000,    0.000000
   0.206667,    0.000000
   0.208333,    0.000000
   0.210000,    0.000000
   0.211667,    0.000000
   0.213333,    0.000000
   0.215000,    0.000000
   0.216667,    0.000000
   0.218333,    0.000000
   0.220000,    0.000000
   0.221667,    0.000000
   0.223333,    0.000000
   0.225000,    0.000000
   0.226667,    0.000000
   0.228333,    0.000000
   0.230000,    0.000000
   0.231667,    0.000000
   0.233333,    0.000000
   0.235000,    0.000000
   0.236667,    0.000000
   0.238333,    0.000000
   0.240000,    0.000000
   0.241667,    0.000000
   0.243333,    0.000000
   0.245000,    0.000000
   0.246667,    0.000000
   0.248333,    0.000000
   0.250000,    0.000000
   0.251667,    0.000000
   0.253333,    0.000000
   0.255000,    0.000000
   0.256667,    0.000000
   0.258333,    0.000000
   0.260000,    0.000000
   0.261667,    0.000000
   0.263333,    0.000000
   0.265000,    0.000000
   0.266667,    0.000000
   0.268333,    0.000000
   0.270000,    0.000000
   0.271667,    0.000000
   0.273333,    0.000000
   0.275000,    0.000000
   0.276667,    0.000000
   0.278333,    0.000000
   0.280000,    0.000000
   0.281667,    0.000000
   0.283333,    0.000000
   0.285000,    0.000000
   0.286667,    0.000000
   0.288333,    0.000000
   0.290000,    0.000000
   0.291667,    0.000000
   0.293333,    0.000000
   0.295000,    0.000000
   0.296667,    0.000000
   0.298333,    0.000000
   0.300000,    0.000000
   0.301667,    0.000000
   0.303333,    0.000000
   0.305000,    0.000000
   0.306667,    0.000000
   0.308333,    0.000000
   0.310000,    0.000000
   0.311667,    0.000000
   0.312642,    0.000000
   0.314309,    0.000000
   0.315975,    0.000000
   0.317642,    0.000000
   0.319309,    0.000000
   0.320975,    0.000000
   0.322642,    0.000000
   0.324309,    0.000000
   0.325975,    0.000000
   0.327642,    0.000000
   0.329309,    0.000000
   0.330975,    0.000000
   0.332642,    0.000000
   0.334309,    0.000000
   0.335975,    0.000000
   0.337642,    0.000000
   0.339309,    0.000000
   0.340975,    0.000000
   0.342642,    0.000000
   0.344309,    0.000000
   0.345975,    0.000000
   0.347642,    0.000000
   0.349309,    0.000000
   0.350975,    0.000000
   0.352642,    0.000000
   0.354309,    0.000000
   0.355975,    0.000000
   0.357642,    0.000000
   0.359309,    0.000000
   0.360975,    0.000000
   0.362642,    0.000000
   0.364309,    0.000000
   0.365975,    0.000000
   0.367642,    0.000000
   0.368518,    0.000000
   0.370185,   61.298899
   0.371852,  122.597799
   0.373518,  183.896698
   0.375185,  245.195597
   0.376852,  306.494497
   0.378518,  367.793396
   0.380185,  429.092295
   0.381852,  490.391195
   0.383518,  551.690094
   0.385185,  612.988993
   0.386852,  681.030577
   0.388518,  749.072160
   0.390185,  817.113743
   0.391852,  885.155327
   0.393518,  953.196910
   0.395185, 1022.264482
   0.396852, 1091.332055
   0.398518, 1160.399627
   0.400185, 1229.467200
   0.401852, 1298.534772
   0.403518, 1367.931682
   0.405185, 1437.328591
   0.406852, 1506.725500
   0.408518, 1576.122410
   0.410185, 1645.519319
   0.410185, 1593.808977
   1.605400, 1560.782269
   2.825139, 1530.341815
   4.084250, 1465.249450
   5.433948, 1334.110615
   6.920962, 1207.480652
   8.567151, 1088.791698
  10.405942,  968.502208
  12.496124,  843.755509
  14.982109,  688.481207
  14.982109,    0.000000
  15.801212,    0.000000
  16.620315,    0.000000
  17.439418,    0.000000
  18.258522,    0.000000
  19.077625,    0.000000
  19.896728,    0.000000
  20.715832,    0.000000
  21.534935,    0.000000
  22.354038,    0.000000
  23.173141,    0.000000
  23.992245,    0.000000
  24.811348,    0.000000
  25.630451,    0.000000
  26.449554,    0.000000
  27.268658,    0.000000
  28.087761,    0.000000
  28.906864,    0.000000
  29.725967,    0.000000
  30.545071,    0.000000
  31.364174,    0.000000
  32.183277,    0.000000
  33.002380,    0.000000
  33.821484,    0.000000
  34.640587,    0.000000
  35.459690,    0.000000
  36.278793,    0.000000
  37.097897,    0.000000
  37.917000,    0.000000
  38.736103,    0.000000
  38.736103, -1470.338770
  39.896032, -1485.116660
  41.058764, -1481.544995
  42.220084, -1483.350818
  43.376236, -1489.975295
  44.524976, -1499.575736
  45.661995, -1515.012318
  46.783206, -1536.333842
  47.900611, -1541.556069
  49.010509, -1551.964673
  49.010509, 1638.057928
  49.589924, 1622.014703
  50.174964, 1606.704544
  50.765469, 1592.133011
  51.364214, 1562.885103
  51.981985, 1496.155951
  52.628108, 1428.813723
  53.305596, 1360.916474
  54.016769, 1296.656638
  54.763442, 1234.604671
  54.763442,    0.000000
  56.615618,    0.000000
  58.468603,    0.000000
  60.322397,    0.000000
  62.177002,    0.000000
  64.032418,    0.000000
  65.888646,    0.000000
  67.745686,    0.000000
  69.603540,    0.000000
  71.462208,    0.000000
  71.462208, -1496.876822
  72.108615, -1461.339920
  72.744854, -1484.659520
  73.383630, -1478.751302
  74.025084, -1472.590132
  74.669359, -1466.157706
  75.316244, -1460.251895
  75.965602, -1454.703926
  76.616971, -1450.223407
  77.269434, -1447.798137
  77.269434,    0.000000
  82.269434,    0.000000
  87.269434,    0.000000
  92.269434,    0.000000
  97.269434,    0.000000
 102.269434,    0.000000
 107.269434,    0.000000
 112.269434,    0.000000
 117.269434,    0.000000
 122.269434,    0.000000
 122.269434, -569.322473
 122.271101, -569.048850
 122.272767, -569.031787
 122.274434, -569.014725
 122.276101, -568.956962
 122.277767, -568.891265
 122.279434, -568.825567
 122.281101, -568.759870
 122.282767, -568.694173
 122.284434, -568.628476
 122.286101, -568.562778
 122.287767, -568.497081
 122.289434, -568.431384
 122.291101, -568.365686
 122.292767, -568.329255
 122.294434, -568.298528
 122.296101, -568.267801
 122.297767, -568.237074
 122.299434, -568.206347
 122.301101, -568.175620
 122.302767, -568.144894
 122.304434, -568.114167
 122.306101, -568.083440
 122.307767, -568.052713
 122.309434, -568.043203
 122.311101, -568.037830
 122.312767, -568.032456
 122.314434, -568.027082
 122.316101, -568.021709
 122.317767, -568.016335
 122.319434, -568.010961
 122.321101, -568.005587
 122.322767, -568.000214
 122.324434, -567.994840
 122.326101, -567.849367
 122.327767, -567.676585
 122.329434, -567.503803
 122.331101, -567.331021
 122.332767, -567.158239
 122.334434, -566.985457
 122.336101, -566.812674
 122.337767, -566.639892
 122.339434, -566.467110
 122.341101, -566.294328
 122.342767, -566.381082
 122.344434, -566.518428
 122.346101, -566.655774
 122.347767, -566.793120
 122.349434, -566.930466
 122.351101, -567.067812
 122.352767, -567.205158
 122.354434, -567.342504
 122.356101, -567.479850
 122.357767, -567.617196
 122.359434, -567.615889
 122.361101, -567.587555
 122.362767, -567.559222
 122.364434, -567.530888
 122.366101, -567.502554
 122.367767, -567.474220
 122.369434, -567.445887
 122.371101, -567.417553
 122.372767, -567.389219
 122.374434, -567.360885
 122.376101, -567.357169
 122.377767, -567.358252
 122.379434, -567.359334
 122.381101, -567.360417
 122.382767, -567.361499
 122.384434, -567.362582
 122.386101, -567.363664
 122.387767, -567.364747
 122.389434, -567.365829
 122.391101, -567.366912
 122.392767, -567.391869
 122.394434, -567.421481
 122.396101, -567.451092
 122.397767, -567.480703
 122.399434, -567.510315
 122.401101, -567.539926
 122.402767, -567.569538
 122.404434, -567.599149
 122.406101, -567.628761
 122.407767, -567.658372
 122.409434, -567.626336
 122.411101, -567.582282
 122.412767, -567.538229
 122.414434, -567.494175
 122.416101, -567.450122
 122.417767, -567.406068
 122.419434, -567.362015
 122.421101, -567.317961
 122.422767, -567.273908
 122.424434, -567.229854
 122.426101, -567.218175
 122.427767, -567.212807
 122.429434, -567.207439
 122.431101, -567.202071
 122.432767, -567.196703
 122.434434, -567.191335
 122.436101, -567.185967
 122.437767, -567.180598
 122.439434, -567.175230
 122.441101, -567.169862
 122.442767, -567.026445
 122.444434, -566.856119
 122.446101, -566.685792
 122.447767, -566.515465
 122.449434, -566.345139
 122.451101, -566.174812
 122.452767, -566.004485
 122.454434, -565.834159
 122.456101, -565.663832
 122.457767, -565.493505
 122.459434, -565.505521
 122.461101, -565.553081
 122.462767, -565.600641
 122.464434, -565.648202
 122.466101, -565.695762
 122.467767, -565.743322
 122.469434, -565.790882
 122.471101, -565.838442
 122.472767, -565.886002
 122.474434, -565.933562
 122.476101, -565.932850
 122.477767, -565.922728
 122.479434, -565.912607
 122.481101, -565.902485
 122.482767, -565.892364
 122.484434, -565.882242
 122.486101, -565.872120
 122.487767, -565.861999
 122.489434, -565.851877
 122.491101, -565.841756
 122.492767, -565.862215
 122.494434, -565.888636
 122.496101, -565.915057
 122.497767, -565.941478
 122.499434, -565.967899
 122.501101, -565.994320
 122.502767, -566.020741
 122.504434, -566.047162
 122.506101, -566.073583
 122.507767, -566.100004
 122.509434, -566.071187
 122.511101, -566.031603
 122.512767, -565.992018
 122.514434, -565.952434
 122.516101, -565.912849
 122.517767, -565.873264
 122.519434, -565.833680
 122.521101, -565.794095
 122.522767, -565.754511
 122.524434, -565.714926
 122.526101, -565.706477
 122.527767, -565.704097
 122.529434, -565.701717
 122.531101, -565.699337
 122.532767, -565.696957
 122.534434, -565.694577
 122.536101, -565.692197
 122.537767, -565.689817
 122.539434, -565.687437
 122.541101, -565.685057
 122.542767, -565.712963
 122.544434, -565.746772
 122.546101, -565.780580
 122.547767, -565.814389
 122.549434, -565.848198
 122.551101, -565.882007
 122.552767, -565.915816
 122.554434, -565.949625
 122.556101, -565.983434
 122.557767, -566.017243
 122.559434, -565.995067
 122.561101, -565.961978
 122.562767, -565.928890
 122.564434, -565.895801
 122.566101, -565.862712
 122.567767, -565.829623
 122.569434, -565.796534
 122.571101, -565.763445
 122.572767, -565.730356
 122.574434, -565.697267
 122.576101, -565.693582
 122.577767, -565.695629
 122.579434, -565.697676
 122.581101, -565.699722
 122.582767, -565.701769
 122.584434, -565.703815
 122.586101, -565.705862
 122.587767, -565.707908
 122.589434, -565.709955
 122.591101, -565.712002
 122.592767, -565.744637
 122.594434, -565.783235
 122.596101, -565.821833
 122.597767, -565.860431
 122.599434, -565.899029
 122.601101, -565.937628
 122.602767, -565.976226
 122.604434, -566.014824
 122.606101, -566.053422
 122.607767, -566.092020
 122.609434, -566.072449
 122.611101, -566.041538
 122.612767, -566.010628
 122.614434, -565.979718
 122.616101, -565.948808
 122.617767, -565.917897
 122.619434, -565.886987
 122.621101, -565.856077
 122.622767, -565.825166
 122.624434, -565.794256
 122.626101, -565.791347
 122.627767, -565.793897
 122.629434, -565.796446
 122.631101, -565.798996
 122.632767, -565.801546
 122.634434, -565.804095
 122.636101, -565.806645
 122.637767, -565.809194
 122.639434, -565.811744
 122.641101, -565.814294
 122.642767, -565.846069
 122.644434, -565.883542
 122.646101, -565.921014
 122.647767, -565.958487
 122.649434, -565.995959
 122.651101, -566.033432
 122.652767, -566.070904
 122.654434, -566.108377
 122.656101, -566.145849
 122.657767, -566.183322
 122.659434, -566.161294
 122.661101, -566.127667
 122.662767, -566.094041
 122.664434, -566.060415
 122.666101, -566.026788
 122.667767, -565.993162
 122.669434, -565.959536
 122.671101, -565.925909
 122.672767, -565.892283
 122.674434, -565.858657
 122.676101, -565.852746
 122.677767, -565.852239
 122.679434, -565.851732
 122.681101, -565.851224
 122.682767, -565.850717
 122.684434, -565.850209
 122.686101, -565.849702
 122.687767, -565.849194
 122.689434, -565.848687
 122.691101, -565.848179
 122.692767, -565.874596
 122.694434, -565.906261
 122.696101, -565.937926
 122.697767, -565.969591
 122.699434, -566.001257
 122.701101, -566.032922
 122.702767, -566.064587
 122.704434, -566.096252
 122.706101, -566.127917
 122.707767, -566.159582
 122.709434, -566.131907
 122.711101, -566.092666
 122.712767, -566.053424
 122.714434, -566.014182
 122.716101, -565.974940
 122.717767, -565.935699
 122.719434, -565.896457
 122.721101, -565.857215
 122.722767, -565.817974
 122.724434, -565.778732
 122.726101, -565.767018
 122.727767, -565.760670
 122.729434, -565.754322
 122.731101, -565.747974
 122.732767, -565.741626
 122.734434, -565.735278
 122.736101, -565.728930
 122.737767, -565.722583
 122.739434, -565.716235
 122.741101, -565.709887
 122.742767, -565.730587
 122.744434, -565.756559
 122.746101, -565.782531
 122.747767, -565.808504
 122.749434, -565.834476
 122.751101, -565.860449
 122.752767, -565.886421
 122.754434, -565.912393
 122.756101, -565.938366
 122.757767, -565.964338
 122.759434, -565.931298
 122.761101, -565.886754
 122.762767, -565.842210
 122.764434, -565.797667
 122.766101, -565.753123
 122.767767, -565.708579
 122.769434, -565.664035
 122.771101, -565.619491
 122.772767, -565.574948
 122.774434, -565.530404
 122.776101, -565.773788
 122.777767, -566.073298
 122.779434, -566.372808
 122.781101, -566.672318
 122.782767, -566.971828
 122.784434, -567.271338
 122.786101, -567.570848
 122.787767, -567.870358
 122.789434, -568.169868
 122.791101, -568.469378
 122.792767, -568.373349
 122.794434, -568.200217
 122.796101, -568.027086
 122.797767, -567.853955
 122.799434, -567.680823
 122.801101, -567.507692
 122.802767, -567.334561
 122.804434, -567.161429
 122.806101, -566.988298
 122.807767, -566.815167
 122.809434, -566.731819
 122.811101, -566.665973
 122.812767, -566.600127
 122.814434, -566.534282
 122.816101, -566.468436
 122.817767, -566.402590
 122.819434, -566.336744
 122.821101, -566.270898
 122.822767, -566.205052
 122.824434, -566.139206
 122.826101, -566.105755
 122.827767, -566.078618
 122.829434, -566.051481
 122.831101, -566.024344
 122.832767, -565.997207
 122.834434, -565.970069
 122.836101, -565.942932
 122.837767, -565.915795
 122.839434, -565.888658
 122.841101, -565.861521
 122.842767, -565.850917
 122.844434, -565.843535
 122.846101, -565.836154
 122.847767, -565.828772
 122.849434, -565.821390
 122.851101, -565.814009
 122.852767, -565.806627
 122.854434, -565.799246
 122.856101, -565.791864
 122.857767, -565.784482
 122.859434, -565.801978
 122.861101, -565.824323
 122.862767, -565.846668
 122.864434, -565.869014
 122.866101, -565.891359
 122.867767, -565.913704
 122.869434, -565.936049
 122.871101, -565.958394
 122.872767, -565.980739
 122.874434, -566.003084
 122.876101, -565.964316
 122.877767, -565.913635
 122.879434, -565.862954
 122.881101, -565.812274
 122.882767, -565.761593
 122.884434, -565.710912
 122.886101, -565.660231
 122.887767, -565.609550
 122.889434, -565.558870
 122.891101, -565.508189
 122.892767, -565.491599
 122.894434, -565.481656
 122.896101, -565.471712
 122.897767, -565.461768
 122.899434, -565.451825
 122.901101, -565.441881
 122.902767, -565.431937
 122.904434, -565.421993
 122.906101, -565.412050
 122.907767, -565.402106
 122.909434, -565.254356
 122.911101, -565.079743
 122.912767, -564.905130
 122.914434, -564.730516
 122.916101, -564.555903
 122.917767, -564.381290
 122.919434, -564.206677
 122.921101, -564.032064
 122.922767, -563.857451
 122.924434, -563.682838
 122.926101, -563.693969
 122.927767, -563.741306
 122.929434, -563.788643
 122.931101, -563.835980
 122.932767, -563.883317
 122.934434, -563.930654
 122.936101, -563.977992
 122.937767, -564.025329
 122.939434, -564.072666
 122.941101, -564.120003
 122.942767, -564.120207
 122.944434, -564.111223
 122.946101, -564.102239
 122.947767, -564.093255
 122.949434, -564.084272
 122.951101, -564.075288
 122.952767, -564.066304
 122.954434, -564.057320
 122.956101, -564.048336
 122.957767, -564.039352
 122.959434, -564.062720
 122.961101, -564.092393
 122.962767, -564.122066
 122.964434, -564.151740
 122.966101, -564.181413
 122.967767, -564.211087
 122.969434, -564.240760
 122.971101, -564.270434
 122.972767, -564.300107
 122.974434, -564.329780
 122.976101, -564.304941
 122.977767, -564.269475
 122.979434, -564.234010
 122.981101, -564.198544
 122.982767, -564.163078
 122.984434, -564.127612
 122.986101, -564.092147
 122.987767, -564.056681
 122.989434, -564.021215
 122.991101, -563.985750
 122.992767, -563.981923
 122.994434, -563.984263
 122.996101, -563.986603
 122.997767, -563.988943
 122.999434, -563.991283
 123.001101, -563.993623
 123.002767, -563.995963
 123.004434, -563.998303
 123.006101, -564.000644
 123.007767, -564.002984
 123.009434, -564.038059
 123.011101, -564.079516
 123.012767, -564.120972
 123.014434, -564.162429
 123.016101, -564.203886
 123.017767, -564.245342
 123.019434, -564.286799
 123.021101, -564.328256
 123.022767, -564.369712
 123.024434, -564.411169
 123.026101, -564.395628
 123.027767, -564.368976
 123.029434, -564.342324
 123.031101, -564.315673
 123.032767, -564.289021
 123.034434, -564.262369
 123.036101, -564.235718
 123.037767, -564.209066
 123.039434, -564.182414
 123.041101, -564.155763
 123.042767, -564.004046
 123.044434, -563.827951
 123.046101, -563.651855
 123.047767, -563.475760
 123.049434, -563.299665
 123.051101, -563.123569
 123.052767, -562.947474
 123.054434, -562.771378
 123.056101, -562.595283
 123.057767, -562.419188
 123.059434, -562.433561
 123.061101, -562.485062
 123.062767, -562.536563
 123.064434, -562.588065
 123.066101, -562.639566
 123.067767, -562.691067
 123.069434, -562.742569
 123.071101, -562.794070
 123.072767, -562.845571
 123.074434, -562.897072
 123.076101, -562.905177
 123.077767, -562.904822
 123.079434, -562.904467
 123.081101, -562.904112
 123.082767, -562.903757
 123.084434, -562.903401
 123.086101, -562.903046
 123.087767, -562.902691
 123.089434, -562.902336
 123.091101, -562.901981
 123.092767, -562.937298
 123.094434, -562.979568
 123.096101, -563.021837
 123.097767, -563.064107
 123.099434, -563.106377
 123.101101, -563.148647
 123.102767, -563.190917
 123.104434, -563.233186
 123.106101, -563.275456
 123.107767, -563.317726
 123.109434, -563.307798
 123.111101, -563.287695
 123.112767, -563.267592
 123.114434, -563.247489
 123.116101, -563.227386
 123.117767, -563.207283
 123.119434, -563.187180
 123.121101, -563.167077
 123.122767, -563.146974
 123.124434, -563.126871
 123.126101, -563.320583
 123.127767, -563.555974
 123.129434, -563.791365
 123.131101, -564.026756
 123.132767, -564.262147
 123.134434, -564.497538
 123.136101, -564.732929
 123.137767, -564.968321
 123.139434, -565.203712
 123.141101, -565.439103
 123.142767, -565.303298
 123.144434, -565.095136
 123.146101, -564.886973
 123.147767, -564.678811
 123.149434, -564.470649
 123.151101, -564.262487
 123.152767, -564.054325
 123.154434, -563.846162
 123.156101, -563.638000
 123.157767, -563.429838
 123.159434, -563.391561
 123.161101, -563.386399
 123.162767, -563.381238
 123.164434, -563.376076
 123.166101, -563.370914
 123.167767, -563.365753
 123.169434, -563.360591
 123.171101, -563.355430
 123.172767, -563.350268
 123.174434, -563.345106
 123.176101, -563.372074
 123.177767, -563.405306
 123.179434, -563.438537
 123.181101, -563.471768
 123.182767, -563.504999
 123.184434, -563.538230
 123.186101, -563.571461
 123.187767, -563.604692
 123.189434, -563.637923
 123.191101, -563.671154
 123.192767, -563.649137
 123.194434, -563.616349
 123.196101, -563.583562
 123.197767, -563.550774
 123.199434, -563.517987
 123.201101, -563.485199
 123.202767, -563.452412
 123.204434, -563.419625
 123.206101, -563.386837
 123.207767, -563.354050
 123.209434, -563.352393
 123.211101, -563.356805
 123.212767, -563.361216
 123.214434, -563.365628
 123.216101, -563.370039
 123.217767, -563.374451
 123.219434, -563.378863
 123.221101, -563.383274
 123.222767, -563.387686
 123.224434, -563.392098
 123.226101, -563.428665
 123.227767, -563.471500
 123.229434, -563.514335
 123.231101, -563.557170
 123.232767, -563.600005
 123.234434, -563.642840
 123.236101, -563.685675
 123.237767, -563.728510
 123.239434, -563.771345
 123.241101, -563.814180
 123.242767, -563.799041
 123.244434, -563.772602
 123.246101, -563.746163
 123.247767, -563.719724
 123.249434, -563.693285
 123.251101, -563.666846
 123.252767, -563.640406
 123.254434, -563.613967
 123.256101, -563.587528
 123.257767, -563.561089
 123.259434, -563.408346
 123.261101, -563.230982
 123.262767, -563.053618
 123.264434, -562.876254
 123.266101, -562.698891
 123.267767, -562.521527
 123.269434, -562.344163
 123.271101, -562.166799
 123.272767, -561.989436
 123.274434, -561.812072
 123.276101, -561.825290
 123.277767, -561.875657
 123.279434, -561.926025
 123.281101, -561.976392
 123.282767, -562.026760
 123.284434, -562.077127
 123.286101, -562.127495
 123.287767, -562.177863
 123.289434, -562.228230
 123.291101, -562.278598
 123.292767, -562.284824
 123.294434, -562.282447
 123.296101, -562.280069
 123.297767, -562.277691
 123.299434, -562.275313
 123.301101, -562.272935
 123.302767, -562.270557
 123.304434, -562.268180
 123.306101, -562.265802
 123.307767, -562.263424
 123.309434, -562.296429
 123.311101, -562.336332
 123.312767, -562.376235
 123.314434, -562.416138
 123.316101, -562.456041
 123.317767, -562.495943
 123.319434, -562.535846
 123.321101, -562.575749
 123.322767, -562.615652
 123.324434, -562.655555
 123.326101, -562.642763
 123.327767, -562.619699
 123.329434, -562.596635
 123.331101, -562.573572
 123.332767, -562.550508
 123.334434, -562.527444
 123.336101, -562.504380
 123.337767, -562.481317
 123.339434, -562.458253
 123.341101, -562.435189
 123.342767, -562.626700
 123.344434, -562.860038
 123.346101, -563.093375
 123.347767, -563.326713
 123.349434, -563.560051
 123.351101, -563.793389
 123.352767, -564.026726
 123.354434, -564.260064
 123.356101, -564.493402
 123.357767, -564.726739
 123.359434, -564.587405
 123.361101, -564.375426
 123.362767, -564.163447
 123.364434, -563.951468
 123.366101, -563.739488
 123.367767, -563.527509
 123.369434, -563.315530
 123.371101, -563.103551
 123.372767, -562.891571
 123.374434, -562.679592
 123.376101, -562.638401
 123.377767, -562.630501
 123.379434, -562.622601
 123.381101, -562.614701
 123.382767, -562.606801
 123.384434, -562.598901
 123.386101, -562.591001
 123.387767, -562.583101
 123.389434, -562.575201
 123.391101, -562.567301
 123.392767, -562.592117
 123.394434, -562.623310
 123.396101, -562.654503
 123.397767, -562.685696
 123.399434, -562.716890
 123.401101, -562.748083
 123.402767, -562.779276
 123.404434, -562.810469
 123.406101, -562.841662
 123.407767, -562.872856
 123.409434, -562.849158
 123.411101, -562.814760
 123.412767, -562.780362
 123.414434, -562.745964
 123.416101, -562.711566
 123.417767, -562.677168
 123.419434, -562.642770
 123.421101, -562.608372
 123.422767, -562.573974
 123.424434, -562.539576
 123.426101, -562.537138
 123.427767, -562.540929
 123.429434, -562.544721
 123.431101, -562.548512
 123.432767, -562.552304
 123.434434, -562.556095
 123.436101, -562.559887
 123.437767, -562.563678
 123.439434, -562.567470
 123.441101, -562.571261
 123.442767, -562.608097
 123.444434, -562.651375
 123.446101, -562.694652
 123.447767, -562.737930
 123.449434, -562.781207
 123.451101, -562.824485
 123.452767, -562.867762
 123.454434, -562.911040
 123.456101, -562.954317
 123.457767, -562.997595
 123.459434, -562.983511
 123.461101, -562.958244
 123.462767, -562.932978
 123.464434, -562.907712
 123.466101, -562.882446
 123.467767, -562.857180
 123.469434, -562.831914
 123.471101, -562.806648
 123.472767, -562.781382
 123.474434, -562.756116
 123.476101, -562.604786
 123.477767, -562.428881
 123.479434, -562.252977
 123.481101, -562.077073
 123.482767, -561.901168
 123.484434, -561.725264
 123.486101, -561.549359
 123.487767, -561.373455
 123.489434, -561.197551
 123.491101, -561.021646
 123.492767, -561.037636
 123.494434, -561.091032
 123.496101, -561.144428
 123.497767, -561.197824
 123.499434, -561.251220
 123.501101, -561.304616
 123.502767, -561.358012
 123.504434, -561.411408
 123.506101, -561.464804
 123.507767, -561.518200
 123.509434, -561.527856
 123.511101, -561.528986
 123.512767, -561.530116
 123.514434, -561.531245
 123.516101, -561.532375
 123.517767, -561.533505
 123.519434, -561.534635
 123.521101, -561.535765
 123.522767, -561.536894
 123.524434, -561.538024
 123.526101, -561.575184
 123.527767, -561.619367
 123.529434, -561.663550
 123.531101, -561.707733
 123.532767, -561.751916
 123.534434, -561.796099
 123.536101, -561.840282
 123.537767, -561.884465
 123.539434, -561.928648
 123.541101, -561.972831
 123.542767, -561.964386
 123.544434, -561.945681
 123.546101, -561.926977
 123.547767, -561.908273
 123.549434, -561.889569
 123.551101, -561.870865
 123.552767, -561.852161
 123.554434, -561.833457
 123.556101, -561.814752
 123.557767, -561.796048
 123.559434, -561.992799
 123.561101, -562.231549
 123.562767, -562.470298
 123.564434, -562.709048
 123.566101, -562.947798
 123.567767, -563.186547
 123.569434, -563.425297
 123.571101, -563.664047
 123.572767, -563.902796
 123.574434, -564.141546
 123.576101, -564.006259
 123.577767, -563.798061
 123.579434, -563.589864
 123.581101, -563.381666
 123.582767, -563.173468
 123.584434, -562.965271
 123.586101, -562.757073
 123.587767, -562.548875
 123.589434, -562.340678
 123.591101, -562.132480
 123.592767, -562.095382
 123.594434, -562.091637
 123.596101, -562.087892
 123.597767, -562.084146
 123.599434, -562.080401
 123.601101, -562.076656
 123.602767, -562.072910
 123.604434, -562.069165
 123.606101, -562.065420
 123.607767, -562.061674
 123.609434, -562.090340
 123.611101, -562.125324
 123.612767, -562.160308
 123.614434, -562.195292
 123.616101, -562.230275
 123.617767, -562.265259
 123.619434, -562.300243
 123.621101, -562.335227
 123.622767, -562.370210
 123.624434, -562.405194
 123.626101, -562.384431
 123.627767, -562.352800
 123.629434, -562.321170
 123.631101, -562.289540
 123.632767, -562.257909
 123.634434, -562.226279
 123.636101, -562.194649
 123.637767, -562.163018
 123.639434, -562.131388
 123.641101, -562.099758
 123.642767, -562.099474
 123.644434, -562.105300
 123.646101, -562.111126
 123.647767, -562.116953
 123.649434, -562.122779
 123.651101, -562.128605
 123.652767, -562.134431
 123.654434, -562.140258
 123.656101, -562.146084
 123.657767, -562.151910
 123.659434, -562.190103
 123.661101, -562.234605
 123.662767, -562.279106
 123.664434, -562.323608
 123.666101, -562.368110
 123.667767, -562.412612
 123.669434, -562.457113
 123.671101, -562.501615
 123.672767, -562.546117
 123.674434, -562.590619
 123.676101, -562.576692
 123.677767, -562.551375
 123.679434, -562.526059
 123.681101, -562.500742
 123.682767, -562.475426
 123.684434, -562.450109
 123.686101, -562.424793
 123.687767, -562.399476
 123.689434, -562.374160
 123.691101, -562.348843
 123.692767, -562.196144
 123.694434, -562.018615
 123.696101, -561.841085
 123.697767, -561.663556
 123.699434, -561.486026
 123.701101, -561.308497
 123.702767, -561.130967
 123.704434, -560.953438
 123.706101, -560.775908
 123.707767, -560.598378
 123.709434, -560.612820
 123.711101, -560.664682
 123.712767, -560.716545
 123.714434, -560.768407
 123.716101, -560.820269
 123.717767, -560.872132
 123.719434, -560.923994
 123.721101, -560.975856
 123.722767, -561.027719
 123.724434, -561.079581
 123.726101, -561.086931
 123.727767, -561.085604
 123.729434, -561.084277
 123.731101, -561.082950
 123.732767, -561.081624
 123.734434, -561.080297
 123.736101, -561.078970
 123.737767, -561.077643
 123.739434, -561.076316
 123.741101, -561.074989
 123.742767, -561.109405
 123.744434, -561.150789
 123.746101, -561.192173
 123.747767, -561.233556
 123.749434, -561.274940
 123.751101, -561.316323
 123.752767, -561.357707
 123.754434, -561.399090
 123.756101, -561.440474
 123.757767, -561.481857
 123.759434, -561.470133
 123.761101, -561.448057
 123.762767, -561.425981
 123.764434, -561.403905
 123.766101, -561.381829
 123.767767, -561.359753
 123.769434, -561.337677
 123.771101, -561.315601
 123.772767, -561.293525
 123.774434, -561.271449
 123.776101, -561.465644
 123.777767, -561.701997
 123.779434, -561.938349
 123.781101, -562.174702
 123.782767, -562.411054
 123.784434, -562.647407
 123.786101, -562.883759
 123.787767, -563.120112
 123.789434, -563.356465
 123.791101, -563.592817
 123.792767, -563.453686
 123.794434, -563.241363
 123.796101, -563.029039
 123.797767, -562.816716
 123.799434, -562.604392
 123.801101, -562.392069
 123.802767, -562.179745
 123.804434, -561.967421
 123.806101, -561.755098
 123.807767, -561.542774
 123.809434, -561.502529
 123.811101, -561.495826
 123.812767, -561.489124
 123.814434, -561.482421
 123.816101, -561.475719
 123.817767, -561.469017
 123.819434, -561.462314
 123.821101, -561.455612
 123.822767, -561.448909
 123.824434, -561.442207
 123.826101, -561.468462
 123.827767, -561.501141
 123.829434, -561.533820
 123.831101, -561.566499
 123.832767, -561.599178
 123.834434, -561.631856
 123.836101, -561.664535
 123.837767, -561.697214
 123.839434, -561.729893
 123.841101, -561.762572
 123.842767, -561.739795
 123.844434, -561.706207
 123.846101, -561.672619
 123.847767, -561.639031
 123.849434, -561.605443
 123.851101, -561.571855
 123.852767, -561.538267
 123.854434, -561.504679
 123.856101, -561.471091
 123.857767, -561.437502
 123.859434, -561.435985
 123.861101, -561.440720
 123.862767, -561.445454
 123.864434, -561.450188
 123.866101, -561.454922
 123.867767, -561.459657
 123.869434, -561.464391
 123.871101, -561.469125
 123.872767, -561.473860
 123.874434, -561.478594
 123.876101, -561.516457
 123.877767, -561.560777
 123.879434, -561.605097
 123.881101, -561.649418
 123.882767, -561.693738
 123.884434, -561.738058
 123.886101, -561.782378
 123.887767, -561.826699
 123.889434, -561.871019
 123.891101, -561.915339
 123.892767, -561.901611
 123.894434, -561.876567
 123.896101, -561.851523
 123.897767, -561.826479
 123.899434, -561.801435
 123.901101, -561.776391
 123.902767, -561.751348
 123.904434, -561.726304
 123.906101, -561.701260
 123.907767, -561.676216
 123.909434, -561.523838
 123.911101, -561.346639
 123.912767, -561.169439
 123.914434, -560.992240
 123.916101, -560.815041
 123.917767, -560.637842
 123.919434, -560.460643
 123.921101, -560.283443
 123.922767, -560.106244
 123.924434, -559.929045
 123.926101, -559.945105
 123.927767, -559.998837
 123.929434, -560.052569
 123.931101, -560.106301
 123.932767, -560.160032
 123.934434, -560.213764
 123.936101, -560.267496
 123.937767, -560.321228
 123.939434, -560.374960
 123.941101, -560.428692
 123.942767, -560.438116
 123.944434, -560.438903
 123.946101, -560.439691
 123.947767, -560.440478
 123.949434, -560.441265
 123.951101, -560.442052
 123.952767, -560.442840
 123.954434, -560.443627
 123.956101, -560.444414
 123.957767, -560.445201
 123.959434, -560.482144
 123.961101, -560.526134
 123.962767, -560.570124
 123.964434, -560.614114
 123.966101, -560.658105
 123.967767, -560.702095
 123.969434, -560.746085
 123.971101, -560.790075
 123.972767, -560.834065
 123.974434, -560.878056
 123.976101, -560.868848
 123.977767, -560.849270
 123.979434, -560.829692
 123.981101, -560.810115
 123.982767, -560.790537
 123.984434, -560.770959
 123.986101, -560.751382
 123.987767, -560.731804
 123.989434, -560.712226
 123.991101, -560.692649
 123.992767, -560.890227
 123.994434, -561.130134
 123.996101, -561.370042
 123.997767, -561.609950
 123.999434, -561.849858
 124.001101, -562.089766
 124.002767, -562.329674
 124.004434, -562.569582
 124.006101, -562.809489
 124.007767, -563.049397
 124.009434, -562.912131
 124.011101, -562.701342
 124.012767, -562.490553
 124.014434, -562.279764
 124.016101, -562.068975
 124.017767, -561.858186
 124.019434, -561.647397
 124.021101, -561.436608
 124.022767, -561.225819
 124.024434, -561.015030
 124.026101, -560.976773
 124.027767, -560.972148
 124.029434, -560.967522
 124.031101, -560.962897
 124.032767, -560.958271
 124.034434, -560.953646
 124.036101, -560.949020
 124.037767, -560.944395
 124.039434, -560.939769
 124.041101, -560.935144
 124.042767, -560.963259
 124.044434, -560.997757
 124.046101, -561.032255
 124.047767, -561.066752
 124.049434, -561.101250
 124.051101, -561.135747
 124.052767, -561.170245
 124.054434, -561.204743
 124.056101, -561.239240
 124.057767, -561.273738
 124.059434, -561.252126
 124.061101, -561.219577
 124.062767, -561.187028
 124.064434, -561.154479
 124.066101, -561.121930
 124.067767, -561.089380
 124.069434, -561.056831
 124.071101, -561.024282
 124.072767, -560.991733
 124.074434, -560.959184
 124.076101, -560.958374
 124.077767, -560.963752
 124.079434, -560.969130
 124.081101, -560.974508
 124.082767, -560.979885
 124.084434, -560.985263
 124.086101, -560.990641
 124.087767, -560.996018
 124.089434, -561.001396
 124.091101, -561.006774
 124.092767, -561.044944
 124.094434, -561.089505
 124.096101, -561.134067
 124.097767, -561.178629
 124.099434, -561.223191
 124.101101, -561.267753
 124.102767, -561.312315
 124.104434, -561.356877
 124.106101, -561.401439
 124.107767, -561.446000
 124.109434, -561.431818
 124.111101, -561.406185
 124.112767, -561.380553
 124.114434, -561.354920
 124.116101, -561.329287
 124.117767, -561.303654
 124.119434, -561.278021
 124.121101, -561.252388
 124.122767, -561.226755
 124.124434, -561.201122
 124.126101, -561.047215
 124.127767, -560.868304
 124.129434, -560.689393
 124.131101, -560.510482
 124.132767, -560.331572
 124.134434, -560.152661
 124.136101, -559.973750
 124.137767, -559.794839
 124.139434, -559.615928
 124.141101, -559.437017
 124.142767, -559.451828
 124.144434, -559.504402
 124.146101, -559.556976
 124.147767, -559.609550
 124.149434, -559.662124
 124.151101, -559.714697
 124.152767, -559.767271
 124.154434, -559.819845
 124.156101, -559.872419
 124.157767, -559.924992
 124.159434, -559.932821
 124.161101, -559.931927
 124.162767, -559.931033
 124.164434, -559.930138
 124.166101, -559.929244
 124.167767, -559.928350
 124.169434, -559.927456
 124.171101, -559.926562
 124.172767, -559.925668
 124.174434, -559.924774
 124.176101, -559.960034
 124.177767, -560.002340
 124.179434, -560.044647
 124.181101, -560.086953
 124.182767, -560.129260
 124.184434, -560.171567
 124.186101, -560.213873
 124.187767, -560.256180
 124.189434, -560.298487
 124.191101, -560.340793
 124.192767, -560.329632
 124.194434, -560.308049
 124.196101, -560.286465
 124.197767, -560.264882
 124.199434, -560.243298
 124.201101, -560.221715
 124.202767, -560.200131
 124.204434, -560.178548
 124.206101, -560.156965
 124.207767, -560.135381
 124.209434, -560.331914
 124.211101, -560.570965
 124.212767, -560.810016
 124.214434, -561.049067
 124.216101, -561.288117
 124.217767, -561.527168
 124.219434, -561.766219
 124.221101, -562.005270
 124.222767, -562.244320
 124.224434, -562.483371
 124.226101, -562.343826
 124.227767, -562.130481
 124.229434, -561.917136
 124.231101, -561.703791
 124.232767, -561.490446
 124.234434, -561.277101
 124.236101, -561.063757
 124.237767, -560.850412
 124.239434, -560.637067
 124.241101, -560.423722
 124.242767, -560.383861
 124.244434, -560.377817
 124.246101, -560.371774
 124.247767, -560.365730
 124.249434, -560.359687
 124.251101, -560.353643
 124.252767, -560.347599
 124.254434, -560.341556
 124.256101, -560.335512
 124.257767, -560.329468
 124.259434, -560.356599
 124.261101, -560.390197
 124.262767, -560.423794
 124.264434, -560.457391
 124.266101, -560.490989
 124.267767, -560.524586
 124.269434, -560.558183
 124.271101, -560.591781
 124.272767, -560.625378
 124.274434, -560.658976
 124.276101, -560.636569
 124.277767, -560.603245
 124.279434, -560.569921
 124.281101, -560.536597
 124.282767, -560.503273
 124.284434, -560.469949
 124.286101, -560.436625
 124.287767, -560.403302
 124.289434, -560.369978
 124.291101, -560.336654
 124.292767, -560.335561
 124.294434, -560.340751
 124.296101, -560.345940
 124.297767, -560.351130
 124.299434, -560.356320
 124.301101, -560.361510
 124.302767, -560.366700
 124.304434, -560.371889
 124.306101, -560.377079
 124.307767, -560.382269
 124.309434, -560.420743
 124.311101, -560.465706
 124.312767, -560.510668
 124.314434, -560.555630
 124.316101, -560.600593
 124.317767, -560.645555
 124.319434, -560.690518
 124.321101, -560.735480
 124.322767, -560.780442
 124.324434, -560.825405
 124.326101, -560.811709
 124.327767, -560.786580
 124.329434, -560.761451
 124.331101, -560.736322
 124.332767, -560.711192
 124.334434, -560.686063
 124.336101, -560.660934
 124.337767, -560.635804
 124.339434, -560.610675
 124.341101, -560.585546
 124.342767, -560.431893
 124.344434, -560.253187
 124.346101, -560.074482
 124.347767, -559.895776
 124.349434, -559.717070
 124.351101, -559.538364
 124.352767, -559.359658
 124.354434, -559.180953
 124.356101, -559.002247
 124.357767, -558.823541
 124.359434, -558.839588
 124.361101, -558.893599
 124.362767, -558.947610
 124.364434, -559.001620
 124.366101, -559.055631
 124.367767, -559.109641
 124.369434, -559.163652
 124.371101, -559.217662
 124.372767, -559.271673
 124.374434, -559.325683
 124.376101, -559.334913
 124.377767, -559.335414
 124.379434, -559.335915
 124.381101, -559.336417
 124.382767, -559.336918
 124.384434, -559.337419
 124.386101, -559.337920
 124.387767, -559.338421
 124.389434, -559.338922
 124.391101, -559.339423
 124.392767, -559.376304
 124.394434, -559.420276
 124.396101, -559.464248
 124.397767, -559.508220
 124.399434, -559.552192
 124.401101, -559.596163
 124.402767, -559.640135
 124.404434, -559.684107
 124.406101, -559.728079
 124.407767, -559.772051
 124.409434, -559.762329
 124.411101, -559.742141
 124.412767, -559.721953
 124.414434, -559.701765
 124.416101, -559.681576
 124.417767, -559.661388
 124.419434, -559.641200
 124.421101, -559.621011
 124.422767, -559.600823
 124.424434, -559.580635
 124.426101, -559.779395
 124.427767, -560.020835
 124.429434, -560.262275
 124.431101, -560.503716
 124.432767, -560.745156
 124.434434, -560.986596
 124.436101, -561.228036
 124.437767, -561.469476
 124.439434, -561.710916
 124.441101, -561.952356
 124.442767, -561.813477
 124.444434, -561.600462
 124.446101, -561.387447
 124.447767, -561.174431
 124.449434, -560.961416
 124.451101, -560.748401
 124.452767, -560.535386
 124.454434, -560.322371
 124.456101, -560.109356
 124.457767, -559.896340
 124.459434, -559.857333
 124.461101, -559.852246
 124.462767, -559.847158
 124.464434, -559.842070
 124.466101, -559.836982
 124.467767, -559.831895
 124.469434, -559.826807
 124.471101, -559.821719
 124.472767, -559.816632
 124.474434, -559.811544
 124.476101, -559.839530
 124.477767, -559.873962
 124.479434, -559.908395
 124.481101, -559.942828
 124.482767, -559.977260
 124.484434, -560.011693
 124.486101, -560.046126
 124.487767, -560.080558
 124.489434, -560.114991
 124.491101, -560.149424
 124.492767, -560.127354
 124.494434, -560.094271
 124.496101, -560.061187
 124.497767, -560.028104
 124.499434, -559.995020
 124.501101, -559.961936
 124.502767, -559.928853
 124.504434, -559.895769
 124.506101, -559.862686
 124.507767, -559.829602
 124.509434, -559.828614
 124.511101, -559.833882
 124.512767, -559.839150
 124.514434, -559.844418
 124.516101, -559.849686
 124.517767, -559.854954
 124.519434, -559.860222
 124.521101, -559.865490
 124.522767, -559.870758
 124.524434, -559.876026
 124.526101, -559.914458
 124.527767, -559.959355
 124.529434, -560.004252
 124.531101, -560.049149
 124.532767, -560.094046
 124.534434, -560.138943
 124.536101, -560.183840
 124.537767, -560.228736
 124.539434, -560.273633
 124.541101, -560.318530
 124.542767, -560.304291
 124.544434, -560.278524
 124.546101, -560.252757
 124.547767, -560.226990
 124.549434, -560.201223
 124.551101, -560.175456
 124.552767, -560.149689
 124.554434, -560.123922
 124.556101, -560.098155
 124.557767, -560.072388
 124.559434, -559.917363
 124.561101, -559.737141
 124.562767, -559.556919
 124.564434, -559.376697
 124.566101, -559.196475
 124.567767, -559.016254
 124.569434, -558.836032
 124.571101, -558.655810
 124.572767, -558.475588
 124.574434, -558.295366
 124.576101, -558.310567
 124.577767, -558.363860
 124.579434, -558.417154
 124.581101, -558.470448
 124.582767, -558.523742
 124.584434, -558.577036
 124.586101, -558.630330
 124.587767, -558.683624
 124.589434, -558.736918
 124.591101, -558.790212
 124.592767, -558.798446
 124.594434, -558.797897
 124.596101, -558.797347
 124.597767, -558.796798
 124.599434, -558.796249
 124.601101, -558.795699
 124.602767, -558.795150
 124.604434, -558.794601
 124.606101, -558.794051
 124.607767, -558.793502
 124.609434, -558.829454
 124.611101, -558.872522
 124.612767, -558.915589
 124.614434, -558.958657
 124.616101, -559.001724
 124.617767, -559.044792
 124.619434, -559.087859
 124.621101, -559.130927
 124.622767, -559.173994
 124.624434, -559.217062
 124.626101, -559.206239
 124.627767, -559.184911
 124.629434, -559.163583
 124.631101, -559.142255
 124.632767, -559.120927
 124.634434, -559.099599
 124.636101, -559.078270
 124.637767, -559.056942
 124.639434, -559.035614
 124.641101, -559.014286
 124.642767, -559.212911
 124.644434, -559.454410
 124.646101, -559.695909
 124.647767, -559.937409
 124.649434, -560.178908
 124.651101, -560.420408
 124.652767, -560.661907
 124.654434, -560.903407
 124.656101, -561.144906
 124.657767, -561.386406
 124.659434, -561.246120
 124.661101, -561.031412
 124.662767, -560.816704
 124.664434, -560.601997
 124.666101, -560.387289
 124.667767, -560.172582
 124.669434, -559.957874
 124.671101, -559.743166
 124.672767, -559.528459
 124.674434, -559.313751
 124.676101, -559.273951
 124.677767, -559.268245
 124.679434, -559.262539
 124.681101, -559.256833
 124.682767, -559.251128
 124.684434, -559.245422
 124.686101, -559.239716
 124.687767, -559.234010
 124.689434, -559.228305
 124.691101, -559.222599
 124.692767, -559.250299
 124.694434, -559.284511
 124.696101, -559.318724
 124.697767, -559.352936
 124.699434, -559.387148
 124.701101, -559.421360
 124.702767, -559.455572
 124.704434, -559.489784
 124.706101, -559.523997
 124.707767, -559.558209
 124.709434, -559.535887
 124.711101, -559.502544
 124.712767, -559.469202
 124.714434, -559.435859
 124.716101, -559.402517
 124.717767, -559.369175
 124.719434, -559.335832
 124.721101, -559.302490
 124.722767, -559.269147
 124.724434, -559.235805
 124.726101, -559.234897
 124.727767, -559.240311
 124.729434, -559.245725
 124.731101, -559.251139
 124.732767, -559.256553
 124.734434, -559.261967
 124.736101, -559.267381
 124.737767, -559.272795
 124.739434, -559.278209
 124.741101, -559.283623
 124.742767, -559.322531
 124.744434, -559.367968
 124.746101, -559.413405
 124.747767, -559.458842
 124.749434, -559.504279
 124.751101, -559.549716
 124.752767, -559.595153
 124.754434, -559.640590
 124.756101, -559.686028
 124.757767, -559.731465
 124.759434, -559.717683
 124.761101, -559.692358
 124.762767, -559.667033
 124.764434, -559.641708
 124.766101, -559.616382
 124.767767, -559.591057
 124.769434, -559.565732
 124.771101, -559.540407
 124.772767, -559.515082
 124.774434, -559.489757
 124.776101, -559.334760
 124.777767, -559.154485
 124.779434, -558.974211
 124.781101, -558.793937
 124.782767, -558.613663
 124.784434, -558.433389
 124.786101, -558.253115
 124.787767, -558.072841
 124.789434, -557.892566
 124.791101, -557.712292
 124.792767, -557.728350
 124.794434, -557.782678
 124.796101, -557.837006
 124.797767, -557.891334
 124.799434, -557.945663
 124.801101, -557.999991
 124.802767, -558.054319
 124.804434, -558.108647
 124.806101, -558.162976
 124.807767, -558.217304
 124.809434, -558.226426
 124.811101, -558.226736
 124.812767, -558.227046
 124.814434, -558.227356
 124.816101, -558.227666
 124.817767, -558.227976
 124.819434, -558.228286
 124.821101, -558.228597
 124.822767, -558.228907
 124.824434, -558.229217
 124.826101, -558.266181
 124.827767, -558.310291
 124.829434, -558.354401
 124.831101, -558.398510
 124.832767, -558.442620
 124.834434, -558.486730
 124.836101, -558.530839
 124.837767, -558.574949
 124.839434, -558.619059
 124.841101, -558.663168
 124.842767, -558.670886
 124.844434, -558.671510
 124.846101, -558.672135
 124.846511, -558.672288
 124.848178, -558.642215
 124.849844, -558.612142
 124.851511, -558.582069
 124.853178, -558.551996
 124.854844, -558.521923
 124.856511, -558.491850
 124.858178, -558.403626
 124.859844, -557.674221
 124.861511, -556.944817
 124.863178, -556.215412
 124.864844, -555.486007
 124.866511, -554.756603
 124.868178, -554.027198
 124.869844, -553.297793
 124.871511, -552.568388
 124.873178, -551.838984
 124.874844, -551.055069
 124.876511, -549.670120
 124.878178, -548.285171
 124.879844, -546.900221
 124.881511, -545.515272
 124.883178, -544.130323
 124.884844, -542.745374
 124.886511, -541.360424
 124.888178, -539.975475
 124.889844, -538.590526
 124.891511, -537.268627
 124.893178, -536.641935
 124.894844, -536.015243
 124.896511, -535.388552
 124.898178, -534.761860
 124.899844, -534.135168
 124.901134, -533.650343
 124.902801, -532.263982
 124.904467, -530.877621
 124.906134, -529.491260
 124.907801, -528.104899
 124.909467, -514.959215
 124.911134, -500.130236
 124.912801, -485.301256
 124.914467, -470.472277
 124.916134, -455.643298
 124.917801, -440.814319
 124.919467, -425.985339
 124.921134, -411.156360
 124.922801, -396.327381
 124.924467, -381.498402
 124.926134, -363.801939
 124.927801, -345.695008
 124.929467, -327.588077
 124.931134, -309.481147
 124.932801, -291.374216
 124.934467, -273.267285
 124.936134, -255.160354
 124.937801, -237.053424
 124.939467, -218.946493
 124.941134, -200.839562
 124.942801, -189.302578
 124.944467, -178.706053
 124.946134, -168.109528
 124.947801, -157.513003
 124.949467, -146.916477
 124.951134, -136.319952
 124.952801, -125.723427
 124.954467, -115.126902
 124.956134, -104.530376
 124.957801,  -93.933851
 124.959467,  -59.447975
 124.961134,  -21.542444
 124.962081,    0.000000
 124.963748,    0.000000
 124.965414,    0.000000
 124.967081,    0.000000
 124.968748,    0.000000
 124.970414,    0.000000
 124.972081,    0.000000
 124.973748,    0.000000
 124.975414,    0.000000
 124.977081,    0.000000
 124.978748,    0.000000
 124.980414,    0.000000
 124.982081,    0.000000
 124.983748,    0.000000
 124.985414,    0.000000
 124.987081,    0.000000
 124.988748,    0.000000
 124.990414,    0.000000
 124.992081,    0.000000
 124.993748,    0.000000
 124.995414,    0.000000
 124.997081,    0.000000
 124.998748,    0.000000
 125.000414,    0.000000
 125.002081,    0.000000
 125.003748,    0.000000
 125.005414,    0.000000
 125.007081,    0.000000
 125.008748,    0.000000
 125.010414,    0.000000
 125.012081,    0.000000
 125.013748,    0.000000
 125.015414,    0.000000
 125.017081,    0.000000
 125.018748,    0.000000
 125.020414,    0.000000
 125.022081,    0.000000
 125.023748,    0.000000
 125.025414,    0.000000
 125.027081,    0.000000
 125.028748,    0.000000
 125.030414,    0.000000
 125.032081,    0.000000
 125.033748,    0.000000
 125.035414,    0.000000
 125.037081,    0.000000
 125.038748,    0.000000
 125.040414,    0.000000
 125.042081,    0.000000
 125.043748,    0.000000
 125.045414,    0.000000
 125.047081,    0.000000
 125.048748,    0.000000
 125.050414,    0.000000
 125.052081,    0.000000
 125.053748,    0.000000
 125.055414,    0.000000
 125.057081,    0.000000
 125.058748,    0.000000
 125.060414,    0.000000
 125.062081,    0.000000
 125.063748,    0.000000
 125.065414,    0.000000
 125.067081,    0.000000
 125.068748,    0.000000
 125.070414,    0.000000
 125.072081,    0.000000
 125.073748,    0.000000
 125.075414,    0.000000
 125.077081,    0.000000
 125.078748,    0.000000
 125.080414,    0.000000
 125.082081,    0.000000
 125.083748,    0.000000
 125.085414,    0.000000
 125.087081,    0.000000
 125.088748,    0.000000
 125.090414,    0.000000
 125.092081,    0.000000
 125.093748,    0.000000
 125.095414,    0.000000
 125.097081,    0.000000
 125.098748,    0.000000
 125.100414,    0.000000
 125.102081,    0.000000
 125.103748,    0.000000
 125.105414,    0.000000
 125.107081,    0.000000
 125.108748,    0.000000
 125.110414,    0.000000
 125.112081,    0.000000
 125.113748,    0.000000
 125.115414,    0.000000
 125.117081,    0.000000
 125.118748,    0.000000
 125.120414,    0.000000
 125.122081,    0.000000
 125.123748,    0.000000
 125.125414,    0.000000
 125.127081,    0.000000
 125.128748,    0.000000
 125.130414,    0.000000
 125.132081,    0.000000
 125.133748,    0.000000
 125.135414,    0.000000
 125.137081,    0.000000
 125.138748,    0.000000
 125.140414,    0.000000
 125.142081,    0.000000
 125.143748,    0.000000
 125.145414,    0.000000
 125.147081,    0.000000
 125.148748,    0.000000
 125.150414,    0.000000
 125.152081,    0.000000
 125.153748,    0.000000
 125.155414,    0.000000
 125.157081,    0.000000
 125.158748,    0.000000
 125.160050,    0.000000
